Timestamp,Channel1,Channel2,Channel3,Channel4,Channel5,Channel6,Channel7,Channel8
1764767214.616946,-10058.67,-17251.38,-3596.58,-13312.08,-43379.955,-40434.795,-34053.84,-13274.325
1764767214.616946,-10058.49,-17252.73,-3598.38,-13314.555,-43381.035,-40437.135,-34054.38,-13274.19
1764767214.616946,-10058.04,-17250.704999999998,-3595.905,-13312.755,-43379.055,-40435.695,-34053.39,-13273.74
1764767214.616946,-10064.43,-17257.68,-3603.51,-13321.305,-43384.995,-40439.79,-34057.395,-13280.04
1764767214.616946,-10066.77,-17260.739999999998,-3605.985,-13322.565,-43385.85,-40440.6,-34058.79,-13281.84
1764767214.616946,-10066.005,-17258.22,-3603.915,-13322.025,-43387.065,-40442.58,-34059.915,-13281.795
1764767214.616946,-10068.435,-17260.335,-3606.48,-13324.995,-43389.27,-40444.83,-34063.83,-13283.775
1764767214.616946,-10075.815,-17268.3,-3615.165,-13333.905,-43396.515,-40451.49,-34071.165,-13291.065
1764767214.616946,-10077.255,-17270.37,-3617.28,-13335.39,-43397.55,-40452.48,-34071.57,-13291.2
1764767214.616946,-10074.825,-17268.704999999998,-3614.715,-13332.915,-43395.57,-40450.005,-34069.32,-13289.895
1764767214.616946,-10067.715,-17261.55,-3607.605,-13325.895,-43388.685,-40443.705,-34065.135,-13284.99
1764767214.616946,-10070.19,-17264.655,-3612.375,-13330.62,-43393.59,-40447.485,-34067.744999999995,-13286.79
1764767214.616946,-10063.935,-17258.175,-3604.365,-13320.315,-43381.305,-40436.19,-34061.13,-13282.155
1764767214.616946,-10070.505,-17263.53,-3607.965,-13322.52,-43381.98,-40436.415,-34062.345,-13286.745
1764767214.616946,-10074.33,-17268.48,-3614.985,-13332.195,-43393.815,-40448.025,-34071.615,-13290.93
1764767214.616946,-10070.55,-17263.934999999998,-3610.665,-13327.92,-43389.45,-40443.345,-34069.365,-13287.465
1764767214.616946,-10064.88,-17259.03,-3606.57,-13323.825,-43384.32,-40437.72,-34061.94,-13280.67
1764767214.616946,-10069.47,-17264.114999999998,-3611.385,-13328.955,-43387.155,-40439.745,-34065.675,-13285.665
1764767214.616946,-10067.535,-17261.73,-3608.235,-13325.715,-43384.455,-40436.64,-34062.84,-13283.955
1764767214.616946,-10073.97,-17267.13,-3613.41,-13331.79,-43390.44,-40443.48,-34069.994999999995,-13290.795
1764767214.616946,-10074.78,-17268.03,-3613.815,-13332.06,-43390.62,-40442.895,-34070.13,-13290.03
1764767214.616946,-10068.21,-17264.204999999998,-3611.385,-13329.405,-43388.1,-40439.115,-34065.36,-13284.18
1764767214.6624858,-10062.675,-17257.905,-3603.6,-13321.755,-43380.855,-40430.34,-34058.115,-13279.95
1764767214.6624858,-10064.52,-17259.03,-3604.635,-13321.98,-43381.845,-40432.59,-34060.59,-13281.345
1764767214.6624858,-10068.885,-17263.17,-3608.955,-13325.04,-43382.565,-40433.265,-34060.5,-13283.145
1764767214.6624858,-10075.23,-17266.59,-3611.52,-13327.605,-43386.255,-40438.485,-34068.96,-13291.695
1764767214.6624858,-10072.935,-17266.635,-3612.42,-13328.28,-43388.28,-40440.87,-34070.895,-13291.38
1764767214.6624858,-10073.07,-17266.32,-3611.205,-13326.975,-43387.74,-40440.15,-34070.895,-13289.715
1764767214.6624858,-10067.13,-17260.02,-3604.545,-13319.91,-43380.315,-40430.925,-34064.505,-13283.145
1764767214.6624858,-10069.56,-17262.72,-3607.695,-13323.555,-43384.545,-40434.12,-34065.63,-13285.26
1764767214.6634924,-10070.145,-17262.945,-3607.695,-13323.105,-43384.545,-40435.065,-34066.035,-13285.44
1764767214.6634924,-10063.35,-17256.149999999998,-3601.62,-13316.13,-43377.39,-40427.82,-34060.59,-13279.95
1764767214.6634924,-10062.54,-17254.44,-3599.73,-13314.33,-43376.49,-40426.92,-34058.565,-13278.015
1764767214.6634924,-10065.33,-17257.364999999998,-3601.89,-13317.39,-43380.315,-40431.69,-34061.85,-13280.355
1764767214.6634924,-10070.73,-17261.505,-3605.895,-13321.215,-43385.13,-40437.315,-34068.42,-13285.485
1764767214.6634924,-10070.46,-17262.09,-3608.415,-13324.59,-43386.525,-40436.73,-34068.96,-13286.475
1764767214.6634924,-10071.27,-17264.295,-3610.935,-13327.74,-43388.415,-40439.7,-34066.08,-13286.565
1764767214.6634924,-10075.635,-17267.13,-3612.555,-13329.405,-43389.63,-40441.095,-34067.835,-13289.175
1764767214.6634924,-10076.22,-17265.105,-3609.315,-13325.985,-43387.245,-40441.5,-34070.895,-13291.605
1764767214.6634924,-10069.83,-17262.09,-3607.92,-13325.805,-43385.49,-40439.61,-34067.61,-13285.395
1764767214.6644912,-10067.76,-17258.445,-3603.105,-13320.945,-43379.73,-40433.715,-34062.57,-13283.415
1764767214.6644912,-10061.235,-17250.84,-3595.05,-13311.855,-43371.225,-40427.325,-34056.63,-13278.96
1764767214.6644912,-10051.965,-17245.934999999998,-3591.855,-13309.11,-43368.975,-40423.455,-34048.305,-13267.62
1764767214.6644912,-10050.39,-17249.13,-3596.94,-13314.285,-43373.97,-40426.515,-34050.78,-13267.98
1764767214.6644912,-10056.51,-17246.88,-3590.505,-13307.355,-43365.915,-40420.53,-34049.88,-13273.965
1764767214.6644912,-10059.21,-17249.489999999998,-3592.53,-13309.065,-43367.22,-40422.915,-34051.77,-13274.595
1764767214.7101612,-10062.765,-17257.095,-3602.16,-13320.855,-43379.64,-40435.335,-34060.185,-13278.42
1764767214.7101612,-10063.125,-17256.6,-3601.53,-13320.54,-43378.605,-40434.615,-34061.67,-13279.86
1764767214.7101612,-10057.5,-17250.614999999998,-3594.645,-13313.25,-43369.92,-40425.39,-34051.815,-13272.66
1764767214.7101612,-10049.49,-17244.135,-3591.855,-13312.755,-43372.665,-40429.17,-34049.61,-13264.92
1764767214.7101612,-10049.67,-17243.325,-3589.74,-13308.885,-43366.095,-40425.48,-34048.755,-13265.415
1764767214.7101612,-10052.64,-17245.845,-3590.505,-13308.615,-43363.215,-40422.105,-34048.44,-13267.755
1764767214.7101612,-10056.33,-17249.175,-3594.195,-13313.79,-43369.245,-40427.01,-34052.715,-13271.625
1764767214.7101612,-10062.0,-17253.18,-3598.695,-13318.695,-43374.96,-40434.345,-34061.445,-13278.33
1764767214.7101612,-10060.065,-17252.37,-3597.93,-13318.245,-43373.43,-40432.68,-34058.52,-13275.945
1764767214.7101612,-10057.275,-17250.255,-3595.59,-13317.03,-43372.35,-40431.24,-34055.415,-13272.48
1764767214.7101612,-10059.345,-17252.235,-3596.895,-13318.47,-43374.375,-40433.04,-34058.43,-13274.955
1764767214.7101612,-10056.195,-17248.41,-3593.385,-13314.33,-43369.83,-40428.36,-34053.93,-13271.22
1764767214.7101612,-10063.305,-17255.204999999998,-3599.82,-13320.135,-43375.95,-40434.48,-34058.88,-13277.295
1764767214.7101612,-10062.405,-17253.72,-3598.92,-13318.605,-43374.465,-40433.67,-34057.665,-13275.81
1764767214.7101612,-10068.345,-17259.84,-3604.68,-13324.905,-43381.89,-40440.915,-34063.29,-13280.715
1764767214.7101612,-10060.56,-17252.46,-3597.975,-13318.605,-43374.915,-40434.165,-34056.494999999995,-13274.64
1764767214.7101612,-10053.9,-17247.465,-3592.89,-13312.665,-43369.29,-40428.765,-34051.545,-13270.095
1764767214.7101612,-10056.555,-17249.94,-3594.555,-13313.43,-43370.145,-40429.44,-34054.155,-13272.615
1764767214.7101612,-10060.515,-17253.809999999998,-3598.245,-13318.2,-43373.97,-40433.805,-34058.43,-13276.305
1764767214.7101612,-10062.405,-17256.735,-3600.855,-13319.505,-43374.78,-40434.435,-34060.455,-13278.15
1764767214.7101612,-10060.65,-17253.495,-3596.355,-13313.88,-43369.29,-40429.575,-34058.52,-13276.665
1764767214.7101612,-10054.305,-17249.355,-3593.52,-13312.305,-43368.435,-40427.73,-34054.155,-13271.04
1764767214.7101612,-10054.935,-17250.93,-3595.095,-13313.07,-43369.2,-40428.045,-34055.145,-13272.93
1764767214.7101612,-10047.015,-17241.704999999998,-3585.33,-13302.405,-43359.39,-40418.28,-34047.72,-13265.145
1764767214.7581654,-10046.07,-17239.905,-3582.765,-13299.255,-43356.6,-40414.905,-34046.1,-13264.11
1764767214.7581654,-10050.21,-17243.595,-3587.175,-13301.865,-43358.355,-40416.075,-34049.025,-13268.565
1764767214.7581654,-10045.215,-17240.355,-3584.43,-13298.805,-43355.34,-40411.755,-34043.805,-13263.03
1764767214.7581654,-10050.705,-17246.565,-3591.27,-13304.97,-43361.145,-40418.145,-34049.655,-13268.16
1764767214.7581654,-10044.54,-17238.51,-3583.62,-13297.725,-43355.52,-40413.42,-34048.305,-13264.29
1764767214.7581654,-10043.865,-17237.655,-3582.72,-13296.42,-43352.775,-40410.045,-34046.325,-13262.625
1764767214.7581654,-10045.125,-17235.63,-3578.535,-13292.145,-43349.715,-40408.875,-34047.135,-13263.525
1764767214.7581654,-10051.38,-17244.315,-3588.255,-13302.045,-43359.525,-40417.02,-34052.355,-13268.88
1764767214.7581654,-10051.74,-17244.45,-3588.525,-13302.18,-43360.2,-40417.74,-34053.615,-13268.565
1764767214.7581654,-10048.545,-17241.39,-3584.835,-13297.77,-43353.72,-40409.37,-34047.405,-13263.57
1764767214.7581654,-10050.66,-17244.72,-3588.705,-13301.055,-43358.265,-40412.385,-34047.135,-13265.73
1764767214.7581654,-10039.185,-17234.46,-3579.93,-13294.17,-43353.45,-40409.415,-34041.465,-13257.765
1764767214.7581654,-10041.03,-17236.079999999998,-3580.56,-13295.25,-43354.215,-40410.405,-34041.96,-13258.305
1764767214.7581654,-10054.395,-17248.095,-3590.595,-13304.655,-43362.54,-40418.37,-34052.265,-13270.455
1764767214.7581654,-10055.7,-17251.785,-3595.995,-13310.28,-43367.535,-40420.35,-34052.04,-13270.05
1764767214.7581654,-10055.43,-17246.52,-3589.92,-13303.89,-43363.125,-40416.975,-34051.23,-13269.375
1764767214.7581654,-10045.35,-17238.42,-3584.34,-13301.415,-43362.54,-40417.2,-34048.215,-13260.69
1764767214.7581654,-10045.98,-17238.825,-3583.8,-13299.705,-43359.48,-40417.74,-34052.13,-13263.57
1764767214.7581654,-10048.5,-17237.97,-3580.965,-13294.215,-43351.29,-40409.055,-34045.155,-13262.94
1764767214.7581654,-10050.03,-17243.19,-3588.39,-13303.305,-43360.38,-40415.715,-34046.46,-13263.03
1764767214.7581654,-10050.975,-17240.94,-3584.655,-13299.345,-43357.14,-40414.59,-34045.92,-13262.895
1764767214.7581654,-10045.845,-17236.665,-3581.64,-13296.6,-43354.575,-40411.845,-34043.895,-13260.195
1764767214.8035378,-10044.405,-17234.954999999998,-3580.515,-13295.925,-43353.675,-40410.495,-34043.355,-13259.205
1764767214.804046,-10054.35,-17245.62,-3590.28,-13305.465,-43362.72,-40419.945,-34051.86,-13267.395
1764767214.804046,-10058.535,-17250.21,-3595.005,-13310.91,-43367.85,-40425.03,-34055.505,-13270.815
1764767214.804046,-10058.31,-17248.905,-3594.105,-13311.18,-43366.68,-40423.815,-34054.47,-13270.545
1764767214.804046,-10055.565,-17246.655,-3592.62,-13310.235,-43364.925,-40422.285,-34051.725,-13266.945
1764767214.804046,-10053.18,-17244.765,-3591.405,-13309.92,-43365.6,-40423.095,-34052.085,-13266.27
1764767214.804046,-10050.075,-17242.38,-3588.615,-13307.49,-43363.08,-40420.845,-34049.52,-13264.245
1764767214.804046,-10045.17,-17238.059999999998,-3583.665,-13302.54,-43357.86,-40415.535,-34043.85,-13258.575
1764767214.804046,-10047.96,-17241.255,-3586.68,-13306.455,-43361.64,-40420.485,-34046.46,-13262.13
1764767214.804046,-10046.79,-17240.895,-3586.68,-13306.275,-43361.415,-40420.44,-34045.38,-13261.635
1764767214.804046,-10045.125,-17239.23,-3584.88,-13305.015,-43358.94,-40418.505,-34043.76,-13260.105
1764767214.804046,-10055.16,-17248.995,-3595.5,-13316.31,-43370.01,-40428.765,-34053.705,-13269.645
1764767214.804046,-10056.105,-17250.704999999998,-3597.84,-13319.1,-43372.35,-40430.745,-34055.55,-13271.355
1764767214.804046,-10054.26,-17248.184999999998,-3594.915,-13317.075,-43369.29,-40428.36,-34053.345,-13269.555
1764767214.804046,-10053.54,-17247.6,-3594.33,-13317.705,-43369.38,-40428.63,-34051.77,-13267.89
1764767214.804046,-10052.1,-17246.34,-3593.655,-13317.75,-43369.155,-40429.44,-34051.455,-13267.665
1764767214.804046,-10044.225,-17239.725,-3588.165,-13312.08,-43361.91,-40422.96,-34045.29,-13261.005
1764767214.804046,-10048.995,-17242.695,-3591.225,-13315.41,-43366.05,-40427.055,-34048.619999999995,-13266.54
1764767214.804046,-10050.255,-17241.614999999998,-3588.165,-13313.7,-43362.765,-40424.22,-34048.44,-13267.98
1764767214.804046,-10043.01,-17238.78,-3587.04,-13312.485,-43360.965,-40419.9,-34041.78,-13259.655
1764767214.804551,-10039.545,-17237.295,-3588.3,-13314.6,-43363.665,-40423.095,-34040.295,-13254.705
1764767214.804551,-10047.06,-17240.985,-3589.74,-13315.14,-43365.645,-40427.595,-34046.055,-13262.4
1764767214.804551,-10047.24,-17242.829999999998,-3591.54,-13316.715,-43366.59,-40427.91,-34046.325,-13262.535
1764767214.804551,-10042.38,-17236.35,-3585.06,-13309.965,-43358.76,-40418.955,-34041.015,-13259.52
1764767214.8489904,-10045.44,-17239.095,-3586.86,-13312.62,-43362.18,-40423.14,-34044.03,-13262.04
1764767214.8489904,-10040.805,-17235.989999999998,-3584.295,-13309.785,-43358.085,-40419.18,-34038.315,-13256.64
1764767214.8504283,-10036.485,-17231.085,-3581.505,-13308.21,-43358.445,-40420.485,-34038.72,-13252.5
1764767214.8504283,-10038.87,-17232.75,-3583.215,-13309.65,-43360.245,-40421.655,-34038.315,-13252.23
1764767214.8504283,-10039.77,-17236.305,-3587.67,-13314.375,-43364.07,-40425.39,-34038.99,-13253.805
1764767214.8504283,-10037.7,-17232.345,-3582.405,-13307.355,-43355.745,-40417.875,-34034.49,-13253.85
1764767214.8504283,-10038.735,-17231.22,-3580.605,-13304.745,-43354.665,-40417.02,-34035.975,-13253.49
1764767214.8504283,-10039.05,-17233.155,-3583.845,-13309.2,-43360.02,-40420.98,-34039.89,-13256.01
1764767214.8504283,-10042.02,-17236.079999999998,-3586.635,-13311.27,-43360.83,-40420.845,-34038.72,-13257.27
1764767214.8513424,-10037.43,-17233.245,-3586.095,-13309.92,-43361.145,-40421.34,-34039.08,-13252.455
1764767214.8513424,-10037.52,-17234.28,-3586.77,-13310.1,-43360.47,-40420.215,-34038.54,-13252.41
1764767214.8513424,-10044.315,-17238.285,-3590.1,-13314.105,-43366.545,-40425.84,-34043.805,-13258.62
1764767214.8513424,-10041.255,-17234.37,-3584.52,-13306.59,-43359.48,-40420.08,-34040.835,-13256.28
1764767214.8513424,-10038.915,-17230.725,-3579.165,-13298.355,-43351.245,-40412.88,-34037.369999999995,-13254.66
1764767214.8513424,-10033.83,-17230.184999999998,-3581.37,-13302.405,-43356.555,-40417.29,-34037.64,-13251.6
1764767214.8513424,-10037.88,-17231.445,-3581.505,-13302.18,-43357.59,-40417.47,-34035.66,-13253.265
1764767214.8513424,-10042.695,-17234.415,-3581.955,-13301.46,-43358.49,-40419.99,-34039.71,-13256.775
1764767214.8513424,-10052.01,-17246.024999999998,-3593.43,-13311.765,-43367.805,-40427.145,-34051.59,-13268.295
1764767214.8513424,-10058.355,-17249.895,-3596.49,-13314.915,-43372.305,-40431.78,-34053.705,-13272.57
1764767214.8513424,-10055.565,-17249.04,-3595.815,-13313.88,-43372.125,-40431.42,-34051.545,-13269.465
1764767214.8513424,-10047.42,-17241.03,-3588.345,-13305.375,-43364.61,-40424.355,-34046.01,-13261.95
1764767214.8513424,-10051.155,-17244.855,-3591.45,-13307.895,-43368.255,-40427.28,-34049.43,-13264.65
1764767214.8976183,-10047.87,-17241.3,-3587.22,-13301.775,-43363.395,-40421.7,-34046.369999999995,-13261.14
1764767214.8976183,-10046.115,-17239.454999999998,-3584.34,-13298.31,-43361.37,-40419.99,-34044.885,-13259.25
1764767214.8976183,-10045.98,-17240.85,-3586.05,-13300.47,-43363.44,-40420.395,-34044.03,-13258.305
1764767214.8976183,-10045.08,-17238.015,-3581.595,-13295.34,-43358.67,-40415.94,-34041.915,-13259.52
1764767214.8976183,-10049.805,-17243.325,-3585.6,-13298.715,-43362.99,-40421.43,-34048.89,-13264.74
1764767214.8976183,-10053.855,-17247.42,-3588.84,-13299.705,-43366.545,-40424.67,-34054.29,-13267.8
1764767214.8976183,-10052.28,-17244.585,-3584.97,-13293.405,-43360.155,-40418.055,-34052.355,-13267.485
1764767214.8976183,-10053.81,-17248.005,-3588.48,-13297.14,-43365.735,-40421.205,-34051.275,-13267.305
1764767214.8976183,-10057.41,-17252.19,-3592.89,-13301.865,-43372.89,-40428.675,-34057.17,-13272.975
1764767214.8976183,-10057.59,-17251.649999999998,-3591.54,-13299.21,-43370.28,-40427.19,-34058.61,-13273.605
1764767214.8976183,-10057.995,-17252.774999999998,-3590.82,-13297.905,-43368.255,-40423.905,-34056.855,-13272.93
1764767214.8976183,-10054.215,-17249.22,-3586.725,-13293.36,-43364.16,-40419.99,-34054.065,-13269.915
1764767214.8976183,-10047.285,-17242.605,-3580.02,-13286.655,-43360.02,-40416.39,-34049.43,-13264.2
1764767214.8976183,-10048.815,-17244.989999999998,-3582.135,-13288.59,-43362.27,-40418.145,-34052.31,-13265.37
1764767214.8976183,-10049.67,-17246.655,-3583.44,-13289.22,-43360.74,-40413.51,-34048.89,-13264.29
1764767214.8976183,-10052.64,-17248.364999999998,-3584.385,-13289.265,-43361.325,-40413.78,-34050.375,-13267.665
1764767214.8976183,-10054.26,-17248.815,-3584.835,-13289.94,-43361.595,-40415.265,-34053.165,-13270.905
1764767214.8976183,-10063.485,-17256.015,-3590.46,-13296.24,-43368.75,-40422.915,-34063.065,-13280.85
1764767214.8976183,-10065.78,-17258.94,-3593.43,-13298.265,-43370.415,-40423.635,-34062.48,-13281.21
1764767214.8976183,-10055.97,-17250.704999999998,-3587.625,-13293.18,-43367.13,-40421.61,-34056.54,-13271.22
1764767214.8976183,-10051.65,-17246.655,-3584.25,-13289.085,-43361.64,-40417.11,-34052.985,-13270.095
1764767214.8976183,-10052.19,-17247.645,-3586.455,-13292.505,-43364.745,-40418.775,-34054.515,-13270.365
1764767214.9420147,-10057.68,-17252.415,-3591.09,-13297.68,-43369.965,-40423.95,-34058.7,-13274.82
1764767214.9420147,-10058.13,-17252.37,-3591.54,-13298.22,-43369.92,-40424.445,-34058.565,-13274.73
1764767214.9420147,-10054.62,-17249.715,-3588.255,-13295.88,-43366.77,-40422.24,-34055.28,-13270.995
1764767214.9420147,-10059.12,-17254.26,-3593.43,-13302.54,-43373.79,-40429.62,-34059.78,-13274.91
1764767214.9420147,-10065.15,-17260.695,-3600.855,-13310.415,-43380.54,-40435.695,-34064.865,-13280.805
1764767214.9420147,-10062.405,-17255.88,-3595.59,-13305.24,-43372.575,-40428.27,-34061.04,-13278.465
1764767214.9420147,-10068.48,-17264.25,-3605.265,-13318.02,-43386.03,-40441.005,-34068.555,-13284.63
1764767214.9420147,-10069.335,-17265.42,-3607.155,-13320.54,-43388.82,-40443.525,-34068.24,-13284.18
1764767214.9420147,-10064.115,-17257.32,-3596.58,-13308.84,-43376.76,-40433.265,-34062.57,-13279.77
1764767214.9420147,-10060.29,-17253.72,-3593.16,-13308.165,-43375.77,-40432.005,-34059.96,-13275.72
1764767214.9420147,-10057.41,-17250.795,-3591.765,-13307.67,-43374.42,-40431.105,-34057.17,-13272.39
1764767214.9420147,-10057.815,-17252.505,-3594.15,-13311.54,-43377.885,-40434.615,-34056.315,-13271.985
1764767214.9420147,-10058.985,-17254.395,-3597.03,-13316.49,-43382.745,-40439.205,-34058.52,-13275.405
1764767214.9420147,-10064.16,-17259.12,-3602.025,-13322.925,-43387.74,-40444.83,-34064.46,-13282.56
1764767214.9420147,-10063.845,-17258.94,-3602.655,-13325.22,-43388.595,-40445.19,-34064.91,-13282.02
1764767214.9420147,-10055.655,-17249.175,-3592.575,-13315.95,-43379.865,-40437.18,-34056.765,-13273.695
1764767214.9420147,-10046.385,-17244.54,-3589.785,-13315.995,-43379.955,-40437.045,-34055.73,-13265.865
1764767214.9420147,-10056.78,-17253.09,-3597.03,-13324.23,-43386.03,-40443.345,-34057.125,-13273.92
1764767214.9432127,-10062.135,-17256.96,-3600.63,-13329.9,-43391.88,-40448.475,-34057.08,-13276.98
1764767214.9432127,-10052.73,-17249.805,-3595.815,-13326.345,-43387.875,-40444.38,-34052.445,-13269.6
1764767214.9432127,-10052.91,-17247.645,-3593.565,-13325.535,-43386.795,-40444.965,-34053.03,-13271.085
1764767214.9432127,-10053.045,-17248.14,-3593.79,-13327.065,-43387.83,-40446.54,-34054.02,-13272.12
1764767214.9432127,-10053.72,-17249.76,-3595.455,-13329.945,-43389.855,-40448.88,-34055.82,-13272.57
1764767214.9432127,-10058.58,-17254.934999999998,-3602.745,-13340.07,-43399.17,-40457.16,-34058.744999999995,-13276.08
1764767214.9918394,-10056.195,-17252.864999999998,-3600.63,-13340.115,-43398.495,-40457.97,-34057.53,-13274.505
1764767214.9918394,-10058.355,-17255.475,-3604.32,-13344.3,-43400.88,-40458.645,-34057.8,-13275.315
1764767214.9918394,-10063.89,-17258.94,-3608.145,-13348.755,-43406.19,-40464.63,-34062.48,-13281.255
1764767214.9918394,-10062.09,-17257.095,-3606.705,-13348.53,-43405.965,-40464.945,-34061.31,-13279.455
1764767214.9918394,-10058.67,-17254.17,-3603.645,-13346.055,-43403.985,-40462.38,-34058.205,-13276.215
1764767214.9918394,-10058.895,-17255.34,-3605.94,-13347.855,-43405.29,-40463.01,-34057.305,-13275.495
1764767214.9928348,-10058.715,-17257.005,-3608.955,-13351.905,-43409.025,-40466.79,-34057.08,-13274.28
1764767214.9928348,-10054.26,-17250.66,-3601.935,-13346.595,-43404.525,-40463.82,-34056.225,-13271.76
1764767214.9928348,-10053.18,-17248.77,-3599.145,-13343.085,-43399.755,-40457.655,-34051.725,-13268.79
1764767214.9928348,-10053.855,-17250.614999999998,-3601.845,-13346.775,-43402.86,-40460.895,-34051.815,-13269.78
1764767214.9928348,-10049.04,-17246.07,-3599.595,-13345.875,-43402.455,-40461.525,-34050.465,-13267.98
1764767214.9928348,-10050.12,-17246.34,-3600.855,-13347.63,-43404.03,-40462.56,-34051.545,-13269.06
1764767214.9928348,-10051.065,-17246.835,-3601.98,-13348.89,-43405.83,-40464.045,-34052.715,-13269.78
1764767214.9928348,-10053.585,-17249.715,-3604.14,-13349.88,-43404.66,-40462.965,-34051.5,-13270.32
1764767214.9928348,-10051.965,-17248.32,-3602.34,-13350.105,-43406.19,-40464.855,-34051.86,-13268.835
1764767214.9928348,-10049.625,-17248.815,-3603.375,-13352.445,-43408.665,-40468.32,-34052.355,-13268.43
1764767214.9928348,-10056.645,-17253.315,-3606.795,-13355.73,-43410.375,-40469.895,-34055.865,-13275.405
1764767214.9940193,-10050.12,-17244.09,-3598.065,-13346.505,-43401.06,-40462.335,-34051.005,-13270.545
1764767214.9940193,-10052.37,-17246.43,-3601.395,-13350.015,-43404.48,-40466.25,-34050.24,-13270.77
1764767214.9940193,-10059.435,-17258.67,-3616.155,-13368.42,-43423.785,-40483.08,-34059.42,-13276.53
1764767214.9940193,-10056.24,-17255.295,-3612.915,-13366.8,-43420.95,-40480.065,-34055.73,-13272.255
1764767214.9940193,-10056.015,-17252.864999999998,-3609.09,-13362.885,-43416.18,-40478.355,-34057.08,-13273.47
1764767214.9940193,-10062.405,-17258.94,-3616.695,-13371.84,-43425.045,-40485.78,-34060.905,-13279.77
1764767214.9940193,-10055.925,-17252.82,-3611.52,-13368.15,-43421.355,-40483.08,-34056.0,-13274.19
1764767215.0389788,-10053.09,-17250.345,-3609.405,-13367.52,-43420.995,-40482.945,-34052.985,-13271.58
1764767215.0389788,-10052.595,-17249.85,-3609.81,-13369.23,-43423.47,-40485.015,-34052.31,-13271.13
1764767215.0389788,-10051.29,-17248.59,-3609.765,-13370.58,-43425.54,-40486.68,-34050.78,-13269.195
1764767215.0389788,-10049.58,-17247.285,-3609.09,-13371.57,-43426.485,-40487.31,-34048.755,-13268.115
1764767215.0389788,-10047.735,-17246.565,-3609.495,-13374.045,-43430.31,-40490.775,-34047.945,-13267.305
1764767215.0389788,-10056.69,-17256.42,-3620.34,-13387.005,-43445.205,-40505.13,-34057.305,-13275.09
1764767215.0389788,-10055.745,-17253.63,-3618.45,-13387.455,-43448.13,-40507.785,-34056.18,-13272.615
1764767215.0389788,-10047.78,-17246.79,-3612.465,-13384.215,-43445.79,-40504.455,-34047.0,-13264.02
1764767215.0394838,-10051.245,-17250.39,-3615.885,-13390.11,-43452.99,-40509.855,-34048.17,-13268.7
1764767215.0394838,-10042.335,-17240.309999999998,-3607.56,-13384.8,-43449.93,-40506.57,-34043.265,-13263.705
1764767215.0394838,-10040.22,-17238.87,-3607.74,-13387.14,-43455.555,-40511.43,-34041.15,-13260.24
1764767215.0394838,-10042.47,-17245.575,-3615.48,-13398.435,-43468.965,-40523.13,-34047.135,-13262.805
1764767215.0394838,-10040.805,-17237.204999999998,-3604.905,-13390.38,-43463.43,-40518.675,-34043.04,-13262.175
1764767215.0394838,-10041.84,-17238.78,-3607.2,-13392.54,-43468.65,-40521.555,-34041.915,-13262.94
1764767215.0394838,-10040.49,-17237.655,-3608.055,-13395.69,-43474.635,-40524.615,-34035.615,-13257.045
1764767215.0394838,-10041.3,-17241.12,-3612.78,-13401.99,-43481.835,-40530.87,-34037.685,-13257.0
1764767215.0394838,-10043.955,-17241.48,-3612.915,-13404.69,-43488.405,-40538.52,-34042.59,-13260.465
1764767215.0394838,-10038.69,-17236.8,-3609.315,-13401.72,-43484.535,-40532.94,-34035.119999999995,-13255.29
1764767215.0394838,-10041.39,-17239.77,-3614.22,-13410.135,-43494.57,-40541.13,-34039.215,-13258.17
1764767215.0394838,-10035.9,-17233.38,-3608.46,-13406.94,-43492.005,-40539.87,-34037.73,-13253.04
1764767215.0394838,-10032.39,-17230.32,-3607.065,-13406.49,-43491.42,-40538.79,-34033.455,-13249.26
1764767215.0394838,-10031.49,-17228.565,-3606.39,-13405.905,-43489.62,-40537.89,-34032.69,-13248.495
1764767215.0394838,-10036.98,-17233.92,-3612.465,-13411.26,-43493.04,-40539.6,-34030.53,-13251.645
1764767215.0394838,-10041.345,-17240.489999999998,-3621.195,-13423.365,-43506.45,-40552.965,-34037.28,-13256.28
1764767215.0827663,-10037.205,-17236.305,-3618.675,-13421.79,-43505.505,-40551.705,-34034.445,-13251.735
1764767215.0827663,-10038.195,-17236.17,-3619.305,-13423.635,-43507.125,-40552.56,-34034.31,-13252.68
1764767215.0827663,-10039.905,-17237.97,-3622.23,-13427.775,-43510.635,-40557.195,-34036.155,-13254.705
1764767215.0827663,-10036.17,-17233.38,-3619.395,-13425.84,-43508.025,-40554.585,-34033.32,-13251.825
1764767215.0827663,-10042.695,-17240.175,-3627.09,-13434.84,-43515.405,-40561.92,-34036.65,-13258.26
1764767215.0827663,-10041.525,-17240.175,-3628.08,-13438.665,-43519.59,-40566.78,-34038.18,-13256.55
1764767215.0827663,-10034.505,-17233.155,-3622.095,-13434.345,-43515.63,-40563.315,-34033.005,-13249.98
1764767215.0827663,-10034.37,-17233.739999999998,-3623.445,-13436.28,-43517.025,-40564.845,-34030.89,-13249.17
1764767215.0827663,-10030.185,-17230.5,-3621.465,-13435.56,-43516.035,-40564.53,-34027.965,-13247.37
1764767215.083801,-10028.385,-17227.395,-3618.045,-13432.77,-43513.29,-40562.955,-34024.23,-13244.805
1764767215.083801,-10028.43,-17226.18,-3616.92,-13433.22,-43514.145,-40565.385,-34025.49,-13245.3
1764767215.083801,-10034.955,-17233.605,-3624.75,-13441.365,-43522.56,-40573.305,-34031.655,-13251.42
1764767215.083801,-10028.115,-17227.215,-3618.9,-13435.605,-43516.53,-40568.22,-34026.57,-13245.39
1764767215.083801,-10024.965,-17224.515,-3616.515,-13432.59,-43511.4,-40564.53,-34022.88,-13242.6
1764767215.083801,-10025.955,-17226.0,-3619.17,-13435.83,-43514.865,-40567.32,-34021.98,-13242.87
1764767215.083801,-10025.55,-17226.135,-3620.97,-13438.08,-43517.88,-40571.145,-34023.465,-13242.915
1764767215.084311,-10027.125,-17225.864999999998,-3620.295,-13436.37,-43515.36,-40571.1,-34024.68,-13245.345
1764767215.084311,-10035.0,-17234.19,-3629.655,-13445.19,-43523.73,-40578.885,-34031.744999999995,-13251.6
1764767215.084311,-10036.215,-17237.07,-3634.515,-13450.185,-43527.24,-40580.145,-34031.565,-13251.42
1764767215.084311,-10030.23,-17233.605,-3630.24,-13443.93,-43518.87,-40572.855,-34024.635,-13243.905
1764767215.084311,-10031.265,-17228.925,-3622.455,-13433.535,-43506.54,-40565.475,-34025.175,-13248.27
1764767215.084311,-10040.445,-17238.555,-3631.815,-13442.355,-43513.605,-40574.205,-34034.49,-13257.495
1764767215.133041,-10035.765,-17236.395,-3629.97,-13439.88,-43510.005,-40571.73,-34033.95,-13253.085
1764767215.133041,-10040.805,-17239.364999999998,-3632.22,-13440.06,-43508.52,-40571.865,-34036.38,-13257.63
1764767215.133041,-10039.86,-17238.735,-3632.94,-13440.06,-43508.25,-40571.37,-34034.49,-13256.1
1764767215.133041,-10031.04,-17231.309999999998,-3625.83,-13429.575,-43497.045,-40559.58,-34028.369999999995,-13249.62
1764767215.133041,-10032.3,-17231.355,-3623.85,-13425.3,-43492.995,-40555.665,-34027.965,-13249.89
1764767215.133041,-10031.94,-17230.815,-3622.23,-13421.475,-43488.81,-40552.02,-34025.805,-13248.945
1764767215.133041,-10030.365,-17230.815,-3622.59,-13419.135,-43486.74,-40551.48,-34029.63,-13249.305
1764767215.133041,-10040.985,-17237.97,-3626.64,-13419.45,-43486.47,-40552.515,-34035.255,-13257.99
1764767215.133041,-10035.63,-17232.704999999998,-3620.16,-13409.955,-43477.92,-40545.225,-34029.494999999995,-13252.14
1764767215.133041,-10034.775,-17234.64,-3622.545,-13411.17,-43479.855,-40545.765,-34032.6,-13253.805
1764767215.133041,-10038.42,-17238.6,-3623.805,-13410.18,-43476.75,-40542.165,-34034.625,-13257.09
1764767215.133041,-10044.45,-17243.64,-3626.82,-13409.865,-43476.3,-40542.435,-34039.26,-13262.985
1764767215.133041,-10038.015,-17238.105,-3620.025,-13399.335,-43467.255,-40534.02,-34034.715,-13257.045
1764767215.133041,-10043.73,-17246.114999999998,-3628.35,-13405.365,-43473.87,-40538.61,-34041.33,-13261.14
1764767215.133041,-10045.485,-17246.43,-3626.325,-13400.595,-43469.865,-40533.255,-34039.53,-13262.49
1764767215.133041,-10036.89,-17237.79,-3616.02,-13387.185,-43458.255,-40521.735,-34031.565,-13253.895
1764767215.133041,-10038.69,-17239.77,-3617.19,-13385.07,-43457.895,-40521.78,-34033.994999999995,-13255.2
1764767215.133041,-10044.405,-17245.44,-3622.725,-13387.77,-43460.055,-40523.985,-34041.24,-13261.86
1764767215.133041,-10039.05,-17242.335,-3618.855,-13380.255,-43453.845,-40516.335,-34035.705,-13255.74
1764767215.133041,-10038.06,-17239.095,-3612.645,-13371.975,-43448.76,-40513.95,-34039.035,-13257.27
1764767215.133041,-10037.34,-17238.285,-3609.945,-13365.63,-43441.245,-40504.815,-34037.865,-13257.09
1764767215.133041,-10040.895,-17242.245,-3612.33,-13365.99,-43441.335,-40502.295,-34036.29,-13258.71
1764767215.133041,-10042.74,-17244.765,-3613.275,-13363.92,-43440.615,-40501.44,-34037.1,-13258.395
1764767215.1335487,-10040.76,-17242.829999999998,-3610.53,-13358.43,-43436.61,-40498.83,-34040.52,-13259.295
1764767215.1335487,-10049.265,-17250.48,-3616.83,-13360.77,-43440.21,-40501.44,-34047.45,-13266.945
1764767215.1335487,-10052.82,-17253.63,-3619.215,-13361.445,-43442.19,-40501.755,-34049.655,-13268.7
1764767215.1762872,-10049.13,-17249.76,-3614.085,-13353.255,-43435.395,-40496.805,-34047.72,-13265.64
1764767215.1762872,-10042.29,-17243.19,-3606.345,-13342.635,-43425.675,-40485.78,-34040.025,-13258.125
1764767215.1762872,-10041.03,-17240.94,-3604.32,-13338.945,-43423.245,-40482.54,-34039.619999999995,-13257.99
1764767215.1762872,-10046.97,-17246.88,-3608.955,-13339.53,-43424.325,-40483.395,-34045.83,-13266.225
1764767215.1762872,-10045.62,-17248.77,-3610.575,-13340.88,-43427.97,-40483.44,-34044.165,-13263.345
1764767215.1762872,-10050.66,-17251.155,-3610.215,-13336.875,-43424.235,-40481.73,-34049.835,-13270.185
1764767215.1762872,-10048.5,-17250.84,-3608.37,-13333.275,-43420.725,-40478.985,-34051.86,-13269.42
1764767215.1772995,-10049.58,-17251.11,-3606.48,-13330.17,-43419.6,-40474.26,-34045.065,-13267.215
1764767215.1772995,-10044.54,-17242.559999999998,-3596.13,-13318.83,-43410.825,-40468.005,-34041.555,-13261.815
1764767215.1772995,-10050.255,-17249.309999999998,-3602.43,-13323.645,-43416.855,-40472.73,-34047.9,-13267.665
1764767215.1772995,-10051.74,-17251.29,-3604.095,-13323.6,-43418.565,-40472.73,-34048.845,-13268.97
1764767215.1772995,-10047.375,-17247.285,-3599.64,-13318.245,-43414.335,-40467.555,-34045.47,-13265.955
1764767215.1772995,-10040.715,-17242.739999999998,-3596.265,-13314.6,-43411.815,-40463.28,-34041.69,-13261.005
1764767215.1772995,-10051.92,-17249.625,-3598.47,-13314.465,-43410.69,-40464.585,-34048.8,-13271.04
1764767215.1772995,-10055.205,-17252.37,-3600.63,-13315.86,-43411.545,-40464.495,-34048.619999999995,-13272.84
1764767215.1772995,-10049.22,-17246.97,-3596.22,-13312.44,-43409.97,-40461.75,-34044.975,-13267.125
1764767215.1772995,-10049.22,-17246.925,-3594.645,-13311.27,-43409.52,-40461.3,-34045.83,-13267.845
1764767215.1772995,-10054.44,-17252.28,-3599.19,-13315.545,-43414.335,-40464.855,-34050.96,-13273.965
1764767215.1772995,-10054.755,-17252.37,-3599.505,-13314.42,-43414.155,-40463.775,-34049.88,-13273.11
1764767215.1772995,-10051.65,-17249.67,-3596.67,-13312.08,-43412.13,-40462.29,-34050.195,-13271.4
1764767215.1772995,-10045.845,-17243.954999999998,-3591.09,-13306.815,-43405.785,-40455.495,-34042.77,-13265.595
1764767215.1772995,-10043.46,-17237.79,-3583.755,-13299.3,-43400.295,-40451.535,-34038.494999999995,-13262.445
1764767215.223607,-10040.58,-17236.35,-3582.72,-13298.49,-43401.105,-40451.985,-34037.325,-13261.185
1764767215.223607,-10051.155,-17248.68,-3595.005,-13311.045,-43410.96,-40461.39,-34047.045,-13270.545
1764767215.223607,-10053.18,-17250.975,-3596.49,-13313.16,-43410.735,-40462.02,-34048.44,-13272.165
1764767215.223607,-10052.955,-17249.309999999998,-3595.275,-13312.665,-43409.7,-40462.425,-34049.475,-13272.57
1764767215.223607,-10052.19,-17249.265,-3596.22,-13314.87,-43412.04,-40465.17,-34049.43,-13272.165
1764767215.223607,-10046.205,-17242.29,-3588.525,-13306.635,-43402.77,-40456.755,-34043.895,-13267.35
1764767215.223607,-10050.75,-17247.825,-3595.14,-13314.15,-43409.655,-40463.37,-34045.155,-13270.545
1764767215.223607,-10049.85,-17246.655,-3594.015,-13313.565,-43408.71,-40462.74,-34043.265,-13268.475
1764767215.223607,-10053.675,-17250.3,-3597.84,-13318.92,-43412.58,-40467.375,-34047.63,-13272.165
1764767215.223607,-10050.525,-17249.309999999998,-3598.695,-13319.775,-43411.05,-40464.495,-34044.48,-13269.24
1764767215.223607,-10046.295,-17243.37,-3592.17,-13313.43,-43403.94,-40458.825,-34040.79,-13266.18
1764767215.223607,-10046.34,-17241.93,-3590.595,-13312.89,-43404.03,-40461.795,-34045.875,-13268.745
1764767215.223607,-10047.015,-17244.405,-3593.88,-13317.12,-43406.055,-40463.64,-34045.425,-13269.195
1764767215.223607,-10057.05,-17253.899999999998,-3601.98,-13324.68,-43410.51,-40466.745,-34050.555,-13276.71
1764767215.223607,-10055.925,-17254.62,-3604.14,-13328.46,-43413.03,-40470.795,-34052.535,-13274.82
1764767215.2246144,-10047.915,-17246.565,-3596.49,-13320.72,-43404.57,-40463.64,-34045.605,-13267.665
1764767215.2246144,-10048.41,-17246.114999999998,-3595.5,-13320.405,-43402.77,-40462.695,-34044.57,-13268.52
1764767215.2246144,-10052.955,-17251.559999999998,-3602.34,-13328.19,-43409.52,-40469.355,-34049.205,-13272.075
1764767215.2246144,-10048.005,-17245.934999999998,-3597.345,-13324.05,-43405.56,-40466.745,-34044.075,-13265.325
1764767215.2246144,-10049.985,-17250.704999999998,-3604.14,-13332.69,-43411.905,-40473.495,-34045.875,-13267.125
1764767215.2246144,-10044.27,-17243.19,-3595.77,-13324.725,-43401.375,-40463.64,-34040.07,-13264.74
1764767215.2246144,-10047.78,-17245.26,-3596.67,-13327.29,-43403.94,-40467.78,-34046.64,-13270.68
1764767215.2246144,-10042.425,-17241.66,-3594.375,-13324.68,-43398.81,-40461.165,-34040.43,-13263.255
1764767215.2246144,-10042.245,-17241.21,-3595.275,-13326.03,-43400.7,-40463.775,-34039.395,-13262.4
1764767215.2705889,-10047.24,-17247.375,-3602.25,-13335.3,-43408.575,-40472.145,-34045.065,-13267.575
1764767215.2705889,-10048.05,-17244.72,-3598.515,-13331.565,-43403.715,-40468.635,-34042.725,-13266.945
1764767215.2705889,-10052.19,-17251.605,-3606.165,-13341.69,-43412.94,-40478.625,-34047.855,-13269.06
1764767215.2705889,-10051.515,-17251.245,-3606.66,-13343.76,-43414.2,-40479.705,-34048.53,-13270.41
1764767215.2705889,-10044.675,-17244.0,-3599.055,-13338.45,-43409.07,-40473.36,-34042.32,-13265.145
1764767215.2705889,-10039.725,-17239.68,-3596.445,-13336.47,-43406.64,-40471.56,-34038.63,-13260.015
1764767215.2710953,-10041.795,-17241.12,-3597.165,-13336.695,-43404.21,-40469.355,-34037.73,-13261.365
1764767215.2710953,-10050.345,-17249.67,-3605.175,-13345.65,-43412.355,-40477.95,-34045.605,-13270.05
1764767215.2710953,-10050.84,-17251.2,-3607.335,-13349.025,-43415.505,-40482.045,-34046.19,-13269.87
1764767215.2710953,-10043.28,-17242.829999999998,-3598.92,-13340.52,-43406.19,-40473.135,-34040.34,-13263.39
1764767215.2710953,-10040.76,-17240.625,-3597.615,-13340.07,-43404.03,-40470.795,-34037.685,-13261.32
1764767215.2710953,-10041.75,-17244.989999999998,-3605.355,-13349.97,-43413.885,-40479.03,-34038.585,-13260.285
1764767215.2710953,-10041.435,-17239.41,-3600.0,-13345.47,-43411.545,-40478.67,-34036.965,-13260.87
1764767215.2710953,-10039.995,-17242.92,-3606.345,-13354.065,-43421.13,-40487.355,-34042.41,-13261.185
1764767215.2710953,-10039.905,-17237.565,-3599.055,-13346.415,-43412.175,-40480.965,-34039.035,-13259.655
1764767215.2710953,-10045.17,-17241.704999999998,-3601.62,-13347.27,-43409.79,-40478.13,-34037.73,-13262.445
1764767215.2710953,-10041.525,-17241.12,-3603.33,-13351.365,-43414.425,-40481.73,-34035.615,-13257.63
1764767215.2710953,-10047.465,-17248.23,-3611.655,-13361.04,-43424.775,-40491.27,-34043.535,-13264.47
1764767215.2710953,-10041.57,-17241.39,-3605.445,-13354.74,-43418.34,-40484.7,-34037.73,-13259.565
1764767215.2710953,-10039.05,-17237.07,-3599.865,-13349.295,-43412.49,-40480.29,-34036.92,-13258.215
1764767215.2710953,-10046.745,-17245.71,-3609.315,-13360.23,-43423.785,-40490.01,-34042.86,-13264.38
1764767215.2710953,-10046.52,-17246.88,-3611.565,-13363.11,-43427.025,-40492.17,-34043.13,-13264.47
1764767215.2710953,-10038.555,-17239.05,-3603.42,-13355.145,-43419.825,-40484.79,-34035.705,-13256.82
1764767215.2710953,-10037.43,-17238.735,-3603.915,-13356.855,-43419.69,-40484.79,-34033.905,-13255.47
1764767215.3150604,-10039.14,-17238.69,-3604.365,-13357.845,-43421.13,-40488.03,-34034.67,-13256.145
1764767215.3150604,-10037.745,-17236.35,-3602.025,-13356.765,-43420.05,-40488.345,-34035.21,-13255.74
1764767215.3160748,-10036.125,-17236.62,-3602.745,-13358.475,-43421.805,-40489.515,-34033.68,-13254.12
1764767215.3160748,-10038.42,-17238.69,-3605.4,-13361.04,-43424.325,-40491.945,-34035.57,-13256.73
1764767215.3160748,-10037.295,-17237.745,-3604.095,-13361.625,-43425.54,-40492.89,-34035.03,-13255.515
1764767215.3160748,-10039.365,-17238.69,-3605.085,-13363.65,-43427.745,-40496.085,-34037.235,-13258.215
1764767215.3160748,-10046.52,-17245.17,-3611.655,-13371.975,-43435.845,-40504.095,-34044.615,-13264.11
1764767215.3160748,-10049.355,-17250.165,-3617.055,-13377.465,-43439.04,-40506.615,-34043.4,-13262.985
1764767215.3160748,-10038.96,-17241.12,-3609.99,-13371.66,-43433.415,-40501.845,-34035.93,-13255.83
1764767215.3160748,-10038.105,-17237.204999999998,-3605.58,-13367.565,-43429.23,-40498.515,-34035.255,-13260.195
1764767215.3160748,-10035.495,-17235.18,-3603.645,-13365.9,-43427.97,-40496.67,-34032.33,-13255.875
1764767215.3160748,-10036.98,-17237.25,-3606.93,-13371.165,-43434.405,-40503.645,-34035.705,-13257.27
1764767215.3160748,-10029.06,-17228.295,-3597.255,-13362.57,-43424.73,-40493.61,-34026.3,-13248.585
1764767215.3160748,-10031.535,-17234.1,-3606.075,-13373.055,-43433.505,-40498.965,-34028.19,-13250.205
1764767215.3160748,-10040.04,-17238.105,-3608.91,-13375.125,-43436.295,-40505.085,-34037.685,-13259.565
1764767215.3160748,-10043.685,-17242.965,-3611.97,-13378.86,-43439.31,-40509.27,-34039.53,-13261.635
1764767215.3160748,-10044.45,-17244.54,-3614.355,-13381.785,-43441.245,-40511.295,-34039.98,-13262.805
1764767215.3160748,-10044.495,-17243.145,-3613.05,-13380.795,-43438.275,-40509.09,-34039.575,-13264.245
1764767215.3160748,-10043.055,-17241.03,-3611.25,-13379.67,-43435.98,-40507.92,-34039.575,-13263.255
1764767215.3160748,-10040.58,-17241.614999999998,-3612.195,-13381.515,-43438.32,-40509.18,-34037.91,-13260.105
1764767215.3160748,-10038.825,-17241.84,-3614.265,-13385.205,-43441.92,-40511.79,-34035.345,-13257.495
1764767215.3160748,-10039.68,-17240.489999999998,-3612.645,-13383.36,-43438.545,-40509.405,-34034.535,-13258.035
1764767215.3665018,-10036.44,-17236.079999999998,-3607.92,-13378.995,-43433.505,-40505.31,-34031.88,-13255.965
1764767215.3665018,-10043.37,-17243.73,-3616.02,-13388.49,-43443.675,-40516.515,-34040.07,-13263.705
1764767215.3665018,-10044.135,-17244.765,-3616.29,-13390.02,-43443.675,-40516.245,-34041.105,-13263.03
1764767215.3665018,-10043.235,-17242.829999999998,-3613.995,-13388.355,-43441.515,-40513.725,-34040.115,-13262.985
1764767215.3665018,-10038.555,-17238.51,-3608.865,-13382.64,-43435.8,-40508.415,-34034.31,-13258.125
1764767215.3665018,-10042.875,-17247.915,-3620.88,-13396.41,-43448.805,-40520.205,-34041.51,-13262.22
1764767215.3665018,-10047.195,-17245.98,-3616.83,-13392.36,-43445.745,-40518.495,-34041.24,-13265.82
1764767215.3665018,-10041.66,-17240.22,-3610.08,-13384.89,-43436.97,-40510.89,-34035.795,-13260.87
1764767215.3665018,-10040.13,-17243.1,-3614.4,-13390.785,-43442.19,-40515.93,-34038.0,-13258.62
1764767215.3665018,-10045.755,-17245.53,-3615.66,-13392.99,-43443.99,-40516.92,-34040.34,-13263.12
1764767215.3665018,-10048.59,-17248.454999999998,-3618.81,-13395.78,-43447.23,-40519.35,-34041.465,-13264.695
1764767215.3665018,-10049.895,-17250.3,-3621.555,-13399.92,-43452.09,-40525.2,-34045.38,-13267.26
1764767215.3675225,-10052.235,-17253.225,-3625.56,-13404.33,-43456.32,-40529.025,-34048.44,-13270.905
1764767215.3675225,-10050.165,-17250.39,-3622.815,-13401.27,-43452.045,-40524.48,-34045.83,-13268.745
1764767215.3675225,-10055.25,-17254.53,-3625.2,-13405.365,-43457.04,-40529.295,-34052.31,-13273.38
1764767215.3675225,-10057.68,-17257.05,-3626.325,-13406.13,-43456.455,-40529.43,-34053.3,-13275.27
1764767215.3675225,-10052.865,-17253.315,-3623.4,-13403.925,-43455.24,-40527.27,-34048.305,-13269.69
1764767215.3675225,-10049.22,-17249.715,-3620.565,-13401.72,-43453.215,-40524.84,-34046.145,-13266.495
1764767215.3675225,-10047.78,-17248.184999999998,-3618.585,-13399.245,-43450.74,-40522.86,-34045.56,-13266.99
1764767215.3675225,-10052.955,-17254.215,-3625.155,-13404.24,-43454.43,-40526.415,-34047.945,-13270.995
1764767215.3675225,-10049.355,-17248.635,-3620.295,-13399.695,-43450.605,-40524.12,-34044.705,-13266.765
1764767215.3675225,-10054.62,-17254.665,-3626.28,-13406.67,-43457.715,-40531.635,-34052.58,-13273.245
1764767215.3675225,-10054.08,-17254.665,-3626.55,-13406.265,-43456.77,-40530.375,-34051.05,-13272.12
1764767215.3675225,-10052.73,-17249.399999999998,-3618.855,-13398.075,-43448.94,-40523.895,-34049.205,-13271.94
1764767215.410884,-10047.69,-17247.69,-3618.54,-13398.12,-43449.795,-40522.005,-34043.535,-13264.83
1764767215.410884,-10049.625,-17248.815,-3620.34,-13399.83,-43452.495,-40524.3,-34043.895,-13265.64
1764767215.410884,-10047.33,-17246.16,-3616.695,-13396.32,-43448.715,-40521.96,-34043.13,-13265.19
1764767215.410884,-10045.305,-17243.055,-3613.41,-13392.99,-43444.125,-40518.0,-34043.355,-13265.955
1764767215.410884,-10043.37,-17242.065,-3613.05,-13391.865,-43442.73,-40516.515,-34039.89,-13263.93
1764767215.410884,-10048.095,-17250.345,-3625.335,-13406.22,-43458.48,-40530.465,-34046.415,-13266.9
1764767215.410884,-10048.815,-17247.915,-3619.485,-13398.435,-43448.265,-40521.015,-34042.14,-13266.72
1764767215.4114203,-10049.94,-17247.239999999998,-3617.37,-13396.86,-43447.77,-40522.23,-34044.795,-13266.63
1764767215.4114203,-10047.555,-17246.295,-3617.325,-13396.725,-43448.4,-40521.42,-34043.76,-13263.435
1764767215.4114203,-10048.275,-17247.69,-3618.495,-13398.255,-43448.715,-40521.96,-34043.805,-13265.19
1764767215.4114203,-10050.03,-17248.635,-3618.54,-13399.245,-43450.02,-40524.12,-34047.405,-13269.78
1764767215.4114203,-10044.09,-17244.63,-3614.985,-13396.455,-43448.265,-40521.96,-34041.465,-13262.13
1764767215.4114203,-10045.62,-17247.149999999998,-3619.215,-13399.695,-43451.055,-40522.05,-34040.835,-13262.985
1764767215.4114203,-10049.265,-17248.77,-3619.395,-13397.58,-43448.58,-40520.025,-34042.815,-13268.205
1764767215.4114203,-10053.72,-17250.12,-3620.115,-13399.695,-43451.415,-40525.695,-34049.43,-13274.46
1764767215.4114203,-10052.64,-17250.21,-3621.6,-13400.865,-43452.045,-40526.19,-34048.665,-13272.84
1764767215.4114203,-10045.98,-17246.385,-3618.675,-13397.625,-43446.15,-40517.73,-34041.24,-13264.47
1764767215.4114203,-10050.435,-17248.545,-3619.71,-13399.875,-43449.525,-40522.995,-34046.369999999995,-13267.98
1764767215.4114203,-10052.055,-17251.065,-3622.455,-13402.665,-43452.18,-40526.55,-34048.619999999995,-13269.69
1764767215.4114203,-10047.555,-17249.67,-3622.59,-13403.115,-43452.09,-40525.875,-34048.845,-13268.565
1764767215.4114203,-10050.03,-17249.13,-3620.925,-13401.495,-43450.02,-40524.12,-34045.92,-13269.15
1764767215.4114203,-10056.015,-17254.035,-3626.19,-13406.445,-43455.105,-40530.51,-34050.915,-13273.335
1764767215.4578087,-10050.435,-17249.985,-3622.905,-13403.88,-43451.37,-40526.82,-34047.81,-13268.655
1764767215.4578087,-10055.565,-17253.989999999998,-3627.135,-13407.345,-43453.755,-40529.34,-34050.645,-13274.28
1764767215.4578087,-10050.48,-17248.905,-3621.825,-13402.62,-43449.57,-40526.28,-34046.82,-13269.915
1764767215.4578087,-10042.38,-17245.44,-3619.665,-13402.395,-43448.535,-40522.815,-34039.035,-13260.195
1764767215.4578087,-10041.03,-17242.38,-3614.265,-13396.905,-43443.315,-40520.205,-34038.54,-13260.42
1764767215.4578087,-10051.065,-17249.85,-3621.33,-13403.475,-43448.265,-40525.83,-34045.92,-13270.05
1764767215.4578087,-10046.205,-17244.855,-3617.415,-13401.27,-43446.465,-40523.265,-34043.13,-13264.74
1764767215.4578087,-10043.55,-17241.84,-3614.85,-13398.255,-43441.965,-40519.035,-34041.105,-13262.805
1764767215.4578087,-10047.33,-17247.87,-3621.105,-13405.095,-43447.815,-40523.715,-34041.915,-13264.11
1764767215.4578087,-10053.45,-17253.315,-3627.72,-13412.7,-43456.005,-40532.13,-34048.215,-13269.33
1764767215.4578087,-10046.205,-17243.91,-3618.63,-13403.07,-43446.015,-40523.895,-34042.365,-13262.805
1764767215.4578087,-10042.92,-17240.895,-3614.67,-13400.415,-43441.965,-40521.33,-34040.655,-13262.265
1764767215.4578087,-10051.83,-17252.01,-3626.055,-13413.825,-43453.305,-40532.22,-34047.72,-13270.275
1764767215.4578087,-10053.135,-17255.024999999998,-3630.915,-13418.955,-43457.355,-40536.27,-34049.88,-13271.085
1764767215.4578087,-10043.325,-17243.325,-3618.135,-13405.815,-43443.855,-40524.03,-34039.26,-13261.86
1764767215.4578087,-10048.23,-17248.14,-3622.545,-13410.81,-43448.355,-40528.8,-34044.93,-13266.405
1764767215.4578087,-10046.7,-17247.239999999998,-3623.04,-13411.35,-43448.535,-40528.575,-34042.905,-13263.525
1764767215.4578087,-10051.56,-17251.92,-3628.755,-13418.64,-43454.88,-40534.74,-34048.08,-13268.565
1764767215.4578087,-10052.145,-17253.63,-3631.68,-13422.105,-43457.895,-40537.485,-34047.045,-13269.15
1764767215.4578087,-10050.3,-17251.47,-3628.98,-13418.64,-43454.655,-40536.99,-34048.71,-13268.43
1764767215.4588196,-10043.505,-17243.595,-3621.105,-13411.17,-43446.735,-40530.78,-34041.78,-13261.14
1764767215.4588196,-10041.3,-17243.505,-3622.005,-13413.51,-43448.31,-40531.275,-34040.385,-13258.485
1764767215.4588196,-10044.405,-17245.755,-3623.985,-13417.38,-43450.695,-40532.805,-34041.555,-13263.525
1764767215.4588196,-10051.065,-17251.29,-3629.115,-13423.185,-43456.815,-40540.905,-34047.225,-13269.915
1764767215.504875,-10047.195,-17247.51,-3625.47,-13420.08,-43450.92,-40536.225,-34043.805,-13264.515
1764767215.504875,-10057.23,-17259.165,-3637.44,-13432.455,-43461.18,-40543.83,-34050.51,-13273.335
1764767215.504875,-10053.27,-17255.024999999998,-3633.93,-13429.845,-43458.435,-40543.02,-34049.655,-13272.885
1764767215.504875,-10052.01,-17255.565,-3635.01,-13431.78,-43459.245,-40543.47,-34048.26,-13270.095
1764767215.504875,-10051.92,-17253.315,-3632.805,-13430.745,-43458.57,-40544.28,-34048.575,-13270.32
1764767215.504875,-10050.84,-17251.785,-3630.96,-13429.395,-43457.085,-40543.74,-34048.395,-13269.78
1764767215.504875,-10043.01,-17246.52,-3627.585,-13427.28,-43455.15,-40540.815,-34041.78,-13260.195
1764767215.504875,-10040.985,-17244.54,-3626.865,-13427.28,-43455.51,-40542.435,-34042.23,-13258.935
1764767215.504875,-10045.62,-17249.76,-3632.94,-13433.805,-43460.73,-40547.43,-34045.965,-13263.255
1764767215.504875,-10046.565,-17248.995,-3630.375,-13432.5,-43458.48,-40546.44,-34045.56,-13263.48
1764767215.504875,-10039.23,-17245.215,-3626.415,-13428.495,-43453.44,-40541.265,-34041.555,-13258.575
1764767215.504875,-10043.235,-17244.54,-3625.38,-13427.145,-43452.765,-40541.265,-34041.015,-13260.645
1764767215.504875,-10049.355,-17249.715,-3632.625,-13435.965,-43462.53,-40550.94,-34047.18,-13265.145
1764767215.504875,-10048.185,-17250.66,-3633.48,-13438.35,-43463.97,-40550.445,-34045.965,-13265.595
1764767215.504875,-10044.0,-17246.835,-3629.655,-13433.13,-43458.255,-40545.495,-34043.535,-13262.67
1764767215.504875,-10045.44,-17247.105,-3630.42,-13434.12,-43459.425,-40546.98,-34041.195,-13261.41
1764767215.504875,-10041.975,-17243.46,-3627.09,-13431.15,-43457.805,-40545.495,-34038.81,-13256.955
1764767215.504875,-10041.93,-17243.64,-3627.27,-13430.79,-43457.085,-40545.09,-34039.44,-13257.09
1764767215.504875,-10045.8,-17248.005,-3632.22,-13435.515,-43461.99,-40550.04,-34044.21,-13262.355
1764767215.504875,-10039.365,-17241.885,-3626.73,-13429.665,-43456.05,-40544.055,-34038.494999999995,-13256.28
1764767215.504875,-10037.88,-17241.345,-3626.145,-13429.17,-43455.645,-40544.28,-34037.73,-13254.84
1764767215.504875,-10040.76,-17244.09,-3628.305,-13431.195,-43458.705,-40546.845,-34041.42,-13257.72
1764767215.5521164,-10042.38,-17245.98,-3630.87,-13434.57,-43462.395,-40548.06,-34041.51,-13258.17
1764767215.5521164,-10045.17,-17246.745,-3630.06,-13431.645,-43459.695,-40544.955,-34042.5,-13261.545
1764767215.5521164,-10047.96,-17247.735,-3629.88,-13428.36,-43456.32,-40542.48,-34042.455,-13263.705
1764767215.5521164,-10051.74,-17254.44,-3637.98,-13437.27,-43467.48,-40553.37,-34050.42,-13266.045
1764767215.5521164,-10052.19,-17254.305,-3637.89,-13437.135,-43467.975,-40553.325,-34051.365,-13266.765
1764767215.5521164,-10053.63,-17254.305,-3637.665,-13434.75,-43466.355,-40552.245,-34053.345,-13271.265
1764767215.552626,-10055.88,-17255.43,-3638.43,-13433.445,-43464.87,-40551.165,-34051.77,-13273.425
1764767215.552626,-10056.15,-17256.555,-3639.6,-13433.67,-43465.05,-40551.03,-34051.994999999995,-13273.47
1764767215.552626,-10052.19,-17252.684999999998,-3634.965,-13428.81,-43461.81,-40547.34,-34047.9,-13267.8
1764767215.552626,-10057.59,-17257.77,-3639.96,-13433.04,-43466.85,-40552.74,-34052.445,-13271.4
1764767215.552626,-10056.555,-17256.51,-3638.43,-13430.7,-43464.825,-40550.58,-34052.04,-13270.545
1764767215.552626,-10060.02,-17260.065,-3641.67,-13433.535,-43468.11,-40553.37,-34055.19,-13273.155
1764767215.552626,-10067.76,-17266.454999999998,-3647.88,-13438.665,-43473.06,-40558.32,-34061.85,-13281.705
1764767215.552626,-10067.895,-17265.87,-3647.745,-13438.215,-43474.905,-40560.03,-34063.965,-13282.695
1764767215.552626,-10070.1,-17267.625,-3649.365,-13438.08,-43475.22,-40559.94,-34064.595,-13284.495
1764767215.552626,-10075.95,-17271.135,-3649.365,-13435.155,-43470.9,-40554.72,-34064.82,-13289.04
1764767215.552626,-10070.37,-17269.605,-3649.365,-13436.235,-43474.005,-40558.545,-34065.765,-13285.08
1764767215.552626,-10064.655,-17266.59,-3647.205,-13432.635,-43470.045,-40552.965,-34060.14,-13277.745
1764767215.552626,-10065.24,-17263.215,-3641.895,-13426.515,-43465.86,-40550.04,-34061.4,-13279.545
1764767215.552626,-10074.42,-17272.079999999998,-3649.185,-13433.715,-43471.89,-40554.945,-34070.265,-13288.455
1764767215.552626,-10075.185,-17274.015,-3651.255,-13435.065,-43472.565,-40555.935,-34071.795,-13288.725
1764767215.552626,-10074.42,-17274.825,-3653.055,-13437.09,-43474.5,-40557.24,-34072.83,-13289.895
1764767215.552626,-10077.03,-17276.579999999998,-3654.18,-13438.125,-43475.58,-40558.365,-34073.595,-13293.315
1764767215.552626,-10078.065,-17277.84,-3655.08,-13438.575,-43476.075,-40558.365,-34074.09,-13293.09
1764767215.552626,-10075.365,-17274.42,-3651.03,-13433.535,-43471.215,-40554.09,-34072.74,-13290.885
1764767215.552626,-10070.28,-17270.055,-3647.34,-13429.755,-43467.03,-40549.95,-34068.15,-13285.26
1764767215.600481,-10072.89,-17273.97,-3652.47,-13435.02,-43471.665,-40552.965,-34070.04,-13288.365
1764767215.600481,-10066.5,-17265.96,-3643.605,-13425.795,-43463.745,-40545.315,-34062.975,-13283.415
1764767215.600481,-10068.795,-17264.88,-3642.12,-13424.13,-43464.42,-40548.915,-34068.015,-13286.115
1764767215.600481,-10078.02,-17270.28,-3645.045,-13425.975,-43464.24,-40549.545,-34075.53,-13296.105
1764767215.600481,-10082.205,-17278.335,-3653.64,-13435.38,-43470.36,-40552.605,-34071.39,-13295.43
1764767215.600481,-10078.065,-17277.03,-3655.08,-13439.07,-43475.76,-40557.06,-34072.065,-13292.235
1764767215.600481,-10071.27,-17268.57,-3646.215,-13430.16,-43466.13,-40548.645,-34067.79,-13287.33
1764767215.600481,-10074.96,-17272.755,-3650.31,-13434.3,-43469.055,-40551.93,-34070.94,-13291.29
1764767215.600481,-10069.965,-17268.255,-3645.225,-13429.62,-43464.375,-40547.565,-34066.71,-13286.79
1764767215.600481,-10069.74,-17268.39,-3645.09,-13430.565,-43464.645,-40548.105,-34065.765,-13287.465
1764767215.600481,-10069.83,-17269.245,-3645.99,-13432.14,-43466.67,-40550.13,-34065.945,-13286.97
1764767215.600481,-10073.7,-17273.88,-3650.265,-13436.64,-43471.035,-40555.17,-34069.455,-13289.715
1764767215.600481,-10073.205,-17273.25,-3649.32,-13435.83,-43469.73,-40554.135,-34068.42,-13289.49
1764767215.600481,-10078.47,-17278.829999999998,-3656.07,-13444.65,-43478.19,-40561.11,-34072.47,-13295.025
1764767215.600481,-10073.97,-17273.295,-3650.535,-13439.43,-43471.53,-40554.855,-34069.14,-13291.38
1764767215.600481,-10076.715,-17274.42,-3649.635,-13436.55,-43466.445,-40552.065,-34070.535,-13293.09
1764767215.600481,-10068.39,-17266.274999999998,-3643.785,-13432.77,-43463.43,-40549.14,-34063.92,-13283.55
1764767215.600481,-10065.015,-17263.305,-3640.86,-13431.105,-43462.89,-40547.655,-34061.4,-13280.715
1764767215.600481,-10064.97,-17263.44,-3640.725,-13431.375,-43462.215,-40546.305,-34060.005,-13279.905
1764767215.600481,-10066.545,-17265.195,-3642.75,-13434.705,-43464.645,-40549.815,-34063.83,-13283.28
1764767215.600481,-10071.495,-17269.92,-3647.43,-13440.69,-43467.93,-40553.82,-34064.369999999995,-13285.71
1764767215.600481,-10065.285,-17264.16,-3643.02,-13437.945,-43465.455,-40551.84,-34059.69,-13279.365
1764767215.6471114,-10062.315,-17262.405,-3641.715,-13436.865,-43464.105,-40550.805,-34056.72,-13275.675
1764767215.6471114,-10069.2,-17268.704999999998,-3649.14,-13445.28,-43472.205,-40557.42,-34063.38,-13282.425
1764767215.6471114,-10068.48,-17264.024999999998,-3642.255,-13437.495,-43463.295,-40551.795,-34063.155,-13284.18
1764767215.6471114,-10068.75,-17268.03,-3646.845,-13441.725,-43463.88,-40549.725,-34059.42,-13281.48
1764767215.6471114,-10058.985,-17260.245,-3640.455,-13438.395,-43462.395,-40549.005,-34055.145,-13272.03
1764767215.6471114,-10056.195,-17256.51,-3636.18,-13434.975,-43458.435,-40545.765,-34052.175,-13269.69
1764767215.6471114,-10055.52,-17255.565,-3635.37,-13434.93,-43457.085,-40544.73,-34049.61,-13269.78
1764767215.6471114,-10054.845,-17254.53,-3634.515,-13434.57,-43455.645,-40543.965,-34048.395,-13268.79
1764767215.6471114,-10054.89,-17253.09,-3633.705,-13434.93,-43456.77,-40545.765,-34051.905,-13271.22
1764767215.6471114,-10055.07,-17253.405,-3634.245,-13435.605,-43455.915,-40544.91,-34049.61,-13270.275
1764767215.6471114,-10054.26,-17254.665,-3636.0,-13439.205,-43459.38,-40548.33,-34049.79,-13269.105
1764767215.6471114,-10063.08,-17264.204999999998,-3646.215,-13449.87,-43470.045,-40558.68,-34058.295,-13277.115
1764767215.6471114,-10061.37,-17261.64,-3644.19,-13448.52,-43469.505,-40559.895,-34060.455,-13277.475
1764767215.6471114,-10060.605,-17261.1,-3643.74,-13449.33,-43468.965,-40559.355,-34059.6,-13275.54
1764767215.6471114,-10059.615,-17254.575,-3634.605,-13440.15,-43459.29,-40550.175,-34054.02,-13274.685
1764767215.6471114,-10049.31,-17246.43,-3627.18,-13433.49,-43452.99,-40544.505,-34045.244999999995,-13264.155
1764767215.6471114,-10054.305,-17253.27,-3635.955,-13444.47,-43463.43,-40552.515,-34049.655,-13267.935
1764767215.6471114,-10053.54,-17253.855,-3637.575,-13447.215,-43465.455,-40555.305,-34051.095,-13267.935
1764767215.6481185,-10052.01,-17250.39,-3632.94,-13442.22,-43461.315,-40552.785,-34048.35,-13266.18
1764767215.6481185,-10050.03,-17249.805,-3632.445,-13442.715,-43461.18,-40551.345,-34045.83,-13263.975
1764767215.6481185,-10046.07,-17246.114999999998,-3629.43,-13441.005,-43458.525,-40548.645,-34042.994999999995,-13259.745
1764767215.6481185,-10054.845,-17253.225,-3636.945,-13449.195,-43466.265,-40556.88,-34051.185,-13268.34
1764767215.6939864,-10056.915,-17255.79,-3639.825,-13453.38,-43470.045,-40561.155,-34053.255,-13270.59
1764767215.6939864,-10051.245,-17250.614999999998,-3635.73,-13450.905,-43467.21,-40557.465,-34048.755,-13264.965
1764767215.6939864,-10051.38,-17250.975,-3637.665,-13452.66,-43467.525,-40558.32,-34048.755,-13264.47
1764767215.6939864,-10056.6,-17254.079999999998,-3638.745,-13452.75,-43466.535,-40559.445,-34052.58,-13270.86
1764767215.6939864,-10050.165,-17248.68,-3634.02,-13450.32,-43463.97,-40556.25,-34047.63,-13265.19
1764767215.6939864,-10045.755,-17244.405,-3630.105,-13447.26,-43459.515,-40553.505,-34046.235,-13261.5
1764767215.6939864,-10046.295,-17244.809999999998,-3630.915,-13448.925,-43461.315,-40554.18,-34043.22,-13260.69
1764767215.6939864,-10048.23,-17246.925,-3633.93,-13453.92,-43466.58,-40556.97,-34040.43,-13259.34
1764767215.6939864,-10048.41,-17247.555,-3634.785,-13454.64,-43465.77,-40557.555,-34042.815,-13260.555
1764767215.6939864,-10052.82,-17251.739999999998,-3640.455,-13460.985,-43472.295,-40564.44,-34049.565,-13265.775
1764767215.6939864,-10060.245,-17258.67,-3648.195,-13469.355,-43479.945,-40572.63,-34055.28,-13272.615
1764767215.6939864,-10061.955,-17261.235,-3651.435,-13472.595,-43481.7,-40575.33,-34056.405,-13273.92
1764767215.6939864,-10059.48,-17259.255,-3650.265,-13472.145,-43482.78,-40576.095,-34054.515,-13271.085
1764767215.6939864,-10050.03,-17246.88,-3638.34,-13462.02,-43474.365,-40569.03,-34048.71,-13264.65
1764767215.6939864,-10057.095,-17253.405,-3642.75,-13464.315,-43472.565,-40567.725,-34048.575,-13268.43
1764767215.6939864,-10052.415,-17251.559999999998,-3642.345,-13465.665,-43473.105,-40565.97,-34045.02,-13262.22
1764767215.6939864,-10047.645,-17246.52,-3638.34,-13462.605,-43471.89,-40566.735,-34044.39,-13260.42
1764767215.6939864,-10048.68,-17246.97,-3639.825,-13463.55,-43471.215,-40565.745,-34042.815,-13260.78
1764767215.6939864,-10049.715,-17248.184999999998,-3641.04,-13466.025,-43474.545,-40569.03,-34043.265,-13261.815
1764767215.6939864,-10053.405,-17251.11,-3643.425,-13468.905,-43479.225,-40573.845,-34047.0,-13266.63
1764767215.6939864,-10060.29,-17258.67,-3651.39,-13477.995,-43487.28,-40581.315,-34054.74,-13273.11
1764767215.6939864,-10054.53,-17253.09,-3645.99,-13473.63,-43481.34,-40576.32,-34050.33,-13267.665
1764767215.6939864,-10053.495,-17252.055,-3644.595,-13472.1,-43480.215,-40576.005,-34048.71,-13267.395
1764767215.6939864,-10057.86,-17256.78,-3650.4,-13477.815,-43485.66,-40581.045,-34051.365,-13270.68
1764767215.6939864,-10054.8,-17255.43,-3650.85,-13480.02,-43488.405,-40583.745,-34051.725,-13268.295
1764767215.6939864,-10049.805,-17249.805,-3645.18,-13473.63,-43480.98,-40575.465,-34043.085,-13263.39
1764767215.7397149,-10053.63,-17254.26,-3650.94,-13479.57,-43486.695,-40581.09,-34047.405,-13266.45
1764767215.7397149,-10046.43,-17244.989999999998,-3641.04,-13470.435,-43478.1,-40574.7,-34043.58,-13261.14
1764767215.7397149,-10047.015,-17241.795,-3635.235,-13464.36,-43472.475,-40572.315,-34044.345,-13263.57
1764767215.7397149,-10049.355,-17250.704999999998,-3647.34,-13477.59,-43483.95,-40581.045,-34046.64,-13264.695
1764767215.7397149,-10055.52,-17253.315,-3648.915,-13480.56,-43487.595,-40584.6,-34047.45,-13267.89
1764767215.7397149,-10059.03,-17257.635,-3653.82,-13485.555,-43492.32,-40589.64,-34053.165,-13273.02
1764767215.7397149,-10055.745,-17255.07,-3651.615,-13484.025,-43490.835,-40587.93,-34049.565,-13268.52
1764767215.7397149,-10052.82,-17250.795,-3647.34,-13479.93,-43486.83,-40583.79,-34046.82,-13268.565
1764767215.7397149,-10055.295,-17252.864999999998,-3649.23,-13481.73,-43488.225,-40586.22,-34048.08,-13270.635
1764767215.7397149,-10057.995,-17257.86,-3655.125,-13487.49,-43493.175,-40591.89,-34051.86,-13273.47
1764767215.7397149,-10058.04,-17256.465,-3653.955,-13488.345,-43495.875,-40594.455,-34051.14,-13273.605
1764767215.7402613,-10050.03,-17250.03,-3649.005,-13484.97,-43491.42,-40588.92,-34043.85,-13265.055
1764767215.7402613,-10049.94,-17249.22,-3646.71,-13480.74,-43484.94,-40583.52,-34042.68,-13265.19
1764767215.7402613,-10058.445,-17257.454999999998,-3654.36,-13488.03,-43491.69,-40587.84,-34047.045,-13271.58
1764767215.7402613,-10052.19,-17250.795,-3648.555,-13483.845,-43489.98,-40587.615,-34044.39,-13265.055
1764767215.7402613,-10049.49,-17250.524999999998,-3649.095,-13485.645,-43491.24,-40591.44,-34046.82,-13264.2
1764767215.7402613,-10059.3,-17259.48,-3656.52,-13492.395,-43495.065,-40594.185,-34051.185,-13272.435
1764767215.7402613,-10055.385,-17254.8,-3653.145,-13488.39,-43491.78,-40590.63,-34048.08,-13271.085
1764767215.7402613,-10062.765,-17262.27,-3659.94,-13495.77,-43499.25,-40597.065,-34054.47,-13277.385
1764767215.7402613,-10065.105,-17263.53,-3660.795,-13496.355,-43498.035,-40595.58,-34054.38,-13279.815
1764767215.7402613,-10064.25,-17262.989999999998,-3661.92,-13498.245,-43500.69,-40599.045,-34056.72,-13279.5
1764767215.7402613,-10062.99,-17262.675,-3661.515,-13497.75,-43500.645,-40598.325,-34054.65,-13277.385
1764767215.7402613,-10059.615,-17259.03,-3658.095,-13494.645,-43498.755,-40596.795,-34052.04,-13274.01
1764767215.7402613,-10070.37,-17267.67,-3664.08,-13498.74,-43500.24,-40599.27,-34059.6,-13284.54
1764767215.787428,-10068.615,-17268.21,-3665.565,-13500.27,-43502.805,-40600.98,-34059.96,-13283.145
1764767215.787428,-10068.075,-17268.66,-3666.51,-13501.395,-43506.09,-40606.245,-34063.02,-13283.37
1764767215.787428,-10073.385,-17273.655,-3671.415,-13504.815,-43508.52,-40608.855,-34067.52,-13289.49
1764767215.787428,-10069.065,-17269.739999999998,-3666.6,-13500.045,-43504.38,-40603.185,-34061.04,-13284.315
1764767215.787428,-10070.82,-17271.899999999998,-3668.805,-13501.35,-43505.865,-40604.445,-34063.065,-13285.215
1764767215.7884457,-10078.785,-17279.55,-3676.815,-13507.605,-43511.22,-40609.62,-34068.69,-13292.505
1764767215.7884457,-10079.505,-17279.28,-3676.5,-13507.92,-43513.65,-40612.815,-34072.02,-13294.44
1764767215.7884457,-10078.965,-17279.055,-3676.815,-13508.19,-43514.64,-40612.68,-34072.065,-13292.955
1764767215.7884457,-10075.725,-17276.895,-3674.43,-13505.085,-43511.985,-40608.855,-34068.465,-13289.49
1764767215.7884457,-10081.89,-17281.079999999998,-3678.57,-13508.235,-43515.27,-40613.4,-34075.53,-13297.05
1764767215.7884457,-10077.615,-17276.22,-3672.63,-13501.575,-43510.41,-40608.63,-34071.255,-13292.685
1764767215.7884457,-10077.165,-17274.195,-3670.11,-13497.165,-43506.63,-40606.065,-34070.04,-13292.235
1764767215.7884457,-10083.915,-17281.89,-3678.57,-13504.86,-43514.19,-40612.23,-34075.53,-13297.995
1764767215.7884457,-10085.13,-17283.87,-3681.27,-13508.505,-43517.52,-40615.38,-34078.14,-13299.3
1764767215.7884457,-10083.195,-17281.079999999998,-3677.625,-13503.6,-43512.075,-40610.34,-34077.6,-13297.905
1764767215.7884457,-10075.23,-17272.17,-3667.995,-13492.8,-43501.635,-40600.53,-34071.165,-13292.1
1764767215.7884457,-10085.265,-17281.845,-3676.815,-13503.375,-43513.515,-40609.575,-34073.55,-13297.23
1764767215.7884457,-10080.63,-17280.855,-3677.985,-13505.715,-43517.205,-40611.33,-34072.065,-13291.38
1764767215.7884457,-10082.295,-17281.62,-3678.93,-13506.615,-43519.185,-40613.4,-34074.36,-13294.08
1764767215.7884457,-10087.785,-17285.805,-3679.74,-13505.67,-43516.17,-40612.365,-34078.365,-13299.3
1764767215.7894375,-10084.365,-17281.665,-3675.51,-13500.99,-43512.48,-40610.655,-34078.32,-13298.67
1764767215.7894375,-10086.12,-17284.005,-3678.39,-13503.645,-43515.315,-40611.42,-34079.13,-13299.345
1764767215.7894375,-10087.605,-17285.355,-3679.515,-13504.23,-43516.665,-40612.365,-34080.39,-13300.695
1764767215.7894375,-10091.835,-17289.27,-3683.565,-13507.605,-43519.32,-40615.83,-34085.115,-13304.43
1764767215.8325918,-10090.665,-17288.864999999998,-3683.115,-13506.975,-43520.04,-40615.605,-34083.855,-13302.045
1764767215.8325918,-10087.155,-17284.14,-3677.49,-13500.405,-43514.82,-40610.61,-34079.22,-13298.445
1764767215.8325918,-10090.665,-17287.2,-3681.585,-13504.41,-43518.645,-40613.94,-34083.045,-13303.08
1764767215.8325918,-10088.19,-17284.41,-3679.695,-13501.755,-43514.91,-40609.665,-34080.345,-13302.675
1764767215.8325918,-10082.97,-17280.675,-3676.905,-13498.92,-43513.065,-40608.765,-34078.725,-13298.895
1764767215.8325918,-10093.725,-17290.845,-3686.22,-13508.235,-43522.56,-40619.115,-34088.265,-13308.57
1764767215.8325918,-10098.09,-17295.39,-3690.36,-13511.295,-43524.0,-40620.42,-34090.605,-13311.09
1764767215.8325918,-10089.765,-17284.905,-3679.47,-13499.28,-43512.75,-40608.9,-34083.675,-13305.15
1764767215.8325918,-10089.315,-17283.915,-3678.165,-13496.76,-43509.645,-40604.04,-34078.994999999995,-13303.665
1764767215.8325918,-10086.93,-17283.915,-3679.605,-13498.965,-43513.785,-40608.72,-34080.03,-13301.1
1764767215.8325918,-10088.505,-17287.425,-3684.78,-13506.165,-43522.425,-40618.395,-34086.015,-13302.945
1764767215.8325918,-10088.055,-17284.59,-3680.19,-13498.74,-43512.345,-40608.72,-34082.64,-13303.035
1764767215.8325918,-10094.4,-17291.34,-3687.3,-13505.445,-43519.77,-40615.065,-34087.725,-13308.12
1764767215.833987,-10091.43,-17288.954999999998,-3685.815,-13505.22,-43519.59,-40615.695,-34086.015,-13305.465
1764767215.833987,-10084.995,-17283.059999999998,-3679.155,-13498.29,-43512.12,-40608.09,-34079.49,-13298.895
1764767215.833987,-10092.015,-17289.989999999998,-3685.14,-13503.555,-43516.35,-40611.825,-34083.945,-13305.42
1764767215.833987,-10093.77,-17290.845,-3685.5,-13503.6,-43516.935,-40612.95,-34086.645,-13307.715
1764767215.833987,-10087.965,-17284.23,-3678.345,-13496.22,-43509.195,-40605.84,-34081.335,-13302.27
1764767215.833987,-10091.925,-17288.954999999998,-3683.34,-13501.395,-43513.74,-40609.89,-34082.595,-13304.295
1764767215.833987,-10086.705,-17282.97,-3676.725,-13494.375,-43506.945,-40604.49,-34079.715,-13300.83
1764767215.833987,-10087.605,-17284.005,-3677.58,-13494.645,-43507.35,-40605.705,-34084.08,-13305.015
1764767215.833987,-10089.18,-17284.32,-3677.805,-13493.34,-43502.94,-40599.495,-34076.565,-13302.54
1764767215.881305,-10094.085,-17291.25,-3686.715,-13504.905,-43517.115,-40613.67,-34085.385,-13307.49
1764767215.881305,-10083.015,-17282.475,-3678.795,-13498.02,-43510.23,-40606.605,-34078.365,-13298.355
1764767215.881305,-10084.68,-17281.98,-3677.4,-13495.41,-43507.44,-40605.12,-34078.545,-13298.085
1764767215.881305,-10098.945,-17294.265,-3689.145,-13506.66,-43517.34,-40613.49,-34087.59,-13309.92
1764767215.881305,-10092.195,-17291.07,-3688.695,-13508.46,-43520.58,-40616.91,-34089.165,-13306.32
1764767215.8823133,-10085.94,-17282.07,-3676.68,-13494.78,-43504.785,-40602.42,-34079.805,-13299.165
1764767215.8823133,-10089.765,-17283.239999999998,-3677.04,-13493.97,-43503.615,-40601.115,-34078.32,-13301.28
1764767215.8823133,-10093.59,-17291.16,-3688.56,-13505.94,-43514.91,-40611.465,-34084.665,-13305.33
1764767215.8823133,-10089.585,-17285.489999999998,-3682.035,-13500.045,-43511.22,-40608.18,-34081.065,-13300.785
1764767215.8823133,-10085.13,-17279.37,-3675.69,-13493.25,-43504.38,-40602.105,-34078.095,-13299.39
1764767215.8823133,-10087.02,-17282.79,-3679.74,-13498.29,-43508.745,-40605.66,-34078.86,-13301.055
1764767215.8823133,-10079.145,-17275.095,-3671.685,-13491.315,-43501.455,-40599.9,-34073.28,-13292.685
1764767215.8823133,-10078.245,-17274.42,-3671.415,-13490.145,-43499.745,-40598.73,-34071.03,-13290.12
1764767215.8823133,-10083.825,-17280.989999999998,-3677.94,-13498.02,-43508.205,-40606.245,-34076.744999999995,-13296.6
1764767215.8823133,-10074.51,-17271.09,-3669.705,-13489.65,-43500.87,-40599.09,-34069.95,-13290.345
1764767215.8823133,-10076.805,-17272.98,-3670.965,-13491.18,-43500.735,-40598.82,-34070.58,-13290.93
1764767215.8823133,-10083.78,-17280.54,-3678.255,-13498.83,-43507.71,-40606.605,-34077.465,-13296.96
1764767215.883317,-10079.955,-17276.489999999998,-3674.565,-13495.59,-43504.2,-40602.87,-34073.235,-13292.865
1764767215.883317,-10078.335,-17275.32,-3674.205,-13495.455,-43504.29,-40602.69,-34072.155,-13291.56
1764767215.883317,-10082.385,-17279.28,-3679.965,-13501.35,-43511.265,-40610.25,-34078.23,-13296.6
1764767215.883317,-10074.915,-17271.315,-3672.495,-13494.69,-43506.405,-40605.705,-34073.055,-13291.29
1764767215.883317,-10081.935,-17274.96,-3671.505,-13490.91,-43497.54,-40596.48,-34068.015,-13295.16
1764767215.883317,-10079.145,-17274.735,-3673.89,-13495.59,-43504.56,-40604.355,-34071.435,-13291.29
1764767215.883317,-10078.83,-17277.03,-3678.21,-13500.945,-43511.265,-40609.17,-34074.27,-13291.74
1764767215.9267695,-10081.08,-17277.795,-3678.57,-13501.395,-43511.625,-40609.305,-34074.494999999995,-13293.675
1764767215.9267695,-10081.125,-17277.3,-3678.21,-13501.62,-43511.04,-40610.115,-34074.945,-13294.665
1764767215.9267695,-10085.04,-17282.295,-3682.89,-13506.57,-43515.36,-40614.255,-34078.68,-13300.245
1764767215.9267695,-10086.3,-17280.989999999998,-3679.605,-13503.87,-43512.705,-40612.095,-34077.015,-13300.65
1764767215.9267695,-10084.23,-17279.64,-3679.515,-13505.13,-43514.685,-40615.065,-34077.96,-13298.355
1764767215.9267695,-10079.46,-17275.905,-3675.69,-13500.945,-43509.825,-40610.025,-34073.325,-13293.225
1764767215.927787,-10085.4,-17280.72,-3679.965,-13505.49,-43513.92,-40613.625,-34077.24,-13297.905
1764767215.927787,-10079.64,-17275.05,-3675.69,-13502.205,-43511.94,-40612.995,-34076.25,-13295.07
1764767215.927787,-10074.15,-17272.035,-3672.495,-13498.65,-43505.955,-40607.055,-34069.41,-13289.49
1764767215.927787,-10079.46,-17276.895,-3676.14,-13501.89,-43509.42,-40609.305,-34069.59,-13292.64
1764767215.927787,-10079.055,-17278.38,-3681.405,-13508.955,-43518.15,-40616.235,-34074.675,-13292.865
1764767215.927787,-10080.945,-17277.165,-3678.48,-13503.915,-43512.12,-40611.6,-34074.045,-13294.08
1764767215.927787,-10087.335,-17279.235,-3677.715,-13501.485,-43509.78,-40612.23,-34076.61,-13300.065
1764767215.927787,-10083.195,-17279.19,-3680.055,-13506.12,-43515.765,-40616.145,-34074.54,-13295.205
1764767215.927787,-10083.33,-17280.09,-3681.09,-13507.83,-43517.52,-40617.99,-34078.905,-13299.39
1764767215.927787,-10082.475,-17280.405,-3682.395,-13508.01,-43517.34,-40616.415,-34076.655,-13298.715
1764767215.9288125,-10085.22,-17277.57,-3679.11,-13504.365,-43514.865,-40614.255,-34072.02,-13298.04
1764767215.9288125,-10088.01,-17281.395,-3682.485,-13508.235,-43519.32,-40618.98,-34076.97,-13300.74
1764767215.9288125,-10083.375,-17279.46,-3681.045,-13507.74,-43519.275,-40619.16,-34076.835,-13297.14
1764767215.9288125,-10087.65,-17282.97,-3685.68,-13511.88,-43523.01,-40622.67,-34079.85,-13299.48
1764767215.9288125,-10089.45,-17283.645,-3686.715,-13512.915,-43524.54,-40624.74,-34081.695,-13299.255
1764767215.9288125,-10091.07,-17285.265,-3688.695,-13514.31,-43524.27,-40625.145,-34082.595,-13301.775
1764767215.972442,-10093.32,-17287.695,-3690.99,-13516.155,-43527.555,-40628.835,-34086.42,-13307.895
1764767215.972442,-10092.33,-17288.01,-3692.475,-13518.855,-43530.345,-40630.32,-34086.69,-13306.05
1764767215.972442,-10093.32,-17287.739999999998,-3688.92,-13514.04,-43526.07,-40625.955,-34082.055,-13304.79
1764767215.972442,-10084.365,-17278.335,-3678.3,-13502.025,-43514.55,-40617.63,-34077.645,-13295.79
1764767215.972442,-10085.94,-17280.225,-3681.675,-13503.735,-43516.485,-40616.73,-34076.16,-13296.33
1764767215.972442,-10086.66,-17281.215,-3683.025,-13504.32,-43516.53,-40616.91,-34073.775,-13294.26
1764767215.972442,-10083.465,-17278.92,-3681.315,-13504.005,-43517.34,-40619.295,-34075.98,-13293.99
1764767215.972442,-10085.985,-17280.809999999998,-3682.485,-13504.77,-43519.68,-40621.545,-34079.58,-13298.715
1764767215.972442,-10087.965,-17283.555,-3685.14,-13507.02,-43521.21,-40621.365,-34080.03,-13299.93
1764767215.972442,-10093.14,-17288.684999999998,-3689.73,-13512.06,-43525.665,-40626.855,-34086.825,-13303.935
1764767215.972442,-10089.045,-17283.42,-3683.07,-13503.69,-43518.06,-40619.565,-34083.54,-13300.965
1764767215.972442,-10097.46,-17292.42,-3693.015,-13513.455,-43527.105,-40625.73,-34086.825,-13308.66
1764767215.972442,-10094.58,-17289.765,-3691.935,-13512.375,-43527.375,-40626.99,-34086.33,-13306.77
1764767215.972442,-10086.39,-17280.945,-3682.26,-13502.205,-43517.565,-40617.81,-34079.13,-13299.66
1764767215.972442,-10085.22,-17280.855,-3682.17,-13500.99,-43516.035,-40616.46,-34076.88,-13297.995
1764767215.972442,-10083.645,-17279.82,-3680.46,-13499.235,-43514.73,-40614.48,-34073.46,-13295.745
1764767215.972442,-10086.03,-17282.655,-3683.205,-13501.71,-43518.42,-40617.81,-34075.44,-13296.78
1764767215.972442,-10095.795,-17287.92,-3687.84,-13505.94,-43523.145,-40625.01,-34085.34,-13307.22
1764767215.972442,-10090.755,-17284.635,-3683.97,-13501.305,-43519.14,-40620.015,-34080.705,-13302.72
1764767215.972442,-10087.155,-17281.17,-3681.0,-13498.38,-43517.52,-40618.215,-34078.635,-13300.74
1764767215.972442,-10088.73,-17281.98,-3681.315,-13497.57,-43516.215,-40617.855,-34079.895,-13302.495
1764767215.972442,-10090.305,-17285.175,-3683.565,-13500.315,-43518.915,-40620.015,-34081.2,-13304.43
1764767216.0203862,-10095.615,-17290.44,-3688.83,-13505.67,-43524.315,-40625.73,-34087.185,-13310.595
1764767216.0203862,-10091.745,-17285.445,-3683.835,-13499.955,-43519.59,-40620.735,-34083.135,-13306.455
1764767216.0214012,-10095.39,-17290.44,-3688.11,-13503.42,-43523.505,-40623.705,-34085.744999999995,-13311.36
1764767216.0214012,-10093.41,-17290.215,-3688.02,-13504.365,-43524.9,-40625.055,-34085.07,-13309.83
1764767216.0214012,-10085.49,-17283.78,-3682.845,-13500.855,-43522.38,-40621.635,-34080.21,-13302.675
1764767216.0214012,-10087.155,-17286.12,-3686.94,-13504.77,-43526.7,-40624.605,-34083.225,-13305.465
1764767216.0214012,-10097.82,-17289.855,-3686.715,-13500.99,-43520.985,-40622.22,-34088.49,-13314.87
1764767216.0214012,-10097.055,-17290.35,-3687.03,-13500.315,-43520.76,-40622.04,-34088.715,-13314.645
1764767216.0214012,-10090.53,-17288.28,-3687.39,-13502.34,-43523.865,-40621.68,-34084.035,-13308.705
1764767216.0214012,-10099.44,-17294.399999999998,-3692.295,-13507.245,-43529.805,-40628.565,-34088.04,-13313.925
1764767216.0214012,-10098.54,-17292.51,-3690.135,-13503.645,-43527.555,-40628.61,-34091.055,-13314.555
1764767216.0214012,-10099.395,-17294.94,-3692.025,-13505.535,-43528.95,-40627.665,-34089.345,-13314.105
1764767216.0214012,-10098.945,-17294.94,-3692.07,-13505.805,-43530.66,-40630.185,-34089.84,-13312.98
1764767216.0214012,-10097.73,-17293.14,-3690.225,-13502.835,-43527.465,-40627.08,-34089.705,-13312.755
1764767216.0214012,-10094.58,-17289.135,-3686.22,-13498.155,-43521.975,-40620.735,-34085.115,-13309.155
1764767216.0214012,-10103.625,-17298.63,-3696.165,-13507.515,-43532.73,-40630.815,-34094.07,-13318.38
1764767216.0214012,-10103.94,-17299.755,-3697.605,-13508.955,-43534.755,-40632.39,-34095.105,-13317.795
1764767216.0214012,-10098.9,-17296.605,-3694.77,-13505.94,-43531.29,-40628.52,-34090.065,-13310.865
1764767216.0214012,-10102.815,-17296.965,-3692.7,-13502.205,-43527.87,-40626.225,-34092.99,-13316.76
1764767216.0214012,-10099.035,-17293.14,-3689.595,-13498.515,-43526.295,-40624.965,-34091.28,-13315.095
1764767216.0214012,-10093.23,-17289.135,-3686.58,-13494.69,-43522.965,-40621.005,-34085.744999999995,-13308.795
1764767216.0214012,-10096.29,-17291.34,-3688.83,-13497.255,-43525.53,-40622.76,-34088.805,-13311.225
1764767216.0214012,-10096.605,-17291.79,-3689.505,-13498.065,-43525.98,-40623.12,-34089.48,-13311.18
1764767216.0214012,-10091.79,-17286.885,-3685.185,-13493.7,-43522.965,-40621.005,-34087.23,-13307.49
1764767216.0214012,-10090.53,-17284.725,-3682.17,-13489.965,-43518.015,-40616.685,-34084.305,-13304.43
1764767216.0214012,-10095.885,-17291.204999999998,-3687.39,-13493.7,-43518.915,-40617.495,-34085.835,-13307.67
1764767216.064757,-10096.605,-17292.105,-3688.47,-13495.32,-43521.93,-40620.6,-34084.665,-13306.095
1764767216.064757,-10093.995,-17289.54,-3688.335,-13496.04,-43524.81,-40625.145,-34088.22,-13307.67
1764767216.064757,-10100.025,-17295.57,-3695.22,-13503.645,-43531.605,-40631.175,-34092.99,-13313.34
1764767216.064757,-10094.355,-17288.055,-3688.155,-13495.59,-43521.93,-40622.175,-34087.185,-13307.94
1764767216.064757,-10092.555,-17287.02,-3687.255,-13495.005,-43521.39,-40621.77,-34084.935,-13305.195
1764767216.064757,-10094.13,-17288.864999999998,-3688.83,-13497.075,-43524.18,-40624.245,-34085.34,-13305.015
1764767216.064757,-10098.18,-17295.3,-3695.94,-13504.995,-43531.335,-40631.895,-34091.865,-13309.335
1764767216.0660155,-10095.48,-17292.42,-3692.34,-13501.98,-43527.645,-40629.375,-34090.56,-13309.38
1764767216.0660155,-10088.82,-17282.52,-3681.495,-13492.17,-43517.7,-40619.205,-34081.02,-13301.415
1764767216.0660155,-10090.35,-17285.94,-3687.12,-13498.965,-43523.19,-40623.615,-34081.65,-13302.45
1764767216.0660155,-10099.17,-17291.97,-3693.33,-13505.265,-43529.04,-40630.365,-34089.255,-13311.765
1764767216.0660155,-10095.21,-17287.559999999998,-3688.92,-13501.485,-43526.655,-40628.88,-34088.715,-13308.93
1764767216.0660155,-10098.045,-17290.89,-3692.52,-13505.715,-43529.895,-40631.445,-34090.02,-13311.09
1764767216.0660155,-10092.24,-17286.255,-3688.02,-13501.935,-43525.8,-40628.07,-34085.295,-13305.015
1764767216.0665293,-10090.305,-17285.445,-3688.875,-13505.175,-43529.715,-40630.86,-34084.305,-13303.08
1764767216.0665293,-10096.695,-17291.745,-3695.49,-13512.645,-43535.835,-40637.115,-34087.41,-13308.48
1764767216.0665293,-10089.72,-17285.04,-3688.515,-13505.805,-43528.5,-40632.255,-34083.765,-13303.62
1764767216.0665293,-10086.48,-17280.36,-3683.565,-13502.34,-43525.71,-40631.31,-34081.38,-13301.685
1764767216.0665293,-10088.82,-17280.989999999998,-3682.53,-13501.665,-43523.73,-40628.565,-34081.92,-13303.035
1764767216.0665293,-10096.785,-17290.575,-3691.98,-13512.195,-43533.54,-40638.87,-34089.885,-13310.73
1764767216.0665293,-10098.765,-17294.13,-3697.92,-13519.035,-43539.615,-40643.19,-34090.02,-13311.45
1764767216.0665293,-10091.295,-17285.175,-3688.92,-13509.495,-43530.21,-40633.65,-34082.505,-13305.06
1764767216.1132643,-10087.47,-17282.43,-3686.805,-13508.46,-43529.13,-40633.29,-34080.119999999995,-13301.145
1764767216.1132643,-10084.365,-17284.14,-3691.08,-13513.905,-43535.88,-40639.5,-34083.045,-13300.245
1764767216.1132643,-10095.48,-17289.63,-3694.32,-13517.19,-43540.38,-40643.235,-34086.33,-13308.3
1764767216.1132643,-10093.995,-17286.12,-3689.595,-13511.79,-43534.98,-40640.22,-34084.755,-13307.265
1764767216.1132643,-10089.63,-17282.835,-3686.4,-13508.1,-43530.12,-40634.055,-34078.545,-13302.045
1764767216.1137805,-10091.115,-17285.535,-3690.765,-13513.77,-43535.385,-40639.545,-34081.92,-13303.485
1764767216.1137805,-10083.69,-17277.704999999998,-3682.755,-13505.895,-43527.42,-40632.615,-34076.79,-13297.86
1764767216.1137805,-10091.295,-17287.38,-3693.33,-13516.38,-43536.87,-40640.58,-34082.955,-13304.7
1764767216.1137805,-10086.21,-17281.26,-3687.705,-13510.665,-43531.245,-40634.865,-34077.915,-13300.695
1764767216.1137805,-10086.3,-17281.17,-3686.625,-13509.045,-43530.795,-40633.605,-34077.6,-13300.695
1764767216.1137805,-10090.575,-17287.92,-3694.905,-13517.1,-43540.38,-40642.965,-34085.61,-13305.015
1764767216.1137805,-10093.185,-17287.695,-3694.455,-13516.47,-43540.065,-40642.38,-34087.365,-13307.535
1764767216.1137805,-10092.87,-17285.04,-3690.765,-13512.87,-43536.87,-40640.4,-34085.025,-13306.725
1764767216.1137805,-10091.745,-17286.66,-3691.395,-13513.455,-43537.365,-40641.255,-34084.08,-13305.15
1764767216.1137805,-10090.53,-17286.48,-3690.99,-13513.545,-43535.79,-40640.175,-34083.855,-13304.745
1764767216.1137805,-10083.015,-17277.93,-3682.845,-13503.6,-43525.08,-40629.105,-34075.71,-13297.59
1764767216.1137805,-10081.755,-17276.895,-3683.385,-13502.745,-43525.71,-40629.42,-34073.369999999995,-13297.005
1764767216.1137805,-10086.615,-17281.035,-3687.93,-13506.84,-43532.28,-40636.89,-34080.48,-13301.91
1764767216.1137805,-10091.385,-17284.815,-3690.495,-13509.0,-43534.755,-40639.32,-34086.105,-13306.14
1764767216.1137805,-10085.04,-17279.73,-3686.31,-13504.68,-43530.03,-40633.695,-34079.805,-13299.12
1764767216.1137805,-10084.32,-17277.48,-3683.79,-13501.125,-43526.07,-40630.14,-34077.015,-13297.365
1764767216.1137805,-10086.84,-17281.215,-3687.66,-13504.635,-43529.49,-40632.75,-34078.14,-13298.625
1764767216.160781,-10091.205,-17288.19,-3696.525,-13515.21,-43541.505,-40645.08,-34085.34,-13302.675
1764767216.160781,-10089.63,-17285.76,-3693.96,-13509.54,-43535.34,-40639.5,-34083.63,-13305.69
1764767216.160781,-10087.29,-17281.53,-3687.12,-13500.945,-43526.565,-40632.525,-34080.57,-13302.855
1764767216.160781,-10079.1,-17274.375,-3680.595,-13495.455,-43521.075,-40626.63,-34072.92,-13293.54
1764767216.160781,-10074.555,-17270.864999999998,-3677.67,-13493.655,-43520.13,-40625.46,-34070.94,-13289.49
1764767216.160781,-10077.975,-17275.725,-3682.845,-13499.595,-43525.665,-40629.42,-34075.395,-13292.19
1764767216.160781,-10081.53,-17275.005,-3681.315,-13498.605,-43525.53,-40630.41,-34074.81,-13292.73
1764767216.160781,-10080.18,-17272.98,-3678.03,-13494.105,-43520.22,-40626.945,-34075.44,-13294.755
1764767216.160781,-10083.87,-17278.29,-3683.97,-13497.48,-43522.065,-40625.73,-34073.955,-13297.68
1764767216.160781,-10086.615,-17282.475,-3688.965,-13503.285,-43530.165,-40633.695,-34079.985,-13300.47
1764767216.160781,-10082.385,-17278.335,-3685.905,-13499.82,-43526.745,-40629.87,-34074.945,-13295.97
1764767216.160781,-10080.27,-17275.14,-3682.035,-13495.815,-43522.515,-40626.315,-34073.73,-13295.52
1764767216.160781,-10081.395,-17275.77,-3683.835,-13498.335,-43524.81,-40628.43,-34074.405,-13295.79
1764767216.160781,-10081.62,-17276.22,-3685.095,-13499.64,-43526.385,-40630.365,-34074.855,-13296.105
1764767216.160781,-10084.365,-17278.695,-3687.57,-13502.205,-43528.455,-40633.515,-34079.04,-13299.345
1764767216.160781,-10092.285,-17285.85,-3694.05,-13507.695,-43533.27,-40638.915,-34087.14,-13308.57
1764767216.160781,-10090.98,-17285.94,-3695.355,-13509.9,-43536.51,-40640.805,-34086.96,-13307.22
1764767216.160781,-10082.475,-17280.27,-3690.675,-13506.165,-43531.74,-40635.09,-34079.22,-13299.255
1764767216.160781,-10083.42,-17279.64,-3689.685,-13506.255,-43533.225,-40637.79,-34078.41,-13299.93
1764767216.160781,-10090.575,-17284.635,-3693.87,-13508.64,-43533.36,-40637.295,-34080.39,-13304.88
1764767216.160781,-10084.545,-17276.805,-3684.87,-13498.56,-43524.045,-40629.195,-34076.88,-13300.11
1764767216.160781,-10081.215,-17278.829999999998,-3690.405,-13505.94,-43532.37,-40636.755,-34079.445,-13296.06
1764767216.160781,-10085.04,-17279.28,-3690.45,-13506.705,-43532.865,-40637.295,-34079.985,-13300.47
1764767216.160781,-10084.095,-17275.184999999998,-3684.69,-13500.9,-43527.78,-40635.09,-34078.994999999995,-13300.92
1764767216.2037628,-10078.965,-17273.16,-3684.24,-13499.64,-43527.825,-40633.695,-34077.33,-13297.5
1764767216.2037628,-10078.065,-17274.105,-3685.185,-13499.775,-43526.34,-40631.715,-34078.23,-13298.49
1764767216.2037628,-10081.17,-17275.14,-3685.275,-13500.63,-43526.565,-40630.86,-34075.8,-13299.795
1764767216.2037628,-10081.665,-17275.59,-3685.23,-13501.935,-43528.545,-40633.695,-34075.755,-13298.49
1764767216.2037628,-10083.645,-17280.135,-3690.585,-13508.55,-43535.79,-40640.94,-34082.1,-13301.28
1764767216.2037628,-10082.295,-17277.03,-3687.12,-13505.22,-43531.965,-40637.34,-34078.5,-13299.795
1764767216.2037628,-10081.08,-17276.715,-3687.795,-13506.615,-43534.755,-40639.545,-34078.32,-13298.805
1764767216.2037628,-10087.335,-17280.495,-3691.26,-13509.855,-43537.185,-40642.245,-34082.91,-13304.34
1764767216.2037628,-10084.725,-17277.57,-3687.48,-13506.57,-43534.035,-40640.13,-34081.47,-13301.73
1764767216.2037628,-10074.645,-17268.165,-3679.11,-13498.605,-43526.25,-40631.94,-34071.885,-13291.83
1764767216.2037628,-10071.585,-17265.329999999998,-3675.375,-13494.555,-43522.38,-40627.215,-34066.935,-13288.23
1764767216.2037628,-10074.645,-17268.255,-3677.76,-13495.995,-43523.82,-40628.655,-34068.51,-13290.615
1764767216.2037628,-10077.795,-17271.765,-3683.34,-13504.005,-43532.865,-40636.845,-34072.83,-13293.27
1764767216.2037628,-10079.055,-17272.17,-3684.465,-13505.535,-43536.24,-40640.985,-34078.77,-13297.77
1764767216.2037628,-10076.715,-17269.425,-3678.975,-13497.075,-43524.855,-40630.455,-34072.2,-13294.08
1764767216.2037628,-10074.87,-17268.434999999998,-3678.48,-13495.995,-43522.965,-40627.755,-34068.555,-13293.765
1764767216.2037628,-10076.895,-17270.28,-3680.19,-13498.875,-43526.88,-40632.03,-34071.345,-13294.98
1764767216.2037628,-10082.295,-17277.03,-3686.76,-13505.895,-43533.495,-40637.295,-34075.8,-13299.795
1764767216.2037628,-10078.785,-17272.17,-3681.27,-13501.53,-43529.94,-40636.035,-34075.35,-13296.015
1764767216.2037628,-10082.295,-17275.545,-3683.88,-13504.32,-43533.09,-40639.275,-34076.52,-13297.545
1764767216.2037628,-10077.525,-17272.62,-3681.585,-13502.565,-43532.91,-40637.88,-34072.92,-13294.755
1764767216.2037628,-10086.705,-17281.305,-3689.685,-13510.53,-43539.795,-40643.595,-34080.21,-13303.62
1764767216.2037628,-10087.74,-17282.07,-3690.675,-13510.89,-43541.505,-40646.25,-34081.56,-13303.305
1764767216.2037628,-10083.555,-17277.345,-3686.985,-13506.93,-43538.355,-40643.19,-34078.32,-13298.49
1764767216.253199,-10089.63,-17284.59,-3694.095,-13513.86,-43546.725,-40650.75,-34083.99,-13304.565
1764767216.253199,-10085.265,-17280.27,-3689.82,-13508.865,-43541.28,-40645.17,-34079.535,-13301.415
1764767216.253199,-10085.715,-17280.585,-3689.19,-13509.36,-43541.91,-40646.07,-34082.685,-13303.305
1764767216.253199,-10084.23,-17278.965,-3686.22,-13506.615,-43539.03,-40643.37,-34080.165,-13301.775
1764767216.2537067,-10083.375,-17279.325,-3688.515,-13509.72,-43543.35,-40646.115,-34077.51,-13299.57
1764767216.2537067,-10081.035,-17274.149999999998,-3682.98,-13503.78,-43537.77,-40641.705,-34075.845,-13298.13
1764767216.2537067,-10070.82,-17266.86,-3677.13,-13498.695,-43532.145,-40634.415,-34067.295,-13287.96
1764767216.2537067,-10073.385,-17269.29,-3678.075,-13499.19,-43532.505,-40634.91,-34068.735,-13290.705
1764767216.2537067,-10076.355,-17272.17,-3679.74,-13501.125,-43534.08,-40637.745,-34073.19,-13294.215
1764767216.2537067,-10086.255,-17278.29,-3684.42,-13505.625,-43539.435,-40644.81,-34079.085,-13301.1
1764767216.2537067,-10084.275,-17276.805,-3682.71,-13503.87,-43537.005,-40642.74,-34078.905,-13300.74
1764767216.2537067,-10078.695,-17273.204999999998,-3680.1,-13501.755,-43534.485,-40638.33,-34072.244999999995,-13293.99
1764767216.2537067,-10076.94,-17272.62,-3681.495,-13504.005,-43537.545,-40640.985,-34071.75,-13292.01
1764767216.2537067,-10079.37,-17275.68,-3685.77,-13507.56,-43540.965,-40644.54,-34074.81,-13294.71
1764767216.2537067,-10078.875,-17272.305,-3680.73,-13503.195,-43537.545,-40642.83,-34075.845,-13296.69
1764767216.2537067,-10076.22,-17271.09,-3678.93,-13502.565,-43535.7,-40640.805,-34070.805,-13293.27
1764767216.2537067,-10074.33,-17268.12,-3675.69,-13500.09,-43531.605,-40636.44,-34069.455,-13291.65
1764767216.2537067,-10076.49,-17270.37,-3678.39,-13502.79,-43533.855,-40639.23,-34072.244999999995,-13293.765
1764767216.2537067,-10075.455,-17270.46,-3679.155,-13503.96,-43534.53,-40641.345,-34073.01,-13292.595
1764767216.2537067,-10080.495,-17276.94,-3686.76,-13512.33,-43542.18,-40648.23,-34077.42,-13296.51
1764767216.2537067,-10079.595,-17276.13,-3687.435,-13515.255,-43546.14,-40651.155,-34078.41,-13295.115
1764767216.2537067,-10075.41,-17272.079999999998,-3684.105,-13512.015,-43541.415,-40647.375,-34073.595,-13290.975
1764767216.2537067,-10080.99,-17275.454999999998,-3686.04,-13513.41,-43541.19,-40649.85,-34077.6,-13297.095
1764767216.2537067,-10083.195,-17277.885,-3687.12,-13513.77,-43539.975,-40648.635,-34077.645,-13299.255
1764767216.300636,-10081.98,-17277.165,-3688.155,-13515.345,-43543.215,-40652.235,-34078.994999999995,-13297.815
1764767216.300636,-10078.38,-17273.07,-3684.06,-13512.195,-43537.95,-40647.555,-34074.945,-13293.18
1764767216.300636,-10072.8,-17269.695,-3682.305,-13511.475,-43535.79,-40644.09,-34068.465,-13287.33
1764767216.300636,-10074.195,-17270.37,-3684.195,-13511.565,-43536.24,-40644.675,-34068.24,-13290.525
1764767216.300636,-10073.79,-17266.86,-3680.82,-13509.54,-43536.87,-40646.43,-34069.994999999995,-13290.885
1764767216.300636,-10079.73,-17273.7,-3686.94,-13516.92,-43543.35,-40653.72,-34076.475,-13296.87
1764767216.300636,-10081.125,-17276.22,-3688.74,-13518.72,-43544.385,-40654.395,-34076.43,-13298.13
1764767216.300636,-10074.42,-17270.505,-3684.69,-13514.895,-43538.805,-40646.88,-34069.994999999995,-13291.065
1764767216.300636,-10074.195,-17268.614999999998,-3682.53,-13514.175,-43538.76,-40647.51,-34069.994999999995,-13290.57
1764767216.300636,-10078.515,-17273.475,-3687.75,-13518.855,-43544.745,-40655.655,-34076.97,-13296.465
1764767216.300636,-10079.145,-17274.6,-3688.335,-13517.82,-43541.415,-40650.93,-34072.92,-13295.025
1764767216.300636,-10082.835,-17276.04,-3688.92,-13518.225,-43542.405,-40653.225,-34076.835,-13298.265
1764767216.300636,-10073.88,-17268.434999999998,-3681.945,-13510.26,-43534.53,-40646.205,-34069.32,-13289.355
1764767216.300636,-10080.495,-17276.22,-3690.855,-13519.485,-43543.98,-40654.665,-34074.0,-13296.51
1764767216.300636,-10079.145,-17275.005,-3690.225,-13519.53,-43543.71,-40653.9,-34073.595,-13296.285
1764767216.300636,-10073.25,-17268.84,-3684.33,-13512.915,-43537.86,-40649.265,-34072.155,-13290.795
1764767216.300636,-10079.415,-17274.239999999998,-3688.245,-13515.3,-43539.705,-40651.245,-34077.105,-13297.725
1764767216.300636,-10080.855,-17276.445,-3690.765,-13518.99,-43543.98,-40653.63,-34075.845,-13295.925
1764767216.300636,-10078.245,-17272.755,-3687.21,-13514.58,-43541.505,-40651.335,-34074.045,-13293.315
1764767216.300636,-10075.905,-17271.899999999998,-3686.49,-13512.645,-43540.29,-40650.255,-34073.28,-13291.695
1764767216.300636,-10076.175,-17271.945,-3686.265,-13512.105,-43539.345,-40648.59,-34071.795,-13292.595
1764767216.300636,-10070.82,-17267.13,-3681.45,-13506.075,-43532.955,-40641.84,-34069.005,-13290.12
1764767216.3471584,-10065.87,-17266.59,-3682.485,-13505.085,-43530.21,-40636.71,-34059.645,-13281.03
1764767216.3471584,-10069.83,-17262.09,-3675.33,-13498.38,-43527.105,-40638.015,-34064.415,-13284.99
1764767216.3471584,-10066.275,-17259.165,-3671.64,-13494.87,-43523.505,-40635.315,-34066.17,-13285.035
1764767216.3481712,-10071.945,-17265.195,-3676.995,-13497.885,-43524.27,-40633.695,-34064.595,-13288.05
1764767216.3481712,-10078.155,-17274.015,-3688.065,-13509.99,-43537.77,-40647.645,-34074.225,-13292.64
1764767216.3481712,-10072.62,-17267.13,-3680.865,-13502.16,-43529.625,-40639.995,-34069.59,-13288.815
1764767216.3481712,-10074.645,-17268.57,-3681.315,-13500.945,-43527.87,-40635.9,-34066.26,-13289.805
1764767216.3481712,-10080.225,-17272.98,-3686.04,-13505.58,-43535.79,-40644.225,-34074.765,-13295.88
1764767216.3481712,-10077.66,-17271.0,-3683.925,-13503.465,-43534.62,-40643.865,-34074.945,-13294.485
1764767216.3481712,-10068.84,-17261.82,-3673.53,-13491.675,-43522.245,-40631.715,-34066.89,-13286.925
1764767216.3481712,-10066.905,-17260.965,-3673.44,-13490.235,-43520.985,-40628.025,-34062.39,-13283.865
1764767216.3481712,-10076.355,-17270.55,-3682.395,-13499.64,-43531.515,-40638.195,-34071.255,-13291.83
1764767216.3481712,-10076.67,-17270.28,-3681.09,-13498.2,-43529.715,-40637.52,-34073.28,-13293.54
1764767216.3481712,-10070.505,-17264.43,-3676.14,-13493.745,-43526.295,-40632.48,-34067.115,-13287.87
1764767216.3481712,-10071.99,-17266.77,-3678.03,-13495.68,-43526.115,-40632.345,-34067.79,-13287.87
1764767216.3481712,-10073.565,-17267.355,-3676.32,-13490.955,-43519.95,-40627.71,-34067.88,-13289.895
1764767216.3481712,-10072.395,-17267.489999999998,-3677.625,-13492.71,-43523.145,-40630.095,-34068.465,-13289.175
1764767216.3481712,-10078.83,-17273.88,-3684.195,-13498.65,-43530.03,-40636.845,-34075.53,-13296.42
1764767216.3481712,-10080.495,-17274.69,-3684.78,-13499.865,-43529.985,-40637.565,-34077.105,-13298.22
1764767216.3491683,-10072.26,-17267.04,-3676.365,-13491.18,-43520.67,-40627.62,-34066.485,-13288.545
1764767216.3491683,-10062.99,-17263.079999999998,-3675.15,-13490.955,-43520.4,-40627.62,-34064.505,-13280.76
1764767216.3491683,-10073.115,-17268.57,-3679.785,-13494.69,-43523.37,-40630.725,-34069.994999999995,-13290.93
1764767216.3491683,-10071.765,-17261.774999999998,-3670.83,-13485.33,-43515.54,-40625.01,-34067.16,-13288.455
1764767216.3491683,-10069.65,-17263.755,-3673.935,-13489.29,-43518.825,-40627.575,-34066.845,-13286.25
1764767216.391548,-10072.395,-17266.454999999998,-3679.335,-13494.96,-43525.17,-40634.415,-34069.86,-13290.12
1764767216.391548,-10064.745,-17259.165,-3672.27,-13488.39,-43518.6,-40627.71,-34063.47,-13283.055
1764767216.391548,-10068.435,-17263.53,-3675.96,-13491.495,-43519.77,-40627.53,-34062.93,-13284.09
1764767216.391548,-10075.59,-17269.065,-3681.45,-13496.94,-43525.395,-40633.245,-34069.23,-13291.155
1764767216.391548,-10070.55,-17264.204999999998,-3676.59,-13492.845,-43522.29,-40630.86,-34066.035,-13286.43
1764767216.391548,-10070.145,-17263.305,-3675.06,-13492.485,-43521.48,-40632.615,-34068.915,-13287.24
1764767216.391548,-10064.115,-17258.579999999998,-3671.235,-13489.335,-43517.16,-40627.845,-34061.67,-13279.995
1764767216.391548,-10064.43,-17258.85,-3671.82,-13489.515,-43516.665,-40627.395,-34060.994999999995,-13281.39
1764767216.391548,-10071.495,-17264.79,-3677.49,-13495.23,-43521.48,-40631.58,-34066.395,-13287.6
1764767216.391548,-10064.16,-17256.105,-3669.435,-13487.175,-43513.155,-40623.03,-34061.13,-13282.29
1764767216.391548,-10061.19,-17253.18,-3665.79,-13484.34,-43510.14,-40619.835,-34057.89,-13279.005
1764767216.391548,-10065.105,-17257.5,-3669.345,-13488.255,-43513.11,-40622.445,-34057.71,-13279.995
1764767216.391548,-10069.065,-17264.295,-3677.67,-13497.39,-43523.64,-40633.02,-34062.075,-13282.02
1764767216.391548,-10060.155,-17254.305,-3668.265,-13488.255,-43515.045,-40626.09,-34057.53,-13278.69
1764767216.391548,-10048.05,-17244.72,-3659.76,-13480.47,-43506.405,-40616.235,-34047.585,-13267.89
1764767216.391548,-10048.77,-17242.29,-3656.655,-13477.545,-43501.905,-40611.87,-34044.345,-13266.405
1764767216.391548,-10052.505,-17243.954999999998,-3657.645,-13479.615,-43504.245,-40614.075,-34045.335,-13268.52
1764767216.391548,-10058.895,-17251.47,-3664.215,-13486.815,-43512.75,-40623.345,-34056.315,-13277.115
1764767216.391548,-10056.015,-17249.13,-3661.74,-13483.665,-43509.285,-40620.33,-34054.11,-13274.415
1764767216.3925643,-10059.93,-17253.315,-3666.69,-13488.165,-43512.705,-40623.075,-34055.55,-13277.07
1764767216.3925643,-10057.23,-17252.235,-3666.555,-13488.48,-43514.505,-40624.65,-34055.82,-13275.54
1764767216.3925643,-10050.705,-17245.079999999998,-3658.905,-13480.2,-43505.595,-40615.92,-34047.18,-13268.565
1764767216.3925643,-10053.675,-17249.715,-3665.43,-13487.85,-43512.615,-40621.5,-34049.7,-13270.23
1764767216.3925643,-10060.29,-17251.065,-3666.105,-13488.03,-43512.435,-40622.85,-34054.965,-13279.545
1764767216.439363,-10057.095,-17248.815,-3663.99,-13486.275,-43511.04,-40621.95,-34052.4,-13275.045
1764767216.439363,-10058.4,-17251.38,-3667.68,-13491.045,-43515.81,-40628.07,-34056.225,-13275.27
1764767216.4398692,-10054.215,-17248.815,-3666.42,-13490.82,-43515.135,-40625.64,-34051.68,-13270.32
1764767216.4398692,-10057.59,-17251.605,-3668.265,-13492.395,-43516.17,-40626.495,-34054.02,-13273.965
1764767216.4398692,-10059.57,-17252.145,-3666.42,-13488.795,-43512.075,-40624.605,-34056.315,-13276.89
1764767216.4398692,-10063.935,-17257.23,-3672.0,-13495.32,-43518.825,-40631.265,-34061.535,-13281.075
1764767216.4398692,-10060.47,-17255.97,-3671.73,-13495.995,-43520.49,-40630.59,-34057.26,-13276.71
1764767216.4398692,-10068.165,-17261.954999999998,-3675.825,-13498.83,-43522.965,-40633.785,-34061.355,-13283.28
1764767216.4398692,-10060.47,-17254.44,-3669.57,-13494.285,-43518.105,-40629.51,-34058.79,-13276.62
1764767216.4398692,-10059.3,-17255.835,-3672.72,-13497.84,-43522.155,-40632.21,-34060.05,-13277.025
1764767216.4398692,-10069.47,-17264.745,-3679.2,-13503.915,-43526.925,-40637.745,-34063.56,-13284.495
1764767216.4398692,-10075.68,-17267.175,-3678.93,-13503.555,-43527.555,-40640.355,-34069.005,-13290.12
1764767216.4398692,-10071.315,-17263.89,-3676.68,-13501.17,-43524.135,-40635.765,-34065.945,-13286.115
1764767216.4398692,-10071.99,-17266.32,-3678.84,-13504.005,-43525.935,-40637.97,-34065.675,-13286.115
1764767216.4398692,-10075.77,-17271.54,-3686.04,-13513.14,-43536.735,-40649.355,-34073.325,-13291.605
1764767216.4398692,-10078.965,-17273.61,-3688.11,-13514.22,-43537.23,-40649.13,-34073.055,-13293.99
1764767216.4398692,-10079.415,-17275.05,-3688.92,-13515.165,-43537.095,-40648.59,-34070.94,-13292.82
1764767216.4398692,-10073.07,-17266.815,-3680.82,-13506.975,-43529.895,-40643.415,-34067.205,-13289.49
1764767216.4398692,-10068.615,-17262.315,-3677.31,-13503.825,-43526.79,-40641.165,-34063.92,-13284.99
1764767216.4398692,-10067.805,-17262.809999999998,-3679.2,-13506.435,-43529.355,-40642.695,-34063.244999999995,-13283.505
1764767216.4873812,-10069.695,-17263.26,-3678.615,-13505.13,-43526.88,-40640.22,-34063.83,-13286.295
1764767216.4873812,-10072.44,-17265.555,-3678.84,-13506.165,-43527.555,-40641.48,-34064.64,-13288.905
1764767216.4873812,-10067.76,-17262.945,-3677.04,-13505.445,-43528.275,-40641.3,-34062.705,-13284.945
1764767216.4873812,-10076.94,-17271.54,-3686.04,-13514.535,-43537.32,-40650.525,-34071.93,-13294.755
1764767216.4873812,-10077.255,-17269.605,-3683.205,-13511.655,-43534.89,-40649.535,-34074.9,-13295.835
1764767216.4873812,-10078.245,-17269.739999999998,-3682.125,-13508.01,-43529.265,-40642.785,-34070.175,-13294.665
1764767216.4873812,-10078.695,-17273.61,-3689.055,-13517.505,-43538.895,-40650.39,-34069.545,-13294.305
1764767216.4873812,-10075.455,-17272.53,-3689.055,-13518.045,-43541.145,-40653.27,-34069.59,-13292.91
1764767216.4873812,-10074.645,-17270.55,-3686.22,-13514.805,-43537.905,-40650.75,-34069.14,-13291.245
1764767216.4873812,-10070.325,-17263.665,-3678.93,-13506.57,-43530.255,-40643.415,-34064.955,-13287.105
1764767216.4873812,-10071.18,-17262.27,-3676.455,-13503.735,-43528.815,-40644.54,-34069.05,-13290.615
1764767216.4873812,-10069.785,-17267.13,-3684.015,-13512.24,-43535.88,-40647.69,-34067.115,-13288.005
1764767216.4873812,-10066.32,-17261.055,-3676.77,-13505.94,-43529.895,-40642.695,-34059.69,-13281.12
1764767216.4873812,-10074.015,-17265.51,-3680.46,-13507.83,-43531.335,-40645.44,-34066.619999999995,-13289.58
1764767216.4873812,-10068.66,-17260.335,-3675.555,-13502.7,-43527.15,-40640.265,-34061.355,-13283.775
1764767216.4873812,-10067.535,-17262.405,-3679.515,-13509.405,-43534.53,-40647.69,-34065.494999999995,-13282.83
1764767216.4873812,-10075.59,-17271.45,-3687.435,-13515.48,-43539.93,-40653.315,-34070.67,-13289.715
1764767216.4873812,-10071.63,-17264.79,-3678.435,-13503.915,-43527.24,-40642.92,-34065.765,-13286.745
1764767216.4873812,-10073.655,-17268.795,-3684.645,-13510.215,-43533.72,-40648.005,-34067.205,-13290.84
1764767216.4873812,-10073.115,-17268.12,-3684.69,-13510.8,-43534.71,-40649.805,-34067.16,-13289.715
1764767216.4873812,-10070.28,-17265.645,-3681.54,-13508.955,-43533.36,-40648.275,-34065.045,-13284.99
1764767216.4873812,-10074.33,-17270.415,-3686.67,-13514.445,-43538.49,-40654.215,-34071.165,-13290.03
1764767216.4873812,-10075.185,-17271.54,-3688.11,-13514.85,-43537.59,-40653.315,-34070.22,-13290.345
1764767216.4873812,-10078.47,-17274.015,-3689.82,-13516.83,-43540.29,-40655.565,-34072.244999999995,-13292.595
1764767216.4873812,-10082.97,-17277.57,-3692.655,-13520.88,-43544.97,-40660.965,-34077.42,-13297.32
1764767216.4873812,-10079.595,-17274.645,-3690.495,-13519.08,-43542.27,-40657.185,-34075.035,-13293.9
1764767216.5318463,-10069.875,-17266.23,-3683.025,-13511.07,-43533.855,-40648.365,-34067.79,-13286.205
1764767216.5318463,-10070.145,-17265.239999999998,-3681.405,-13509.27,-43532.415,-40648.365,-34066.98,-13286.115
1764767216.5318463,-10079.415,-17272.305,-3686.985,-13514.49,-43537.86,-40653.315,-34071.48,-13293.405
1764767216.5318463,-10079.01,-17273.79,-3689.775,-13517.055,-43540.47,-40656.555,-34072.965,-13293.225
1764767216.5328496,-10076.13,-17271.36,-3688.515,-13515.84,-43539.57,-40655.745,-34072.65,-13291.38
1764767216.5328496,-10072.485,-17268.57,-3685.14,-13513.275,-43536.06,-40652.415,-34069.365,-13287.87
1764767216.5328496,-10066.095,-17262.18,-3679.74,-13509.135,-43530.885,-40647.465,-34062.975,-13281.795
1764767216.5328496,-10071.09,-17264.43,-3679.695,-13508.415,-43529.85,-40647.24,-34065.855,-13286.7
1764767216.5328496,-10076.58,-17269.38,-3685.77,-13514.175,-43535.835,-40653.945,-34072.29,-13291.605
1764767216.5333889,-10071.315,-17264.745,-3681.675,-13510.44,-43531.605,-40647.915,-34066.125,-13285.71
1764767216.5333889,-10073.34,-17266.23,-3682.89,-13511.295,-43533.225,-40650.345,-34068.555,-13289.895
1764767216.5333889,-10068.615,-17262.989999999998,-3679.65,-13507.83,-43529.04,-40645.755,-34062.84,-13285.575
1764767216.5333889,-10078.02,-17274.329999999998,-3691.89,-13522.005,-43543.53,-40659.48,-34071.795,-13292.595
1764767216.5333889,-10081.575,-17275.095,-3692.205,-13521.105,-43542.99,-40659.48,-34073.82,-13296.285
1764767216.5333889,-10077.12,-17270.82,-3688.38,-13518.135,-43541.82,-40661.01,-34076.025,-13296.33
1764767216.5333889,-10073.835,-17268.84,-3686.04,-13515.12,-43537.77,-40656.33,-34072.11,-13292.865
1764767216.5333889,-10069.56,-17264.295,-3682.35,-13509.945,-43530.84,-40647.24,-34063.335,-13286.295
1764767216.5333889,-10079.01,-17274.015,-3693.375,-13522.095,-43545.06,-40660.515,-34072.065,-13295.34
1764767216.5333889,-10082.025,-17279.82,-3699.9,-13529.43,-43551.63,-40666.005,-34075.215,-13297.725
1764767216.5333889,-10079.415,-17275.274999999998,-3694.905,-13523.715,-43545.555,-40661.505,-34072.605,-13294.575
1764767216.5333889,-10084.455,-17275.095,-3692.385,-13520.79,-43543.17,-40662.63,-34078.545,-13300.515
1764767216.5333889,-10083.195,-17277.12,-3694.77,-13523.13,-43546.14,-40663.845,-34076.88,-13297.77
1764767216.5333889,-10075.68,-17270.19,-3688.515,-13516.83,-43540.515,-40658.175,-34073.775,-13295.88
1764767216.5333889,-10070.01,-17264.114999999998,-3683.07,-13510.575,-43532.55,-40649.04,-34064.505,-13288.095
1764767216.5768764,-10070.91,-17263.665,-3683.295,-13512.465,-43537.455,-40654.08,-34065.945,-13286.475
1764767216.5768764,-10074.42,-17269.11,-3687.705,-13515.615,-43539.84,-40655.52,-34069.815,-13291.02
1764767216.5768764,-10073.745,-17267.265,-3685.005,-13512.42,-43535.52,-40652.055,-34068.195,-13290.48
1764767216.5768764,-10073.205,-17266.68,-3684.825,-13513.14,-43536.105,-40653.27,-34070.805,-13291.47
1764767216.5768764,-10075.68,-17268.75,-3686.94,-13514.445,-43537.455,-40653.585,-34071.795,-13292.865
1764767216.5768764,-10077.84,-17272.215,-3691.08,-13518.585,-43542.54,-40658.265,-34074.765,-13293.405
1764767216.5768764,-10085.04,-17279.505,-3698.64,-13527.495,-43552.53,-40668.3,-34082.19,-13299.165
1764767216.5768764,-10083.645,-17276.489999999998,-3695.085,-13524.12,-43548.75,-40665.42,-34081.515,-13300.155
1764767216.5768764,-10080.315,-17273.88,-3693.105,-13521.105,-43544.565,-40661.19,-34077.69,-13298.22
1764767216.5768764,-10078.38,-17272.395,-3691.845,-13519.665,-43542.0,-40658.805,-34075.619999999995,-13296.015
1764767216.5768764,-10073.475,-17267.489999999998,-3687.255,-13514.175,-43536.825,-40653.09,-34070.13,-13291.47
1764767216.5768764,-10078.83,-17271.63,-3690.45,-13516.875,-43540.65,-40657.86,-34075.395,-13297.095
1764767216.5768764,-10078.605,-17272.44,-3690.9,-13518.09,-43542.27,-40658.625,-34074.405,-13297.14
1764767216.5768764,-10083.645,-17279.505,-3699.27,-13525.56,-43549.605,-40664.97,-34078.994999999995,-13301.595
1764767216.5768764,-10078.425,-17274.149999999998,-3694.23,-13522.095,-43546.32,-40662.675,-34076.655,-13297.5
1764767216.5768764,-10085.04,-17276.355,-3694.23,-13521.78,-43545.6,-40664.43,-34080.705,-13304.205
1764767216.5768764,-10082.205,-17274.015,-3692.025,-13519.17,-43542.18,-40660.74,-34077.015,-13301.145
1764767216.5768764,-10088.28,-17280.63,-3698.28,-13525.38,-43548.795,-40666.32,-34081.92,-13305.465
1764767216.5778902,-10088.595,-17283.645,-3703.41,-13530.915,-43554.735,-40672.08,-34083.945,-13305.42
1764767216.5778902,-10086.3,-17282.43,-3703.545,-13530.555,-43554.15,-40671.27,-34080.795,-13301.415
1764767216.5778902,-10085.265,-17276.94,-3695.085,-13521.15,-43542.495,-40659.84,-34075.935,-13299.345
1764767216.5778902,-10084.86,-17277.165,-3696.48,-13523.67,-43544.475,-40661.19,-34077.105,-13301.505
1764767216.6234431,-10082.7,-17273.7,-3692.655,-13520.34,-43541.685,-40660.335,-34075.035,-13299.03
1764767216.6234431,-10086.75,-17279.145,-3699.09,-13527.045,-43548.705,-40668.075,-34081.83,-13303.575
1764767216.6234431,-10082.97,-17275.59,-3695.4,-13523.22,-43543.845,-40662.495,-34076.88,-13300.29
1764767216.6244545,-10086.39,-17278.649999999998,-3698.64,-13526.82,-43546.995,-40665.69,-34080.705,-13303.44
1764767216.6244545,-10080.63,-17273.07,-3692.88,-13521.96,-43542.45,-40661.37,-34075.44,-13297.185
1764767216.6244545,-10077.75,-17271.315,-3691.17,-13521.33,-43542.27,-40661.235,-34074.09,-13293.45
1764767216.6244545,-10083.015,-17276.13,-3694.815,-13523.535,-43542.045,-40661.505,-34073.369999999995,-13296.78
1764767216.6249611,-10077.93,-17271.045,-3690.315,-13520.07,-43539.39,-40660.65,-34072.92,-13292.865
1764767216.6249611,-10075.59,-17268.075,-3686.13,-13515.345,-43534.62,-40656.51,-34069.23,-13293.0
1764767216.6249611,-10083.915,-17276.985,-3696.165,-13525.74,-43546.5,-40667.355,-34075.53,-13300.11
1764767216.6249611,-10081.08,-17272.26,-3691.44,-13522.32,-43543.17,-40665.555,-34075.35,-13297.455
1764767216.6249611,-10083.24,-17275.23,-3694.995,-13525.83,-43544.205,-40665.645,-34075.485,-13298.895
1764767216.6249611,-10089.9,-17282.34,-3702.105,-13533.93,-43551.495,-40673.52,-34081.695,-13305.42
1764767216.6249611,-10088.325,-17283.329999999998,-3703.68,-13536.81,-43553.205,-40675.68,-34083.315,-13305.24
1764767216.6249611,-10079.955,-17276.895,-3697.605,-13531.59,-43548.57,-40670.235,-34076.97,-13297.455
1764767216.6249611,-10083.465,-17275.454999999998,-3695.58,-13527.18,-43543.395,-40665.645,-34073.55,-13296.78
1764767216.6249611,-10085.31,-17279.055,-3700.485,-13532.58,-43548.165,-40671.315,-34076.34,-13300.38
1764767216.6249611,-10076.355,-17271.63,-3694.185,-13528.125,-43544.43,-40666.905,-34070.31,-13294.53
1764767216.6259804,-10075.59,-17270.01,-3691.935,-13524.57,-43539.795,-40663.845,-34069.23,-13292.955
1764767216.6259804,-10074.465,-17268.075,-3688.965,-13521.24,-43535.475,-40660.065,-34067.97,-13292.73
1764767216.6259804,-10075.005,-17270.145,-3692.745,-13526.46,-43539.885,-40663.08,-34068.915,-13292.73
1764767216.6259804,-10079.145,-17273.61,-3695.625,-13530.555,-43543.305,-40667.13,-34071.75,-13295.43
1764767216.6259804,-10077.21,-17271.899999999998,-3692.79,-13527.675,-43540.065,-40664.52,-34069.545,-13293.315
1764767216.6259804,-10074.78,-17270.145,-3693.015,-13528.305,-43542.405,-40667.265,-34070.895,-13293.0
1764767216.6705365,-10078.92,-17274.465,-3697.335,-13532.895,-43546.05,-40670.955,-34074.09,-13296.465
1764767216.6705365,-10074.78,-17270.19,-3692.07,-13527.045,-43541.415,-40665.96,-34070.67,-13292.64
1764767216.6705365,-10079.775,-17274.915,-3695.985,-13531.095,-43543.62,-40668.12,-34072.38,-13296.96
1764767216.6705365,-10074.015,-17270.505,-3693.33,-13529.34,-43542.18,-40665.195,-34067.115,-13290.48
1764767216.6705365,-10070.91,-17266.454999999998,-3690.495,-13526.415,-43541.55,-40665.915,-34066.98,-13287.87
1764767216.6705365,-10071.855,-17267.67,-3691.53,-13527.135,-43542.63,-40666.815,-34069.32,-13289.76
1764767216.6705365,-10079.145,-17273.655,-3695.31,-13530.285,-43544.835,-40667.895,-34072.785,-13295.79
1764767216.6705365,-10082.115,-17274.78,-3695.67,-13529.205,-43545.33,-40668.705,-34074.945,-13297.995
1764767216.6705365,-10079.55,-17272.845,-3694.455,-13527.495,-43544.475,-40666.86,-34073.82,-13296.735
1764767216.6705365,-10084.05,-17278.335,-3699.945,-13533.66,-43551.135,-40672.98,-34077.06,-13300.38
1764767216.6705365,-10081.485,-17277.21,-3700.035,-13532.985,-43549.335,-40671.18,-34075.395,-13298.265
1764767216.6705365,-10076.445,-17273.43,-3696.345,-13528.35,-43545.375,-40665.735,-34068.869999999995,-13291.74
1764767216.6705365,-10080.675,-17276.13,-3698.955,-13531.5,-43550.82,-40671.585,-34073.82,-13296.915
1764767216.6705365,-10077.03,-17269.965,-3692.025,-13522.14,-43540.29,-40661.955,-34069.68,-13294.755
1764767216.6705365,-10081.125,-17273.745,-3695.22,-13524.66,-43542.855,-40665.015,-34071.57,-13297.5
1764767216.6705365,-10076.265,-17271.045,-3693.465,-13522.86,-43541.82,-40664.97,-34068.869999999995,-13292.325
1764767216.6705365,-10072.53,-17268.66,-3691.665,-13520.52,-43539.165,-40660.875,-34064.055,-13288.095
1764767216.6705365,-10080.315,-17275.005,-3696.165,-13525.065,-43545.915,-40667.94,-34075.17,-13297.005
1764767216.6705365,-10080.585,-17276.355,-3698.64,-13526.955,-43548.21,-40669.065,-34076.61,-13296.915
1764767216.6705365,-10079.01,-17274.329999999998,-3697.155,-13525.065,-43546.14,-40666.005,-34074.494999999995,-13296.645
1764767216.6705365,-10078.11,-17272.17,-3693.825,-13521.285,-43541.82,-40661.505,-34071.57,-13296.87
1764767216.6705365,-10077.795,-17272.755,-3694.32,-13521.195,-43542.765,-40662.765,-34072.065,-13295.07
1764767216.7177343,-10071.855,-17266.454999999998,-3688.515,-13515.39,-43536.645,-40656.285,-34065.765,-13288.995
1764767216.7177343,-10071.63,-17266.005,-3687.795,-13514.895,-43537.185,-40656.555,-34065.81,-13287.555
1764767216.7177343,-10078.29,-17273.25,-3695.445,-13521.555,-43543.215,-40663.665,-34074.225,-13295.79
1764767216.7177343,-10076.49,-17271.225,-3693.015,-13518.135,-43539.57,-40659.93,-34074.945,-13296.69
1764767216.7177343,-10071.18,-17264.835,-3685.77,-13510.305,-43531.83,-40652.055,-34066.845,-13290.12
1764767216.7177343,-10071.99,-17269.245,-3691.8,-13517.1,-43537.815,-40655.925,-34068.915,-13290.39
1764767216.7177343,-10075.095,-17266.545,-3686.31,-13509.855,-43531.065,-40652.415,-34068.78,-13291.56
1764767216.7177343,-10075.635,-17267.085,-3688.2,-13511.16,-43532.775,-40652.865,-34068.825,-13291.875
1764767216.7177343,-10075.41,-17268.434999999998,-3690.45,-13514.22,-43536.465,-40655.655,-34069.725,-13291.65
1764767216.7177343,-10081.35,-17275.995,-3698.01,-13522.455,-43544.295,-40663.665,-34075.44,-13296.105
1764767216.7177343,-10076.49,-17271.18,-3693.24,-13516.245,-43536.78,-40656.69,-34070.13,-13292.235
1764767216.7177343,-10076.04,-17270.1,-3690.855,-13514.31,-43535.295,-40657.77,-34072.74,-13296.195
1764767216.718736,-10077.57,-17272.35,-3693.33,-13516.875,-43536.96,-40657.455,-34072.47,-13295.475
1764767216.718736,-10075.005,-17271.27,-3693.555,-13518.405,-43538.49,-40657.86,-34071.03,-13292.64
1764767216.718736,-10072.62,-17266.5,-3688.38,-13513.095,-43532.28,-40652.82,-34065.99,-13290.255
1764767216.718736,-10078.695,-17271.63,-3692.34,-13517.325,-43535.925,-40657.05,-34071.345,-13296.285
1764767216.718736,-10084.545,-17278.515,-3699.63,-13525.38,-43543.665,-40665.465,-34079.22,-13302.09
1764767216.718736,-10080.675,-17274.69,-3696.255,-13522.68,-43542.18,-40664.07,-34077.42,-13298.49
1764767216.718736,-10072.89,-17267.13,-3688.155,-13515.345,-43533.945,-40656.555,-34067.97,-13289.31
1764767216.718736,-10068.3,-17264.07,-3685.68,-13512.6,-43530.57,-40653.495,-34066.215,-13286.7
1764767216.718736,-10070.595,-17266.95,-3688.245,-13512.6,-43529.31,-40651.47,-34062.795,-13287.015
1764767216.718736,-10071.9,-17263.98,-3684.645,-13510.935,-43530.57,-40654.26,-34063.38,-13288.05
1764767216.718736,-10073.34,-17266.815,-3688.875,-13516.605,-43536.24,-40660.515,-34069.815,-13292.415
1764767216.718736,-10069.965,-17262.855,-3684.69,-13512.33,-43530.705,-40655.16,-34065.18,-13288.545
1764767216.7649684,-10071.315,-17264.925,-3687.795,-13515.345,-43534.395,-40658.94,-34067.07,-13289.715
1764767216.7649684,-10080.45,-17275.86,-3699.225,-13527.045,-43545.42,-40669.02,-34074.36,-13297.365
1764767216.7659836,-10080.675,-17275.995,-3699.27,-13527.405,-43545.555,-40669.38,-34075.17,-13296.69
1764767216.7659836,-10077.615,-17271.945,-3694.77,-13524.03,-43541.91,-40667.4,-34074.494999999995,-13295.61
1764767216.7659836,-10074.015,-17267.309999999998,-3690.225,-13519.26,-43536.375,-40660.29,-34068.869999999995,-13293.18
1764767216.7659836,-10075.095,-17267.355,-3690.225,-13520.115,-43538.22,-40662.765,-34069.905,-13293.495
1764767216.7659836,-10076.94,-17270.1,-3693.015,-13524.03,-43543.305,-40668.39,-34073.19,-13293.81
1764767216.7659836,-10081.35,-17274.239999999998,-3697.245,-13528.755,-43547.22,-40672.395,-34077.195,-13297.86
1764767216.7659836,-10075.905,-17268.57,-3692.88,-13523.805,-43542.54,-40665.915,-34070.22,-13292.145
1764767216.7659836,-10073.52,-17266.41,-3690.54,-13521.105,-43538.895,-40661.28,-34067.655,-13292.1
1764767216.766984,-10074.33,-17267.13,-3690.585,-13522.32,-43540.965,-40663.665,-34068.6,-13291.92
1764767216.766984,-10074.105,-17267.489999999998,-3689.865,-13521.465,-43540.605,-40663.485,-34069.05,-13292.46
1764767216.766984,-10074.555,-17267.265,-3688.695,-13520.565,-43538.85,-40663.305,-34068.51,-13292.595
1764767216.766984,-10073.115,-17266.59,-3689.1,-13520.745,-43538.715,-40664.79,-34070.94,-13292.595
1764767216.767456,-10080.36,-17276.22,-3699.675,-13531.995,-43550.865,-40674.78,-34075.98,-13298.175
1764767216.767456,-10081.035,-17276.67,-3700.62,-13531.995,-43550.82,-40674.42,-34075.125,-13298.94
1764767216.767456,-10075.905,-17269.38,-3693.105,-13524.255,-43544.25,-40669.47,-34073.91,-13296.6
1764767216.767456,-10070.73,-17264.07,-3689.37,-13521.195,-43541.82,-40665.33,-34067.61,-13291.695
1764767216.767456,-10069.785,-17263.395,-3689.685,-13523.31,-43544.205,-40668.03,-34069.095,-13291.515
1764767216.767456,-10070.595,-17263.575,-3687.345,-13517.01,-43534.125,-40660.92,-34069.23,-13293.09
1764767216.767456,-10064.295,-17258.13,-3684.15,-13513.995,-43532.64,-40658.265,-34061.13,-13284.675
1764767216.767986,-10068.84,-17261.505,-3686.13,-13516.065,-43536.555,-40661.19,-34063.56,-13286.97
1764767216.810573,-10076.58,-17270.82,-3695.58,-13525.605,-43544.25,-40668.12,-34070.895,-13294.17
1764767216.810573,-10073.52,-17265.69,-3690.36,-13520.79,-43541.37,-40665.69,-34068.78,-13291.245
1764767216.810573,-10072.755,-17265.87,-3690.585,-13521.465,-43542.585,-40667.445,-34070.355,-13289.94
1764767216.810573,-10077.975,-17271.135,-3694.095,-13523.085,-43542.045,-40667.265,-34073.145,-13296.06
1764767216.810573,-10072.935,-17266.005,-3689.73,-13518.045,-43537.815,-40662.045,-34065.585,-13291.83
1764767216.810573,-10070.055,-17264.385,-3690.585,-13519.44,-43541.055,-40664.25,-34065.225,-13288.77
1764767216.810573,-10071.405,-17267.22,-3693.15,-13523.715,-43545.645,-40668.255,-34066.755,-13288.23
1764767216.810573,-10071.315,-17264.43,-3688.965,-13518.72,-43541.19,-40665.87,-34066.845,-13289.58
1764767216.810573,-10071.045,-17266.545,-3691.935,-13521.87,-43543.62,-40668.435,-34068.42,-13290.12
1764767216.810573,-10075.77,-17271.855,-3697.065,-13525.785,-43548.615,-40672.26,-34072.425,-13294.44
1764767216.810573,-10077.525,-17269.605,-3693.285,-13522.005,-43544.835,-40670.505,-34072.92,-13296.69
1764767216.810573,-10075.545,-17269.515,-3694.815,-13523.355,-43546.455,-40671.675,-34073.685,-13295.79
1764767216.810573,-10074.24,-17269.29,-3695.13,-13523.31,-43546.68,-40671.405,-34072.605,-13293.315
1764767216.810573,-10073.79,-17268.48,-3694.68,-13522.905,-43545.465,-40670.235,-34071.66,-13292.595
1764767216.810573,-10079.01,-17272.395,-3697.83,-13525.47,-43548.03,-40673.565,-34075.935,-13298.58
1764767216.810573,-10077.93,-17272.305,-3697.56,-13525.74,-43548.3,-40673.88,-34075.755,-13298.67
1764767216.8117163,-10071.405,-17264.52,-3689.28,-13517.145,-43540.92,-40666.095,-34068.645,-13291.74
1764767216.8117163,-10070.91,-17264.25,-3689.145,-13516.38,-43538.94,-40664.07,-34066.845,-13290.03
1764767216.8117163,-10073.97,-17267.805,-3693.465,-13522.14,-43544.34,-40670.46,-34071.255,-13292.91
1764767216.8117163,-10075.14,-17268.48,-3694.455,-13523.13,-43544.52,-40671.27,-34071.48,-13294.395
1764767216.8117163,-10072.53,-17266.86,-3693.555,-13523.085,-43544.79,-40671.0,-34069.77,-13292.82
1764767216.8117163,-10079.685,-17273.16,-3698.955,-13527.405,-43548.795,-40674.735,-34074.675,-13299.435
1764767216.8117163,-10075.185,-17268.12,-3693.24,-13522.05,-43543.44,-40671.045,-34071.975,-13295.745
1764767216.8117163,-10080.225,-17273.475,-3699.405,-13528.215,-43549.785,-40677.075,-34075.755,-13300.155
1764767216.8598638,-10083.555,-17275.545,-3701.925,-13531.095,-43553.565,-40680.63,-34079.49,-13302.675
1764767216.8598638,-10080.315,-17273.07,-3699.765,-13528.485,-43550.82,-40679.37,-34079.58,-13300.335
1764767216.8598638,-10080.585,-17274.78,-3701.16,-13529.115,-43549.065,-40676.13,-34077.465,-13300.335
1764767216.8598638,-10082.745,-17275.14,-3700.08,-13527.63,-43547.22,-40673.25,-34073.595,-13299.66
1764767216.8598638,-10074.42,-17267.535,-3693.24,-13523.22,-43545.24,-40672.44,-34072.065,-13293.405
1764767216.8598638,-10077.03,-17271.18,-3696.885,-13525.92,-43546.77,-40673.655,-34073.19,-13293.99
1764767216.8598638,-10082.655,-17276.579999999998,-3703.455,-13532.535,-43553.88,-40680.18,-34077.195,-13298.22
1764767216.8598638,-10075.185,-17268.21,-3695.04,-13524.57,-43545.645,-40673.385,-34071.93,-13293.99
1764767216.8598638,-10075.455,-17271.54,-3699.315,-13530.195,-43549.92,-40675.905,-34071.255,-13292.865
1764767216.8598638,-10079.82,-17273.114999999998,-3699.18,-13527.855,-43547.04,-40673.79,-34074.18,-13296.645
1764767216.8598638,-10081.665,-17273.295,-3699.09,-13527.99,-43548.21,-40677.165,-34078.23,-13300.47
1764767216.8598638,-10080.405,-17273.61,-3699.9,-13529.655,-43549.515,-40677.165,-34076.835,-13299.21
1764767216.8598638,-10072.395,-17267.22,-3693.69,-13523.22,-43543.845,-40670.505,-34070.13,-13290.255
1764767216.8598638,-10067.895,-17262.765,-3689.55,-13518.765,-43538.985,-40666.095,-34065.855,-13285.44
1764767216.8598638,-10071.315,-17262.855,-3688.875,-13517.19,-43537.455,-40666.005,-34065.81,-13288.365
1764767216.8598638,-10076.13,-17266.184999999998,-3692.88,-13521.42,-43542.27,-40670.64,-34071.03,-13295.07
1764767216.8598638,-10082.565,-17273.655,-3701.025,-13528.35,-43550.73,-40679.28,-34077.42,-13300.38
1764767216.8598638,-10077.255,-17269.605,-3697.74,-13525.515,-43549.065,-40678.695,-34076.79,-13294.935
1764767216.8598638,-10076.715,-17267.355,-3693.555,-13521.105,-43543.485,-40673.745,-34078.005,-13295.88
1764767216.8598638,-10082.43,-17276.445,-3704.085,-13531.005,-43551.63,-40677.345,-34076.25,-13299.075
1764767216.8598638,-10079.235,-17273.204999999998,-3701.34,-13528.62,-43552.35,-40679.955,-34073.369999999995,-13294.08
1764767216.8608978,-10082.07,-17275.14,-3702.42,-13529.34,-43553.16,-40682.88,-34078.41,-13298.49
1764767216.8608978,-10075.59,-17266.095,-3692.61,-13518.99,-43542.72,-40673.79,-34071.119999999995,-13292.37
1764767216.8608978,-10072.71,-17263.079999999998,-3689.19,-13515.39,-43538.895,-40669.29,-34067.115,-13288.815
1764767216.9102414,-10077.03,-17268.48,-3695.265,-13521.87,-43545.42,-40673.88,-34071.119999999995,-13293.405
1764767216.9102414,-10084.815,-17277.255,-3704.175,-13529.835,-43553.205,-40682.475,-34080.345,-13301.73
1764767216.9102414,-10086.48,-17280.18,-3706.425,-13532.31,-43555.995,-40683.96,-34082.055,-13303.395
1764767216.9102414,-10080.855,-17272.665,-3698.055,-13522.545,-43546.68,-40675.725,-34077.33,-13300.605
1764767216.9102414,-10086.84,-17279.774999999998,-3704.67,-13528.44,-43553.88,-40682.655,-34083.45,-13305.69
1764767216.9102414,-10088.37,-17281.845,-3706.695,-13530.96,-43556.22,-40684.59,-34085.565,-13306.815
1764767216.9102414,-10083.195,-17276.309999999998,-3700.665,-13524.795,-43550.46,-40678.695,-34080.93,-13301.01
1764767216.9102414,-10087.965,-17280.765,-3705.57,-13529.295,-43556.76,-40684.86,-34086.015,-13305.87
1764767216.9102414,-10084.095,-17275.364999999998,-3700.08,-13523.445,-43550.37,-40679.775,-34082.91,-13302.27
1764767216.9102414,-10085.58,-17277.704999999998,-3701.925,-13524.345,-43549.74,-40677.57,-34081.335,-13302.765
1764767216.9102414,-10091.43,-17284.815,-3709.08,-13531.455,-43557.615,-40683.915,-34085.295,-13306.455
1764767216.9102414,-10099.035,-17292.465,-3715.74,-13539.87,-43566.345,-40693.545,-34096.77,-13315.095
1764767216.9102414,-10098.315,-17292.555,-3715.785,-13539.24,-43565.13,-40692.24,-34095.375,-13315.23
1764767216.9102414,-10095.75,-17289.675,-3712.14,-13534.965,-43561.26,-40688.73,-34093.845,-13313.97
1764767216.9102414,-10089.54,-17283.69,-3706.38,-13528.26,-43555.185,-40682.745,-34088.31,-13306.905
1764767216.9102414,-10087.29,-17283.915,-3707.55,-13529.745,-43557.165,-40683.78,-34088.355,-13304.88
1764767216.9102414,-10090.755,-17285.13,-3707.28,-13528.62,-43555.5,-40684.32,-34090.335,-13310.19
1764767216.9102414,-10081.845,-17274.78,-3696.075,-13515.795,-43542.0,-40670.595,-34080.705,-13303.485
1764767216.9102414,-10081.44,-17275.86,-3698.55,-13518.495,-43546.95,-40674.24,-34079.985,-13300.515
