Timestamp,Channel1,Channel2,Channel3,Channel4,Channel5,Channel6,Channel7,Channel8
1764767760.6948109,8141.804999999999,-1546.695,-35019.18,-13613.895,-10045.89,-28111.995,81.13499999999999,8850.734999999999
1764767760.6948109,8132.804999999999,-1557.315,-35029.71,-13625.19,-10056.87,-28122.615,71.55,8840.654999999999
1764767760.6948109,8128.53,-1562.265,-35035.74,-13632.525,-10064.745,-28132.335,66.645,8834.985
1764767760.6948109,8128.53,-1562.58,-35036.865,-13634.73,-10070.415,-28143.495,65.7,8835.029999999999
1764767760.6953204,8135.594999999999,-1554.9299999999998,-35031.375,-13629.69,-10068.93,-28142.505,71.82,8842.815
1764767760.6953204,8147.16,-1542.33,-35018.82,-13617.405,-10061.55,-28129.455,83.565,8855.324999999999
1764767760.6953204,8142.255,-1546.515,-35021.025,-13618.215,-10059.705,-28119.33,82.17,8851.32
1764767760.6953204,8144.594999999999,-1544.13,-35017.74,-13612.32,-10045.215,-28103.04,85.77,8852.984999999999
1764767760.6953204,8155.98,-1532.115,-35006.715,-13601.295,-10031.985,-28093.995,94.995,8863.74
1764767760.6953204,8150.804999999999,-1537.245,-35012.52,-13607.28,-10039.77,-28103.355,90.81,8858.789999999999
1764767760.6953204,8162.37,-1526.4,-35001.54,-13597.92,-10032.84,-28095.03,102.15,8870.984999999999
1764767760.6953204,8162.73,-1527.705,-35002.575,-13598.73,-10034.145,-28096.335,101.475,8870.445
1764767760.6953204,8150.085,-1540.845,-35016.615,-13613.625,-10053.36,-28118.97,88.24499999999999,8856.675
1764767760.6953204,8141.625,-1548.72,-35024.04,-13621.815,-10062.855,-28130.49,79.28999999999999,8848.305
1764767760.6953204,8136.179999999999,-1554.3,-35030.205,-13626.405,-10067.13,-28134.135,73.98,8843.13
1764767760.6953204,8137.035,-1552.77,-35029.395,-13624.515,-10063.89,-28128.645,75.285,8844.39
1764767760.6953204,8148.509999999999,-1541.205,-35017.965,-13612.455,-10049.22,-28115.145,86.715,8856.81
1764767760.6953204,8152.155,-1538.325,-35014.59,-13608.72,-10043.955,-28110.195,88.64999999999999,8860.455
1764767760.6953204,8151.21,-1540.26,-35016.255,-13610.295,-10043.73,-28111.185,85.185,8858.609999999999
1764767760.6953204,8139.195,-1554.165,-35029.395,-13623.345,-10056.24,-28125.18,71.19,8844.3
1764767760.6953204,8143.245,-1551.285,-35027.145,-13620.825,-10052.55,-28120.905,73.575,8848.08
1764767760.6953204,8142.21,-1553.175,-35029.53,-13622.805,-10054.08,-28121.49,75.06,8847.585
1764767760.6953204,8142.974999999999,-1551.915,-35029.305,-13622.805,-10056.915,-28125.495,77.67,8848.755
1764767760.6953204,8135.73,-1559.07,-35037.405,-13630.365,-10065.195,-28133.19,71.46,8841.96
1764767760.7388513,8138.88,-1555.11,-35033.58,-13627.17,-10060.605,-28129.095,73.755,8845.11
1764767760.7388513,8149.995,-1543.365,-35021.88,-13615.38,-10046.88,-28117.575,83.205,8855.82
1764767760.7388513,8155.98,-1537.335,-35015.49,-13608.135,-10037.43,-28109.61,91.575,8862.975
1764767760.7388513,8161.11,-1532.835,-35011.44,-13604.13,-10033.74,-28107.0,96.435,8867.295
1764767760.7388513,8157.644999999999,-1536.885,-35015.58,-13608.855,-10038.51,-28111.725,93.15,8863.695
1764767760.7388513,8143.965,-1551.4199999999998,-35029.71,-13622.76,-10052.415,-28123.29,80.505,8849.744999999999
1764767760.7388513,8139.465,-1557.315,-35035.92,-13628.34,-10056.42,-28124.235,75.825,8844.21
1764767760.7388513,8140.86,-1556.28,-35035.155,-13627.35,-10054.215,-28122.03,76.365,8845.335
1764767760.7388513,8149.995,-1546.605,-35025.885,-13617.405,-10043.145,-28112.445,83.78999999999999,8853.93
1764767760.7388513,8145.719999999999,-1551.465,-35030.655,-13621.95,-10046.88,-28117.26,80.19,8848.529999999999
1764767760.7398624,8154.945,-1541.61,-35020.44,-13612.14,-10036.845,-28107.765,89.235,8858.654999999999
1764767760.7403765,8158.41,-1537.74,-35017.335,-13609.125,-10033.65,-28105.155,92.43,8862.885
1764767760.7403765,8149.094999999999,-1547.01,-35026.29,-13618.53,-10042.965,-28115.595,84.42,8854.02
1764767760.7403765,8147.835,-1548.1799999999998,-35027.64,-13619.7,-10045.125,-28117.17,83.74499999999999,8853.21
1764767760.7403765,8157.915,-1537.83,-35017.74,-13608.72,-10035.18,-28106.055,91.62,8863.154999999999
1764767760.7403765,8149.184999999999,-1547.595,-35026.92,-13617.27,-10042.695,-28111.68,82.035,8853.48
1764767760.7403765,8136.674999999999,-1561.5449999999998,-35040.33,-13630.41,-10054.665,-28123.47,70.515,8839.8
1764767760.7403765,8141.535,-1557.225,-35036.369999999995,-13627.035,-10051.245,-28121.175,72.765,8843.67
1764767760.7403765,8148.105,-1551.24,-35030.385,-13621.23,-10045.89,-28118.025,79.24499999999999,8850.195
1764767760.7403765,8149.41,-1548.72,-35028.045,-13618.98,-10045.08,-28119.015,81.81,8851.59
1764767760.7403765,8141.49,-1557.0449999999998,-35036.235,-13627.215,-10053.765,-28127.43,74.07,8843.58
1764767760.7403765,8147.384999999999,-1551.015,-35029.8,-13620.465,-10046.925,-28117.395,78.03,8849.25
1764767760.7403765,8152.65,-1545.165,-35024.355,-13614.705,-10039.905,-28107.9,83.655,8854.92
1764767760.7403765,8155.844999999999,-1542.825,-35021.744999999995,-13611.78,-10036.62,-28104.885,87.11999999999999,8857.845
1764767760.783062,8156.384999999999,-1542.87,-35021.205,-13611.015,-10035.45,-28104.255,88.47,8858.07
1764767760.783062,8143.74,-1556.955,-35035.02,-13625.325,-10050.255,-28118.79,75.24,8844.119999999999
1764767760.783062,8152.335,-1547.865,-35025.93,-13616.64,-10041.705,-28109.52,82.08,8853.48
1764767760.783062,8160.299999999999,-1538.64,-35017.155,-13608.36,-10032.84,-28100.34,91.125,8862.164999999999
1764767760.783062,8165.565,-1533.105,-35011.755,-13603.635,-10028.115,-28096.47,96.705,8867.385
1764767760.783062,8153.955,-1546.56,-35023.905,-13616.955,-10042.965,-28113.75,84.78,8853.795
1764767760.783062,8148.105,-1551.915,-35029.125,-13621.725,-10049.04,-28121.355,79.2,8847.72
1764767760.783062,8153.639999999999,-1544.31,-35021.61,-13613.22,-10039.86,-28111.815,85.545,8855.055
1764767760.783062,8167.545,-1529.46,-35007.075,-13598.91,-10023.93,-28094.94,100.305,8870.22
1764767760.783062,8164.035,-1533.78,-35011.485,-13603.68,-10028.52,-28099.44,97.155,8866.125
1764767760.783062,8168.535,-1529.73,-35006.94,-13599.135,-10023.66,-28095.075,99.18,8870.49
1764767760.783062,8156.61,-1543.23,-35020.17,-13612.32,-10037.025,-28108.575,86.265,8857.26
1764767760.7846763,8159.985,-1539.81,-35017.29,-13609.395,-10034.73,-28105.38,87.47999999999999,8860.14
1764767760.7846763,8165.61,-1534.41,-35012.295,-13604.265,-10030.725,-28103.175,92.835,8865.72
1764767760.7846763,8168.625,-1531.44,-35010.405,-13602.6,-10031.625,-28106.865,94.86,8868.195
1764767760.7846763,8165.16,-1534.41,-35013.869999999995,-13606.695,-10036.62,-28111.995,91.755,8864.279999999999
1764767760.7846763,8154.269999999999,-1545.57,-35024.625,-13617.72,-10048.365,-28122.57,81.585,8853.705
1764767760.7846763,8158.995,-1540.1699999999998,-35017.695,-13610.745,-10041.12,-28110.105,86.85,8859.06
1764767760.7846763,8156.429999999999,-1543.095,-35019.765,-13612.32,-10040.76,-28105.83,87.435,8857.035
1764767760.7846763,8163.224999999999,-1536.255,-35013.15,-13605.705,-10033.47,-28098.36,93.105,8864.595
1764767760.7846763,8163.045,-1537.515,-35014.41,-13606.695,-10036.17,-28103.49,91.305,8862.615
1764767760.7846763,8148.509999999999,-1553.265,-35029.8,-13622.4,-10055.07,-28122.795,76.005,8845.92
1764767760.831365,8146.08,-1557.45,-35033.67,-13626.855,-10059.345,-28127.88,72.72,8842.32
1764767760.831365,8153.235,-1549.98,-35026.83,-13621.5,-10055.025,-28125.045,77.175,8848.484999999999
1764767760.831365,8154.54,-1548.765,-35026.155,-13620.645,-10054.395,-28123.11,78.795,8849.88
1764767760.831365,8146.755,-1557.63,-35033.49,-13627.53,-10059.39,-28126.89,71.91,8841.42
1764767760.831365,8153.054999999999,-1550.97,-35026.38,-13620.105,-10050.84,-28118.61,77.75999999999999,8848.215
1764767760.831365,8152.38,-1552.32,-35028.27,-13622.13,-10051.875,-28119.24,76.59,8846.505
1764767760.831365,8144.144999999999,-1560.4199999999998,-35037.18,-13630.275,-10060.155,-28126.62,69.21,8838.494999999999
1764767760.831365,8151.03,-1553.265,-35030.34,-13622.58,-10052.595,-28117.89,76.86,8845.605
1764767760.831365,8165.295,-1538.505,-35015.67,-13608.54,-10038.24,-28105.02,90.54,8860.455
1764767760.831365,8152.335,-1552.14,-35029.17,-13622.04,-10051.875,-28120.095,77.445,8845.92
1764767760.831365,8150.13,-1555.605,-35032.23,-13625.01,-10054.98,-28123.155,73.395,8842.725
1764767760.831365,8159.4,-1546.605,-35023.095,-13615.785,-10046.25,-28114.65,80.91,8851.23
1764767760.831365,8157.825,-1549.35,-35025.075,-13618.395,-10047.915,-28116.315,79.83,8848.71
1764767760.831365,8166.87,-1539.63,-35015.22,-13608.135,-10039.005,-28108.98,88.28999999999999,8859.375
1764767760.831365,8173.259999999999,-1532.025,-35007.75,-13601.97,-10035.63,-28105.785,95.985,8867.16
1764767760.831365,8170.245,-1534.905,-35010.315,-13604.49,-10038.69,-28106.64,96.12,8865.135
1764767760.831365,8175.554999999999,-1529.955,-35005.23,-13598.685,-10031.265,-28094.535,100.98,8871.21
1764767760.831365,8170.469999999999,-1534.635,-35010.315,-13602.78,-10032.75,-28094.985,96.93,8865.945
1764767760.831365,8175.15,-1529.0549999999998,-35005.14,-13598.37,-10027.08,-28090.845,100.485,8870.76
1764767760.831365,8163.809999999999,-1542.6,-35018.415,-13611.555,-10040.49,-28104.795,88.74,8857.574999999999
1764767760.831365,8169.03,-1539.0449999999998,-35014.77,-13607.505,-10036.035,-28100.07,91.53,8861.85
1764767760.831365,8161.469999999999,-1548.27,-35023.095,-13616.055,-10044.18,-28107.54,82.755,8852.805
1764767760.831365,8161.335,-1547.775,-35022.555,-13614.93,-10043.37,-28107.18,82.485,8852.715
1764767760.831365,8154.585,-1552.995,-35028.27,-13620.825,-10049.13,-28115.955,77.58,8845.83
1764767760.8786402,8151.974999999999,-1555.74,-35031.915,-13624.245,-10052.415,-28120.32,74.52,8843.085
1764767760.8786402,8155.259999999999,-1551.105,-35028.72,-13621.23,-10048.14,-28115.505,76.905,8847.09
1764767760.8786402,8152.469999999999,-1554.03,-35031.24,-13623.435,-10049.895,-28117.44,75.14999999999999,8843.985
1764767760.8786402,8160.165,-1546.515,-35022.69,-13614.795,-10038.915,-28106.01,81.99,8852.625
1764767760.8786402,8161.245,-1545.705,-35022.015,-13613.805,-10034.55,-28101.24,82.845,8853.435
1764767760.8786402,8146.934999999999,-1561.05,-35037.855,-13629.465,-10048.635,-28115.73,69.255,8837.82
1764767760.8786402,8149.545,-1559.16,-35035.92,-13628.025,-10045.89,-28113.48,72.36,8839.845
1764767760.8786402,8159.894999999999,-1548.63,-35025.435,-13618.755,-10036.71,-28106.19,80.28,8850.015
1764767760.8786402,8158.679999999999,-1550.205,-35029.215,-13624.02,-10043.82,-28114.92,78.795,8847.945
1764767760.8786402,8155.125,-1553.8049999999998,-35033.715,-13629.24,-10051.11,-28122.12,76.005,8844.21
1764767760.8786402,8154.405,-1553.4,-35031.69,-13626.765,-10048.41,-28117.53,75.195,8843.625
1764767760.8786402,8162.91,-1543.095,-35021.115,-13614.705,-10036.17,-28102.14,83.74499999999999,8853.119999999999
1764767760.8786402,8163.719999999999,-1542.69,-35021.385,-13615.065,-10034.19,-28103.31,84.86999999999999,8853.119999999999
1764767760.8786402,8171.82,-1535.265,-35014.68,-13608.765,-10026.09,-28098.135,92.43,8861.085
1764767760.8786402,8173.304999999999,-1533.4199999999998,-35013.645,-13609.035,-10028.97,-28102.815,94.725,8863.38
1764767760.8786402,8161.335,-1545.435,-35026.02,-13622.355,-10044.315,-28116.99,83.42999999999999,8850.779999999999
1764767760.8786402,8169.344999999999,-1538.28,-35019.81,-13617.18,-10038.78,-28110.51,88.83,8857.574999999999
1764767760.8786402,8169.344999999999,-1538.865,-35020.8,-13618.305,-10039.995,-28113.57,87.11999999999999,8856.494999999999
1764767760.8786402,8155.889999999999,-1552.5449999999998,-35034.57,-13631.445,-10052.37,-28126.08,74.07,8842.23
1764767760.8786402,8154.855,-1554.255,-35035.74,-13631.49,-10050.975,-28123.92,72.45,8840.16
1764767760.8786402,8165.34,-1544.4,-35024.265,-13620.735,-10040.94,-28109.88,82.845,8851.949999999999
1764767760.8786402,8166.599999999999,-1543.365,-35023.77,-13621.365,-10041.39,-28108.98,84.6,8853.84
1764767760.8786402,8167.769999999999,-1541.565,-35022.915,-13620.915,-10040.355,-28109.25,86.625,8855.234999999999
1764767760.8786402,8166.059999999999,-1543.005,-35024.04,-13622.04,-10039.725,-28108.71,84.645,8853.93
1764767760.9255948,8168.849999999999,-1540.26,-35020.935,-13618.935,-10036.08,-28106.64,87.47999999999999,8856.72
1764767760.9255948,8167.634999999999,-1541.2949999999998,-35022.645,-13621.14,-10038.51,-28108.53,86.22,8855.01
1764767760.9255948,8167.455,-1543.095,-35023.59,-13621.635,-10037.655,-28107.225,86.22,8854.02
1764767760.9255948,8164.62,-1546.65,-35026.605,-13624.335,-10040.67,-28112.265,83.02499999999999,8850.51
1764767760.9255948,8167.139999999999,-1543.995,-35024.4,-13623.21,-10039.545,-28112.445,84.735,8852.535
1764767760.9255948,8167.005,-1544.265,-35023.77,-13622.67,-10040.085,-28111.59,84.91499999999999,8852.984999999999
1764767760.9255948,8160.21,-1550.34,-35029.53,-13628.745,-10046.115,-28113.39,81.63,8847.404999999999
1764767760.9255948,8159.355,-1549.89,-35029.485,-13628.205,-10044.945,-28112.265,81.855,8847.27
1764767760.9255948,8162.235,-1546.605,-35026.38,-13625.235,-10040.4,-28108.935,85.63499999999999,8851.59
1764767760.9261014,8174.25,-1534.725,-35013.915,-13613.31,-10027.125,-28095.21,96.435,8863.47
1764767760.9261014,8181.045,-1528.02,-35007.345,-13606.515,-10019.88,-28087.74,102.42,8869.859999999999
1764767760.9261014,8176.634999999999,-1532.34,-35012.385,-13611.645,-10024.02,-28092.33,98.145,8864.369999999999
1764767760.9261014,8173.53,-1535.265,-35015.49,-13614.885,-10027.53,-28094.94,95.085,8861.22
1764767760.9261014,8167.995,-1541.655,-35022.195,-13620.375,-10033.695,-28100.43,87.21,8854.02
1764767760.9261014,8165.655,-1544.535,-35025.885,-13624.605,-10038.78,-28106.235,81.0,8849.07
1764767760.9261014,8167.23,-1542.915,-35023.14,-13622.085,-10035.63,-28103.355,82.755,8850.33
1764767760.9261014,8171.955,-1537.65,-35018.685,-13617.36,-10031.22,-28098.72,88.83,8855.865
1764767760.9261014,8170.335,-1539.09,-35020.08,-13619.295,-10034.82,-28101.24,89.46,8854.875
1764767760.9261014,8156.295,-1554.9299999999998,-35035.605,-13635.495,-10051.605,-28117.98,77.22,8840.88
1764767760.9261014,8156.07,-1555.695,-35035.92,-13635.9,-10050.435,-28117.62,77.715,8841.645
1764767760.9261014,8170.38,-1539.855,-35020.17,-13619.52,-10034.955,-28103.04,91.98,8856.27
1764767760.9261014,8163.36,-1546.83,-35028.0,-13626.99,-10046.43,-28116.54,84.195,8848.484999999999
1764767760.9685662,8166.96,-1543.905,-35025.48,-13625.415,-10045.08,-28115.325,84.86999999999999,8850.465
1764767760.9685662,8159.355,-1552.815,-35033.67,-13633.065,-10051.83,-28121.355,76.905,8841.735
1764767760.9685662,8157.87,-1554.165,-35034.885,-13633.92,-10053.09,-28119.06,75.195,8840.16
1764767760.9685662,8162.054999999999,-1549.845,-35031.42,-13629.195,-10048.32,-28112.895,78.66,8843.625
1764767760.9685662,8171.144999999999,-1540.665,-35021.88,-13620.375,-10039.905,-28106.55,86.67,8853.705
1764767760.9685662,8164.62,-1547.1,-35027.865,-13627.755,-10046.565,-28115.55,81.17999999999999,8847.135
1764767760.9685662,8163.764999999999,-1547.235,-35027.865,-13627.395,-10046.925,-28115.145,81.17999999999999,8845.92
1764767760.9685662,8168.759999999999,-1541.07,-35021.655,-13620.87,-10039.77,-28105.605,87.92999999999999,8852.805
1764767760.9685662,8183.969999999999,-1525.32,-35005.815,-13605.48,-10025.01,-28090.395,102.33,8868.42
1764767760.9685662,8177.219999999999,-1533.4199999999998,-35013.555,-13614.03,-10035.045,-28102.14,94.005,8859.914999999999
1764767760.9685662,8180.009999999999,-1531.755,-35012.205,-13612.23,-10034.955,-28101.33,93.24,8862.48
1764767760.9685662,8169.974999999999,-1543.005,-35024.31,-13624.83,-10048.545,-28112.67,82.71,8850.42
1764767760.9685662,8173.755,-1540.08,-35021.295,-13621.725,-10045.845,-28109.655,84.96,8853.21
1764767760.9685662,8182.125,-1532.025,-35012.385,-13612.59,-10038.69,-28104.975,93.195,8860.904999999999
1764767760.9685662,8182.799999999999,-1530.0449999999998,-35010.405,-13610.7,-10036.125,-28102.005,95.085,8862.119999999999
1764767760.9685662,8168.4,-1545.075,-35025.345,-13625.46,-10050.12,-28115.55,80.73,8847.27
1764767760.969583,8166.735,-1547.19,-35027.73,-13626.9,-10051.83,-28116.855,77.175,8846.01
1764767760.969583,8166.87,-1546.56,-35026.92,-13626.09,-10050.84,-28116.315,77.39999999999999,8846.055
1764767760.969583,8170.559999999999,-1542.5549999999998,-35022.24,-13622.04,-10046.43,-28112.355,81.855,8850.105
1764767760.969583,8159.67,-1554.12,-35032.77,-13633.605,-10059.615,-28127.925,71.955,8838.855
1764767760.969583,8159.309999999999,-1556.0549999999998,-35034.57,-13635.945,-10063.575,-28133.055,71.46,8836.785
1764767760.969583,8157.87,-1557.99,-35036.055,-13637.295,-10065.555,-28135.665,68.535,8834.085
1764767761.015288,8155.71,-1559.925,-35036.82,-13638.105,-10065.915,-28133.415,67.095,8832.735
1764767761.015288,8156.969999999999,-1557.63,-35035.02,-13635.315,-10061.505,-28128.645,68.80499999999999,8834.535
1764767761.015288,8162.46,-1551.5549999999998,-35029.17,-13629.915,-10053.9,-28121.04,76.63499999999999,8840.744999999999
1764767761.015288,8164.215,-1549.8,-35027.28,-13628.745,-10053.945,-28118.7,79.605,8843.355
1764767761.015288,8167.95,-1545.705,-35023.77,-13626.09,-10052.46,-28117.35,83.74499999999999,8847.72
1764767761.015288,8172.495,-1540.845,-35019.09,-13621.545,-10051.02,-28116.72,87.88499999999999,8852.22
1764767761.015288,8184.195,-1528.11,-35006.895,-13609.035,-10041.525,-28104.93,99.855,8864.279999999999
1764767761.015288,8180.82,-1531.3049999999998,-35008.965,-13610.79,-10042.83,-28105.29,95.67,8860.68
1764767761.015288,8179.469999999999,-1533.915,-35011.08,-13612.545,-10044.0,-28109.97,92.16,8858.16
1764767761.015288,8175.554999999999,-1538.64,-35015.13,-13616.955,-10047.69,-28115.73,87.47999999999999,8853.93
1764767761.015288,8168.67,-1545.75,-35023.05,-13624.74,-10054.98,-28122.48,81.0,8846.46
1764767761.015288,8165.295,-1549.215,-35026.65,-13628.115,-10058.49,-28123.11,78.075,8843.58
1764767761.015288,8168.894999999999,-1545.66,-35023.095,-13624.47,-10054.395,-28119.42,80.505,8846.505
1764767761.015288,8170.29,-1543.365,-35021.475,-13623.345,-10053.765,-28120.095,81.765,8848.529999999999
1764767761.015288,8167.005,-1546.515,-35024.445,-13626.675,-10057.59,-28125.36,78.66,8845.244999999999
1764767761.015288,8174.924999999999,-1537.29,-35014.545,-13616.64,-10046.205,-28113.66,86.31,8854.92
1764767761.015288,8182.035,-1529.955,-35006.58,-13608.81,-10037.34,-28105.965,94.77,8863.244999999999
1764767761.0162966,8179.29,-1534.005,-35010.63,-13613.22,-10042.515,-28111.32,91.35,8859.96
1764767761.0162966,8172.179999999999,-1542.195,-35019.27,-13621.77,-10052.28,-28121.445,85.22999999999999,8852.13
1764767761.0162966,8175.375,-1538.325,-35014.815,-13616.1,-10045.89,-28114.2,87.39,8854.83
1764767761.0162966,8172.269999999999,-1541.565,-35018.595,-13619.745,-10046.97,-28113.48,82.25999999999999,8850.645
1764767761.0162966,8168.49,-1545.12,-35022.69,-13623.66,-10050.345,-28117.17,79.24499999999999,8846.279999999999
1764767761.0162966,8162.594999999999,-1552.095,-35029.755,-13630.725,-10057.545,-28124.235,74.205,8839.98
1764767761.0162966,8168.13,-1545.12,-35022.24,-13622.76,-10049.22,-28115.685,80.235,8846.235
1764767761.0630665,8168.985,-1543.05,-35020.305,-13620.42,-10048.14,-28114.515,82.215,8847.27
1764767761.0630665,8164.44,-1549.035,-35026.2,-13626.99,-10056.465,-28123.155,79.335,8842.815
1764767761.0630665,8169.929999999999,-1542.4199999999998,-35019.99,-13621.005,-10053.72,-28120.455,83.42999999999999,8848.845
1764767761.0630665,8163.809999999999,-1549.1699999999998,-35027.235,-13629.015,-10064.43,-28130.22,76.365,8841.285
1764767761.0630665,8161.875,-1553.94,-35031.285,-13633.065,-10067.76,-28133.415,73.89,8838.27
1764767761.0630665,8160.705,-1554.7949999999998,-35031.555,-13631.76,-10064.16,-28128.33,72.99,8837.1
1764767761.0630665,8171.73,-1542.015,-35018.19,-13617.72,-10047.555,-28109.025,83.74499999999999,8848.26
1764767761.0630665,8174.745,-1538.82,-35014.77,-13614.255,-10042.065,-28102.41,86.535,8851.545
1764767761.0630665,8172.405,-1541.205,-35017.83,-13617.18,-10044.045,-28107.045,84.285,8849.475
1764767761.0630665,8162.325,-1551.825,-35028.72,-13628.07,-10055.295,-28121.805,75.105,8839.305
1764767761.0630665,8158.184999999999,-1555.965,-35032.545,-13631.805,-10059.435,-28130.445,71.595,8835.66
1764767761.0630665,8160.434999999999,-1552.995,-35029.755,-13629.42,-10057.545,-28129.995,73.485,8838.855
1764767761.0630665,8175.059999999999,-1537.9199999999998,-35014.275,-13615.155,-10043.415,-28112.715,86.985,8853.57
1764767761.0630665,8167.23,-1546.74,-35023.14,-13624.92,-10051.02,-28115.055,79.065,8843.985
1764767761.0630665,8165.88,-1548.45,-35024.4,-13624.065,-10045.53,-28105.29,77.445,8842.14
1764767761.0630665,8159.535,-1555.515,-35030.295,-13629.6,-10049.58,-28109.79,72.63,8835.21
1764767761.0630665,8174.969999999999,-1538.775,-35014.68,-13614.705,-10037.52,-28096.965,87.03,8851.32
1764767761.064067,8182.08,-1530.315,-35006.4,-13606.83,-10032.345,-28091.52,94.32,8858.654999999999
1764767761.064067,8180.639999999999,-1531.665,-35007.48,-13608.63,-10035.405,-28093.365,94.23,8857.755
1764767761.064067,8169.57,-1543.365,-35017.83,-13619.61,-10046.025,-28107.765,85.005,8846.91
1764767761.064067,8168.355,-1544.6699999999998,-35018.055,-13620.015,-10049.04,-28117.125,83.07,8845.785
1764767761.064067,8179.92,-1531.35,-35004.465,-13604.94,-10032.345,-28100.34,93.33,8858.385
1764767761.1094227,8180.505,-1531.8,-35004.465,-13605.48,-10030.995,-28099.17,93.195,8858.16
1764767761.1094227,8168.445,-1545.975,-35019.54,-13620.87,-10048.5,-28115.685,82.17,8845.56
1764767761.1094227,8170.965,-1544.76,-35019.18,-13620.555,-10048.14,-28112.58,84.825,8847.0
1764767761.1094227,8171.505,-1543.905,-35017.244999999995,-13619.79,-10046.52,-28110.375,84.42,8847.315
1764767761.1094227,8168.894999999999,-1546.965,-35020.215,-13622.715,-10049.58,-28115.19,80.685,8843.22
1764767761.1094227,8158.455,-1558.3049999999998,-35031.42,-13633.155,-10058.715,-28123.065,71.05499999999999,8832.15
1764767761.1094227,8161.2,-1554.3,-35027.775,-13627.845,-10051.785,-28117.395,73.25999999999999,8835.795
1764767761.1094227,8165.07,-1549.3049999999998,-35022.33,-13621.995,-10045.935,-28113.03,77.67,8841.15
1764767761.1094227,8163.585,-1549.89,-35023.77,-13622.76,-10047.15,-28114.605,77.625,8840.205
1764767761.1094227,8175.285,-1537.38,-35012.52,-13611.195,-10035.765,-28102.41,88.155,8852.175
1764767761.1094227,8177.535,-1536.12,-35011.485,-13610.07,-10035.72,-28101.96,89.505,8853.345
1764767761.1094227,8160.48,-1555.425,-35028.765,-13628.745,-10055.565,-28120.86,73.755,8835.615
1764767761.1094227,8156.429999999999,-1560.015,-35033.85,-13633.065,-10060.92,-28126.98,69.16499999999999,8830.71
1764767761.1094227,8160.795,-1554.7949999999998,-35028.54,-13627.44,-10055.79,-28124.01,72.72,8835.21
1764767761.1094227,8172.9,-1541.61,-35014.23,-13613.94,-10042.335,-28113.075,83.88,8848.17
1764767761.1094227,8176.184999999999,-1539.315,-35011.395,-13611.645,-10039.77,-28111.275,86.715,8851.23
1764767761.1106431,8172.495,-1543.455,-35015.67,-13615.83,-10043.28,-28112.67,82.485,8847.63
1764767761.1106431,8169.525,-1546.02,-35018.46,-13618.53,-10047.105,-28115.055,80.595,8845.02
1764767761.1106431,8168.985,-1546.2,-35019.54,-13618.935,-10048.14,-28116.405,81.315,8844.93
1764767761.1106431,8170.11,-1543.905,-35017.83,-13616.28,-10045.125,-28111.815,83.42999999999999,8846.685
1764767761.1106431,8168.445,-1546.425,-35019.045,-13618.035,-10046.565,-28113.48,81.72,8844.975
1764767761.1106431,8151.57,-1565.01,-35037.36,-13635.99,-10065.69,-28133.28,63.54,8825.85
1764767761.1106431,8149.769999999999,-1566.945,-35039.97,-13638.015,-10067.04,-28133.145,60.57,8822.52
1764767761.1106431,8159.625,-1557.135,-35030.07,-13627.665,-10055.025,-28119.6,67.905,8831.744999999999
1764767761.1106431,8160.974999999999,-1554.21,-35026.11,-13623.57,-10049.445,-28116.675,70.24499999999999,8834.715
1764767761.1106431,8153.594999999999,-1561.455,-35034.119999999995,-13631.355,-10058.49,-28130.085,64.755,8828.1
1764767761.1563668,8157.105,-1557.09,-35030.744999999995,-13628.835,-10058.49,-28135.035,68.265,8832.06
1764767761.1563668,8169.48,-1544.22,-35017.92,-13618.62,-10051.965,-28130.04,78.03,8844.345
1764767761.1563668,8174.655,-1539.27,-35013.735,-13615.245,-10052.145,-28129.68,83.34,8849.565
1764767761.1563668,8166.33,-1548.225,-35021.115,-13622.625,-10059.075,-28129.995,77.985,8841.465
1764767761.1563668,8169.75,-1544.76,-35016.705,-13617.495,-10051.155,-28115.91,82.8,8844.93
1764767761.1563668,8157.825,-1558.53,-35029.575,-13630.59,-10063.71,-28123.695,71.595,8831.295
1764767761.1563668,8159.355,-1556.955,-35027.955,-13629.24,-10062.675,-28124.055,70.74,8831.565
1764767761.1563668,8150.445,-1567.3049999999998,-35038.89,-13639.905,-10073.745,-28139.31,59.985,8820.449999999999
1764767761.1563668,8150.759999999999,-1566.72,-35038.98,-13639.77,-10074.24,-28140.345,59.31,8820.36
1764767761.1563668,8162.054999999999,-1554.165,-35026.155,-13625.955,-10060.605,-28127.205,69.12,8832.96
1764767761.1563668,8169.57,-1546.38,-35017.695,-13617.63,-10051.74,-28119.96,76.77,8841.105
1764767761.1563668,8170.245,-1544.76,-35016.39,-13616.82,-10053.045,-28123.92,78.345,8842.14
1764767761.1563668,8164.844999999999,-1550.7,-35022.69,-13623.48,-10060.245,-28130.175,74.655,8837.46
1764767761.1563668,8172.674999999999,-1542.51,-35014.095,-13615.29,-10051.965,-28119.645,82.395,8845.335
1764767761.1563668,8175.915,-1539.315,-35010.315,-13611.555,-10046.655,-28114.425,87.435,8848.8
1764767761.1563668,8165.61,-1549.485,-35020.665,-13622.715,-10059.57,-28129.14,77.715,8838.135
1764767761.1563668,8170.695,-1545.84,-35016.795,-13620.285,-10058.895,-28127.835,78.48,8840.88
1764767761.1563668,8162.865,-1554.21,-35024.22,-13627.125,-10066.005,-28131.57,70.83,8832.96
1764767761.1563668,8171.235,-1545.7949999999998,-35016.39,-13618.395,-10056.42,-28121.04,78.3,8840.744999999999
1764767761.1563668,8175.509999999999,-1540.845,-35011.485,-13612.815,-10051.335,-28116.765,83.07,8845.38
1764767761.1563668,8175.105,-1541.655,-35011.665,-13612.68,-10051.47,-28117.44,84.825,8845.47
1764767761.1563668,8185.905,-1529.0549999999998,-34998.66,-13599.9,-10038.42,-28103.4,96.795,8858.16
1764767761.203379,8193.779999999999,-1521.1799999999998,-34991.865,-13592.205,-10030.77,-28095.615,104.715,8866.17
1764767761.203379,8195.535,-1520.145,-34991.325,-13591.755,-10029.06,-28095.12,105.48,8868.06
1764767761.203379,8197.785,-1517.49,-34989.03,-13590.09,-10027.755,-28096.155,106.875,8870.039999999999
1764767761.203379,8191.665,-1524.825,-34996.545,-13597.605,-10036.89,-28107.81,99.18,8862.885
1764767761.203379,8184.195,-1533.915,-35004.869999999995,-13605.93,-10045.62,-28115.415,90.585,8853.435
1764767761.203379,8167.41,-1550.97,-35020.98,-13622.715,-10062.54,-28131.165,74.52,8836.02
1764767761.203379,8167.275,-1550.79,-35021.475,-13622.49,-10061.505,-28128.51,74.835,8835.885
1764767761.203379,8178.21,-1537.83,-35008.11,-13608.315,-10045.665,-28112.94,86.13,8848.17
1764767761.203379,8178.795,-1537.74,-35008.065,-13607.685,-10044.63,-28110.87,86.985,8848.26
1764767761.203379,8186.085,-1529.505,-35000.19,-13599.54,-10035.27,-28097.91,94.005,8856.449999999999
1764767761.203379,8187.21,-1527.615,-34999.02,-13598.28,-10032.12,-28095.84,94.32,8857.215
1764767761.203379,8187.434999999999,-1529.0549999999998,-35000.28,-13599.81,-10033.38,-28101.6,92.97,8856.81
1764767761.203379,8191.304999999999,-1525.6799999999998,-34997.94,-13597.695,-10033.515,-28103.49,97.38,8860.005
1764767761.203379,8190.045,-1527.615,-35000.955,-13601.79,-10043.145,-28113.57,95.49,8857.845
1764767761.203379,8179.92,-1539.27,-35011.98,-13614.03,-10060.245,-28130.175,85.99499999999999,8846.91
1764767761.203379,8175.105,-1544.22,-35016.93,-13620.6,-10067.535,-28133.55,81.53999999999999,8842.5
1764767761.203379,8179.245,-1539.495,-35011.98,-13615.11,-10065.735,-28130.13,83.97,8846.595
1764767761.203379,8173.394999999999,-1543.995,-35015.04,-13616.775,-10064.835,-28126.845,79.02,8841.6
1764767761.203379,8162.054999999999,-1555.335,-35026.335,-13627.17,-10071.54,-28131.39,68.085,8829.72
1764767761.203379,8166.554999999999,-1551.015,-35022.375,-13623.525,-10065.105,-28124.19,73.35,8834.49
1764767761.203379,8170.695,-1547.37,-35018.46,-13618.935,-10060.155,-28120.275,77.80499999999999,8838.72
1764767761.203379,8177.309999999999,-1540.845,-35011.08,-13611.33,-10052.505,-28114.605,83.78999999999999,8845.695
1764767761.2502065,8178.165,-1539.36,-35010.09,-13610.295,-10051.245,-28114.65,85.14,8846.46
1764767761.2502065,8165.205,-1552.77,-35023.815,-13624.83,-10065.87,-28134.405,72.13499999999999,8832.735
1764767761.2502065,8167.815,-1550.97,-35023.005,-13624.2,-10067.22,-28138.14,71.595,8834.535
1764767761.2502065,8158.455,-1561.725,-35033.76,-13635.765,-10079.73,-28148.22,62.73,8824.545
1764767761.2502065,8156.429999999999,-1563.84,-35034.93,-13637.115,-10078.92,-28143.855,62.415,8822.25
1764767761.2502065,8156.519999999999,-1564.245,-35034.255,-13635.72,-10076.625,-28137.915,63.405,8823.42
1764767761.2502065,8167.049999999999,-1552.185,-35022.96,-13624.515,-10063.485,-28125.27,73.53,8835.21
1764767761.2502065,8168.309999999999,-1549.755,-35021.115,-13623.66,-10061.145,-28125.09,74.835,8837.505
1764767761.2502065,8167.95,-1551.195,-35022.555,-13625.73,-10062.135,-28128.6,74.295,8835.795
1764767761.2502065,8160.615,-1558.53,-35030.475,-13633.155,-10070.055,-28137.285,67.23,8827.47
1764767761.2502065,8170.92,-1548.765,-35020.485,-13623.525,-10059.93,-28127.115,75.96,8838.18
1764767761.2502065,8170.83,-1549.62,-35020.8,-13625.055,-10064.52,-28131.93,75.465,8838.0
1764767761.2502065,8173.259999999999,-1547.37,-35018.055,-13622.895,-10063.17,-28131.57,76.905,8839.529999999999
1764767761.2502065,8169.434999999999,-1550.7,-35020.665,-13625.28,-10062.585,-28130.94,72.49499999999999,8834.4
1764767761.2502065,8165.924999999999,-1554.7949999999998,-35025.795,-13629.555,-10065.645,-28132.29,67.67999999999999,8829.72
1764767761.2502065,8164.53,-1556.82,-35027.775,-13630.635,-10066.23,-28133.415,65.88,8828.279999999999
1764767761.2502065,8173.08,-1546.155,-35018.369999999995,-13621.095,-10055.745,-28123.02,76.32,8838.81
1764767761.2502065,8176.049999999999,-1542.15,-35014.32,-13616.955,-10052.055,-28119.015,82.215,8844.029999999999
1764767761.2502065,8179.965,-1537.695,-35010.315,-13612.68,-10047.96,-28115.19,87.75,8848.755
1764767761.2502065,8179.2,-1538.73,-35009.955,-13612.905,-10047.555,-28114.515,86.895,8847.675
1764767761.2502065,8173.755,-1544.6699999999998,-35015.94,-13619.115,-10053.945,-28119.105,80.595,8840.97
1764767761.2502065,8160.795,-1558.89,-35029.305,-13633.065,-10067.175,-28131.03,67.995,8827.11
1764767761.2502065,8168.085,-1551.645,-35022.465,-13625.415,-10060.605,-28123.785,72.765,8833.59
1764767761.2502065,8171.235,-1548.63,-35020.395,-13622.715,-10057.995,-28122.03,75.78,8835.93
1764767761.2936282,8172.269999999999,-1547.415,-35020.44,-13622.4,-10057.635,-28123.02,75.55499999999999,8836.11
1764767761.2936282,8168.804999999999,-1550.52,-35022.915,-13625.64,-10060.785,-28126.665,72.36,8833.815
1764767761.2936282,8161.424999999999,-1558.1699999999998,-35030.025,-13632.57,-10066.41,-28130.355,65.655,8827.065
1764767761.2936282,8150.58,-1570.59,-35041.41,-13643.235,-10075.815,-28138.905,54.99,8814.735
1764767761.2936282,8150.849999999999,-1571.13,-35041.59,-13644.855,-10076.13,-28141.83,54.315,8813.925
1764767761.2936282,8153.639999999999,-1568.4299999999998,-35039.475,-13642.875,-10074.915,-28142.73,56.88,8816.535
1764767761.2936282,8164.035,-1557.72,-35027.955,-13630.95,-10062.315,-28131.84,67.67999999999999,8828.145
1764767761.2936282,8154.315,-1567.53,-35037.63,-13640.985,-10072.53,-28142.1,58.23,8817.84
1764767761.2936282,8158.41,-1562.22,-35032.994999999995,-13635.27,-10067.94,-28135.665,62.685,8822.295
1764767761.2936282,8168.085,-1552.365,-35022.555,-13626.045,-10058.31,-28125.09,71.05499999999999,8831.925
1764767761.2936282,8162.235,-1558.89,-35028.99,-13631.895,-10062.09,-28125.495,67.455,8826.119999999999
1764767761.2936282,8166.42,-1554.48,-35025.165,-13628.835,-10060.965,-28125.18,70.785,8829.27
1764767761.2936282,8178.344999999999,-1541.205,-35013.33,-13617.45,-10051.02,-28116.945,80.325,8842.41
1764767761.2936282,8178.48,-1541.475,-35013.195,-13617.585,-10050.975,-28115.415,80.505,8842.68
1764767761.2936282,8176.634999999999,-1543.41,-35015.31,-13619.88,-10054.395,-28117.665,78.705,8840.744999999999
1764767761.2936282,8182.215,-1536.9299999999998,-35008.38,-13612.59,-10047.15,-28109.655,85.815,8847.135
1764767761.2936282,8190.54,-1527.57,-34998.84,-13602.78,-10037.565,-28097.415,95.76,8856.09
1764767761.2936282,8180.144999999999,-1539.27,-35010.45,-13613.445,-10046.205,-28108.125,85.095,8844.615
1764767761.2946498,8183.16,-1536.615,-35007.93,-13610.295,-10042.02,-28104.795,86.085,8846.685
1764767761.2946498,8177.174999999999,-1542.915,-35015.94,-13617.54,-10049.715,-28113.255,80.91,8839.35
1764767761.2946498,8174.519999999999,-1545.525,-35018.145,-13620.555,-10054.395,-28118.745,78.66,8837.369999999999
1764767761.2946498,8181.63,-1538.505,-35010.36,-13614.255,-10047.78,-28112.445,83.61,8844.66
1764767761.2946498,8182.575,-1537.9199999999998,-35010.494999999995,-13614.12,-10046.97,-28110.465,83.74499999999999,8845.199999999999
1764767761.2946498,8182.844999999999,-1537.965,-35010.18,-13614.84,-10048.23,-28110.645,84.285,8846.324999999999
1764767761.340844,8176.724999999999,-1543.59,-35016.795,-13622.22,-10055.88,-28116.855,78.705,8839.8
1764767761.340844,8167.769999999999,-1551.69,-35023.905,-13628.88,-10062.72,-28124.955,71.595,8830.89
1764767761.340844,8172.585,-1548.27,-35019.54,-13624.02,-10058.715,-28123.29,74.38499999999999,8834.895
1764767761.340844,8165.025,-1557.27,-35028.225,-13631.715,-10064.745,-28128.195,67.545,8826.435
1764767761.340844,8155.17,-1568.745,-35039.79,-13643.37,-10074.465,-28139.805,57.96,8816.085
1764767761.340844,8149.275,-1576.395,-35048.34,-13651.425,-10085.985,-28156.14,48.645,8807.985
1764767761.341364,8149.769999999999,-1575.315,-35046.81,-13650.795,-10087.74,-28159.965,46.755,8808.345
1764767761.341364,8153.73,-1570.275,-35041.635,-13645.215,-10081.53,-28153.44,51.435,8813.16
1764767761.341364,8157.87,-1564.47,-35036.505,-13639.455,-10074.195,-28145.25,57.42,8818.785
1764767761.341364,8165.969999999999,-1555.515,-35026.65,-13630.455,-10065.195,-28131.93,68.895,8828.1
1764767761.341364,8163.855,-1557.135,-35027.865,-13633.335,-10071.315,-28134.855,68.625,8826.119999999999
1764767761.341364,8171.054999999999,-1550.115,-35021.34,-13626.405,-10063.485,-28124.325,74.38499999999999,8833.32
1764767761.341364,8172.45,-1549.53,-35020.89,-13625.145,-10059.255,-28119.6,75.69,8834.085
1764767761.341364,8166.285,-1556.1,-35026.965,-13631.265,-10063.215,-28124.91,68.445,8827.065
1764767761.341364,8163.495,-1558.665,-35029.8,-13633.065,-10064.97,-28127.655,65.52,8823.735
1764767761.341364,8166.33,-1556.91,-35027.01,-13629.735,-10062.99,-28127.34,69.075,8827.11
1764767761.341364,8171.955,-1551.735,-35021.88,-13625.865,-10061.865,-28128.87,73.61999999999999,8832.51
1764767761.341364,8180.684999999999,-1541.7,-35012.25,-13617.945,-10056.105,-28123.245,80.955,8840.925
1764767761.341364,8181.45,-1540.08,-35010.72,-13616.055,-10053.855,-28116.495,82.395,8842.5
1764767761.341364,8173.889999999999,-1547.73,-35016.93,-13622.445,-10058.49,-28118.25,76.67999999999999,8835.3
1764767761.341364,8180.46,-1540.935,-35009.955,-13615.74,-10051.695,-28113.075,81.72,8841.779999999999
1764767761.341364,8180.28,-1541.07,-35009.865,-13614.48,-10049.04,-28112.625,82.25999999999999,8843.31
1764767761.341364,8170.65,-1551.195,-35019.72,-13623.795,-10058.49,-28123.47,71.82,8832.914999999999
1764767761.341364,8160.344999999999,-1562.6699999999998,-35030.88,-13634.505,-10068.795,-28133.82,61.335,8820.81
1764767761.3878462,8148.465,-1574.865,-35043.48,-13647.555,-10081.215,-28145.025,49.635,8808.255
1764767761.3878462,8152.38,-1570.32,-35039.34,-13643.64,-10075.905,-28139.265,52.56,8812.529999999999
1764767761.3878462,8151.12,-1572.255,-35041.59,-13645.215,-10077.255,-28139.76,52.155,8810.685
1764767761.3878462,8157.285,-1566.27,-35035.29,-13638.69,-10071.045,-28133.37,57.33,8816.31
1764767761.3878462,8153.549999999999,-1569.015,-35036.64,-13641.075,-10073.7,-28135.89,56.115,8813.475
1764767761.3878462,8160.48,-1560.96,-35029.215,-13633.785,-10064.79,-28127.07,62.775,8821.845
1764767761.3878462,8160.12,-1560.87,-35029.755,-13633.38,-10062.72,-28126.53,64.35,8822.835
1764767761.3878462,8164.62,-1555.9199999999998,-35024.49,-13628.25,-10059.525,-28123.56,68.58,8827.38
1764767761.3878462,8173.53,-1546.56,-35015.58,-13618.53,-10048.14,-28112.715,76.005,8836.244999999999
1764767761.3878462,8170.2,-1550.34,-35019.494999999995,-13622.805,-10050.57,-28118.295,72.045,8831.43
1764767761.3878462,8163.719999999999,-1557.855,-35027.865,-13632.255,-10060.065,-28130.445,65.925,8824.185
1764767761.3888516,8167.86,-1553.715,-35024.535,-13629.465,-10059.885,-28130.04,68.80499999999999,8828.235
1764767761.3888516,8157.735,-1564.605,-35035.244999999995,-13640.13,-10072.44,-28139.805,59.355,8817.345
1764767761.3888516,8148.825,-1572.9299999999998,-35043.84,-13647.96,-10082.07,-28141.83,51.66,8808.21
1764767761.3888516,8148.78,-1572.39,-35043.57,-13646.7,-10077.66,-28135.215,52.92,8809.47
1764767761.3888516,8160.344999999999,-1559.61,-35030.385,-13632.93,-10059.795,-28120.185,63.405,8821.845
1764767761.3888516,8163.63,-1556.19,-35026.47,-13629.06,-10054.17,-28117.17,66.96,8825.445
1764767761.3888516,8156.79,-1562.8049999999998,-35032.815,-13635.63,-10059.21,-28123.02,60.975,8818.425
1764767761.3888516,8159.849999999999,-1559.655,-35029.619999999995,-13632.255,-10054.71,-28117.98,61.335,8820.855
1764767761.3888516,8145.045,-1575.27,-35046.675,-13647.915,-10070.28,-28135.485,46.575,8804.744999999999
1764767761.3888516,8149.41,-1571.4,-35043.255,-13645.755,-10070.1,-28140.705,50.31,8809.244999999999
1764767761.3888516,8151.21,-1571.175,-35042.625,-13647.33,-10077.255,-28150.965,52.605,8810.82
1764767761.4345293,8154.179999999999,-1567.71,-35039.925,-13645.17,-10078.875,-28149.93,55.62,8814.15
1764767761.4345293,8163.36,-1557.27,-35030.295,-13636.44,-10072.17,-28140.795,63.135,8823.51
1764767761.4345293,8168.625,-1550.835,-35023.005,-13627.98,-10062.36,-28129.995,68.67,8829.494999999999
1764767761.4345293,8166.33,-1553.49,-35023.41,-13627.17,-10054.845,-28117.665,68.31,8827.244999999999
1764767761.4345293,8158.905,-1560.78,-35030.835,-13634.055,-10058.49,-28121.445,63.585,8820.675
1764767761.4345293,8164.62,-1554.255,-35024.805,-13628.115,-10054.08,-28119.33,69.48,8827.38
1764767761.4345293,8182.125,-1535.58,-35006.715,-13610.115,-10036.17,-28100.745,86.39999999999999,8845.785
1764767761.4345293,8183.25,-1535.49,-35006.49,-13610.43,-10034.91,-28100.52,86.58,8846.19
1764767761.4345293,8174.969999999999,-1544.8049999999998,-35016.435,-13620.195,-10044.855,-28112.265,77.39999999999999,8836.11
1764767761.4345293,8176.679999999999,-1543.365,-35015.22,-13618.44,-10042.92,-28110.78,77.31,8837.595
1764767761.4345293,8171.009999999999,-1550.025,-35021.34,-13623.93,-10049.49,-28116.405,70.74,8831.654999999999
1764767761.4345293,8161.335,-1559.34,-35030.52,-13633.515,-10058.715,-28126.485,62.505,8821.98
1764767761.4345293,8164.934999999999,-1554.21,-35025.3,-13628.07,-10052.505,-28121.04,68.535,8826.3
1764767761.4345293,8176.23,-1542.24,-35013.105,-13615.515,-10039.995,-28108.53,78.975,8838.945
1764767761.4345293,8179.92,-1538.955,-35009.505,-13612.05,-10035.99,-28104.3,83.02499999999999,8843.76
1764767761.4345293,8177.58,-1540.98,-35011.305,-13613.715,-10037.88,-28105.74,81.89999999999999,8841.51
1764767761.4345293,8187.434999999999,-1530.54,-35001.045,-13603.86,-10027.125,-28095.165,91.035,8850.6
1764767761.4345293,8189.28,-1528.605,-35000.64,-13602.825,-10026.45,-28094.67,91.08,8851.859999999999
1764767761.4345293,8191.125,-1527.975,-34999.65,-13601.79,-10025.685,-28094.4,91.17,8852.58
1764767761.4345293,8187.434999999999,-1533.375,-35004.6,-13606.65,-10029.87,-28097.37,86.94,8847.81
1764767761.4345293,8185.32,-1535.625,-35006.67,-13608.495,-10031.04,-28098.585,86.31,8845.83
1764767761.4345293,8187.884999999999,-1531.26,-35001.765,-13603.77,-10026.09,-28094.22,90.27,8850.285
1764767761.4345293,8185.32,-1533.87,-35005.275,-13606.38,-10028.205,-28097.19,87.705,8847.404999999999
1764767761.4345293,8176.23,-1543.455,-35014.86,-13616.19,-10038.42,-28107.495,78.88499999999999,8837.235
1764767761.480441,8172.63,-1546.38,-35017.605,-13619.97,-10042.965,-28110.69,75.465,8833.635
1764767761.480441,8175.96,-1543.41,-35014.815,-13616.73,-10038.555,-28105.11,79.92,8838.18
1764767761.481457,8185.905,-1534.05,-35005.455,-13606.92,-10027.17,-28093.86,88.785,8847.99
1764767761.481457,8184.059999999999,-1535.625,-35007.21,-13608.72,-10029.87,-28097.73,85.725,8845.244999999999
1764767761.481457,8179.155,-1541.07,-35012.79,-13614.57,-10037.52,-28107.0,79.785,8839.619999999999
1764767761.481457,8169.21,-1552.005,-35023.725,-13624.56,-10046.205,-28116.27,71.00999999999999,8829.135
1764767761.481457,8172.269999999999,-1548.135,-35019.225,-13619.88,-10040.895,-28109.115,73.98,8832.869999999999
1764767761.481457,8168.085,-1552.185,-35023.23,-13623.84,-10044.585,-28111.77,71.235,8829.315
1764767761.481457,8173.349999999999,-1546.11,-35016.84,-13617.855,-10039.5,-28107.855,76.67999999999999,8834.76
1764767761.481457,8166.15,-1552.995,-35023.14,-13624.875,-10047.915,-28117.44,70.38,8828.1
1764767761.481457,8171.46,-1547.145,-35017.155,-13619.79,-10042.695,-28113.075,74.38499999999999,8834.49
1764767761.481457,8175.33,-1543.635,-35013.195,-13615.11,-10034.64,-28105.515,78.21,8838.27
1764767761.481457,8175.87,-1543.725,-35014.23,-13615.335,-10033.29,-28103.895,76.815,8837.1
1764767761.481457,8168.759999999999,-1551.645,-35021.744999999995,-13623.12,-10043.28,-28114.02,68.58,8828.955
1764767761.481457,8164.304999999999,-1556.685,-35026.74,-13628.655,-10049.175,-28121.445,64.30499999999999,8824.59
1764767761.481457,8158.005,-1563.03,-35033.445,-13635.315,-10055.205,-28127.295,58.86,8818.154999999999
1764767761.481457,8166.554999999999,-1553.265,-35024.49,-13625.955,-10046.7,-28118.205,68.085,8827.83
1764767761.481457,8163.674999999999,-1556.82,-35027.19,-13629.87,-10053.9,-28125.54,66.015,8824.005
1764767761.481457,8171.46,-1548.27,-35018.505,-13621.995,-10050.615,-28117.62,73.17,8832.195
1764767761.481457,8161.83,-1558.35,-35027.595,-13630.005,-10056.33,-28117.53,67.32,8823.555
1764767761.481457,8158.094999999999,-1562.355,-35031.735,-13633.38,-10056.105,-28117.17,65.745,8819.91
1764767761.481457,8168.759999999999,-1550.61,-35021.43,-13623.435,-10046.295,-28112.265,75.50999999999999,8830.8
1764767761.5300455,8185.184999999999,-1533.645,-35004.465,-13606.245,-10030.05,-28098.495,90.945,8847.63
1764767761.5300455,8186.445,-1533.33,-35003.475,-13605.39,-10028.745,-28098.09,91.485,8848.08
1764767761.5300455,8187.795,-1532.115,-35002.485,-13605.48,-10028.925,-28097.55,91.845,8849.25
1764767761.5300455,8187.03,-1532.79,-35002.98,-13606.29,-10030.185,-28096.875,90.585,8848.08
1764767761.5300455,8188.559999999999,-1531.44,-35001.945,-13603.005,-10024.155,-28085.175,91.8,8848.395
1764767761.5300455,8186.715,-1532.52,-35002.89,-13603.365,-10022.805,-28083.825,91.575,8847.945
1764767761.5300455,8175.599999999999,-1542.96,-35013.735,-13614.525,-10034.01,-28097.82,81.765,8836.785
1764767761.5300455,8175.195,-1542.87,-35014.23,-13615.515,-10037.07,-28107.135,80.28,8836.244999999999
1764767761.5300455,8175.42,-1543.185,-35014.365,-13616.37,-10041.705,-28115.505,80.595,8836.83
1764767761.5300455,8178.255,-1541.25,-35012.385,-13614.795,-10039.86,-28110.24,83.52,8839.619999999999
1764767761.5300455,8187.66,-1530.585,-35001.9,-13604.535,-10029.105,-28099.395,91.755,8849.295
1764767761.5300455,8182.304999999999,-1535.94,-35007.93,-13610.07,-10033.785,-28103.715,86.985,8843.535
1764767761.5300455,8168.13,-1550.88,-35022.33,-13624.515,-10046.88,-28115.325,74.565,8829.135
1764767761.5300455,8162.775,-1556.415,-35027.73,-13630.185,-10052.685,-28120.14,68.22,8823.195
1764767761.5300455,8163.134999999999,-1556.325,-35027.775,-13629.33,-10051.875,-28118.655,66.42,8822.88
1764767761.5300455,8165.25,-1554.57,-35025.66,-13627.485,-10049.49,-28118.88,66.645,8824.545
1764767761.5300455,8175.554999999999,-1543.185,-35014.41,-13615.74,-10036.98,-28108.845,76.455,8835.615
1764767761.5300455,8167.41,-1552.14,-35022.825,-13623.615,-10043.64,-28113.93,69.66,8827.785
1764767761.5300455,8160.48,-1560.195,-35030.655,-13631.67,-10048.05,-28114.605,63.63,8820.855
1764767761.5300455,8160.57,-1560.015,-35030.52,-13630.32,-10046.205,-28112.58,63.72,8821.529999999999
1764767761.5300455,8170.469999999999,-1548.63,-35019.315,-13618.26,-10034.64,-28103.715,73.25999999999999,8831.97
1764767761.5300455,8169.165,-1550.52,-35021.205,-13620.465,-10038.87,-28109.7,70.74,8830.08
1764767761.5300455,8165.519999999999,-1555.605,-35026.74,-13627.17,-10048.275,-28121.895,65.205,8824.635
1764767761.5300455,8162.505,-1558.71,-35030.34,-13632.12,-10057.32,-28132.155,62.235,8820.99
1764767761.5759509,8157.509999999999,-1562.4,-35034.255,-13635.945,-10061.01,-28131.48,59.22,8816.445
1764767761.5759509,8163.945,-1555.965,-35027.505,-13629.105,-10055.385,-28120.41,65.835,8823.96
1764767761.5759509,8159.309999999999,-1560.645,-35030.97,-13632.12,-10058.13,-28121.265,62.595,8819.82
1764767761.5759509,8169.03,-1549.215,-35019.225,-13618.53,-10043.505,-28109.205,73.575,8831.16
1764767761.5759509,8173.53,-1544.13,-35014.32,-13612.905,-10034.685,-28102.68,77.13,8835.345
1764767761.5759509,8175.059999999999,-1542.645,-35012.565,-13611.015,-10030.365,-28098.945,78.92999999999999,8836.11
1764767761.5759509,8175.33,-1542.375,-35013.645,-13612.185,-10030.545,-28099.755,78.92999999999999,8836.38
1764767761.5759509,8170.74,-1548.765,-35020.53,-13618.44,-10037.34,-28106.73,72.63,8829.765
1764767761.5759509,8167.545,-1552.23,-35023.77,-13624.245,-10044.495,-28114.965,69.88499999999999,8826.029999999999
1764767761.5759509,8162.505,-1556.955,-35028.765,-13631.085,-10054.98,-28128.24,65.78999999999999,8821.529999999999
1764767761.5759509,8176.5,-1543.05,-35015.67,-13617.54,-10046.835,-28119.465,77.445,8835.48
1764767761.5759509,8175.195,-1542.645,-35014.05,-13615.92,-10044.945,-28110.915,75.96,8834.039999999999
1764767761.5759509,8171.144999999999,-1545.9299999999998,-35015.895,-13617.045,-10039.275,-28102.41,73.53,8831.07
1764767761.5759509,8174.16,-1542.96,-35013.869999999995,-13614.21,-10033.92,-28099.755,77.58,8834.22
1764767761.5759509,8172.809999999999,-1545.84,-35016.84,-13617.045,-10036.08,-28103.535,75.55499999999999,8832.33
1764767761.5759509,8171.505,-1548.09,-35019.09,-13619.88,-10039.635,-28109.295,73.53,8830.845
1764767761.5759509,8169.21,-1551.195,-35022.195,-13623.84,-10046.16,-28116.27,69.345,8827.83
1764767761.5759509,8153.594999999999,-1568.655,-35039.295,-13640.445,-10061.955,-28130.22,53.685,8811.045
1764767761.5759509,8159.715,-1561.905,-35032.32,-13633.38,-10054.17,-28121.985,59.58,8817.75
1764767761.5759509,8154.45,-1567.1699999999998,-35037.585,-13638.735,-10060.29,-28129.95,54.63,8812.395
1764767761.5759509,8161.11,-1559.835,-35030.97,-13631.805,-10053.765,-28123.965,59.985,8817.795
1764767761.5759509,8150.219999999999,-1570.905,-35041.59,-13642.515,-10063.08,-28132.155,50.13,8806.365
1764767761.620244,8148.78,-1572.21,-35042.67,-13643.91,-10064.205,-28133.01,50.445,8806.23
1764767761.620244,8153.28,-1568.205,-35038.755,-13639.995,-10061.01,-28130.355,54.36,8811.135
1764767761.620244,8160.84,-1560.24,-35030.385,-13632.57,-10052.82,-28123.155,61.335,8819.01
1764767761.620244,8153.46,-1566.405,-35037.63,-13640.13,-10060.245,-28131.435,55.035,8811.27
1764767761.620244,8165.565,-1552.95,-35024.67,-13627.44,-10048.275,-28120.14,66.6,8823.555
1764767761.620244,8165.61,-1553.49,-35024.805,-13627.53,-10048.365,-28119.33,66.55499999999999,8823.33
1764767761.620244,8163.855,-1555.785,-35027.28,-13629.915,-10050.48,-28122.435,65.205,8821.215
1764767761.620244,8170.424999999999,-1548.27,-35020.845,-13622.94,-10044.9,-28119.915,70.02,8828.1
1764767761.620244,8170.83,-1547.595,-35019.72,-13621.14,-10043.595,-28116.09,72.585,8830.17
1764767761.620244,8174.295,-1542.915,-35015.355,-13615.965,-10036.71,-28105.965,77.535,8835.164999999999
1764767761.620244,8167.634999999999,-1549.8,-35020.935,-13621.32,-10040.985,-28110.015,72.855,8828.505
1764767761.620244,8162.054999999999,-1556.145,-35027.055,-13628.205,-10049.04,-28119.33,67.725,8821.98
1764767761.620244,8163.315,-1554.39,-35025.255,-13626.495,-10048.455,-28120.005,66.375,8823.06
1764767761.620244,8172.855,-1544.49,-35015.085,-13615.875,-10035.27,-28107.9,73.53,8832.645
1764767761.6213248,8173.889999999999,-1544.085,-35015.085,-13615.965,-10033.695,-28108.755,74.88,8833.095
1764767761.6213248,8157.509999999999,-1562.445,-35033.805,-13634.64,-10055.295,-28129.68,61.2,8816.715
1764767761.6213248,8152.335,-1569.06,-35040.869999999995,-13641.705,-10061.865,-28136.34,54.225,8809.11
1764767761.6213248,8151.75,-1569.69,-35040.33,-13642.065,-10060.29,-28133.37,52.875,8808.074999999999
1764767761.6213248,8157.735,-1563.57,-35034.165,-13636.08,-10054.125,-28124.505,59.22,8814.42
1764767761.6213248,8150.849999999999,-1568.88,-35039.97,-13643.145,-10064.925,-28136.34,54.18,8807.805
1764767761.6213248,8158.545,-1559.88,-35030.835,-13635.045,-10061.64,-28134.72,63.045,8817.255
1764767761.6213248,8149.86,-1568.52,-35039.565,-13643.28,-10070.19,-28143.405,55.17,8808.21
1764767761.6213248,8150.804999999999,-1567.395,-35037.45,-13640.625,-10065.33,-28135.35,56.835,8810.235
1764767761.6213248,8161.605,-1555.83,-35026.2,-13628.88,-10051.515,-28121.13,66.55499999999999,8821.395
1764767761.6213248,8161.83,-1556.37,-35026.29,-13629.78,-10052.01,-28121.265,65.7,8820.135
1764767761.6213248,8147.969999999999,-1572.615,-35042.805,-13645.89,-10068.03,-28136.745,51.21,8805.33
1764767761.6676223,8147.61,-1572.255,-35043.03,-13645.845,-10067.58,-28135.665,50.31,8804.61
1764767761.6676223,8159.309999999999,-1560.69,-35030.52,-13633.425,-10053.63,-28121.22,60.12,8815.77
1764767761.6676223,8165.969999999999,-1553.6699999999998,-35023.77,-13626.54,-10045.665,-28113.03,66.735,8823.33
1764767761.6676223,8164.259999999999,-1555.02,-35026.335,-13629.42,-10048.095,-28116.945,64.395,8821.44
1764767761.6676223,8163.63,-1554.39,-35025.885,-13629.105,-10047.78,-28118.925,64.17,8821.98
1764767761.6676223,8168.759999999999,-1547.91,-35019.494999999995,-13622.94,-10040.895,-28114.29,70.38,8828.19
1764767761.6676223,8177.4,-1539.45,-35010.945,-13614.84,-10033.47,-28106.055,78.66,8836.56
1764767761.6676223,8180.82,-1534.95,-35006.355,-13610.7,-10028.745,-28100.655,81.99,8839.935
1764767761.6676223,8174.655,-1541.07,-35012.16,-13617.09,-10031.715,-28103.4,76.23,8834.22
1764767761.6676223,8162.505,-1553.355,-35024.895,-13629.96,-10047.105,-28120.32,65.205,8821.574999999999
1764767761.6676223,8164.844999999999,-1551.015,-35022.869999999995,-13628.79,-10048.815,-28119.825,67.63499999999999,8824.095
1764767761.6676223,8156.969999999999,-1558.935,-35029.98,-13636.305,-10058.895,-28128.69,61.83,8816.445
1764767761.6676223,8158.049999999999,-1558.395,-35029.215,-13636.44,-10064.7,-28131.705,62.01,8816.67
1764767761.6676223,8162.639999999999,-1553.31,-35024.4,-13631.535,-10060.92,-28126.755,67.005,8822.07
1764767761.6676223,8172.674999999999,-1542.465,-35013.24,-13618.89,-10045.215,-28110.195,76.95,8833.185
1764767761.6676223,8175.96,-1538.595,-35009.415,-13614.615,-10038.015,-28101.6,80.505,8837.055
1764767761.6676223,8166.644999999999,-1546.965,-35018.64,-13623.615,-10047.195,-28111.095,72.49499999999999,8828.145
1764767761.6676223,8166.33,-1548.0449999999998,-35019.63,-13624.83,-10049.31,-28114.74,70.965,8827.65
1764767761.6676223,8173.934999999999,-1541.115,-35012.385,-13618.26,-10043.28,-28109.115,76.32,8834.535
1764767761.6676223,8168.535,-1547.28,-35018.415,-13625.28,-10049.895,-28116.945,69.345,8827.11
1764767761.6676223,8159.67,-1555.965,-35027.369999999995,-13633.29,-10059.12,-28127.115,61.02,8817.75
1764767761.6676223,8164.665,-1550.655,-35021.52,-13626.585,-10052.325,-28119.915,65.42999999999999,8822.789999999999
1764767761.713899,8160.48,-1555.9199999999998,-35026.244999999995,-13630.725,-10053.135,-28121.58,61.02,8817.435
1764767761.713899,8157.509999999999,-1559.4299999999998,-35029.17,-13632.975,-10055.745,-28127.295,57.69,8813.699999999999
1764767761.713899,8153.28,-1563.345,-35032.905,-13637.025,-10060.11,-28131.975,55.26,8809.785
1764767761.713899,8162.235,-1553.175,-35022.105,-13627.305,-10051.38,-28121.805,64.71,8820.72
1764767761.713899,8161.335,-1553.8049999999998,-35023.59,-13629.375,-10054.35,-28123.515,64.395,8820.09
1764767761.713899,8170.245,-1545.39,-35016.57,-13622.625,-10047.915,-28117.89,71.46,8827.875
1764767761.713899,8171.684999999999,-1544.58,-35015.22,-13622.58,-10051.065,-28122.255,72.89999999999999,8829.18
1764767761.713899,8155.889999999999,-1561.14,-35030.655,-13636.98,-10067.58,-28136.925,57.285,8812.215
1764767761.713899,8157.42,-1558.62,-35028.18,-13633.155,-10060.245,-28126.98,58.41,8813.43
1764767761.713899,8152.605,-1564.29,-35033.76,-13638.465,-10064.07,-28132.605,52.56,8807.67
1764767761.713899,8156.88,-1560.195,-35029.665,-13634.37,-10059.435,-28129.86,55.485,8811.36
1764767761.713899,8152.38,-1565.19,-35035.47,-13639.905,-10063.71,-28134.63,51.66,8807.13
1764767761.713899,8150.759999999999,-1565.82,-35037.27,-13641.255,-10064.745,-28134.72,51.165,8806.41
1764767761.713899,8151.525,-1564.965,-35037.18,-13641.57,-10065.06,-28135.485,50.76,8806.904999999999
1764767761.713899,8151.344999999999,-1565.955,-35039.34,-13644.72,-10067.895,-28139.355,48.78,8805.6
1764767761.713899,8144.955,-1573.065,-35046.405,-13652.28,-10076.85,-28148.49,43.38,8798.67
1764767761.713899,8154.224999999999,-1563.525,-35036.325,-13641.615,-10065.465,-28135.8,53.55,8808.21
1764767761.7149105,8154.405,-1562.715,-35036.01,-13640.58,-10063.53,-28131.48,53.055,8808.615
1764767761.7149105,8155.98,-1561.185,-35034.525,-13639.455,-10061.19,-28129.32,54.36,8809.154999999999
1764767761.7149105,8151.03,-1567.035,-35040.6,-13645.89,-10067.715,-28138.815,50.22,8802.945
1764767761.7149105,8153.144999999999,-1565.37,-35038.845,-13644.9,-10067.805,-28142.91,51.3,8804.789999999999
1764767761.7149105,8155.035,-1563.84,-35037.99,-13643.64,-10066.815,-28143.09,52.425,8805.285
1764767761.761125,8164.035,-1554.39,-35028.494999999995,-13634.01,-10057.05,-28133.505,62.46,8815.32
1764767761.761125,8160.48,-1556.0549999999998,-35030.34,-13635.495,-10056.465,-28129.545,62.595,8813.34
1764767761.761125,8168.58,-1547.145,-35020.305,-13624.875,-10043.64,-28114.02,71.05499999999999,8822.654999999999
1764767761.7626152,8173.71,-1542.015,-35015.13,-13620.285,-10037.115,-28106.505,76.5,8828.324999999999
1764767761.7626152,8178.66,-1536.7949999999998,-35010.18,-13616.595,-10035.945,-28108.53,80.955,8833.77
1764767761.7626152,8173.53,-1540.935,-35014.32,-13621.365,-10043.37,-28117.44,77.13,8828.369999999999
1764767761.7626152,8181.224999999999,-1533.105,-35005.725,-13612.005,-10035.27,-28103.445,84.06,8836.335
1764767761.7626152,8178.929999999999,-1536.03,-35007.57,-13613.805,-10035.45,-28101.06,81.27,8833.14
1764767761.7626152,8172.45,-1543.455,-35015.49,-13621.77,-10041.84,-28110.42,75.06,8825.67
1764767761.7626152,8181.9,-1534.32,-35006.085,-13612.59,-10032.84,-28104.255,83.565,8834.76
1764767761.7626152,8185.679999999999,-1530.405,-35002.755,-13609.35,-10028.655,-28102.275,87.435,8839.035
1764767761.7626152,8181.269999999999,-1533.735,-35005.815,-13611.15,-10029.915,-28103.58,82.98,8834.805
1764767761.7626152,8169.84,-1545.525,-35018.28,-13621.905,-10039.77,-28111.905,72.81,8823.105
1764767761.7626152,8170.245,-1545.165,-35017.695,-13620.915,-10037.115,-28109.565,72.89999999999999,8823.645
1764767761.7626152,8181.855,-1532.385,-35005.5,-13608.72,-10023.21,-28097.055,83.42999999999999,8835.615
1764767761.7626152,8171.144999999999,-1543.365,-35017.244999999995,-13621.14,-10035.495,-28109.115,73.44,8823.51
1764767761.7626152,8169.884999999999,-1545.39,-35019.675,-13624.74,-10042.29,-28115.64,70.515,8822.565
1764767761.7626152,8176.005,-1540.1699999999998,-35013.24,-13619.79,-10038.78,-28115.28,73.935,8827.875
1764767761.7626152,8170.965,-1545.345,-35017.2,-13623.165,-10040.49,-28115.145,70.28999999999999,8822.61
1764767761.7626152,8170.29,-1546.065,-35016.39,-13620.375,-10035.09,-28106.01,72.225,8823.015
1764767761.7626152,8179.875,-1535.985,-35006.355,-13610.925,-10024.65,-28096.065,82.755,8833.59
1764767761.7626152,8173.259999999999,-1542.105,-35013.015,-13618.215,-10031.535,-28103.49,77.895,8827.47
1764767761.7626152,8179.155,-1536.12,-35006.715,-13610.52,-10022.985,-28095.57,82.89,8833.68
1764767761.7626152,8178.84,-1535.13,-35005.77,-13609.62,-10023.03,-28097.955,82.485,8834.265
1764767761.8093913,8178.344999999999,-1535.31,-35006.715,-13610.88,-10026.225,-28101.555,79.785,8832.69
1764767761.8093913,8168.715,-1546.56,-35016.93,-13621.68,-10037.475,-28113.03,67.77,8821.44
1764767761.8093913,8177.219999999999,-1538.325,-35008.965,-13613.355,-10026.18,-28103.13,76.05,8830.619999999999
1764767761.8093913,8177.894999999999,-1539.0449999999998,-35009.505,-13612.815,-10022.445,-28095.615,79.335,8831.52
1764767761.8093913,8178.165,-1538.19,-35007.93,-13611.105,-10020.015,-28092.51,80.36999999999999,8831.654999999999
1764767761.8093913,8181.134999999999,-1533.96,-35004.42,-13607.82,-10016.145,-28094.085,84.06,8835.029999999999
1764767761.8093913,8178.48,-1536.21,-35008.244999999995,-13611.915,-10020.6,-28102.23,81.49499999999999,8832.96
1764767761.8093913,8184.105,-1529.64,-35002.619999999995,-13605.57,-10016.235,-28097.28,86.67,8839.664999999999
1764767761.8093913,8187.03,-1526.22,-34999.38,-13603.005,-10017.18,-28095.39,89.955,8844.029999999999
1764767761.8093913,8182.844999999999,-1530.72,-35003.295,-13608.675,-10024.74,-28102.59,86.35499999999999,8838.99
1764767761.8093913,8189.82,-1523.655,-34996.005,-13600.215,-10013.04,-28088.37,92.97,8845.425
1764767761.8093913,8181.63,-1532.475,-35004.015,-13607.55,-10017.225,-28089.63,84.6,8836.335
1764767761.8093913,8171.594999999999,-1542.645,-35014.68,-13618.44,-10025.505,-28098.495,75.465,8825.58
1764767761.8093913,8165.924999999999,-1548.27,-35020.665,-13622.94,-10029.375,-28104.705,70.24499999999999,8820.63
1764767761.810398,8169.03,-1544.985,-35017.785,-13619.835,-10025.73,-28103.265,71.505,8823.96
1764767761.810398,8168.355,-1546.74,-35019.765,-13622.535,-10028.205,-28107.495,69.92999999999999,8822.744999999999
1764767761.810398,8165.07,-1549.215,-35022.825,-13625.415,-10031.535,-28110.645,67.185,8819.414999999999
1764767761.810398,8157.33,-1556.865,-35030.07,-13632.255,-10038.195,-28116.225,61.695,8811.855
1764767761.810398,8154.809999999999,-1559.565,-35032.545,-13635.54,-10040.445,-28117.35,59.67,8809.695
1764767761.810398,8160.974999999999,-1552.86,-35027.145,-13629.87,-10036.8,-28113.48,64.755,8816.49
1764767761.810398,8173.304999999999,-1540.08,-35015.535,-13616.955,-10025.595,-28101.96,76.005,8828.955
1764767761.810398,8169.84,-1543.32,-35018.595,-13620.42,-10030.365,-28105.65,72.27,8824.994999999999
1764767761.810398,8163.36,-1550.565,-35025.345,-13627.575,-10038.195,-28116.72,65.52,8817.345
1764767761.810398,8163.179999999999,-1550.97,-35025.39,-13627.89,-10039.32,-28116.675,65.655,8816.67
1764767761.8564155,8165.969999999999,-1546.65,-35022.735,-13624.29,-10033.74,-28108.08,69.345,8819.775
1764767761.8569236,8176.455,-1535.85,-35012.34,-13613.94,-10022.94,-28099.44,79.11,8830.485
1764767761.8569236,8166.96,-1545.66,-35022.06,-13623.75,-10032.435,-28109.925,69.975,8821.035
1764767761.8569236,8162.684999999999,-1549.44,-35026.335,-13627.845,-10036.845,-28115.145,66.69,8816.985
1764767761.8569236,8165.25,-1546.335,-35023.365,-13624.92,-10034.01,-28112.13,69.615,8820.0
1764767761.8569236,8173.035,-1537.875,-35014.23,-13615.875,-10025.415,-28104.435,77.445,8827.83
1764767761.8569236,8184.33,-1527.48,-35003.79,-13605.12,-10014.795,-28093.77,87.66,8838.81
1764767761.8569236,8182.485,-1529.73,-35005.68,-13606.02,-10014.93,-28091.88,86.625,8837.46
1764767761.8569236,8182.755,-1529.955,-35005.994999999995,-13606.515,-10015.065,-28092.645,84.78,8836.199999999999
1764767761.8569236,8181.54,-1531.845,-35007.525,-13608.765,-10017.945,-28096.155,82.395,8833.095
1764767761.8569236,8175.195,-1540.35,-35015.175,-13617.27,-10025.865,-28103.58,74.61,8825.31
1764767761.8569236,8166.735,-1549.035,-35023.365,-13624.965,-10034.01,-28111.23,67.63499999999999,8816.76
1764767761.8569236,8172.945,-1542.24,-35016.615,-13618.215,-10026.81,-28105.47,73.755,8823.645
1764767761.8569236,8171.46,-1543.725,-35019.494999999995,-13620.96,-10030.185,-28108.485,71.595,8822.295
1764767761.8569236,8163.54,-1551.5549999999998,-35027.865,-13629.105,-10038.915,-28114.02,66.645,8815.095
1764767761.8569236,8165.295,-1549.62,-35025.93,-13627.395,-10038.69,-28112.49,69.075,8817.66
1764767761.8569236,8178.389999999999,-1535.58,-35011.98,-13614.075,-10025.28,-28099.485,80.145,8830.395
1764767761.8569236,8179.155,-1534.455,-35010.405,-13613.355,-10024.47,-28100.205,79.965,8830.125
1764767761.8569236,8172.63,-1542.33,-35018.865,-13620.555,-10033.155,-28107.63,74.74499999999999,8823.105
1764767761.8569236,8167.95,-1548.72,-35025.165,-13626.0,-10037.295,-28110.465,69.92999999999999,8817.48
1764767761.8569236,8169.255,-1547.595,-35022.555,-13623.48,-10032.39,-28105.245,69.75,8818.11
1764767761.8569236,8180.82,-1533.5549999999998,-35007.795,-13609.305,-10017.45,-28090.8,81.585,8831.07
1764767761.8999035,8186.219999999999,-1528.425,-35002.395,-13604.805,-10013.67,-28092.015,85.99499999999999,8837.279999999999
1764767761.8999035,8190.63,-1522.89,-34997.175,-13600.485,-10010.97,-28094.04,90.81,8842.994999999999
1764767761.9004138,8188.469999999999,-1525.59,-35000.64,-13604.31,-10016.55,-28099.755,89.19,8840.789999999999
1764767761.9004138,8183.655,-1530.36,-35005.23,-13608.855,-10022.31,-28104.435,84.96,8836.065
1764767761.9004138,8193.779999999999,-1520.0549999999998,-34995.105,-13598.055,-10010.61,-28091.97,94.86,8846.595
1764767761.9004138,8183.16,-1530.63,-35005.095,-13608.63,-10021.725,-28101.33,85.095,8834.76
1764767761.9004138,8183.429999999999,-1530.63,-35005.05,-13608.855,-10024.74,-28103.805,84.86999999999999,8834.805
1764767761.9004138,8194.41,-1518.075,-34992.54,-13595.49,-10011.195,-28086.39,96.255,8846.82
1764767761.9004138,8194.005,-1518.57,-34991.775,-13594.59,-10007.145,-28079.865,97.605,8847.449999999999
1764767761.9004138,8204.085,-1507.77,-34981.92,-13583.52,-9993.465,-28066.545,107.73,8857.529999999999
1764767761.9004138,8206.154999999999,-1505.79,-34979.85,-13581.135,-9990.945,-28064.655,109.395,8859.33
1764767761.9004138,8206.154999999999,-1504.665,-34978.185,-13579.29,-9987.57,-28062.495,110.385,8860.05
1764767761.9004138,8209.395,-1500.84,-34975.26,-13577.22,-9985.95,-28062.45,113.76,8863.425
1764767761.9004138,8208.81,-1503.09,-34977.15,-13579.695,-9989.82,-28069.245,112.545,8862.75
1764767761.9004138,8209.35,-1501.605,-34975.665,-13579.065,-9992.115,-28072.395,113.04,8863.515
1764767761.9004138,8205.21,-1506.33,-34981.11,-13585.68,-10004.805,-28082.205,107.82,8858.16
1764767761.9004138,8196.795,-1515.4199999999998,-34990.74,-13596.165,-10017.045,-28090.44,99.18,8848.98
1764767761.9004138,8201.16,-1511.325,-34986.33,-13591.125,-10011.735,-28080.72,102.33,8852.76
1764767761.9004138,8201.34,-1510.9199999999998,-34985.115,-13589.37,-10008.63,-28074.51,102.645,8853.119999999999
1764767761.9004138,8199.539999999999,-1512.72,-34986.869999999995,-13590.765,-10007.595,-28076.67,100.125,8851.095
1764767761.9014273,8196.84,-1515.06,-34988.895,-13592.655,-10009.575,-28081.08,98.19,8848.574999999999
1764767761.9014273,8189.054999999999,-1522.1699999999998,-34997.4,-13600.845,-10017.495,-28089.09,92.61,8840.835
1764767761.9014273,8185.905,-1526.13,-35000.685,-13605.39,-10021.23,-28094.445,89.1,8837.055
1764767761.9014273,8186.67,-1525.455,-34999.244999999995,-13603.905,-10019.88,-28093.14,90.315,8838.135
1764767761.9476414,8191.62,-1520.145,-34994.88,-13599.315,-10014.93,-28087.47,94.68,8843.715
1764767761.9476414,8177.985,-1535.625,-35009.505,-13614.39,-10030.14,-28103.13,80.77499999999999,8828.595
1764767761.9476414,8175.96,-1538.55,-35012.07,-13616.055,-10032.39,-28105.56,78.03,8825.445
1764767761.9476414,8174.7,-1540.53,-35013.645,-13617.765,-10033.02,-28106.775,75.825,8823.6
1764767761.9476414,8179.38,-1535.535,-35009.19,-13613.31,-10028.205,-28102.005,79.155,8827.02
1764767761.9476414,8189.235,-1524.33,-34999.02,-13603.005,-10017.18,-28089.405,87.57,8837.324999999999
1764767761.948655,8192.744999999999,-1520.325,-34994.79,-13599.09,-10011.42,-28084.05,91.755,8841.42
1764767761.948655,8182.575,-1531.35,-35004.555,-13609.53,-10021.455,-28093.725,82.755,8830.935
1764767761.948655,8185.41,-1528.02,-35001.0,-13606.155,-10018.305,-28090.215,84.465,8834.355
1764767761.948655,8177.894999999999,-1536.39,-35010.45,-13614.165,-10025.775,-28100.745,75.86999999999999,8825.985
1764767761.948655,8177.264999999999,-1537.065,-35011.035,-13615.065,-10024.92,-28102.68,72.53999999999999,8824.05
1764767761.948655,8162.46,-1552.5449999999998,-35026.02,-13629.51,-10040.085,-28116.9,58.77,8808.435
1764767761.948655,8165.835,-1550.52,-35023.455,-13626.315,-10036.08,-28112.805,65.835,8813.61
1764767761.948655,8159.625,-1556.865,-35030.025,-13633.83,-10046.925,-28125.72,59.22,8806.455
1764767761.948655,8164.755,-1551.915,-35025.57,-13630.185,-10045.305,-28125.945,62.055,8811.225
1764767761.948655,8158.139999999999,-1559.97,-35033.805,-13640.76,-10059.345,-28139.355,54.9,8802.765
1764767761.948655,8158.41,-1559.16,-35033.04,-13640.85,-10060.515,-28136.79,55.62,8802.675
1764767761.948655,8158.769999999999,-1558.26,-35031.645,-13638.375,-10054.53,-28123.875,57.825,8804.744999999999
1764767761.948655,8157.509999999999,-1558.44,-35032.095,-13638.87,-10053.495,-28121.67,58.365,8804.744999999999
1764767761.948655,8161.469999999999,-1553.085,-35027.28,-13632.975,-10047.42,-28116.945,62.415,8808.93
1764767761.948655,8173.889999999999,-1540.1699999999998,-35014.455,-13619.925,-10031.175,-28099.935,73.25999999999999,8820.81
1764767761.948655,8169.12,-1545.75,-35019.765,-13625.685,-10036.98,-28109.205,66.42,8815.23
1764767761.9954977,8167.905,-1547.595,-35022.24,-13627.53,-10038.78,-28112.58,63.945,8814.285
1764767761.9954977,8167.139999999999,-1549.125,-35023.95,-13628.835,-10040.265,-28114.29,61.56,8812.619999999999
1764767761.9954977,8160.974999999999,-1554.705,-35029.53,-13634.55,-10046.475,-28120.275,57.33,8806.77
1764767761.9954977,8167.86,-1547.19,-35021.79,-13627.665,-10038.78,-28111.815,64.17,8814.33
1764767761.9954977,8173.17,-1541.835,-35017.155,-13622.85,-10034.19,-28103.805,69.88499999999999,8819.46
1764767761.9954977,8176.23,-1537.695,-35012.52,-13618.215,-10030.365,-28099.665,74.97,8823.6
1764767761.9954977,8179.155,-1533.69,-35008.38,-13614.615,-10029.555,-28100.79,78.255,8827.56
1764767761.9954977,8177.445,-1536.165,-35011.619999999995,-13617.045,-10033.02,-28103.715,77.175,8825.76
1764767761.9954977,8175.825,-1538.505,-35014.545,-13619.07,-10033.74,-28103.265,75.24,8822.925
1764767761.9954977,8171.28,-1544.31,-35019.81,-13624.245,-10037.925,-28108.53,69.12,8816.805
1764767761.9954977,8162.054999999999,-1555.38,-35030.43,-13634.64,-10048.32,-28118.79,59.76,8806.365
1764767761.9954977,8158.95,-1559.115,-35034.705,-13639.275,-10052.865,-28125.405,55.305,8801.82
1764767761.9954977,8161.965,-1554.84,-35030.115,-13634.37,-10047.735,-28120.815,57.78,8805.06
1764767761.9954977,8171.325,-1545.39,-35021.43,-13624.695,-10037.52,-28111.725,64.935,8815.005
1764767761.9954977,8175.735,-1540.44,-35017.695,-13620.42,-10033.29,-28110.735,69.92999999999999,8819.955
1764767761.9954977,8169.434999999999,-1546.695,-35023.815,-13626.9,-10041.255,-28120.815,66.33,8813.565
1764767761.9954977,8163.63,-1551.69,-35029.305,-13633.11,-10047.645,-28125.855,62.055,8808.84
1764767761.9954977,8166.96,-1548.27,-35025.795,-13630.095,-10045.98,-28123.065,65.565,8812.574999999999
1764767761.9954977,8178.48,-1536.75,-35013.24,-13618.845,-10035.9,-28109.745,76.725,8824.05
1764767761.9954977,8167.86,-1548.54,-35024.94,-13629.555,-10046.79,-28116.495,66.6,8812.395
1764767761.9954977,8168.219999999999,-1546.965,-35023.77,-13628.43,-10044.495,-28116.045,65.97,8813.61
1764767761.9954977,8160.75,-1555.155,-35031.42,-13636.395,-10053.0,-28126.035,57.78,8804.699999999999
1764767761.9954977,8167.59,-1548.765,-35024.355,-13628.745,-10044.18,-28116.27,64.17,8811.72
1764767761.9954977,8170.019999999999,-1545.84,-35021.52,-13625.595,-10039.23,-28110.87,68.715,8815.005
1764767762.0377736,8171.19,-1544.715,-35020.485,-13624.38,-10037.655,-28109.79,69.435,8816.355
1764767762.0377736,8161.559999999999,-1554.705,-35030.475,-13634.82,-10048.23,-28121.04,60.03,8806.32
1764767762.0377736,8158.41,-1557.27,-35033.58,-13638.015,-10050.66,-28123.38,57.51,8803.71
1764767762.0377736,8172.045,-1543.455,-35019.81,-13624.965,-10038.915,-28111.455,69.615,8817.48
1764767762.0377736,8178.57,-1537.02,-35013.78,-13618.575,-10034.19,-28106.325,76.455,8824.095
1764767762.0377736,8169.525,-1547.145,-35023.68,-13628.88,-10045.53,-28119.555,66.105,8813.654999999999
1764767762.0377736,8158.455,-1558.485,-35036.145,-13640.94,-10059.975,-28135.935,54.495,8801.19
1764767762.0377736,8158.545,-1558.44,-35035.83,-13640.985,-10060.335,-28135.755,54.27,8800.65
1764767762.0377736,8172.09,-1543.095,-35019.855,-13625.64,-10043.73,-28116.315,67.095,8815.005
1764767762.0377736,8170.019999999999,-1545.435,-35022.42,-13628.295,-10046.205,-28117.62,64.71,8812.8
1764767762.0377736,8156.07,-1559.52,-35036.955,-13643.685,-10062.81,-28134.945,51.66,8799.029999999999
1764767762.0377736,8160.615,-1553.355,-35029.89,-13637.16,-10055.97,-28129.815,56.7,8804.61
1764767762.0377736,8163.809999999999,-1549.89,-35025.705,-13631.94,-10047.6,-28118.97,60.66,8807.76
1764767762.0377736,8165.115,-1547.64,-35024.04,-13628.88,-10042.38,-28112.76,63.72,8809.74
1764767762.0377736,8168.445,-1543.59,-35020.845,-13625.325,-10039.275,-28112.67,67.095,8813.61
1764767762.0377736,8166.509999999999,-1546.02,-35023.005,-13628.79,-10044.09,-28117.71,62.91,8810.73
1764767762.0377736,8168.49,-1543.5449999999998,-35019.99,-13626.36,-10042.29,-28114.56,64.755,8813.43
1764767762.0377736,8167.139999999999,-1546.065,-35022.735,-13628.43,-10043.595,-28113.93,62.595,8811.945
1764767762.0377736,8160.57,-1552.905,-35030.295,-13635.225,-10050.075,-28118.745,57.6,8804.835
1764767762.0377736,8148.78,-1565.595,-35041.545,-13646.655,-10062.405,-28133.775,48.375,8792.46
1764767762.0377736,8152.695,-1559.655,-35035.74,-13641.03,-10061.64,-28137.06,52.245,8797.23
1764767762.0377736,8162.19,-1549.035,-35025.39,-13631.4,-10054.08,-28127.43,60.93,8807.805
1764767762.0848486,8162.415,-1549.3049999999998,-35025.119999999995,-13631.355,-10053.0,-28125.315,60.705,8808.029999999999
1764767762.0848486,8156.924999999999,-1555.605,-35031.15,-13637.745,-10057.545,-28128.24,55.62,8802.494999999999
1764767762.0848486,8166.735,-1545.21,-35020.17,-13626.45,-10044.765,-28113.255,65.745,8812.845
1764767762.0848486,8154.36,-1557.72,-35031.69,-13637.97,-10055.25,-28122.705,56.385,8800.695
1764767762.0848486,8146.799999999999,-1565.505,-35039.97,-13646.79,-10066.32,-28134.45,50.76,8793.585
1764767762.0848486,8145.0,-1568.385,-35043.705,-13650.57,-10074.105,-28140.525,46.035,8789.715
1764767762.0848486,8145.134999999999,-1568.385,-35043.345,-13649.67,-10074.69,-28136.295,44.955,8789.445
1764767762.0848486,8144.235,-1568.88,-35042.895,-13649.805,-10074.15,-28138.185,44.505,8789.355
1764767762.0848486,8145.809999999999,-1566.27,-35040.555,-13647.24,-10072.17,-28141.47,46.62,8791.92
1764767762.0848486,8145.179999999999,-1565.37,-35040.195,-13646.79,-10072.17,-28140.57,46.395,8792.414999999999
1764767762.0848486,8153.73,-1556.505,-35031.24,-13637.115,-10061.19,-28129.77,54.045,8801.1
1764767762.0848486,8149.95,-1560.4199999999998,-35033.94,-13640.22,-10063.215,-28132.74,51.165,8796.645
1764767762.08613,8161.695,-1549.62,-35022.825,-13629.105,-10050.975,-28120.14,62.505,8808.795
1764767762.08613,8153.955,-1559.7,-35032.905,-13638.915,-10060.875,-28132.02,52.965,8798.625
1764767762.08613,8153.549999999999,-1558.98,-35032.905,-13639.095,-10062.45,-28137.465,51.75,8797.32
1764767762.08613,8156.519999999999,-1555.83,-35029.98,-13636.17,-10059.255,-28134.495,55.98,8801.324999999999
1764767762.08613,8167.005,-1545.705,-35019.45,-13625.865,-10049.805,-28123.695,65.745,8812.08
1764767762.08613,8159.67,-1552.905,-35026.02,-13631.895,-10056.24,-28125.855,61.605,8806.32
1764767762.08613,8161.245,-1550.745,-35021.97,-13628.385,-10050.075,-28116.765,63.585,8808.75
1764767762.08613,8163.809999999999,-1547.28,-35019.494999999995,-13625.82,-10046.07,-28112.265,64.71,8811.315
1764767762.08613,8164.62,-1546.29,-35018.82,-13624.695,-10044.495,-28110.555,66.78,8812.755
1764767762.08613,8157.33,-1553.31,-35025.3,-13631.085,-10050.705,-28119.195,61.29,8806.185
1764767762.08613,8166.24,-1544.22,-35015.76,-13622.265,-10042.155,-28113.705,68.85,8815.23
1764767762.08613,8160.299999999999,-1550.7,-35023.455,-13630.05,-10051.965,-28124.73,61.515,8808.164999999999
1764767762.1325412,8163.63,-1548.225,-35020.575,-13628.115,-10051.695,-28123.56,62.55,8811.135
1764767762.1325412,8155.934999999999,-1556.73,-35029.44,-13636.35,-10059.57,-28128.87,54.585,8801.73
1764767762.1325412,8154.045,-1558.755,-35031.465,-13637.97,-10060.83,-28129.77,53.055,8799.255
1764767762.1335764,8163.63,-1548.765,-35022.33,-13628.43,-10051.74,-28121.445,62.235,8809.244999999999
1764767762.1335764,8162.91,-1549.395,-35022.42,-13628.25,-10051.29,-28120.095,64.17,8810.414999999999
1764767762.1335764,8161.019999999999,-1549.98,-35022.06,-13628.115,-10051.335,-28121.04,62.055,8808.48
1764767762.1335764,8161.875,-1548.72,-35020.485,-13626.99,-10051.38,-28122.48,63.495,8809.83
1764767762.1335764,8172.495,-1537.335,-35010.72,-13617.225,-10042.29,-28110.24,72.99,8821.17
1764767762.1335764,8176.905,-1533.78,-35006.535,-13612.68,-10035.315,-28100.43,77.265,8825.445
1764767762.1335764,8171.235,-1540.89,-35013.105,-13618.71,-10041.075,-28107.765,70.155,8817.029999999999
1764767762.1335764,8161.514999999999,-1550.745,-35023.725,-13628.97,-10052.19,-28119.69,59.175,8805.824999999999
1764767762.1335764,8165.745,-1546.47,-35019.63,-13625.19,-10048.365,-28116.855,63.36,8810.91
1764767762.1335764,8163.36,-1549.485,-35022.915,-13629.105,-10053.27,-28122.885,61.695,8808.48
1764767762.1335764,8168.085,-1543.365,-35017.11,-13622.67,-10047.78,-28118.205,65.42999999999999,8814.105
1764767762.1335764,8165.924999999999,-1544.76,-35019.27,-13623.84,-10049.445,-28120.455,64.395,8812.8
1764767762.1335764,8158.184999999999,-1552.815,-35027.415,-13631.04,-10055.61,-28123.83,58.365,8805.06
1764767762.1335764,8166.285,-1544.04,-35018.865,-13622.355,-10046.52,-28112.265,66.465,8813.97
1764767762.1335764,8167.995,-1542.105,-35017.785,-13620.78,-10045.935,-28113.345,68.58,8815.41
1764767762.1335764,8168.4,-1542.78,-35017.65,-13620.915,-10046.295,-28115.37,68.445,8814.69
1764767762.1335764,8163.855,-1548.495,-35022.555,-13625.19,-10049.67,-28118.745,64.17,8810.685
1764767762.1335764,8161.335,-1550.925,-35025.39,-13628.25,-10052.145,-28121.355,61.245,8807.625
1764767762.1335764,8150.445,-1561.77,-35035.92,-13639.59,-10063.395,-28133.73,50.85,8795.88
1764767762.1335764,8152.335,-1560.285,-35034.165,-13637.745,-10062.36,-28132.92,52.47,8797.68
1764767762.1335764,8163.269999999999,-1548.72,-35023.23,-13626.585,-10051.515,-28121.355,62.01,8809.38
1764767762.1801186,8172.269999999999,-1538.28,-35012.565,-13616.505,-10039.41,-28107.945,72.36,8819.369999999999
1764767762.1801186,8177.355,-1532.52,-35006.085,-13609.845,-10031.895,-28101.465,78.11999999999999,8824.455
1764767762.1801186,8171.19,-1539.27,-35012.61,-13615.38,-10036.485,-28106.055,71.73,8818.335
1764767762.1801186,8159.67,-1551.5549999999998,-35024.94,-13627.305,-10045.755,-28111.68,61.38,8805.6
1764767762.1801186,8165.655,-1545.48,-35019.045,-13619.97,-10038.735,-28104.165,67.86,8812.08
1764767762.1801186,8163.36,-1547.235,-35021.43,-13622.67,-10043.01,-28111.86,63.495,8809.244999999999
1764767762.1801186,8164.17,-1546.47,-35020.44,-13623.975,-10047.825,-28123.155,61.74,8809.065
1764767762.1801186,8154.809999999999,-1556.415,-35030.115,-13635.45,-10064.565,-28140.03,53.505,8799.119999999999
1764767762.1801186,8151.21,-1560.735,-35033.985,-13639.275,-10070.46,-28140.075,50.22,8795.565
1764767762.1801186,8160.84,-1550.655,-35023.05,-13627.395,-10057.905,-28120.545,60.66,8805.42
1764767762.1801186,8164.665,-1546.38,-35018.82,-13622.175,-10050.21,-28110.465,67.455,8810.505
1764767762.1801186,8169.66,-1540.665,-35013.06,-13616.64,-10042.02,-28105.74,72.765,8816.625
1764767762.1801186,8163.63,-1546.605,-35019.135,-13622.49,-10048.545,-28116.675,66.14999999999999,8810.145
1764767762.1801186,8168.67,-1541.205,-35014.275,-13616.775,-10042.605,-28112.715,71.1,8815.635
1764767762.1801186,8179.785,-1530.99,-35004.42,-13606.515,-10031.535,-28102.95,81.045,8826.885
1764767762.1801186,8167.049999999999,-1544.445,-35017.695,-13620.195,-10044.27,-28115.505,67.86,8812.8
1764767762.1801186,8164.755,-1547.64,-35020.619999999995,-13623.21,-10046.925,-28116.09,64.25999999999999,8809.47
1764767762.1801186,8173.349999999999,-1539.09,-35011.035,-13613.805,-10036.53,-28104.705,70.785,8818.11
1764767762.1801186,8176.455,-1535.94,-35007.795,-13609.755,-10032.525,-28101.24,73.8,8820.9
1764767762.1801186,8176.995,-1535.355,-35008.56,-13610.34,-10034.505,-28103.49,75.50999999999999,8821.89
1764767762.1801186,8174.61,-1537.155,-35010.494999999995,-13612.455,-10036.89,-28101.285,76.095,8820.675
1764767762.1801186,8174.7,-1536.84,-35008.695,-13611.78,-10036.035,-28097.685,78.11999999999999,8821.26
1764767762.1801186,8170.11,-1541.745,-35013.465,-13615.425,-10038.735,-28099.305,74.295,8816.31
1764767762.1801186,8176.005,-1535.355,-35007.21,-13608.0,-10029.33,-28092.465,77.39999999999999,8821.98
1764767762.2270076,8175.69,-1536.48,-35008.244999999995,-13609.215,-10029.42,-28096.335,74.61,8820.18
1764767762.2283528,8169.705,-1542.87,-35013.735,-13615.92,-10036.89,-28104.705,68.895,8813.744999999999
1764767762.2283528,8170.559999999999,-1542.645,-35014.815,-13616.82,-10039.005,-28106.865,69.16499999999999,8813.654999999999
1764767762.2283528,8161.335,-1551.96,-35025.3,-13627.215,-10051.92,-28122.84,59.31,8802.855
1764767762.2283528,8160.929999999999,-1553.175,-35027.685,-13631.04,-10060.92,-28134.315,58.365,8802.72
1764767762.2283528,8162.865,-1550.115,-35024.04,-13628.385,-10062.54,-28135.53,61.785,8805.51
1764767762.2283528,8173.485,-1537.695,-35010.81,-13613.715,-10043.73,-28112.715,73.71,8817.48
1764767762.2283528,8174.295,-1537.155,-35010.54,-13612.455,-10038.645,-28104.84,76.095,8819.1
1764767762.2283528,8168.894999999999,-1542.5549999999998,-35015.58,-13617.09,-10043.64,-28109.79,70.92,8813.88
1764767762.2283528,8167.724999999999,-1544.13,-35016.525,-13618.17,-10043.64,-28111.41,69.615,8812.529999999999
1764767762.2283528,8168.759999999999,-1543.59,-35015.625,-13617.675,-10041.975,-28109.97,69.57,8812.574999999999
1764767762.2283528,8160.929999999999,-1552.005,-35024.085,-13626.315,-10048.815,-28116.225,60.255,8803.574999999999
1764767762.2283528,8146.844999999999,-1568.2949999999998,-35040.06,-13641.165,-10062.405,-28129.41,45.27,8788.005
1764767762.2283528,8141.309999999999,-1572.705,-35044.47,-13646.16,-10068.21,-28135.665,40.23,8782.47
1764767762.2283528,8147.025,-1567.215,-35039.835,-13642.11,-10065.915,-28134.18,44.595,8789.13
1764767762.2283528,8157.554999999999,-1556.64,-35028.99,-13631.94,-10056.465,-28127.565,53.73,8800.11
1764767762.2283528,8165.969999999999,-1546.83,-35019.63,-13622.895,-10048.59,-28120.995,62.73,8808.75
1764767762.2283528,8169.705,-1542.465,-35015.715,-13620.195,-10048.365,-28121.13,66.465,8812.395
1764767762.2283528,8163.495,-1549.215,-35022.15,-13626.945,-10056.96,-28128.42,60.66,8805.645
1764767762.2283528,8158.95,-1552.905,-35025.93,-13630.365,-10060.695,-28129.41,58.005,8800.875
1764767762.2283528,8171.235,-1539.99,-35013.015,-13616.46,-10043.505,-28109.34,70.605,8812.845
1764767762.2283528,8163.585,-1549.62,-35021.655,-13624.2,-10048.815,-28115.145,63.675,8804.385
1764767762.274814,8157.78,-1555.83,-35028.09,-13630.68,-10055.34,-28121.805,56.79,8797.68
1764767762.274814,8157.554999999999,-1557.315,-35028.855,-13631.13,-10057.545,-28124.505,54.135,8795.43
1764767762.274814,8168.804999999999,-1545.03,-35016.345,-13618.665,-10045.44,-28115.145,64.845,8808.435
1764767762.274814,8169.75,-1543.995,-35016.48,-13618.845,-10046.205,-28115.19,66.105,8809.83
1764767762.274814,8159.49,-1554.705,-35026.92,-13629.285,-10056.87,-28123.065,57.51,8799.57
1764767762.274814,8167.275,-1545.12,-35017.74,-13620.195,-10045.845,-28111.545,65.38499999999999,8808.705
1764767762.274814,8171.91,-1539.99,-35012.79,-13615.11,-10039.905,-28108.845,70.28999999999999,8814.33
1764767762.2758148,8165.474999999999,-1546.245,-35019.225,-13621.68,-10045.71,-28113.795,66.50999999999999,8807.895
1764767762.2758148,8168.67,-1544.4,-35017.695,-13618.845,-10040.805,-28108.665,68.58,8810.055
1764767762.2758148,8157.96,-1555.965,-35029.395,-13630.5,-10051.92,-28119.24,58.185,8797.994999999999
1764767762.2758148,8155.259999999999,-1559.79,-35032.095,-13633.11,-10055.475,-28122.66,54.27,8793.494999999999
1764767762.2758148,8152.92,-1562.985,-35035.155,-13636.44,-10060.335,-28129.23,49.77,8790.615
1764767762.2758148,8154.09,-1560.69,-35033.04,-13635.27,-10060.875,-28129.545,49.995,8792.955
1764767762.2758148,8158.59,-1555.9199999999998,-35029.215,-13631.67,-10059.255,-28125.945,54.495,8797.904999999999
1764767762.2758148,8162.415,-1551.4199999999998,-35025.03,-13627.845,-10057.365,-28123.02,59.715,8801.775
1764767762.2758148,8159.58,-1553.49,-35026.2,-13629.15,-10058.94,-28124.595,59.67,8799.795
1764767762.2758148,8159.535,-1553.76,-35026.155,-13629.33,-10058.31,-28121.895,61.29,8800.154999999999
1764767762.2758148,8162.73,-1549.845,-35022.645,-13625.55,-10053.765,-28116.945,63.495,8803.755
1764767762.2758148,8173.17,-1539.45,-35012.52,-13614.93,-10041.795,-28106.505,73.035,8815.41
1764767762.2758148,8165.655,-1547.595,-35019.9,-13622.67,-10049.985,-28116.99,64.935,8806.275
1764767762.2758148,8172.945,-1540.71,-35013.15,-13613.895,-10040.22,-28106.1,70.695,8813.16
1764767762.2758148,8167.86,-1546.47,-35018.46,-13618.215,-10042.155,-28106.64,66.24,8807.76
1764767762.2758148,8171.054999999999,-1542.69,-35014.14,-13614.39,-10037.97,-28102.455,69.435,8811.81
1764767762.2758148,8175.33,-1538.19,-35010.494999999995,-13610.115,-10033.425,-28098.675,73.98,8816.445
1764767762.3193212,8173.889999999999,-1539.27,-35012.295,-13612.455,-10035.045,-28103.22,72.49499999999999,8815.545
1764767762.3193212,8162.505,-1551.015,-35024.49,-13626.0,-10049.94,-28121.04,61.335,8804.205
1764767762.3193212,8157.509999999999,-1556.235,-35029.395,-13630.995,-10058.22,-28130.31,55.845,8799.345
1764767762.319836,8160.75,-1552.14,-35024.895,-13626.405,-10055.25,-28122.12,61.065,8803.485
1764767762.319836,8170.83,-1542.015,-35014.05,-13614.93,-10039.365,-28101.285,71.46,8814.33
1764767762.319836,8159.085,-1554.48,-35026.785,-13627.08,-10049.58,-28113.615,58.41,8801.505
1764767762.319836,8160.03,-1553.715,-35027.055,-13627.215,-10051.245,-28115.73,58.23,8802.045
1764767762.319836,8150.985,-1563.57,-35036.325,-13636.935,-10060.83,-28125.54,48.645,8791.47
1764767762.319836,8154.134999999999,-1559.4299999999998,-35032.635,-13633.11,-10055.52,-28121.22,51.885,8794.845
1764767762.319836,8160.929999999999,-1551.87,-35025.705,-13626.09,-10048.905,-28116.405,58.32,8802.045
1764767762.319836,8153.594999999999,-1559.2949999999998,-35033.355,-13634.505,-10058.985,-28127.295,52.38,8795.16
1764767762.319836,8153.415,-1559.205,-35032.275,-13634.325,-10061.415,-28129.14,51.39,8795.295
1764767762.319836,8161.2,-1550.07,-35022.735,-13625.28,-10053.81,-28117.08,59.22,8804.385
1764767762.319836,8156.745,-1553.31,-35026.74,-13629.105,-10055.61,-28116.315,56.97,8800.11
1764767762.319836,8166.644999999999,-1543.95,-35017.56,-13618.98,-10042.155,-28102.95,66.105,8810.865
1764767762.319836,8160.21,-1551.915,-35025.03,-13625.955,-10048.005,-28110.735,58.725,8803.035
1764767762.319836,8151.03,-1562.04,-35035.155,-13635.81,-10057.545,-28120.725,50.58,8792.46
1764767762.319836,8155.665,-1558.08,-35030.34,-13631.22,-10052.595,-28116.675,54.27,8796.6
1764767762.319836,8166.69,-1546.335,-35018.055,-13620.24,-10043.64,-28110.195,62.37,8807.625
1764767762.319836,8167.094999999999,-1546.245,-35018.415,-13620.915,-10046.16,-28116.72,61.695,8807.985
1764767762.319836,8155.125,-1559.385,-35031.555,-13633.695,-10058.4,-28130.94,51.795,8795.744999999999
1764767762.319836,8150.085,-1563.3,-35035.38,-13638.015,-10063.89,-28136.79,47.79,8791.425
1764767762.3668342,8153.009999999999,-1559.025,-35031.33,-13632.795,-10057.68,-28128.375,52.425,8796.285
1764767762.3668342,8158.094999999999,-1553.6699999999998,-35025.84,-13626.945,-10051.155,-28122.345,57.555,8801.414999999999
1764767762.3668342,8170.559999999999,-1540.755,-35012.88,-13614.66,-10039.32,-28110.555,69.075,8813.744999999999
1764767762.3668342,8165.07,-1547.505,-35019.405,-13621.455,-10047.51,-28114.515,63.855,8806.725
1764767762.3668342,8162.82,-1550.97,-35022.78,-13624.83,-10050.93,-28112.67,61.56,8803.529999999999
1764767762.3668342,8164.485,-1548.765,-35020.98,-13622.13,-10049.04,-28111.995,61.47,8804.88
1764767762.3668342,8173.889999999999,-1538.505,-35010.0,-13611.78,-10037.34,-28105.11,69.21,8814.285
1764767762.3668342,8171.37,-1540.98,-35013.195,-13615.065,-10040.31,-28107.945,66.6,8811.945
1764767762.3668342,8157.554999999999,-1555.2,-35027.369999999995,-13629.645,-10056.465,-28122.705,54.54,8798.985
1764767762.3668342,8152.83,-1559.115,-35030.43,-13632.975,-10060.695,-28128.195,50.895,8795.16
1764767762.3668342,8157.554999999999,-1555.065,-35025.615,-13628.07,-10054.845,-28121.22,56.745,8799.525
1764767762.3668342,8168.085,-1542.465,-35013.915,-13615.02,-10040.94,-28106.955,68.625,8812.529999999999
1764767762.3668342,8167.545,-1544.6699999999998,-35015.805,-13617.09,-10046.745,-28111.095,67.185,8811.449999999999
1764767762.3668342,8157.96,-1556.64,-35026.515,-13627.62,-10056.87,-28119.6,55.845,8798.985
1764767762.3668342,8155.575,-1559.7,-35028.9,-13630.68,-10058.535,-28123.335,53.01,8795.835
1764767762.3668342,8148.96,-1565.64,-35034.975,-13635.405,-10062.315,-28127.565,48.06,8789.355
1764767762.3668342,8151.615,-1562.58,-35031.555,-13632.075,-10057.95,-28121.49,51.84,8792.01
1764767762.3668342,8153.37,-1561.095,-35029.755,-13631.13,-10057.32,-28120.59,52.47,8793.09
1764767762.3668342,8162.955,-1549.935,-35019.045,-13620.645,-10047.78,-28111.23,61.965,8804.16
1764767762.3668342,8168.174999999999,-1543.23,-35013.24,-13615.92,-10043.64,-28108.935,67.41,8810.279999999999
1764767762.3668342,8169.21,-1543.59,-35013.465,-13616.415,-10046.115,-28112.04,66.87,8811.135
1764767762.3673406,8166.33,-1546.02,-35015.49,-13617.99,-10048.5,-28113.975,63.99,8808.435
1764767762.3673406,8162.955,-1550.16,-35020.08,-13621.635,-10052.235,-28119.465,61.47,8804.654999999999
1764767762.3673406,8153.46,-1559.835,-35030.34,-13632.255,-10063.215,-28132.38,52.29,8793.945
1764767762.413723,8153.37,-1560.06,-35031.195,-13632.345,-10064.16,-28134.045,51.75,8793.404999999999
1764767762.413723,8157.644999999999,-1555.605,-35026.38,-13627.665,-10060.155,-28129.41,55.035,8796.96
1764767762.413723,8158.455,-1556.0549999999998,-35026.2,-13626.495,-10055.115,-28119.915,55.98,8797.5
1764767762.413723,8168.264999999999,-1545.39,-35015.265,-13614.84,-10040.265,-28103.355,65.835,8808.39
1764767762.413723,8176.41,-1535.715,-35005.32,-13605.345,-10028.835,-28094.49,74.295,8816.895
1764767762.413723,8175.42,-1535.6699999999998,-35005.14,-13605.705,-10029.24,-28100.565,72.945,8816.535
1764767762.413723,8163.09,-1549.44,-35019.585,-13621.095,-10047.06,-28121.85,62.055,8803.035
1764767762.414142,8162.144999999999,-1551.105,-35022.869999999995,-13625.19,-10055.07,-28128.645,62.37,8802.135
1764767762.414142,8171.639999999999,-1540.98,-35013.15,-13615.74,-10050.48,-28121.985,70.155,8811.945
1764767762.414142,8158.59,-1554.975,-35027.19,-13629.195,-10066.905,-28130.04,55.755,8797.095
1764767762.414142,8150.174999999999,-1565.685,-35036.55,-13637.655,-10071.765,-28130.535,47.97,8788.05
1764767762.414142,8146.304999999999,-1570.095,-35039.7,-13639.815,-10070.325,-28133.46,44.055,8783.91
1764767762.414142,8154.855,-1560.465,-35030.88,-13630.545,-10059.975,-28125.855,51.57,8793.135
1764767762.414142,8155.08,-1559.97,-35030.79,-13629.915,-10058.04,-28125.18,52.335,8794.08
1764767762.414142,8151.299999999999,-1561.995,-35034.03,-13632.21,-10059.435,-28126.845,50.445,8791.605
1764767762.414142,8158.005,-1554.84,-35025.345,-13623.165,-10048.905,-28117.08,57.78,8799.255
1764767762.414142,8151.21,-1562.4,-35033.265,-13631.13,-10057.365,-28126.08,51.3,8791.695
1764767762.414142,8150.759999999999,-1562.22,-35035.065,-13632.795,-10059.795,-28129.68,50.31,8791.154999999999
1764767762.414142,8162.28,-1550.25,-35023.455,-13621.41,-10051.02,-28122.39,60.345,8802.81
1764767762.414142,8155.889999999999,-1557.675,-35030.205,-13629.87,-10063.395,-28134.45,53.505,8796.15
1764767762.414142,8162.955,-1550.34,-35022.825,-13623.12,-10057.815,-28124.415,61.11,8803.529999999999
1764767762.414142,8163.0,-1550.2949999999998,-35022.869999999995,-13622.265,-10054.665,-28117.44,62.055,8802.855
1764767762.414142,8159.219999999999,-1554.435,-35027.145,-13625.775,-10055.52,-28114.2,60.48,8799.66
1764767762.414142,8151.03,-1562.76,-35036.145,-13634.46,-10062.765,-28122.615,53.505,8791.38
1764767762.460657,8158.679999999999,-1553.58,-35026.965,-13624.875,-10052.64,-28113.12,60.12,8800.515
1764767762.460657,8158.634999999999,-1553.94,-35026.47,-13624.02,-10051.92,-28113.75,59.58,8799.795
1764767762.460657,8150.894999999999,-1560.105,-35032.77,-13630.815,-10060.02,-28124.595,53.055,8792.55
1764767762.460657,8155.71,-1555.335,-35028.135,-13625.82,-10054.485,-28118.07,58.365,8797.275
1764767762.460657,8168.445,-1543.005,-35015.895,-13613.67,-10042.875,-28107.27,69.92999999999999,8810.235
1764767762.460657,8153.009999999999,-1559.52,-35033.175,-13631.31,-10062.045,-28126.305,54.135,8794.35
1764767762.460657,8145.585,-1567.8,-35041.14,-13639.32,-10069.74,-28131.93,46.53,8785.08
1764767762.460657,8151.615,-1560.465,-35033.535,-13631.445,-10062.09,-28124.955,51.57,8791.785
1764767762.460657,8155.485,-1555.74,-35029.17,-13626.855,-10059.84,-28123.02,56.205,8796.645
1764767762.460657,8147.655,-1564.38,-35037.045,-13635.54,-10068.165,-28132.47,49.86,8787.824999999999
1764767762.460657,8148.509999999999,-1563.345,-35035.83,-13635.135,-10069.02,-28138.725,50.58,8788.68
1764767762.460657,8147.745,-1564.065,-35036.055,-13635.72,-10069.065,-28138.77,49.725,8788.5
1764767762.460657,8155.349999999999,-1556.01,-35027.64,-13626.99,-10058.4,-28125.63,56.16,8797.095
1764767762.460657,8156.88,-1554.9299999999998,-35027.1,-13626.135,-10056.015,-28121.04,57.33,8797.725
1764767762.460657,8155.394999999999,-1556.505,-35028.405,-13627.26,-10056.645,-28120.095,56.52,8796.33
1764767762.460657,8143.155,-1570.185,-35041.59,-13641.345,-10068.705,-28131.39,45.585,8783.324999999999
1764767762.460657,8150.985,-1562.895,-35034.66,-13634.145,-10062.585,-28126.62,51.48,8790.119999999999
1764767762.460657,8146.665,-1567.215,-35039.475,-13638.87,-10069.29,-28135.53,46.26,8785.08
1764767762.460657,8153.46,-1559.565,-35032.32,-13630.68,-10060.29,-28126.575,52.92,8794.08
1764767762.460657,8155.349999999999,-1557.0449999999998,-35029.44,-13627.98,-10058.085,-28124.73,54.63,8796.015
1764767762.460657,8155.485,-1555.695,-35028.27,-13626.72,-10055.61,-28120.14,55.17,8795.925
1764767762.460657,8147.205,-1564.65,-35036.64,-13635.18,-10060.92,-28123.695,48.015,8787.555
1764767762.460657,8148.509999999999,-1562.31,-35033.895,-13633.065,-10057.86,-28122.57,50.445,8789.805
1764767762.460657,8150.985,-1558.575,-35029.89,-13629.825,-10055.745,-28125.045,53.73,8794.08
1764767762.5067213,8158.545,-1550.97,-35023.14,-13623.66,-10052.73,-28125.63,59.085,8801.82
1764767762.5067213,8153.955,-1556.73,-35029.755,-13631.76,-10064.52,-28135.35,51.885,8795.43
1764767762.5067213,8155.53,-1553.6699999999998,-35026.875,-13629.6,-10064.565,-28129.995,55.17,8797.32
1764767762.5067213,8158.184999999999,-1550.4299999999998,-35022.015,-13624.515,-10059.66,-28120.815,59.715,8800.154999999999
1764767762.5067213,8160.66,-1547.145,-35018.55,-13619.34,-10051.02,-28111.545,64.44,8803.395
1764767762.5067213,8150.985,-1558.125,-35029.935,-13630.32,-10060.83,-28123.695,56.385,8793.18
1764767762.5067213,8146.71,-1563.435,-35034.57,-13635.18,-10066.095,-28128.465,50.895,8789.4
1764767762.5067213,8156.7,-1551.285,-35022.78,-13623.165,-10054.53,-28116.765,59.58,8800.65
1764767762.5067213,8163.179999999999,-1544.715,-35016.525,-13617.18,-10047.555,-28111.05,65.97,8806.725
1764767762.5067213,8162.91,-1545.615,-35017.92,-13618.17,-10048.05,-28113.66,65.52,8806.23
1764767762.5067213,8163.405,-1544.895,-35015.895,-13616.145,-10045.935,-28112.13,67.27499999999999,8806.904999999999
1764767762.5067213,8159.985,-1548.27,-35019.045,-13618.98,-10048.68,-28115.865,64.98,8803.574999999999
1764767762.5067213,8155.08,-1554.21,-35025.75,-13625.1,-10057.005,-28124.865,61.11,8797.5
1764767762.5067213,8158.995,-1550.4299999999998,-35022.42,-13622.445,-10056.15,-28123.515,63.72,8801.414999999999
1764767762.5067213,8168.4,-1540.395,-35012.07,-13612.41,-10045.98,-28111.59,72.72,8811.045
1764767762.5067213,8159.58,-1549.755,-35020.755,-13620.735,-10054.215,-28116.45,65.295,8801.955
1764767762.5067213,8155.259999999999,-1553.76,-35024.49,-13625.37,-10059.21,-28120.905,60.885,8797.41
1764767762.5067213,8157.69,-1550.25,-35021.88,-13623.705,-10056.6,-28122.075,62.28,8800.244999999999
1764767762.5067213,8164.259999999999,-1542.105,-35014.905,-13615.245,-10047.78,-28112.895,68.625,8807.985
1764767762.5067213,8157.554999999999,-1548.72,-35021.655,-13620.555,-10051.245,-28114.335,63.585,8801.64
1764767762.5067213,8162.325,-1544.49,-35017.02,-13615.965,-10045.71,-28109.79,66.645,8805.96
1764767762.5067213,8156.835,-1551.78,-35023.905,-13623.48,-10053.765,-28121.94,58.5,8798.805
1764767762.5533123,8149.634999999999,-1559.925,-35032.365,-13632.75,-10064.295,-28135.08,49.455,8790.39
1764767762.5533123,8141.085,-1569.105,-35042.085,-13642.065,-10074.33,-28145.07,42.12,8780.94
1764767762.5533123,8151.21,-1558.1699999999998,-35030.744999999995,-13630.365,-10064.61,-28134.495,53.37,8792.595
1764767762.554911,8154.63,-1554.705,-35028.045,-13627.44,-10064.34,-28132.11,57.375,8796.105
1764767762.554911,8149.769999999999,-1558.26,-35031.645,-13631.67,-10068.39,-28133.685,54.855,8791.38
1764767762.554911,8147.429999999999,-1559.115,-35031.645,-13632.345,-10067.67,-28132.065,53.055,8790.255
1764767762.554911,8156.384999999999,-1549.53,-35022.78,-13622.58,-10056.555,-28121.265,61.245,8800.38
1764767762.554911,8154.719999999999,-1551.06,-35024.76,-13624.38,-10058.04,-28122.48,60.48,8798.13
1764767762.554911,8167.005,-1537.695,-35012.07,-13610.97,-10043.685,-28107.63,72.045,8811.36
1764767762.554911,8164.485,-1541.655,-35014.86,-13613.085,-10046.115,-28112.58,68.535,8808.345
1764767762.554911,8157.87,-1549.3049999999998,-35020.98,-13620.24,-10054.8,-28122.795,60.975,8801.19
1764767762.554911,8152.245,-1555.65,-35027.46,-13627.755,-10063.17,-28129.275,53.55,8793.585
1764767762.554911,8160.075,-1547.19,-35019.27,-13619.115,-10053.45,-28119.42,59.4,8801.55
1764767762.5564191,8152.11,-1555.605,-35027.505,-13627.755,-10061.775,-28127.52,53.28,8793.945
1764767762.5564191,8152.11,-1554.66,-35027.235,-13627.665,-10061.01,-28124.595,56.16,8796.06
1764767762.5564191,8146.08,-1559.2949999999998,-35031.42,-13632.165,-10066.635,-28132.515,50.985,8790.029999999999
1764767762.5564191,8155.844999999999,-1548.495,-35020.665,-13620.69,-10054.485,-28124.64,59.76,8801.279999999999
1764767762.5564191,8160.705,-1544.625,-35017.29,-13617.0,-10051.02,-28124.685,64.71,8806.05
1764767762.5564191,8159.58,-1546.9199999999998,-35020.35,-13619.34,-10054.215,-28127.25,63.09,8803.529999999999
1764767762.5564191,8152.469999999999,-1554.03,-35025.705,-13624.38,-10058.715,-28126.575,57.96,8796.555
1764767762.5564191,8150.13,-1556.64,-35028.72,-13626.855,-10060.02,-28125.585,54.99,8794.035
1764767762.5564191,8139.105,-1569.015,-35041.32,-13638.96,-10069.38,-28132.965,44.28,8781.255
1764767762.5564191,8137.44,-1570.5,-35042.76,-13639.77,-10067.22,-28128.915,43.56,8779.185
1764767762.5564191,8138.384999999999,-1567.845,-35040.375,-13636.305,-10062.945,-28125.405,45.135,8781.84
1764767762.5993798,8141.49,-1563.39,-35036.64,-13632.165,-10060.38,-28121.805,47.385,8785.755
1764767762.5993798,8148.96,-1555.245,-35028.27,-13623.435,-10050.39,-28112.445,53.595,8794.26
1764767762.5993798,8146.62,-1558.3049999999998,-35031.015,-13627.08,-10052.955,-28118.925,51.75,8791.244999999999
1764767762.5993798,8152.92,-1551.645,-35023.905,-13621.635,-10049.04,-28120.68,56.835,8797.68
1764767762.5993798,8161.38,-1543.095,-35015.265,-13614.165,-10043.73,-28116.495,64.98,8806.32
1764767762.5993798,8157.15,-1547.64,-35019.63,-13617.855,-10046.52,-28114.245,61.785,8801.595
1764767762.5993798,8150.58,-1556.0549999999998,-35027.055,-13626.315,-10057.5,-28120.365,57.645,8794.755
1764767762.5993798,8139.375,-1567.53,-35038.53,-13638.33,-10075.005,-28137.15,48.24,8783.73
1764767762.600392,8141.94,-1564.605,-35035.515,-13634.505,-10072.17,-28132.92,49.725,8787.375
1764767762.600392,8152.29,-1553.355,-35024.67,-13623.03,-10056.645,-28117.08,60.21,8798.67
1764767762.600392,8154.719999999999,-1550.88,-35022.105,-13621.815,-10056.915,-28122.885,63.18,8801.64
1764767762.600392,8161.424999999999,-1544.13,-35015.76,-13615.47,-10052.145,-28122.75,67.67999999999999,8807.895
1764767762.600392,8160.795,-1543.6799999999998,-35015.265,-13614.345,-10047.69,-28116.495,68.58,8808.029999999999
1764767762.600392,8158.41,-1545.48,-35017.74,-13616.64,-10047.105,-28115.145,68.03999999999999,8805.285
1764767762.600392,8167.049999999999,-1537.38,-35009.955,-13608.54,-10037.745,-28105.965,75.33,8813.475
1764767762.600392,8155.259999999999,-1549.8,-35021.79,-13620.51,-10050.48,-28116.135,64.035,8800.47
1764767762.600392,8150.58,-1554.57,-35026.47,-13624.155,-10054.89,-28120.365,58.185,8795.025
1764767762.600392,8156.79,-1548.36,-35021.43,-13619.025,-10050.165,-28118.25,62.145,8801.64
1764767762.600392,8153.325,-1551.6,-35025.39,-13623.84,-10055.655,-28123.785,60.075,8798.715
1764767762.600392,8156.969999999999,-1547.595,-35022.015,-13620.78,-10052.64,-28120.365,63.945,8802.63
1764767762.600392,8152.11,-1551.195,-35025.93,-13624.47,-10055.61,-28124.28,61.11,8799.164999999999
1764767762.600392,8156.295,-1546.695,-35020.71,-13619.07,-10050.075,-28117.53,64.575,8803.619999999999
1764767762.6471508,8153.955,-1548.63,-35022.869999999995,-13621.14,-10051.785,-28118.25,64.08,8801.73
1764767762.6471508,8165.429999999999,-1537.38,-35011.665,-13609.395,-10038.6,-28104.12,74.655,8813.385
1764767762.6471508,8168.759999999999,-1533.96,-35008.38,-13606.695,-10035.315,-28101.555,77.355,8816.895
1764767762.6471508,8155.889999999999,-1548.63,-35022.869999999995,-13621.23,-10050.705,-28117.755,63.63,8802.0
1764767762.6471508,8156.384999999999,-1548.36,-35023.185,-13620.375,-10051.065,-28117.08,64.215,8801.235
1764767762.6471508,8165.429999999999,-1538.19,-35013.69,-13611.24,-10040.4,-28106.415,72.225,8810.73
1764767762.6471508,8160.929999999999,-1541.88,-35018.055,-13616.37,-10045.215,-28111.95,67.77,8806.635
1764767762.6471508,8164.53,-1538.91,-35014.994999999995,-13613.04,-10043.28,-28110.915,71.505,8811.63
1764767762.6471508,8156.88,-1546.47,-35022.105,-13620.6,-10052.595,-28119.735,64.53,8803.755
1764767762.6471508,8161.019999999999,-1541.79,-35017.515,-13615.245,-10047.645,-28113.84,69.12,8808.705
1764767762.6471508,8155.98,-1546.9199999999998,-35022.33,-13620.015,-10053.225,-28118.835,65.925,8803.845
1764767762.6471508,8153.37,-1550.52,-35025.93,-13623.3,-10058.13,-28124.685,61.695,8800.244999999999
1764767762.6471508,8160.705,-1543.005,-35017.38,-13615.605,-10051.38,-28116.855,67.995,8807.535
1764767762.6471508,8152.335,-1551.96,-35026.244999999995,-13624.74,-10060.02,-28125.045,59.4,8797.994999999999
1764767762.6471508,8146.755,-1558.845,-35032.68,-13630.86,-10064.115,-28129.905,53.28,8791.11
1764767762.6471508,8145.495,-1559.97,-35033.58,-13631.805,-10064.925,-28134.405,51.57,8790.345
1764767762.6471508,8155.799999999999,-1548.54,-35022.735,-13621.05,-10056.51,-28126.665,61.065,8801.279999999999
1764767762.6471508,8154.045,-1549.665,-35023.14,-13621.59,-10059.12,-28126.305,61.785,8799.57
1764767762.6471508,8165.61,-1536.3,-35010.36,-13608.945,-10045.89,-28110.555,73.485,8812.71
1764767762.6471508,8167.634999999999,-1532.565,-35007.48,-13605.93,-10042.47,-28105.875,76.905,8816.535
1764767762.6471508,8165.25,-1534.995,-35010.27,-13609.125,-10045.665,-28108.755,75.645,8813.97
1764767762.6471508,8157.735,-1543.23,-35017.605,-13615.2,-10050.795,-28114.92,68.31,8805.555
1764767762.6471508,8164.215,-1534.905,-35008.155,-13605.345,-10039.95,-28104.795,74.78999999999999,8813.34
1764767762.6471508,8156.07,-1544.94,-35017.695,-13614.75,-10048.275,-28113.075,66.87,8803.485
1764767762.694276,8157.33,-1544.22,-35017.425,-13613.94,-10047.105,-28112.85,66.96,8803.89
1764767762.694276,8150.264999999999,-1552.77,-35025.705,-13622.355,-10057.59,-28123.92,59.49,8795.654999999999
1764767762.694276,8155.17,-1548.45,-35021.43,-13619.07,-10056.915,-28123.11,62.55,8800.695
1764767762.694276,8153.144999999999,-1549.215,-35022.24,-13621.68,-10062.495,-28127.745,62.28,8799.029999999999
1764767762.694276,8156.835,-1543.41,-35016.705,-13615.83,-10059.795,-28122.345,68.265,8804.205
1764767762.694276,8167.32,-1531.845,-35005.095,-13603.77,-10049.13,-28109.97,79.605,8815.23
1764767762.694276,8160.75,-1539.09,-35011.619999999995,-13611.465,-10057.815,-28119.015,74.295,8808.885
1764767762.694276,8165.565,-1533.465,-35005.77,-13606.38,-10052.145,-28113.165,76.86,8814.06
1764767762.694276,8170.695,-1528.83,-35001.54,-13601.205,-10046.925,-28106.865,79.24499999999999,8818.605
1764767762.694276,8167.5,-1531.53,-35004.96,-13603.86,-10049.265,-28110.24,75.86999999999999,8814.51
1764767762.694276,8160.929999999999,-1539.36,-35012.925,-13611.51,-10056.42,-28116.585,72.045,8807.22
1764767762.694276,8164.53,-1536.75,-35010.99,-13608.9,-10054.215,-28114.38,75.465,8811.63
1764767762.694276,8164.53,-1536.615,-35010.405,-13609.575,-10055.07,-28117.17,74.115,8812.305
1764767762.694276,8165.115,-1534.725,-35008.875,-13608.585,-10054.62,-28116.675,75.14999999999999,8813.07
1764767762.694276,8161.2,-1538.19,-35012.385,-13612.5,-10058.58,-28120.5,72.49499999999999,8808.525
1764767762.694276,8163.809999999999,-1534.995,-35008.425,-13607.145,-10053.99,-28114.02,76.67999999999999,8811.765
1764767762.694276,8156.519999999999,-1542.96,-35016.21,-13614.975,-10061.145,-28121.04,70.605,8804.565
1764767762.694276,8156.7,-1543.23,-35016.03,-13615.065,-10061.64,-28123.65,70.515,8804.654999999999
1764767762.694276,8164.17,-1535.94,-35009.64,-13608.18,-10055.655,-28119.645,76.095,8811.494999999999
1764767762.694276,8151.615,-1549.485,-35023.905,-13622.67,-10071.18,-28134.675,62.685,8796.96
1764767762.694276,8145.99,-1555.425,-35030.925,-13629.015,-10077.165,-28138.59,55.845,8790.795
1764767762.694276,8147.34,-1553.895,-35028.945,-13626.63,-10074.015,-28135.935,56.61,8792.145
1764767762.694276,8140.86,-1561.095,-35036.28,-13634.415,-10081.665,-28142.73,50.265,8784.855
1764767762.6952798,8144.144999999999,-1557.1799999999998,-35032.275,-13629.915,-10078.965,-28139.22,54.18,8788.904999999999
1764767762.74219,8152.11,-1547.955,-35022.51,-13620.33,-10069.695,-28131.57,64.17,8798.31
1764767762.74219,8157.87,-1541.2949999999998,-35016.615,-13614.255,-10062.81,-28125.945,70.785,8805.465
1764767762.74219,8164.71,-1533.24,-35009.235,-13607.235,-10055.7,-28117.62,77.085,8813.205
1764767762.7427,8162.46,-1535.445,-35011.035,-13610.295,-10059.75,-28122.435,75.465,8810.279999999999
1764767762.7427,8173.17,-1524.645,-35001.045,-13599.675,-10048.5,-28111.59,84.91499999999999,8821.44
1764767762.7427,8169.884999999999,-1527.66,-35004.24,-13600.53,-10048.545,-28112.22,80.955,8818.289999999999
1764767762.7427,8167.365,-1530.945,-35006.805,-13602.78,-10051.155,-28115.235,78.435,8815.23
1764767762.7427,8166.285,-1532.97,-35008.785,-13606.2,-10055.025,-28118.43,77.085,8813.52
1764767762.7427,8164.62,-1535.985,-35012.295,-13609.845,-10058.49,-28119.24,73.395,8810.369999999999
1764767762.7427,8163.45,-1536.435,-35012.07,-13609.08,-10056.33,-28114.74,71.36999999999999,8808.705
1764767762.7427,8161.875,-1537.47,-35012.07,-13608.99,-10054.305,-28111.14,72.49499999999999,8807.895
1764767762.7427,8154.945,-1544.76,-35019.585,-13616.505,-10062.09,-28122.255,67.67999999999999,8801.865
1764767762.7427,8151.615,-1546.965,-35023.14,-13620.33,-10067.445,-28132.695,65.02499999999999,8799.345
1764767762.7427,8157.825,-1540.395,-35016.48,-13615.155,-10064.97,-28130.175,70.515,8805.42
1764767762.7427,8172.585,-1525.59,-35002.08,-13600.665,-10050.795,-28113.255,83.74499999999999,8820.9
1764767762.7427,8171.054999999999,-1528.29,-35003.88,-13603.23,-10055.475,-28118.205,82.30499999999999,8818.56
1764767762.7427,8174.429999999999,-1525.6799999999998,-35001.45,-13600.89,-10050.93,-28111.905,86.58,8821.619999999999
1764767762.7427,8171.144999999999,-1528.83,-35004.465,-13601.07,-10045.935,-28104.21,83.565,8818.244999999999
1764767762.7427,8167.23,-1530.405,-35005.23,-13602.645,-10048.77,-28107.405,79.28999999999999,8813.789999999999
1764767762.7427,8161.965,-1536.48,-35011.17,-13610.52,-10059.84,-28120.86,73.755,8808.21
1764767762.7427,8166.509999999999,-1532.4299999999998,-35007.975,-13607.91,-10058.31,-28120.14,76.77,8812.8
1764767762.7427,8165.61,-1534.23,-35009.82,-13610.295,-10060.11,-28123.74,76.365,8812.305
1764767762.7427,8163.945,-1535.895,-35012.43,-13612.365,-10062.225,-28125.765,75.195,8810.235
1764767762.7427,8159.985,-1540.665,-35018.64,-13618.395,-10069.965,-28131.84,72.405,8805.51
1764767762.7864928,8169.299999999999,-1531.1699999999998,-35009.685,-13608.765,-10062.54,-28123.785,80.28,8815.005
1764767762.7864928,8164.62,-1536.075,-35014.725,-13613.22,-10066.32,-28124.415,75.24,8809.83
1764767762.7864928,8154.63,-1547.19,-35024.67,-13623.165,-10072.575,-28133.37,64.935,8798.49
1764767762.7864928,8163.36,-1537.605,-35015.94,-13614.39,-10062.18,-28125.18,72.72,8807.67
1764767762.7864928,8169.929999999999,-1530.0449999999998,-35010.18,-13607.82,-10055.07,-28118.7,78.92999999999999,8814.06
1764767762.7864928,8170.74,-1530.0449999999998,-35009.775,-13606.695,-10054.395,-28117.035,79.56,8814.69
1764767762.7864928,8165.429999999999,-1535.445,-35014.905,-13611.645,-10058.805,-28120.635,74.78999999999999,8810.055
1764767762.7864928,8160.884999999999,-1540.395,-35019.63,-13616.595,-10062.405,-28125.045,71.28,8805.51
1764767762.7864928,8157.509999999999,-1543.5,-35023.32,-13620.465,-10065.105,-28126.935,69.88499999999999,8802.27
1764767762.7864928,8171.054999999999,-1527.705,-35008.244999999995,-13605.39,-10050.165,-28111.995,83.25,8816.49
1764767762.7879665,8176.049999999999,-1522.44,-35003.655,-13602.105,-10046.88,-28111.815,86.895,8821.26
1764767762.7879665,8168.67,-1530.27,-35010.99,-13610.25,-10054.44,-28118.565,79.11,8813.97
1764767762.7879665,8164.755,-1535.265,-35016.57,-13615.245,-10059.21,-28121.355,74.52,8809.154999999999
1764767762.7879665,8159.58,-1540.98,-35022.015,-13620.78,-10064.07,-28125.405,69.435,8803.935
1764767762.7879665,8148.87,-1552.05,-35033.31,-13631.49,-10075.86,-28137.15,59.445,8792.955
1764767762.7879665,8145.495,-1553.6699999999998,-35035.515,-13633.38,-10077.57,-28139.985,57.555,8789.985
1764767762.7879665,8146.215,-1553.445,-35035.155,-13634.055,-10076.535,-28138.32,57.33,8790.435
1764767762.7879665,8143.155,-1556.37,-35038.215,-13637.34,-10079.01,-28140.12,54.225,8787.33
1764767762.7879665,8147.61,-1551.195,-35032.77,-13631.94,-10072.89,-28133.325,60.12,8793.18
1764767762.7879665,8163.09,-1534.59,-35017.02,-13616.37,-10056.915,-28118.88,74.97,8809.065
1764767762.7879665,8168.535,-1528.605,-35011.17,-13611.24,-10053.63,-28118.34,79.695,8814.285
1764767762.7879665,8155.844999999999,-1542.78,-35025.075,-13625.595,-10066.905,-28130.76,67.455,8800.38
1764767762.8352716,8153.82,-1545.84,-35028.27,-13628.43,-10068.12,-28130.22,65.07,8797.994999999999
1764767762.8352716,8163.045,-1536.345,-35019.315,-13619.43,-10059.12,-28121.76,71.73,8806.635
1764767762.8352716,8161.559999999999,-1537.335,-35020.125,-13621.095,-10060.155,-28123.38,72.405,8806.14
1764767762.8352716,8159.219999999999,-1539.135,-35022.465,-13623.39,-10061.91,-28124.64,70.56,8804.43
1764767762.8352716,8163.855,-1535.175,-35018.595,-13618.845,-10056.375,-28117.305,74.25,8808.885
1764767762.8352716,8162.684999999999,-1535.94,-35020.305,-13619.7,-10056.96,-28119.375,73.035,8807.265
1764767762.8352716,8155.259999999999,-1543.275,-35026.74,-13625.865,-10061.73,-28127.07,67.63499999999999,8800.38
1764767762.8352716,8157.33,-1539.765,-35023.23,-13622.805,-10058.58,-28125.63,70.24499999999999,8803.71
1764767762.8352716,8170.335,-1526.985,-35012.025,-13611.645,-10049.13,-28115.28,81.045,8816.895
1764767762.8352716,8164.259999999999,-1534.14,-35020.08,-13620.24,-10059.255,-28123.47,74.295,8809.515
1764767762.8352716,8153.054999999999,-1546.83,-35032.815,-13633.605,-10074.96,-28137.78,64.215,8797.32
1764767762.8352716,8154.945,-1545.48,-35032.545,-13632.93,-10077.84,-28138.32,65.97,8798.22
1764767762.8352716,8163.945,-1535.31,-35021.79,-13621.815,-10068.12,-28125.36,74.25,8807.49
1764767762.8352716,8160.165,-1539.1799999999998,-35024.49,-13623.975,-10068.795,-28123.965,71.82,8804.295
1764767762.8352716,8158.545,-1540.935,-35026.02,-13626.27,-10070.1,-28126.035,70.47,8802.494999999999
1764767762.8352716,8153.505,-1544.175,-35029.305,-13630.32,-10074.645,-28132.245,68.085,8798.355
1764767762.8352716,8155.304999999999,-1541.205,-35027.235,-13628.79,-10075.5,-28133.46,71.46,8801.369999999999
1764767762.8362684,8159.58,-1537.335,-35023.365,-13625.28,-10075.23,-28129.365,74.74499999999999,8805.735
1764767762.8362684,8168.67,-1527.435,-35012.655,-13613.355,-10061.595,-28114.74,82.08,8814.735
1764767762.8362684,8153.594999999999,-1542.4199999999998,-35027.865,-13627.755,-10075.23,-28130.895,67.32,8799.66
1764767762.8362684,8150.804999999999,-1546.065,-35031.51,-13630.77,-10077.84,-28134.99,64.935,8796.555
1764767762.8362684,8159.085,-1537.83,-35023.59,-13622.94,-10069.29,-28127.115,71.00999999999999,8803.935
1764767762.8789842,8154.764999999999,-1543.23,-35028.405,-13627.71,-10073.25,-28130.715,66.195,8799.119999999999
1764767762.8789842,8154.224999999999,-1543.095,-35028.18,-13627.755,-10072.935,-28130.715,66.195,8799.705
1764767762.8789842,8162.235,-1533.69,-35018.19,-13617.945,-10062.675,-28121.445,74.835,8809.02
1764767762.8789842,8156.835,-1539.27,-35023.77,-13623.21,-10067.94,-28127.34,70.605,8803.935
1764767762.8789842,8160.705,-1536.165,-35021.205,-13621.185,-10065.555,-28124.64,72.63,8806.68
1764767762.8789842,8155.08,-1543.005,-35028.045,-13628.34,-10073.835,-28134.63,66.825,8799.705
1764767762.8789842,8161.605,-1535.6699999999998,-35020.755,-13620.465,-10068.39,-28130.265,72.89999999999999,8806.14
1764767762.8789842,8148.33,-1549.71,-35034.705,-13634.82,-10083.06,-28143.495,59.94,8792.324999999999
1764767762.8789842,8148.059999999999,-1550.97,-35034.93,-13634.865,-10082.88,-28142.46,58.275,8791.695
1764767762.8789842,8139.69,-1559.52,-35042.535,-13643.055,-10089.765,-28149.435,51.03,8783.46
1764767762.8789842,8141.894999999999,-1556.865,-35040.375,-13640.445,-10086.57,-28145.88,52.785,8785.619999999999
1764767762.8789842,8153.46,-1544.445,-35029.305,-13628.745,-10074.915,-28133.37,63.045,8797.545
1764767762.8789842,8156.565,-1540.35,-35024.535,-13623.57,-10070.775,-28128.645,68.31,8801.73
1764767762.8789842,8150.804999999999,-1546.02,-35029.08,-13628.52,-10074.78,-28132.245,64.935,8796.42
1764767762.8789842,8160.48,-1536.03,-35019.045,-13618.845,-10062.27,-28119.96,74.88,8807.22
1764767762.8789842,8164.71,-1531.395,-35015.265,-13614.66,-10057.68,-28115.37,79.785,8812.17
1764767762.8789842,8164.71,-1531.62,-35015.67,-13614.795,-10059.345,-28118.385,79.02,8811.945
1764767762.8789842,8156.384999999999,-1540.8,-35025.57,-13625.19,-10071.585,-28132.605,68.85,8802.18
1764767762.8789842,8151.075,-1547.145,-35031.33,-13630.59,-10076.265,-28137.465,63.0,8795.385
1764767762.8789842,8160.57,-1537.065,-35021.16,-13620.33,-10064.52,-28124.37,71.145,8805.195
1764767762.8794963,8159.985,-1536.9299999999998,-35021.565,-13620.375,-10064.385,-28123.47,72.72,8805.42
1764767762.8794963,8159.804999999999,-1537.065,-35022.015,-13620.33,-10065.33,-28124.64,72.405,8805.869999999999
1764767762.8794963,8165.7,-1530.945,-35016.075,-13614.03,-10057.905,-28116.09,80.28,8812.755
1764767762.8794963,8161.469999999999,-1535.6699999999998,-35020.845,-13619.205,-10062.09,-28121.58,76.67999999999999,8808.345
1764767762.8794963,8150.4,-1547.775,-35032.5,-13631.13,-10075.815,-28139.49,64.25999999999999,8796.105
1764767762.8794963,8149.86,-1547.55,-35031.465,-13629.78,-10074.87,-28139.04,64.62,8796.24
1764767762.9254513,8159.445,-1537.65,-35022.195,-13620.465,-10065.915,-28130.04,72.945,8805.6
1764767762.9254513,8155.394999999999,-1541.88,-35026.92,-13626.855,-10074.24,-28138.5,67.545,8800.56
1764767762.9254513,8157.375,-1539.315,-35024.13,-13624.515,-10071.585,-28132.92,70.92,8803.619999999999
1764767762.9254513,8156.745,-1540.755,-35024.13,-13624.38,-10070.64,-28126.845,71.64,8803.485
1764767762.9254513,8156.205,-1540.98,-35024.805,-13624.155,-10069.065,-28122.12,71.55,8802.855
1764767762.9254513,8147.61,-1549.44,-35033.715,-13632.48,-10075.815,-28129.725,64.935,8794.35
1764767762.9254513,8147.16,-1548.225,-35032.68,-13630.635,-10071.09,-28125.315,65.52,8795.744999999999
1764767762.9254513,8159.219999999999,-1535.355,-35020.755,-13617.855,-10058.67,-28112.895,77.39999999999999,8808.57
1764767762.9254513,8161.785,-1532.205,-35018.955,-13616.325,-10056.465,-28112.265,80.55,8810.73
1764767762.9254513,8171.639999999999,-1522.71,-35009.145,-13607.28,-10047.465,-28104.255,88.335,8820.135
1764767762.9254513,8169.434999999999,-1525.6799999999998,-35012.295,-13611.015,-10052.505,-28111.41,84.86999999999999,8816.76
1764767762.9254513,8151.255,-1545.48,-35032.005,-13630.23,-10073.565,-28134.945,68.085,8798.535
1764767762.9254513,8152.875,-1544.85,-35031.78,-13628.88,-10071.09,-28132.785,67.545,8798.13
1764767762.9254513,8145.36,-1552.77,-35038.935,-13634.955,-10073.295,-28132.335,61.65,8790.074999999999
1764767762.9254513,8152.245,-1543.455,-35031.24,-13626.495,-10063.395,-28124.37,66.78,8796.69
1764767762.9254513,8148.644999999999,-1546.245,-35034.93,-13629.825,-10067.58,-28130.265,63.81,8794.08
1764767762.9254513,8158.724999999999,-1534.6799999999998,-35022.645,-13618.035,-10055.565,-28117.44,75.105,8806.365
1764767762.9254513,8155.934999999999,-1537.515,-35025.21,-13621.77,-10059.75,-28121.85,70.74,8803.17
1764767762.9254513,8147.07,-1547.595,-35034.795,-13631.895,-10069.245,-28133.505,62.505,8794.035
1764767762.9254513,8152.875,-1541.52,-35028.72,-13625.28,-10062.675,-28128.195,68.445,8799.119999999999
1764767762.9254513,8154.179999999999,-1540.44,-35028.72,-13625.415,-10065.78,-28133.505,69.92999999999999,8800.335
1764767762.9254513,8149.545,-1544.58,-35033.085,-13629.915,-10071.675,-28139.67,66.69,8795.744999999999
1764767762.9254513,8140.634999999999,-1554.435,-35043.345,-13640.085,-10079.28,-28143.54,60.03,8786.835
1764767762.9254513,8135.594999999999,-1559.79,-35048.52,-13644.855,-10083.195,-28146.285,54.99,8781.66
1764767762.9718945,8140.545,-1553.715,-35042.895,-13639.68,-10078.875,-28141.47,58.995,8786.925
1764767762.9718945,8147.565,-1546.29,-35034.165,-13632.03,-10072.89,-28132.56,64.71,8794.26
1764767762.9718945,8143.469999999999,-1550.655,-35037.81,-13635.99,-10075.95,-28132.92,61.245,8789.355
1764767762.9718945,8146.934999999999,-1546.515,-35034.255,-13631.445,-10068.885,-28129.275,63.36,8793.09
1764767762.9718945,8142.705,-1551.465,-35038.98,-13636.08,-10072.215,-28134.855,59.67,8789.039999999999
1764767762.9718945,8149.365,-1545.165,-35032.095,-13628.925,-10062.765,-28125.63,66.50999999999999,8797.23
1764767762.9718945,8152.559999999999,-1541.565,-35028.36,-13624.92,-10059.165,-28121.265,69.795,8800.244999999999
1764767762.9718945,8149.049999999999,-1545.57,-35033.175,-13628.835,-10062.765,-28125.36,65.52,8795.115
1764767762.9718945,8142.48,-1552.365,-35040.33,-13637.07,-10071.63,-28134.045,59.085,8787.645
1764767762.9718945,8138.88,-1556.0549999999998,-35044.38,-13641.165,-10075.05,-28136.7,55.305,8784.449999999999
1764767762.9718945,8143.245,-1551.735,-35040.105,-13636.62,-10069.515,-28131.48,59.535,8788.86
1764767762.9718945,8155.755,-1539.405,-35026.695,-13623.84,-10056.735,-28121.94,71.1,8802.36
1764767762.9718945,8160.66,-1533.285,-35020.53,-13619.025,-10052.91,-28118.34,77.22,8808.435
1764767762.9718945,8159.04,-1534.905,-35020.665,-13619.475,-10052.505,-28115.82,75.78,8806.725
1764767762.9718945,8150.985,-1542.15,-35027.369999999995,-13625.19,-10054.215,-28117.845,70.47,8800.515
1764767762.9718945,8155.035,-1537.38,-35023.994999999995,-13620.78,-10049.04,-28114.29,74.25,8804.52
1764767762.9718945,8171.37,-1520.235,-35007.93,-13604.31,-10033.11,-28101.06,87.88499999999999,8820.539999999999
1764767762.9718945,8167.32,-1526.085,-35013.015,-13609.665,-10039.365,-28107.63,82.845,8816.13
1764767762.9718945,8161.019999999999,-1533.915,-35020.53,-13617.945,-10048.545,-28114.155,75.78,8808.21
1764767762.9718945,8159.715,-1534.815,-35022.645,-13619.97,-10051.56,-28116.045,73.71,8805.779999999999
1764767763.0179794,8159.985,-1533.645,-35021.97,-13618.62,-10050.48,-28113.075,73.8,8806.14
1764767763.0179794,8163.945,-1528.11,-35016.57,-13613.22,-10045.08,-28106.415,79.605,8812.035
1764767763.0179794,8165.61,-1525.995,-35014.275,-13611.105,-10046.295,-28109.52,82.30499999999999,8814.645
1764767763.0179794,8155.485,-1536.165,-35024.04,-13621.05,-10058.67,-28120.5,74.07,8803.98
1764767763.0179794,8155.53,-1536.615,-35024.94,-13621.725,-10058.355,-28120.905,74.34,8803.305
1764767763.0179794,8171.955,-1518.75,-35007.705,-13604.265,-10039.365,-28100.565,91.62,8821.26
1764767763.0184996,8177.58,-1513.53,-35001.675,-13597.695,-10032.615,-28095.48,98.235,8827.83
1764767763.0184996,8170.11,-1523.7,-35012.025,-13607.82,-10044.585,-28109.34,88.38,8818.11
1764767763.0184996,8166.599999999999,-1527.03,-35015.715,-13611.645,-10048.815,-28112.22,84.285,8813.654999999999
1764767763.0184996,8160.795,-1534.455,-35022.285,-13617.81,-10053.9,-28117.44,76.99499999999999,8806.095
1764767763.0184996,8149.679999999999,-1546.695,-35034.3,-13629.915,-10065.87,-28129.68,65.7,8794.08
1764767763.0184996,8148.105,-1546.83,-35034.3,-13630.32,-10066.005,-28129.77,64.485,8793.765
1764767763.0184996,8157.915,-1534.77,-35022.555,-13618.08,-10052.775,-28117.125,74.78999999999999,8804.52
1764767763.0184996,8159.849999999999,-1532.745,-35021.205,-13615.965,-10049.985,-28114.92,77.03999999999999,8806.86
1764767763.0184996,8172.63,-1519.38,-35008.92,-13603.005,-10036.17,-28101.06,88.155,8819.82
1764767763.0184996,8177.49,-1515.69,-35005.365,-13599.045,-10031.22,-28096.2,93.51,8824.77
1764767763.0184996,8174.07,-1520.595,-35009.955,-13603.365,-10036.485,-28101.645,89.595,8819.91
1764767763.0184996,8167.094999999999,-1527.075,-35017.605,-13610.97,-10045.035,-28110.33,81.49499999999999,8812.71
1764767763.0184996,8164.71,-1531.035,-35021.025,-13614.48,-10047.33,-28112.355,79.695,8810.595
1764767763.0184996,8161.83,-1532.2949999999998,-35021.43,-13616.595,-10050.705,-28116.09,77.67,8808.029999999999
1764767763.0184996,8157.014999999999,-1536.885,-35025.03,-13621.14,-10057.095,-28122.795,73.395,8803.35
1764767763.0184996,8166.33,-1526.895,-35014.905,-13610.745,-10045.26,-28109.79,82.71,8813.654999999999
1764767763.0184996,8169.795,-1522.755,-35011.17,-13604.94,-10038.24,-28101.6,88.38,8818.56
1764767763.0184996,8161.695,-1530.405,-35018.505,-13612.59,-10045.98,-28109.43,81.36,8810.369999999999
1764767763.0646498,8163.495,-1527.7949999999998,-35016.75,-13610.655,-10044.765,-28110.69,81.13499999999999,8812.529999999999
1764767763.0646498,8167.905,-1523.205,-35011.89,-13605.345,-10038.465,-28106.55,85.59,8817.345
1764767763.0646498,8171.955,-1519.335,-35007.165,-13599.765,-10030.905,-28099.035,90.585,8821.529999999999
