Timestamp,Channel1,Channel2,Channel3,Channel4,Channel5,Channel6,Channel7,Channel8
1764769008.6269882,5243.445,2541.375,-30718.53,-8446.949999999999,-8094.105,-28353.915,3087.675,10350.675
1764769008.6269882,5233.995,2546.82,-30716.37,-8442.494999999999,-8085.059999999999,-28344.195,3093.21,10342.26
1764769008.6269882,5233.635,2544.57,-30722.985,-8451.09,-8093.924999999999,-28352.475,3083.985,10330.92
1764769008.6269882,5264.415,2545.65,-30724.155,-8452.305,-8094.78,-28350.945,3094.065,10365.57
1764769008.6269882,5240.429999999999,2508.705,-30740.895,-8460.539999999999,-8093.565,-28342.17,3117.87,10399.455
1764769008.6269882,5260.905,2526.21,-30729.6,-8454.555,-8092.125,-28343.43,3110.175,10390.59
1764769008.6269882,5262.795,2535.84,-30726.99,-8454.06,-8094.87,-28350.315,3100.32,10376.37
1764769008.6269882,5270.085,2547.405,-30720.105,-8447.039999999999,-8086.455,-28341.99,3106.08,10380.195
1764769008.6269882,5254.785,2531.835,-30726.9,-8451.315,-8089.245,-28342.215,3107.16,10377.945
1764769008.6269882,5250.69,2531.745,-30730.68,-8457.525,-8097.929999999999,-28351.845,3097.845,10368.225
1764769008.6269882,5248.935,2530.08,-30735.18,-8463.24,-8103.195,-28357.965,3094.11,10365.57
1764769008.6269882,5244.435,2523.825,-30737.97,-8463.914999999999,-8101.665,-28357.065,3091.86,10362.105
1764769008.6269882,5246.82,2527.29,-30733.83,-8460.36,-8098.469999999999,-28354.05,3092.22,10362.96
1764769008.6269882,5240.835,2520.27,-30743.055,-8470.574999999999,-8107.155,-28359.9,3088.26,10356.84
1764769008.6269882,5248.035,2527.245,-30737.43,-8465.445,-8099.865,-28350.36,3094.83,10363.32
1764769008.6283205,5248.71,2541.105,-30728.16,-8457.39,-8096.264999999999,-28351.395,3090.51,10356.21
1764769008.6283205,5238.72,2529.855,-30731.49,-8461.125,-8099.37,-28355.445,3090.51,10358.37
1764769008.6283205,5253.84,2527.47,-30735.54,-8463.6,-8098.424999999999,-28353.195,3093.435,10368.495
1764769008.6283205,5238.63,2512.755,-30745.665,-8465.715,-8093.519999999999,-28345.59,3096.81,10362.87
1764769008.6283205,5239.035,2514.645,-30746.385,-8470.664999999999,-8103.014999999999,-28354.95,3088.98,10357.515
1764769008.6283205,5249.97,2534.4,-30726.765,-8459.865,-8100.315,-28354.68,3088.485,10361.07
1764769008.6741383,5242.905,2526.705,-30734.145,-8465.625,-8103.33,-28358.055,3088.17,10358.235
1764769008.6741383,5249.835,2534.175,-30730.455,-8461.529999999999,-8099.37,-28354.41,3090.69,10362.195
1764769008.6741383,5238.135,2523.33,-30740.4,-8469.765,-8106.84,-28361.025,3084.165,10352.34
1764769008.6741383,5223.33,2509.74,-30746.43,-8473.904999999999,-8108.009999999999,-28358.1,3080.34,10342.035
1764769008.6741383,5247.135,2525.895,-30748.545,-8479.98,-8117.639999999999,-28368.63,3077.955,10353.105
1764769008.6741383,5249.205,2517.435,-30762.0,-8492.49,-8127.719999999999,-28378.26,3073.95,10346.76
1764769008.6741383,5227.92,2510.37,-30754.89,-8476.289999999999,-8106.434999999999,-28355.49,3080.34,10335.96
1764769008.6741383,5218.83,2499.21,-30747.825,-8476.289999999999,-8116.74,-28369.08,3075.21,10347.84
1764769008.6746511,5229.495,2512.305,-30745.98,-8477.73,-8117.865,-28370.745,3073.23,10347.075
1764769008.6746511,5220.135,2494.26,-30761.46,-8484.93,-8118.09,-28368.09,3072.465,10340.28
1764769008.6746511,5217.48,2495.205,-30760.875,-8490.869999999999,-8130.554999999999,-28381.815,3060.585,10331.865
1764769008.6746511,5222.474999999999,2505.015,-30754.98,-8483.13,-8122.815,-28374.165,3068.685,10337.625
1764769008.6746511,5214.285,2496.33,-30762.18,-8490.375,-8130.195,-28382.625,3062.205,10330.38
1764769008.6746511,5219.28,2490.93,-30771.945,-8500.68,-8135.73,-28382.175,3061.71,10332.18
1764769008.6746511,5224.905,2497.59,-30770.595,-8497.215,-8127.63,-28370.205,3069.855,10339.74
1764769008.6746511,5227.02,2500.605,-30766.815,-8492.94,-8127.09,-28373.94,3069.945,10341.45
1764769008.6746511,5227.11,2503.845,-30756.78,-8482.86,-8122.32,-28374.345,3067.785,10340.865
1764769008.6746511,5225.175,2506.095,-30754.17,-8483.22,-8126.91,-28380.915,3057.21,10331.955
1764769008.6746511,5210.595,2494.44,-30773.79,-8502.21,-8138.115,-28388.52,3053.835,10318.095
1764769008.6746511,5201.099999999999,2476.17,-30788.955,-8511.57,-8143.019999999999,-28391.895,3056.31,10324.17
1764769008.6746511,5208.75,2487.33,-30769.695,-8497.08,-8137.665,-28390.455,3054.285,10325.43
1764769008.6746511,5217.21,2499.39,-30760.965,-8490.465,-8131.275,-28386.54,3058.92,10331.235
1764769008.7224371,5218.83,2496.645,-30773.385,-8500.275,-8138.79,-28393.74,3055.41,10329.975
1764769008.722963,5204.745,2477.475,-30785.22,-8510.175,-8149.005,-28400.67,3045.96,10315.755
1764769008.722963,5200.47,2476.035,-30775.32,-8504.64,-8148.509999999999,-28402.11,3042.45,10310.625
1764769008.722963,5208.66,2486.565,-30769.47,-8499.285,-8143.019999999999,-28395.36,3048.57,10318.455
1764769008.722963,5218.65,2496.465,-30762.405,-8490.15,-8131.679999999999,-28384.605,3059.91,10329.57
1764769008.722963,5213.25,2491.92,-30767.22,-8494.74,-8135.639999999999,-28388.88,3057.435,10325.655
1764769008.722963,5215.815,2503.17,-30756.105,-8482.725,-8123.219999999999,-28376.505,3065.58,10327.05
1764769008.722963,5210.01,2502.81,-30756.78,-8484.345,-8125.335,-28378.62,3062.07,10320.57
1764769008.722963,5232.105,2501.145,-30760.02,-8487.99,-8128.755,-28380.69,3071.97,10350.36
1764769008.722963,5231.385,2497.77,-30764.43,-8490.24,-8130.014999999999,-28380.555,3072.42,10348.785
1764769008.722963,5224.635,2496.96,-30766.995,-8493.57,-8131.41,-28381.365,3067.605,10337.535
1764769008.722963,5222.88,2497.995,-30769.965,-8495.64,-8134.245,-28385.91,3056.805,10317.96
1764769008.722963,5222.115,2507.22,-30758.715,-8485.47,-8129.205,-28384.92,3055.455,10307.88
1764769008.722963,5205.195,2493.315,-30763.89,-8489.385,-8130.96,-28384.47,3066.705,10333.665
1764769008.722963,5221.889999999999,2482.29,-30775.095,-8500.5,-8143.019999999999,-28395.72,3062.295,10346.445
1764769008.722963,5210.46,2481.075,-30779.82,-8507.61,-8152.38,-28406.745,3045.96,10321.245
1764769008.722963,5211.9,2490.48,-30775.95,-8506.08,-8151.974999999999,-28408.5,3045.06,10318.68
1764769008.722963,5203.485,2486.205,-30777.795,-8503.74,-8145.99,-28401.615,3044.97,10308.285
1764769008.722963,5189.985,2491.56,-30768.48,-8491.5,-8133.615,-28388.655,3046.23,10294.065
1764769008.722963,5198.22,2470.635,-30791.43,-8517.015,-8159.445,-28411.92,3036.645,10306.44
1764769008.722963,5204.52,2455.74,-30807.54,-8531.1,-8170.83,-28421.73,3042.405,10324.98
1764769008.722963,5208.12,2476.485,-30789.81,-8515.215,-8158.995,-28414.71,3041.955,10318.41
1764769008.722963,5209.83,2478.06,-30781.62,-8509.23,-8158.049999999999,-28414.485,3033.855,10311.705
1764769008.722963,5202.36,2467.98,-30783.195,-8506.755,-8152.29,-28404.495,3037.68,10310.58
1764769008.722963,5205.78,2472.345,-30784.005,-8507.385,-8150.355,-28402.155,3042.81,10314.405
1764769008.722963,5202.9,2470.95,-30793.32,-8516.16,-8158.545,-28411.83,3039.03,10310.895
1764769008.7693543,5195.474999999999,2468.61,-30800.385,-8526.779999999999,-8169.884999999999,-28424.745,3030.03,10302.12
1764769008.7693543,5200.965,2476.485,-30795.255,-8525.654999999999,-8171.549999999999,-28425.825,3028.77,10302.93
1764769008.7693543,5208.255,2464.92,-30795.885,-8515.529999999999,-8155.349999999999,-28408.32,3040.11,10312.56
1764769008.7693543,5179.86,2459.745,-30782.16,-8506.619999999999,-8151.705,-28406.16,3035.61,10294.65
1764769008.7693543,5192.595,2470.995,-30787.965,-8516.565,-8166.195,-28422.315,3027.735,10299.96
1764769008.7693543,5188.095,2467.755,-30792.195,-8518.455,-8165.745,-28421.055,3025.71,10293.12
1764769008.7693543,5187.825,2453.085,-30800.88,-8524.619999999999,-8166.825,-28419.03,3027.87,10295.145
1764769008.7693543,5202.36,2461.23,-30800.97,-8526.824999999999,-8169.66,-28420.785,3032.235,10306.17
1764769008.7693543,5207.445,2475.45,-30787.245,-8516.475,-8164.125,-28418.49,3033.495,10307.52
1764769008.7693543,5202.315,2471.13,-30790.08,-8515.755,-8159.445,-28413.27,3036.42,10306.17
1764769008.7693543,5197.365,2467.26,-30790.665,-8515.305,-8157.78,-28411.065,3037.365,10305.315
1764769008.7693543,5203.17,2472.66,-30791.16,-8517.51,-8160.03,-28415.88,3036.105,10307.07
1764769008.7693543,5210.19,2474.64,-30790.89,-8517.195,-8160.929999999999,-28416.69,3034.35,10300.86
1764769008.7693543,5208.929999999999,2483.64,-30775.275,-8502.84,-8148.42,-28403.955,3044.925,10309.455
1764769008.7693543,5197.455,2470.905,-30783.87,-8510.355,-8153.19,-28406.835,3045.51,10316.61
1764769008.7693543,5200.335,2468.25,-30792.24,-8519.49,-8164.799999999999,-28419.795,3031.92,10303.605
1764769008.7693543,5204.295,2475.045,-30787.335,-8515.529999999999,-8162.235,-28417.32,3031.83,10304.73
1764769008.7693543,5197.23,2463.255,-30797.82,-8522.865,-8165.429999999999,-28416.645,3032.145,10300.635
1764769008.7693543,5202.27,2465.91,-30795.165,-8516.789999999999,-8157.465,-28407.555,3041.055,10308.195
1764769008.7708046,5194.62,2467.98,-30799.53,-8524.08,-8166.69,-28418.265,3030.705,10298.925
1764769008.7708046,5187.87,2463.705,-30802.59,-8525.16,-8163.54,-28412.82,3033.09,10297.575
1764769008.7708046,5201.415,2460.51,-30805.02,-8527.275,-8165.61,-28413.36,3036.15,10305.495
1764769008.7708046,5204.16,2467.665,-30789.945,-8512.785,-8155.485,-28405.98,3034.755,10301.985
1764769008.7708046,5194.395,2471.085,-30785.67,-8511.119999999999,-8160.795,-28419.795,3033.675,10300.905
1764769008.816347,5200.38,2469.285,-30795.165,-8519.13,-8165.7,-28422.99,3033.315,10306.8
1764769008.816347,5201.46,2465.325,-30802.68,-8522.145,-8159.309999999999,-28406.88,3040.83,10307.43
1764769008.816347,5208.84,2470.635,-30788.1,-8510.22,-8151.03,-28400.4,3045.51,10313.955
1764769008.816347,5208.48,2479.995,-30771.36,-8497.574999999999,-8150.309999999999,-28407.87,3038.895,10309.77
1764769008.816347,5207.4,2486.88,-30768.795,-8493.615,-8146.665,-28405.08,3039.975,10305.135
1764769008.816347,5199.885,2483.235,-30775.545,-8499.555,-8149.094999999999,-28405.845,3037.23,10298.835
1764769008.816347,5204.97,2465.955,-30798.495,-8523.27,-8170.335,-28424.43,3032.28,10310.58
1764769008.816347,5202.405,2459.61,-30808.17,-8529.885,-8176.005,-28430.19,3029.58,10307.745
1764769008.8168762,5198.264999999999,2460.285,-30795.03,-8516.43,-8164.215,-28417.995,3030.615,10303.335
1764769008.8168762,5190.345,2455.47,-30800.475,-8522.595,-8168.174999999999,-28419.57,3027.555,10296.495
1764769008.8168762,5196.554999999999,2469.96,-30795.345,-8518.77,-8167.545,-28422.27,3025.305,10293.435
1764769008.8168762,5208.885,2482.965,-30792.555,-8518.545,-8169.75,-28425.105,3017.16,10281.6
1764769008.8168762,5180.445,2467.035,-30807.405,-8527.32,-8171.865,-28420.74,3026.745,10288.53
1764769008.8168762,5188.995,2438.55,-30811.545,-8527.455,-8170.514999999999,-28418.67,3034.26,10312.02
1764769008.8168762,5200.965,2458.665,-30791.97,-8513.369999999999,-8161.74,-28414.89,3027.96,10301.58
1764769008.8168762,5191.425,2458.71,-30795.165,-8513.91,-8159.219999999999,-28412.91,3028.545,10296.135
1764769008.8168762,5199.435,2471.13,-30791.115,-8512.289999999999,-8160.12,-28414.8,3025.845,10291.905
1764769008.8168762,5188.5,2470.41,-30796.425,-8520.029999999999,-8168.67,-28423.395,3016.485,10277.46
1764769008.8168762,5192.054999999999,2449.845,-30809.205,-8532.494999999999,-8179.019999999999,-28430.82,3019.77,10298.07
1764769008.8168762,5231.7,2469.96,-30800.25,-8525.295,-8171.549999999999,-28423.935,3028.455,10317.42
1764769008.8168762,5185.26,2468.295,-30789.315,-8509.005,-8146.889999999999,-28393.83,3041.235,10291.635
1764769008.8168762,5204.745,2464.155,-30799.755,-8517.33,-8158.23,-28408.77,3035.565,10306.17
1764769008.863632,5189.58,2461.635,-30798.855,-8520.345,-8168.13,-28419.885,3024.045,10291.545
1764769008.863632,5180.13,2460.105,-30791.88,-8512.47,-8158.32,-28408.77,3029.535,10293.885
1764769008.863632,5212.304999999999,2468.07,-30793.095,-8515.71,-8162.955,-28416.69,3031.38,10312.785
1764769008.863632,5196.96,2460.105,-30801.915,-8525.34,-8171.28,-28423.44,3024.36,10297.08
1764769008.863632,5197.86,2462.67,-30806.82,-8526.51,-8167.905,-28419.39,3026.565,10295.1
1764769008.863632,5191.605,2467.08,-30795.615,-8510.355,-8147.565,-28397.79,3039.93,10292.76
1764769008.863632,5201.595,2483.145,-30775.005,-8500.455,-8149.094999999999,-28401.93,3034.71,10297.215
1764769008.863632,5215.185,2470.005,-30786.255,-8513.235,-8161.2,-28412.415,3040.38,10323.855
1764769008.863632,5204.565,2462.58,-30797.82,-8521.83,-8166.69,-28417.77,3032.73,10308.51
1764769008.863632,5205.06,2467.98,-30794.85,-8519.355,-8164.08,-28415.115,3031.695,10304.37
1764769008.8646474,5211.63,2477.43,-30787.02,-8510.445,-8153.775,-28404.585,3038.94,10310.895
1764769008.8646474,5209.65,2481.255,-30786.93,-8509.005,-8149.769999999999,-28399.23,3042.405,10310.76
1764769008.8646474,5204.429999999999,2473.155,-30786.84,-8507.52,-8146.53,-28393.785,3043.035,10307.655
1764769008.8646474,5209.47,2466.63,-30791.88,-8516.88,-8161.83,-28412.145,3032.91,10306.35
1764769008.8646474,5211.764999999999,2470.41,-30794.22,-8519.94,-8166.15,-28419.165,3027.06,10297.08
1764769008.8646474,5208.435,2475.945,-30787.92,-8511.705,-8155.62,-28408.23,3035.745,10301.13
1764769008.8646474,5193.585,2462.355,-30794.67,-8518.005,-8159.894999999999,-28409.895,3040.335,10312.56
1764769008.8646474,5201.639999999999,2464.74,-30796.065,-8521.154999999999,-8163.945,-28415.205,3032.685,10306.17
1764769008.8646474,5199.12,2463.435,-30798.495,-8523.585,-8166.69,-28416.555,3029.13,10301.445
1764769008.8646474,5195.97,2459.43,-30803.13,-8527.59,-8169.299999999999,-28416.87,3026.52,10297.395
1764769008.8651538,5188.77,2455.65,-30811.095,-8536.994999999999,-8177.309999999999,-28424.295,3021.165,10289.025
1764769008.8651538,5189.76,2454.57,-30817.17,-8539.425,-8174.205,-28419.12,3024.675,10291.68
1764769008.8651538,5199.795,2459.52,-30800.16,-8520.029999999999,-8158.679999999999,-28408.005,3031.92,10301.76
1764769008.8651538,5198.94,2468.16,-30787.605,-8515.305,-8161.695,-28414.665,3026.88,10298.79
1764769008.8651538,5198.94,2471.085,-30792.015,-8521.92,-8165.295,-28415.25,3026.97,10299.645
1764769008.8651538,5194.17,2461.095,-30798.405,-8521.74,-8160.974999999999,-28411.56,3029.76,10299.555
1764769008.9113824,5186.745,2450.835,-30804.39,-8527.23,-8167.184999999999,-28419.57,3025.485,10294.155
1764769008.9113824,5189.22,2454.84,-30806.19,-8532.315,-8172.809999999999,-28424.295,3022.965,10293.885
1764769008.9113824,5187.06,2456.595,-30805.245,-8531.055,-8172.54,-28424.61,3017.925,10288.935
1764769008.9113824,5180.985,2455.605,-30805.875,-8531.279999999999,-8172.63,-28423.62,3015.585,10283.67
1764769008.9113824,5190.345,2454.345,-30812.4,-8537.445,-8174.115,-28422.27,3020.13,10290.96
1764769008.9113824,5201.235,2461.77,-30800.295,-8524.215,-8163.269999999999,-28415.115,3028.185,10300.545
1764769008.9113824,5191.92,2455.47,-30797.64,-8522.775,-8162.775,-28412.46,3025.395,10294.11
1764769008.9113824,5181.435,2448.045,-30809.835,-8535.824999999999,-8175.69,-28425.51,3012.795,10283.535
1764769008.9113824,5188.005,2455.695,-30804.345,-8529.48,-8168.49,-28419.57,3019.455,10291.14
1764769008.9113824,5195.295,2459.16,-30811.59,-8534.43,-8168.355,-28417.095,3022.605,10295.46
1764769008.9113824,5200.335,2473.425,-30793.095,-8515.935,-8152.424999999999,-28403.865,3028.905,10293.39
1764769008.9113824,5183.415,2469.51,-30782.88,-8510.355,-8153.955,-28408.545,3029.445,10288.395
1764769008.9113824,5199.255,2462.31,-30794.31,-8523.855,-8166.509999999999,-28419.12,3029.895,10309.815
1764769008.9113824,5190.705,2450.52,-30810.195,-8535.735,-8172.224999999999,-28421.505,3026.295,10298.16
1764769008.9113824,5187.51,2462.985,-30806.055,-8531.91,-8169.84,-28418.985,3017.61,10284.705
1764769008.9113824,5185.62,2451.78,-30805.92,-8529.885,-8163.36,-28408.14,3029.85,10297.8
1764769008.9113824,5206.41,2474.415,-30796.875,-8527.365,-8168.04,-28419.93,3027.51,10300.68
1764769008.9113824,5218.83,2470.41,-30800.295,-8525.34,-8166.78,-28421.73,3018.285,10295.325
1764769008.9113824,5172.48,2444.895,-30798.495,-8522.82,-8165.205,-28416.825,3020.22,10287.495
1764769008.9113824,5177.295,2440.935,-30809.88,-8537.625,-8181.269999999999,-28433.34,3013.83,10290.96
1764769008.9113824,5189.76,2456.595,-30806.91,-8537.355,-8181.0,-28434.15,3013.875,10291.05
1764769008.9113824,5200.065,2472.345,-30798.0,-8529.795,-8175.195,-28428.21,3018.42,10297.71
1764769008.9584117,5194.035,2459.745,-30802.905,-8531.324999999999,-8171.865,-28420.965,3021.48,10296.09
1764769008.9584117,5192.775,2458.26,-30801.24,-8526.33,-8166.33,-28416.24,3018.105,10285.335
1764769008.9584117,5187.105,2464.245,-30797.235,-8523.675,-8166.195,-28418.355,3014.73,10277.28
1764769008.9584117,5177.295,2435.985,-30818.34,-8545.005,-8185.724999999999,-28436.265,3009.33,10288.17
1764769008.9584117,5190.974999999999,2446.11,-30813.165,-8540.955,-8182.349999999999,-28431.945,3013.785,10294.245
1764769008.9584117,5187.24,2448.63,-30812.31,-8538.255,-8178.03,-28425.6,3015.72,10288.935
1764769008.9584117,5181.345,2443.995,-30823.29,-8545.59,-8180.144999999999,-28427.94,3014.505,10284.255
1764769008.9584117,5185.035,2453.445,-30820.905,-8545.77,-8184.195,-28435.41,3011.895,10284.75
1764769008.9584117,5179.185,2455.785,-30810.69,-8539.92,-8181.945,-28432.53,3007.935,10271.745
1764769008.9584117,5172.255,2452.005,-30804.705,-8531.82,-8170.65,-28417.59,3008.88,10262.43
1764769008.9584117,5178.465,2436.075,-30821.715,-8547.48,-8188.38,-28436.58,3006.36,10282.68
1764769008.9584117,5194.8,2452.455,-30815.28,-8542.755,-8186.625,-28438.83,3010.545,10291.905
1764769008.9584117,5174.46,2439.18,-30818.475,-8541.675,-8180.325,-28427.895,3012.48,10279.62
1764769008.9584117,5181.345,2443.23,-30817.44,-8543.385,-8183.924999999999,-28432.89,3010.23,10282.86
1764769008.9584117,5200.56,2458.62,-30809.925,-8535.285,-8174.16,-28423.26,3022.56,10299.645
1764769008.9584117,5195.34,2460.105,-30806.28,-8533.26,-8172.09,-28421.28,3020.76,10295.685
1764769008.9584117,5190.525,2455.425,-30816.09,-8543.16,-8179.965,-28427.76,3017.34,10290.555
1764769008.9584117,5189.94,2449.62,-30817.08,-8541.449999999999,-8179.335,-28427.175,3012.66,10282.815
1764769008.9584117,5189.445,2452.86,-30810.015,-8535.6,-8176.005,-28426.23,3011.4,10276.83
1764769008.9584117,5169.375,2446.74,-30812.625,-8537.985,-8174.969999999999,-28425.105,3018.375,10286.73
1764769008.9584117,5192.46,2459.07,-30812.49,-8538.57,-8174.205,-28424.43,3021.21,10297.935
1764769008.9584117,5196.195,2452.545,-30815.37,-8538.3,-8175.825,-28426.23,3018.51,10295.055
1764769009.0054178,5198.535,2442.96,-30816.045,-8541.585,-8183.745,-28436.355,3006.855,10286.73
1764769009.0054178,5172.84,2442.375,-30810.195,-8533.395,-8170.695,-28419.93,3013.695,10272.96
1764769009.0054178,5169.285,2457.855,-30795.885,-8520.525,-8159.445,-28410.075,3021.66,10280.565
1764769009.0054178,5215.5,2459.205,-30810.645,-8537.805,-8179.514999999999,-28432.485,3015.405,10305.27
1764769009.0054178,5186.7,2446.29,-30816.09,-8540.46,-8176.365,-28425.915,3015.81,10284.795
1764769009.0054178,5162.445,2454.795,-30802.995,-8529.074999999999,-8167.95,-28418.715,3017.835,10276.515
1764769009.0054178,5191.155,2452.41,-30818.655,-8546.85,-8189.46,-28443.555,3006.135,10289.97
1764769009.0054178,5178.15,2441.16,-30824.955,-8549.46,-8187.165,-28436.49,3005.595,10279.26
1764769009.0054178,5184.179999999999,2453.13,-30818.385,-8544.465,-8182.394999999999,-28430.82,3009.06,10281.33
1764769009.0054178,5176.71,2459.7,-30815.82,-8538.885,-8173.844999999999,-28422.045,3011.94,10272.735
1764769009.0054178,5182.92,2447.64,-30819.87,-8542.17,-8173.349999999999,-28417.545,3016.35,10283.535
1764769009.0054178,5190.75,2425.77,-30827.97,-8547.795,-8176.679999999999,-28419.48,3024.495,10299.555
1764769009.0054178,5188.86,2459.295,-30797.595,-8524.529999999999,-8168.67,-28423.665,3023.325,10296.18
1764769009.0054178,5204.7,2478.42,-30798.585,-8536.365,-8190.36,-28450.62,3007.125,10295.505
1764769009.0054178,5203.485,2463.3,-30811.545,-8536.095,-8175.42,-28428.03,3023.28,10302.525
1764769009.0054178,5186.385,2444.4,-30808.44,-8530.38,-8170.65,-28423.575,3018.42,10288.98
1764769009.0054178,5190.345,2469.51,-30794.4,-8523.494999999999,-8172.315,-28429.83,3012.705,10283.175
1764769009.0054178,5187.105,2455.515,-30799.755,-8525.34,-8167.59,-28420.245,3021.21,10295.37
1764769009.0054178,5198.31,2454.93,-30805.47,-8531.055,-8173.71,-28426.455,3012.435,10290.015
1764769009.0054178,5188.995,2454.885,-30806.955,-8533.215,-8176.679999999999,-28428.795,3019.185,10292.805
1764769009.0054178,5181.165,2444.265,-30818.565,-8544.645,-8188.335,-28440.72,3006.765,10284.12
1764769009.0054178,5178.599999999999,2441.835,-30819.15,-8544.24,-8186.309999999999,-28438.965,3004.02,10278.585
1764769009.0054178,5192.28,2456.685,-30807.855,-8534.115,-8178.66,-28430.19,3011.67,10290.06
1764769009.0054178,5185.485,2454.435,-30810.465,-8537.265,-8182.98,-28435.14,3007.62,10284.345
1764769009.0511432,5191.29,2472.21,-30796.785,-8526.555,-8172.36,-28425.78,3013.56,10287.495
1764769009.0511432,5203.62,2462.715,-30809.565,-8538.21,-8179.605,-28428.345,3010.905,10281.645
1764769009.0511432,5184.585,2444.85,-30812.985,-8535.555,-8173.17,-28421.595,3018.645,10282.545
1764769009.0511432,5172.705,2435.49,-30819.285,-8543.835,-8182.44,-28428.93,3018.78,10293.795
1764769009.0511432,5187.96,2447.73,-30813.615,-8538.615,-8183.79,-28435.32,3011.22,10289.25
1764769009.0511432,5187.554999999999,2451.6,-30807.72,-8534.07,-8182.394999999999,-28435.77,3009.96,10285.335
1764769009.0511432,5194.755,2458.305,-30802.14,-8527.455,-8172.09,-28421.775,3018.555,10293.57
1764769009.0511432,5198.985,2462.22,-30802.68,-8529.255,-8172.405,-28421.505,3020.22,10296.045
1764769009.0511432,5209.56,2473.335,-30798.63,-8524.305,-8165.07,-28414.62,3029.445,10306.89
1764769009.0511432,5199.615,2462.175,-30806.55,-8532.404999999999,-8175.195,-28425.645,3019.815,10297.35
1764769009.0511432,5196.42,2459.565,-30793.095,-8519.31,-8164.844999999999,-28416.285,3022.02,10296.63
1764769009.0511432,5197.77,2462.805,-30792.33,-8518.275,-8162.505,-28413.135,3025.035,10298.43
1764769009.0511432,5201.595,2469.96,-30791.25,-8517.779999999999,-8162.37,-28413.135,3023.82,10294.56
1764769009.0511432,5198.31,2476.485,-30788.505,-8515.08,-8160.075,-28410.795,3020.85,10282.815
1764769009.0511432,5188.905,2455.92,-30800.745,-8525.88,-8170.514999999999,-28417.32,3022.155,10294.785
1764769009.0511432,5185.304999999999,2436.795,-30820.41,-8544.914999999999,-8188.019999999999,-28434.015,3011.67,10290.33
1764769009.0511432,5181.12,2437.605,-30825.72,-8546.22,-8186.309999999999,-28432.845,3008.115,10281.555
1764769009.0511432,5185.26,2445.885,-30815.46,-8537.039999999999,-8178.929999999999,-28426.995,3012.165,10284.795
1764769009.0511432,5182.92,2454.255,-30799.035,-8526.15,-8175.014999999999,-28423.665,3011.085,10279.935
1764769009.0511432,5182.785,2449.935,-30808.215,-8536.41,-8184.15,-28432.44,3004.335,10276.695
1764769009.0511432,5188.679999999999,2445.48,-30819.105,-8545.68,-8188.83,-28436.13,3009.105,10284.975
1764769009.0511432,5181.345,2439.18,-30820.635,-8546.22,-8188.245,-28436.22,3006.18,10280.295
1764769009.0511432,5182.11,2453.13,-30811.275,-8540.279999999999,-8184.96,-28434.735,3002.67,10270.935
1764769009.0511432,5180.22,2463.975,-30803.625,-8532.539999999999,-8178.389999999999,-28428.84,2998.755,10254.195
1764769009.0980587,5188.32,2441.61,-30819.6,-8545.994999999999,-8188.2,-28434.33,3002.715,10274.805
1764769009.0980587,5169.645,2419.875,-30839.805,-8563.41,-8201.295,-28444.455,3006.855,10286.37
1764769009.0980587,5180.445,2431.035,-30831.66,-8556.615,-8201.34,-28450.215,2996.37,10279.17
1764769009.0980587,5197.41,2452.545,-30807.27,-8534.295,-8181.0,-28429.785,3011.355,10289.385
1764769009.0980587,5193.63,2452.095,-30804.075,-8529.615,-8172.224999999999,-28418.625,3021.39,10295.685
1764769009.0980587,5186.565,2445.435,-30814.92,-8539.695,-8181.315,-28429.065,3009.105,10282.095
1764769009.0980587,5180.264999999999,2443.23,-30810.69,-8535.555,-8180.639999999999,-28433.79,3003.705,10276.785
1764769009.0980587,5184.9,2449.575,-30809.07,-8537.265,-8184.915,-28439.145,3002.985,10279.17
1764769009.0980587,5189.715,2450.385,-30818.295,-8543.565,-8184.915,-28435.41,3009.06,10284.705
1764769009.0980587,5206.32,2461.23,-30816.225,-8538.975,-8176.679999999999,-28427.175,3017.475,10294.605
1764769009.0980587,5166.675,2445.93,-30805.875,-8527.41,-8167.815,-28417.995,3012.75,10263.96
1764769009.0980587,5173.065,2442.285,-30803.13,-8529.795,-8173.844999999999,-28424.115,3008.925,10276.02
1764769009.0980587,5203.845,2445.66,-30811.455,-8538.705,-8177.94,-28422.675,3019.23,10304.19
1764769009.0980587,5206.635,2460.465,-30803.22,-8530.965,-8175.509999999999,-28426.23,3015.27,10298.43
1764769009.0980587,5199.345,2463.255,-30792.87,-8519.49,-8168.715,-28423.8,3014.865,10294.11
1764769009.0980587,5201.28,2458.17,-30798.765,-8525.07,-8170.29,-28422.495,3016.8,10296.36
1764769009.0980587,5202.045,2458.755,-30800.16,-8525.789999999999,-8167.32,-28418.805,3021.165,10298.745
1764769009.0980587,5203.935,2469.51,-30797.19,-8526.15,-8171.594999999999,-28424.925,3015.495,10293.255
1764769009.0980587,5185.665,2462.985,-30803.625,-8533.44,-8179.605,-28432.89,3008.025,10278.945
1764769009.0980587,5178.24,2429.82,-30824.19,-8548.38,-8187.389999999999,-28435.14,3008.43,10283.715
1764769009.0980587,5183.685,2436.525,-30820.23,-8544.285,-8186.085,-28436.085,3002.985,10279.8
1764769009.0980587,5182.425,2442.33,-30815.19,-8539.695,-8182.665,-28434.24,3003.3,10277.955
1764769009.1447935,5188.635,2447.01,-30812.175,-8536.86,-8179.785,-28430.82,3006.36,10283.175
1764769009.1447935,5184.405,2442.285,-30816.675,-8542.215,-8184.69,-28434.735,3002.805,10279.035
1764769009.1447935,5191.245,2450.115,-30808.62,-8534.385,-8175.78,-28425.555,3011.175,10287.72
1764769009.1447935,5183.505,2442.33,-30817.8,-8544.555,-8184.599999999999,-28433.295,3004.695,10279.215
1764769009.1447935,5187.105,2448.27,-30816.72,-8544.869999999999,-8183.07,-28429.74,3007.71,10282.635
1764769009.1447935,5181.84,2447.505,-30824.64,-8554.05,-8193.06,-28441.89,2996.955,10273.815
1764769009.1447935,5188.095,2450.07,-30826.845,-8554.77,-8193.914999999999,-28444.23,2993.58,10271.835
1764769009.1454532,5164.335,2426.805,-30830.085,-8557.065,-8196.029999999999,-28444.14,2996.595,10264.185
1764769009.1454532,5157.179999999999,2415.465,-30841.02,-8561.565,-8195.265,-28441.08,2998.17,10266.435
1764769009.1454532,5165.46,2419.47,-30828.195,-8552.34,-8194.725,-28446.435,2985.615,10255.32
1764769009.1454532,5189.849999999999,2440.53,-30818.07,-8548.02,-8196.525,-28452.78,2982.195,10255.545
1764769009.1454532,5168.295,2434.41,-30819.015,-8544.195,-8184.465,-28433.52,3002.895,10274.355
1764769009.1454532,5200.605,2437.11,-30825.405,-8549.775,-8189.37,-28439.55,3004.92,10293.705
1764769009.1454532,5151.735,2423.745,-30826.755,-8548.785,-8185.995,-28434.105,2998.98,10254.015
1764769009.1454532,5156.82,2431.62,-30823.155,-8553.015,-8198.505,-28451.43,2986.785,10257.435
1764769009.1454532,5185.08,2431.26,-30833.145,-8563.05,-8208.855,-28463.85,2984.355,10271.43
1764769009.1454532,5180.49,2426.4,-30833.19,-8559.18,-8201.025,-28452.33,2989.53,10267.155
1764769009.1454532,5141.745,2429.64,-30820.86,-8546.625,-8186.04,-28435.59,2995.02,10250.01
1764769009.1454532,5172.345,2430.36,-30835.305,-8566.244999999999,-8211.465,-28464.93,2979.0,10264.995
1764769009.1454532,5172.705,2434.905,-30828.915,-8554.904999999999,-8197.38,-28449.99,2983.455,10256.985
1764769009.1454532,5161.455,2434.05,-30829.545,-8555.85,-8201.385,-28455.255,2976.57,10243.62
1764769009.1454532,5156.639999999999,2413.485,-30840.21,-8565.57,-8210.07,-28460.925,2981.385,10261.395
1764769009.1454532,5170.275,2426.94,-30832.2,-8556.84,-8200.08,-28452.51,2987.01,10266.165
1764769009.1454532,5168.385,2415.15,-30852.405,-8575.515,-8215.56,-28467.405,2980.485,10262.07
1764769009.191144,5167.8,2418.615,-30843.045,-8568.855,-8212.59,-28465.11,2980.845,10261.89
1764769009.191144,5172.66,2433.42,-30822.48,-8552.43,-8199.494999999999,-28453.41,2985.165,10265.58
1764769009.191144,5173.83,2431.755,-30827.025,-8553.195,-8197.515,-28450.44,2989.485,10268.595
1764769009.191144,5173.2,2430.72,-30829.455,-8555.625,-8198.414999999999,-28450.665,2989.26,10267.965
1764769009.191144,5165.19,2424.87,-30837.96,-8564.76,-8208.27,-28460.88,2981.655,10258.695
1764769009.191144,5156.595,2409.795,-30847.77,-8572.095,-8214.48,-28465.83,2975.985,10251.72
1764769009.191144,5156.639999999999,2410.2,-30846.645,-8571.375,-8216.1,-28468.08,2971.62,10248.57
1764769009.191144,5168.52,2424.96,-30834.225,-8559.81,-8204.94,-28456.92,2981.205,10258.695
1764769009.1921513,5175.63,2430.135,-30830.67,-8556.345,-8200.71,-28452.105,2984.58,10261.08
1764769009.1921513,5174.145,2426.895,-30837.825,-8563.23,-8207.865,-28459.935,2975.58,10247.175
1764769009.1921513,5155.155,2420.82,-30836.07,-8559.36,-8201.295,-28450.845,2985.975,10256.895
1764769009.1921513,5155.155,2419.875,-30841.425,-8566.199999999999,-8205.84,-28454.715,2981.205,10251.09
1764769009.1921513,5166.63,2440.755,-30834.45,-8562.105,-8201.88,-28452.825,2979.225,10240.47
1764769009.1921513,5158.304999999999,2425.095,-30840.39,-8563.994999999999,-8200.44,-28451.34,2988.27,10258.605
1764769009.1921513,5160.15,2404.08,-30850.47,-8571.6,-8210.835,-28459.71,2983.23,10266.255
1764769009.1921513,5161.41,2407.995,-30846.465,-8574.345,-8221.185,-28473.345,2967.255,10247.895
1764769009.1921513,5150.745,2419.02,-30839.445,-8565.705,-8211.6,-28466.235,2965.68,10229.94
1764769009.1921513,5151.06,2407.905,-30844.71,-8567.369999999999,-8211.465,-28464.975,2971.485,10244.43
1764769009.1921513,5172.435,2410.155,-30844.755,-8569.26,-8213.265,-28465.38,2980.305,10269.27
1764769009.1921513,5170.545,2418.255,-30841.245,-8566.605,-8211.105,-28464.75,2976.885,10260.27
1764769009.1921513,5171.4,2428.785,-30835.53,-8561.025,-8205.615,-28460.835,2978.685,10257.12
1764769009.1921513,5166.27,2435.22,-30833.505,-8557.785,-8199.539999999999,-28453.185,2984.625,10257.615
1764769009.2347405,5167.71,2413.125,-30850.785,-8571.914999999999,-8208.0,-28456.965,2986.785,10266.795
1764769009.2347405,5168.07,2417.445,-30846.87,-8572.59,-8215.065,-28467.405,2973.69,10255.185
1764769009.2347405,5160.465,2414.835,-30845.655,-8574.255,-8218.08,-28470.69,2970.405,10248.615
1764769009.2347405,5149.485,2398.86,-30852.585,-8576.369999999999,-8219.52,-28470.69,2964.06,10238.58
1764769009.2347405,5147.37,2399.985,-30850.695,-8574.795,-8220.824999999999,-28475.1,2958.615,10234.17
1764769009.2347405,5160.915,2414.295,-30842.46,-8566.965,-8210.699999999999,-28463.49,2970.585,10247.67
1764769009.2347405,5164.83,2422.755,-30837.69,-8562.69,-8206.74,-28460.115,2974.275,10250.55
1764769009.2347405,5158.845,2430.27,-30837.78,-8567.46,-8213.94,-28468.62,2967.21,10243.62
1764769009.2347405,5164.83,2419.83,-30855.78,-8579.789999999999,-8215.695,-28465.695,2974.41,10251.855
1764769009.2347405,5156.37,2397.285,-30856.68,-8573.805,-8208.315,-28456.965,2976.3,10250.145
1764769009.2347405,5150.745,2406.78,-30845.295,-8572.14,-8218.529999999999,-28473.39,2962.71,10238.22
1764769009.2347405,5145.3,2401.65,-30855.375,-8580.105,-8222.31,-28474.92,2961.315,10235.43
1764769009.2347405,5147.46,2407.725,-30846.195,-8569.395,-8211.06,-28464.795,2964.87,10238.67
1764769009.2347405,5159.61,2408.985,-30844.305,-8567.64,-8209.215,-28460.16,2965.23,10240.02
1764769009.2347405,5150.745,2401.965,-30851.73,-8574.57,-8218.755,-28469.385,2965.275,10236.87
1764769009.2347405,5149.8,2399.67,-30858.84,-8580.555,-8221.185,-28468.215,2967.12,10243.125
1764769009.2347405,5161.635,2405.205,-30858.12,-8577.765,-8213.265,-28458.9,2969.55,10240.83
1764769009.2347405,5158.215,2407.68,-30856.14,-8578.935,-8219.43,-28469.79,2959.515,10229.76
1764769009.2347405,5136.929999999999,2401.245,-30846.42,-8570.205,-8212.725,-28462.545,2970.225,10246.005
1764769009.2347405,5154.705,2409.435,-30844.755,-8569.755,-8213.805,-28465.38,2966.895,10248.435
1764769009.2347405,5144.804999999999,2400.57,-30855.06,-8579.205,-8221.904999999999,-28474.02,2959.47,10235.43
1764769009.2347405,5148.585,2402.775,-30854.79,-8579.43,-8223.21,-28475.37,2960.685,10237.995
1764769009.2347405,5156.955,2410.425,-30848.445,-8572.23,-8217.18,-28468.215,2966.67,10245.78
1764769009.2347405,5146.155,2398.275,-30859.515,-8581.994999999999,-8224.244999999999,-28473.84,2957.85,10233.72
1764769009.2814307,5152.59,2404.125,-30853.755,-8575.83,-8216.46,-28464.93,2964.42,10240.335
1764769009.2814307,5154.345,2406.015,-30852.72,-8574.84,-8216.1,-28465.47,2964.195,10241.91
1764769009.2814307,5154.345,2406.555,-30851.055,-8574.705,-8217.09,-28466.73,2963.925,10241.685
1764769009.2814307,5145.885,2400.75,-30855.33,-8578.215,-8219.205,-28468.8,2962.305,10235.97
1764769009.281941,5142.014999999999,2404.755,-30854.655,-8575.605,-8215.38,-28465.56,2961.045,10228.635
1764769009.281941,5159.61,2420.01,-30848.94,-8568.81,-8205.57,-28455.03,2969.64,10236.06
1764769009.281941,5144.804999999999,2400.885,-30855.69,-8579.07,-8219.205,-28465.83,2964.96,10239.255
1764769009.281941,5154.389999999999,2398.815,-30853.665,-8580.824999999999,-8223.705,-28469.475,2964.96,10251.27
1764769009.281941,5151.285,2400.03,-30856.005,-8579.97,-8222.13,-28470.78,2960.64,10240.38
1764769009.281941,5156.505,2411.82,-30847.455,-8572.41,-8213.625,-28462.5,2966.04,10243.935
1764769009.281941,5155.83,2407.5,-30855.465,-8576.46,-8214.48,-28463.22,2966.13,10244.34
1764769009.281941,5162.4,2400.48,-30862.08,-8580.06,-8217.765,-28465.92,2962.89,10243.17
1764769009.281941,5165.19,2415.375,-30839.445,-8561.205,-8201.205,-28446.975,2972.475,10239.885
1764769009.281941,5152.905,2419.335,-30840.21,-8565.119999999999,-8205.57,-28451.88,2973.87,10245.78
1764769009.281941,5149.44,2406.33,-30860.055,-8584.154999999999,-8219.115,-28463.175,2972.25,10253.7
1764769009.281941,5157.135,2408.94,-30856.095,-8574.255,-8205.975,-28450.935,2978.505,10254.285
1764769009.281941,5167.215,2420.955,-30842.37,-8565.615,-8208.765,-28459.35,2972.835,10254.96
1764769009.281941,5161.905,2415.33,-30844.8,-8569.215,-8217.539999999999,-28470.645,2962.26,10246.275
1764769009.281941,5156.82,2410.965,-30839.13,-8563.904999999999,-8209.17,-28460.61,2964.6,10243.89
1764769009.281941,5152.139999999999,2415.42,-30847.14,-8574.3,-8218.215,-28467.765,2959.38,10232.91
1764769009.281941,5153.4,2419.785,-30841.2,-8563.14,-8202.015,-28448.865,2965.905,10224.045
1764769009.281941,5156.91,2409.075,-30845.565,-8564.039999999999,-8199.72,-28443.015,2969.37,10233.18
1764769009.281941,5137.785,2392.875,-30853.305,-8574.074999999999,-8211.105,-28453.185,2977.695,10252.98
1764769009.281941,5168.7,2401.515,-30859.47,-8583.975,-8226.63,-28475.1,2965.365,10262.61
1764769009.328727,5176.845,2413.89,-30851.505,-8575.56,-8217.539999999999,-28468.62,2966.31,10256.58
1764769009.328727,5152.32,2417.76,-30844.44,-8567.369999999999,-8206.74,-28455.21,2969.145,10238.715
1764769009.328727,5120.46,2393.595,-30853.215,-8575.02,-8212.32,-28458.27,2968.02,10233.225
1764769009.328727,5157.045,2397.51,-30865.32,-8592.48,-8236.935,-28489.905,2949.84,10242.72
1764769009.328727,5149.845,2400.48,-30859.605,-8584.515,-8227.529999999999,-28478.475,2955.42,10236.915
1764769009.328727,5154.21,2404.89,-30855.51,-8579.565,-8222.94,-28472.76,2959.11,10240.47
1764769009.328727,5147.82,2398.095,-30862.125,-8585.235,-8227.89,-28478.88,2953.665,10233.36
1764769009.328727,5161.275,2411.685,-30853.62,-8577.0,-8220.645,-28471.68,2960.55,10241.82
1764769009.328727,5162.49,2412.135,-30849.885,-8571.779999999999,-8213.805,-28462.5,2971.89,10250.55
1764769009.328727,5161.23,2413.485,-30853.44,-8573.13,-8211.779999999999,-28459.8,2974.95,10253.61
1764769009.328727,5167.08,2420.91,-30853.305,-8573.58,-8211.914999999999,-28460.52,2975.985,10254.825
1764769009.328727,5163.435,2424.42,-30843.81,-8569.529999999999,-8214.029999999999,-28466.505,2972.88,10251.135
1764769009.328727,5155.875,2409.885,-30855.555,-8578.8,-8222.265,-28474.83,2967.12,10244.79
1764769009.328727,5144.175,2395.305,-30853.08,-8574.345,-8218.305,-28470.915,2962.215,10236.33
1764769009.328727,5153.085,2410.695,-30845.79,-8570.25,-8216.775,-28469.61,2964.78,10240.56
1764769009.328727,5157.9,2431.26,-30837.105,-8565.84,-8215.83,-28471.905,2963.295,10240.875
1764769009.328727,5145.3,2411.19,-30846.69,-8571.42,-8215.154999999999,-28467.945,2964.825,10237.59
1764769009.328727,5145.21,2377.395,-30872.43,-8591.535,-8228.97,-28477.845,2960.91,10235.655
1764769009.328727,5152.635,2399.805,-30856.185,-8577.63,-8219.205,-28471.005,2965.005,10238.805
1764769009.328727,5144.76,2397.735,-30862.845,-8585.955,-8226.539999999999,-28477.395,2958.3,10231.92
1764769009.328727,5150.7,2400.57,-30860.955,-8582.49,-8221.365,-28472.895,2958.435,10234.71
1764769009.328727,5153.175,2409.03,-30845.79,-8570.835,-8214.795,-28470.015,2962.845,10236.285
1764769009.374655,5148.179999999999,2404.98,-30851.145,-8577.765,-8223.345,-28478.61,2967.075,10243.665
1764769009.374655,5145.929999999999,2398.68,-30858.525,-8583.885,-8227.26,-28482.345,2961.54,10236.96
1764769009.374655,5144.31,2396.565,-30860.64,-8585.055,-8226.81,-28480.68,2960.19,10233.72
1764769009.374655,5156.505,2407.995,-30851.145,-8575.289999999999,-8215.56,-28465.965,2970.495,10246.05
1764769009.374655,5160.87,2410.92,-30849.21,-8573.265,-8212.23,-28462.095,2974.905,10250.415
1764769009.374655,5161.905,2415.87,-30844.35,-8568.855,-8212.185,-28467.045,2972.61,10249.245
1764769009.374655,5170.41,2419.155,-30842.055,-8566.605,-8211.914999999999,-28468.35,2971.17,10246.005
1764769009.374655,5159.745,2410.245,-30850.38,-8575.515,-8218.89,-28472.265,2962.935,10229.58
1764769009.374655,5127.389999999999,2392.92,-30857.49,-8578.98,-8216.82,-28466.64,2971.53,10240.38
1764769009.374655,5153.535,2413.935,-30847.635,-8571.06,-8211.69,-28464.615,2976.345,10253.745
1764769009.374655,5167.845,2426.04,-30839.58,-8567.279999999999,-8213.355,-28472.175,2973.33,10254.87
1764769009.374655,5170.86,2406.42,-30853.44,-8578.619999999999,-8222.31,-28480.545,2969.775,10255.095
1764769009.374655,5142.599999999999,2394.675,-30850.11,-8568.045,-8205.48,-28459.17,2975.985,10241.1
1764769009.374655,5139.63,2395.935,-30854.295,-8578.17,-8222.22,-28477.62,2962.71,10234.62
1764769009.374655,5160.15,2407.59,-30854.7,-8579.295,-8222.085,-28477.485,2966.13,10247.58
1764769009.374655,5161.275,2408.985,-30850.38,-8573.355,-8214.57,-28468.62,2974.095,10251.495
1764769009.374655,5170.32,2426.58,-30830.94,-8562.824999999999,-8211.869999999999,-28466.415,2973.825,10252.98
1764769009.374655,5159.385,2418.795,-30840.48,-8571.24,-8214.795,-28467.18,2967.21,10235.16
1764769009.374655,5154.929999999999,2425.365,-30829.5,-8556.255,-8197.02,-28449.81,2977.335,10236.42
1764769009.374655,5166.495,2426.355,-30830.4,-8560.89,-8204.94,-28456.83,2978.865,10250.82
1764769009.374655,5177.61,2418.57,-30850.92,-8579.205,-8216.775,-28465.47,2980.485,10262.7
1764769009.374655,5150.88,2399.895,-30856.95,-8578.485,-8216.64,-28470.015,2977.605,10254.195
1764769009.3758278,5153.535,2414.97,-30838.905,-8565.435,-8214.164999999999,-28472.715,2962.53,10231.02
1764769009.3758278,5152.185,2393.055,-30856.455,-8583.345,-8234.055,-28492.065,2957.67,10244.07
1764769009.4218738,5161.05,2398.86,-30855.375,-8582.13,-8231.805,-28488.96,2960.145,10248.57
1764769009.4218738,5152.23,2412.54,-30848.4,-8575.065,-8224.11,-28481.265,2959.245,10235.52
1764769009.4218738,5146.875,2388.78,-30860.055,-8585.055,-8230.23,-28483.515,2961.945,10240.83
1764769009.4218738,5155.335,2395.845,-30859.02,-8585.64,-8232.615,-28487.61,2954.745,10237.23
1764769009.4218738,5151.014999999999,2399.76,-30855.735,-8582.445,-8229.465,-28485.405,2955.735,10235.655
1764769009.4218738,5147.099999999999,2396.295,-30860.865,-8587.71,-8235.09,-28490.31,2952.855,10231.29
1764769009.4218738,5143.77,2394.63,-30867.21,-8595.539999999999,-8242.785,-28498.14,2947.5,10225.62
1764769009.4218738,5148.179999999999,2405.565,-30857.985,-8586.63,-8232.435,-28487.475,2952.63,10230.03
1764769009.4218738,5139.315,2389.905,-30864.915,-8587.664999999999,-8228.475,-28480.995,2954.385,10228.23
1764769009.4218738,5137.785,2382.03,-30870.675,-8592.93,-8235.945,-28488.555,2949.39,10225.395
1764769009.4218738,5140.08,2388.33,-30868.92,-8594.505,-8241.615,-28495.035,2945.88,10224.045
1764769009.4218738,5134.995,2385.405,-30871.89,-8596.755,-8242.02,-28494.18,2945.34,10220.13
1764769009.4218738,5144.13,2396.295,-30861.45,-8587.529999999999,-8233.515,-28487.205,2952.135,10229.58
1764769009.4218738,5140.755,2393.28,-30863.79,-8589.69,-8235.27,-28489.59,2949.66,10227.06
1764769009.4218738,5140.395,2392.245,-30865.14,-8591.58,-8235.27,-28488.825,2950.92,10226.97
1764769009.4218738,5143.005,2394.99,-30870.945,-8595.315,-8236.08,-28488.645,2952.495,10229.22
1764769009.4218738,5142.599999999999,2392.245,-30873.465,-8597.07,-8238.015,-28490.04,2951.37,10229.445
1764769009.4228852,5136.66,2386.755,-30865.59,-8593.605,-8240.58,-28494.45,2945.34,10222.02
1764769009.4228852,5135.67,2387.745,-30867.21,-8597.34,-8246.565,-28501.065,2939.445,10216.71
1764769009.4228852,5135.67,2387.205,-30863.88,-8588.925,-8234.324999999999,-28485.99,2952.495,10227.285
1764769009.4228852,5141.025,2409.03,-30854.43,-8583.39,-8232.435,-28488.015,2947.185,10221.66
1764769009.4228852,5126.985,2405.475,-30863.745,-8593.11,-8240.67,-28495.35,2940.48,10212.885
1764769009.465721,5144.535,2383.92,-30883.005,-8604.72,-8240.22,-28486.755,2953.035,10230.705
1764769009.465721,5129.595,2365.335,-30885.165,-8607.42,-8247.195,-28495.8,2941.29,10216.53
1764769009.465721,5124.33,2372.265,-30871.755,-8597.744999999999,-8244.045,-28496.52,2938.275,10212.975
1764769009.465721,5135.895,2388.645,-30862.935,-8590.5,-8236.17,-28491.255,2944.125,10222.11
1764769009.465721,5131.98,2385.18,-30871.845,-8598.735,-8241.255,-28493.55,2942.55,10219.005
1764769009.465721,5139.855,2395.26,-30869.055,-8597.295,-8238.914999999999,-28488.465,2948.355,10225.53
1764769009.465721,5137.875,2389.185,-30874.68,-8601.525,-8243.91,-28496.88,2943.315,10222.02
1764769009.465721,5138.55,2389.68,-30858.705,-8583.435,-8229.285,-28484.955,2948.04,10224.81
1764769009.4667332,5148.045,2397.105,-30856.23,-8581.23,-8227.035,-28480.05,2952.945,10231.56
1764769009.4667332,5165.82,2396.655,-30859.605,-8584.11,-8227.395,-28479.105,2955.555,10241.595
1764769009.4667332,5122.98,2394.945,-30851.91,-8574.029999999999,-8212.365,-28459.53,2963.475,10218.51
1764769009.4667332,5136.48,2390.22,-30867.84,-8590.994999999999,-8233.244999999999,-28484.46,2944.395,10222.335
1764769009.4667332,5159.52,2399.895,-30858.57,-8581.86,-8226.404999999999,-28479.555,2951.1,10232.775
1764769009.4667332,5134.995,2387.16,-30866.67,-8591.265,-8234.775,-28486.755,2953.98,10226.61
1764769009.4667332,5122.035,2390.535,-30860.415,-8585.055,-8228.295,-28479.915,2950.065,10211.355
1764769009.4667332,5151.599999999999,2403.9,-30859.02,-8585.055,-8227.8,-28479.555,2952.675,10223.505
1764769009.4667332,5135.76,2382.255,-30878.145,-8602.965,-8244.765,-28494.9,2951.595,10232.01
1764769009.4667332,5138.955,2385.945,-30873.42,-8601.48,-8248.455,-28502.505,2944.71,10232.145
1764769009.4667332,5148.495,2394.72,-30865.23,-8592.345,-8237.295,-28490.49,2949.93,10233.36
1764769009.4667332,5141.385,2389.455,-30867.12,-8593.875,-8239.455,-28494.36,2944.755,10225.845
1764769009.4677308,5153.715,2403.045,-30854.97,-8582.94,-8227.98,-28482.705,2956.455,10238.355
1764769009.4677308,5144.94,2393.775,-30866.22,-8594.414999999999,-8237.43,-28491.075,2948.76,10229.76
1764769009.4677308,5141.655,2391.075,-30875.04,-8600.985,-8239.68,-28491.435,2948.085,10227.825
1764769009.4677308,5142.69,2384.775,-30874.68,-8597.205,-8231.895,-28481.58,2956.23,10234.845
1764769009.5180843,5140.349999999999,2385.54,-30867.165,-8595.0,-8235.27,-28485.72,2947.905,10225.935
1764769009.5180843,5148.135,2403.225,-30855.195,-8586.135,-8233.425,-28488.915,2943.585,10216.305
1764769009.5180843,5138.82,2406.105,-30855.33,-8584.425,-8231.039999999999,-28488.24,2942.55,10207.89
1764769009.5180843,5133.06,2381.22,-30871.665,-8598.465,-8240.31,-28492.875,2951.28,10237.725
1764769009.5180843,5155.56,2393.055,-30863.835,-8593.47,-8234.91,-28485.945,2955.69,10245.735
1764769009.5180843,5153.804999999999,2414.565,-30859.47,-8591.13,-8233.785,-28483.875,2948.13,10222.425
1764769009.5180843,5140.26,2411.955,-30856.68,-8583.074999999999,-8220.69,-28469.295,2956.68,10220.265
1764769009.5180843,5125.77,2355.525,-30887.595,-8612.46,-8247.6,-28493.73,2948.22,10233.27
1764769009.5180843,5140.26,2380.005,-30870.99,-8602.154999999999,-8246.654999999999,-28501.515,2939.13,10225.89
1764769009.5180843,5139.63,2399.805,-30854.745,-8585.369999999999,-8230.14,-28487.025,2945.295,10214.505
1764769009.5180843,5140.125,2403.495,-30849.165,-8579.385,-8225.369999999999,-28484.685,2944.845,10216.485
1764769009.5180843,5144.22,2380.41,-30872.205,-8603.279999999999,-8248.455,-28505.34,2940.705,10233.315
1764769009.5180843,5135.58,2375.55,-30877.875,-8606.654999999999,-8248.095,-28500.57,2937.735,10220.535
1764769009.5180843,5125.905,2368.62,-30883.005,-8608.815,-8249.94,-28501.965,2934.945,10210.995
1764769009.5180843,5128.83,2371.275,-30884.445,-8612.91,-8256.465,-28509.12,2928.825,10208.835
1764769009.5180843,5133.96,2377.98,-30878.28,-8606.789999999999,-8249.85,-28502.1,2933.55,10213.56
1764769009.5180843,5145.075,2389.455,-30866.49,-8595.27,-8236.8,-28489.275,2945.565,10225.98
1764769009.5180843,5142.735,2389.14,-30866.265,-8596.305,-8238.51,-28491.48,2942.37,10224.18
1764769009.5180843,5142.735,2390.13,-30865.815,-8595.72,-8237.97,-28490.85,2943.585,10224.675
1764769009.5180843,5144.31,2394.45,-30865.32,-8596.215,-8237.699999999999,-28490.94,2943.765,10224.585
1764769009.5180843,5138.415,2390.535,-30872.88,-8605.529999999999,-8247.375,-28499.94,2936.7,10217.565
1764769009.5180843,5129.685,2372.76,-30882.69,-8610.48,-8248.68,-28497.285,2936.88,10213.83
1764769009.5180843,5131.8,2376.99,-30880.665,-8608.904999999999,-8249.355,-28498.23,2934.9,10211.355
1764769009.5180843,5135.13,2383.245,-30879.945,-8607.33,-8246.07,-28494.225,2937.555,10215.045
1764769009.5622118,5123.61,2367.045,-30899.52,-8622.99,-8255.52,-28502.19,2929.68,10206.72
1764769009.5622118,5126.535,2368.755,-30893.76,-8619.39,-8256.24,-28506.195,2928.24,10207.8
1764769009.5622118,5131.44,2377.44,-30864.645,-8593.38,-8236.574999999999,-28489.23,2937.735,10215.99
1764769009.5622118,5137.02,2391.255,-30861.9,-8595.765,-8240.265,-28492.335,2936.97,10217.79
1764769009.5622118,5142.285,2390.445,-30874.41,-8603.01,-8243.595,-28494.315,2940.75,10224.045
1764769009.5622118,5129.145,2372.805,-30872.565,-8598.06,-8239.904999999999,-28491.435,2937.06,10216.26
1764769009.5622118,5116.41,2374.11,-30871.755,-8600.94,-8246.07,-28499.22,2928.105,10204.11
1764769009.5622118,5124.825,2378.475,-30872.07,-8601.164999999999,-8243.82,-28494.18,2934.36,10212.57
1764769009.5622118,5133.33,2372.76,-30879.765,-8606.88,-8247.465,-28495.305,2936.16,10217.88
1764769009.5622118,5132.025,2380.995,-30873.78,-8601.074999999999,-8244.27,-28493.145,2935.62,10214.73
1764769009.5622118,5128.74,2382.795,-30870.72,-8599.14,-8242.47,-28492.695,2934.81,10210.23
1764769009.5622118,5135.31,2372.94,-30881.205,-8608.185,-8247.285,-28493.055,2937.06,10216.89
1764769009.5622118,5140.935,2370.825,-30883.815,-8607.914999999999,-8245.44,-28490.13,2938.86,10222.47
1764769009.5622118,5115.285,2375.28,-30868.56,-8595.0,-8239.815,-28490.715,2933.37,10203.255
1764769009.5622118,5120.775,2369.385,-30874.815,-8600.22,-8244.63,-28496.79,2932.56,10211.85
1764769009.5622118,5129.73,2374.695,-30880.395,-8608.815,-8254.8,-28506.15,2927.88,10211.895
1764769009.5622118,5133.285,2378.07,-30877.335,-8604.36,-8247.24,-28496.835,2936.61,10218.195
1764769009.5622118,5127.03,2371.995,-30880.71,-8607.195,-8251.199999999999,-28501.65,2931.75,10211.31
1764769009.5622118,5131.215,2377.035,-30875.49,-8601.615,-8248.949999999999,-28501.02,2931.93,10213.02
1764769009.5622118,5141.25,2387.16,-30866.355,-8591.94,-8238.465,-28489.005,2941.47,10223.235
1764769009.5622118,5142.195,2387.88,-30866.04,-8591.94,-8238.42,-28488.42,2941.83,10224.135
1764769009.5622118,5136.48,2380.995,-30870.45,-8595.539999999999,-8240.265,-28489.68,2939.22,10217.655
1764769009.6090846,5146.02,2393.28,-30856.32,-8580.779999999999,-8224.154999999999,-28474.695,2951.82,10229.22
1764769009.6090846,5150.295,2401.74,-30848.94,-8575.515,-8221.725,-28474.515,2946.51,10223.37
1764769009.6090846,5169.78,2406.465,-30852.855,-8580.33,-8223.885,-28474.83,2959.785,10238.13
1764769009.6090846,5162.849999999999,2405.61,-30856.23,-8582.76,-8225.46,-28476.045,2960.505,10236.375
1764769009.6090846,5124.51,2391.975,-30857.49,-8582.31,-8223.615,-28474.155,2957.625,10225.575
1764769009.6090846,5133.915,2377.62,-30874.815,-8597.07,-8237.744999999999,-28489.05,2945.16,10222.74
1764769009.6090846,5147.145,2384.64,-30876.345,-8600.715,-8244.539999999999,-28499.67,2945.7,10231.245
1764769009.6090846,5137.695,2378.295,-30863.79,-8590.275,-8235.09,-28487.385,2951.46,10231.695
1764769009.6090846,5155.425,2385.81,-30863.61,-8594.865,-8244.225,-28497.6,2938.995,10223.46
1764769009.6090846,5156.91,2394.045,-30862.98,-8591.67,-8237.565,-28489.41,2943.45,10220.04
1764769009.6090846,5142.465,2387.025,-30859.38,-8582.039999999999,-8222.94,-28470.735,2963.295,10240.74
1764769009.6090846,5159.34,2402.28,-30850.65,-8578.215,-8225.865,-28480.275,2958.435,10245.105
1764769009.6090846,5161.86,2406.645,-30853.08,-8579.34,-8223.345,-28477.8,2961.405,10244.115
1764769009.6090846,5154.795,2392.56,-30862.08,-8585.279999999999,-8227.98,-28480.545,2958.48,10238.22
1764769009.6090846,5157.495,2402.145,-30846.24,-8574.074999999999,-8223.705,-28480.14,2958.57,10238.715
1764769009.6090846,5169.24,2407.635,-30844.845,-8571.015,-8215.83,-28469.34,2967.255,10249.83
1764769009.6090846,5175.135,2394.63,-30858.615,-8582.13,-8223.39,-28472.265,2963.565,10248.435
1764769009.6090846,5129.955,2396.295,-30842.055,-8563.005,-8206.92,-28457.595,2967.39,10222.515
1764769009.6090846,5152.995,2400.165,-30848.985,-8577.765,-8233.56,-28493.055,2948.175,10233.72
1764769009.6090846,5159.97,2400.435,-30852.315,-8579.654999999999,-8231.85,-28487.43,2951.055,10234.53
1764769009.6090846,5176.304999999999,2416.185,-30841.38,-8566.695,-8215.199999999999,-28470.285,2959.965,10235.61
1764769009.6090846,5155.785,2403.225,-30845.475,-8567.82,-8211.465,-28462.5,2965.455,10234.71
1764769009.6555955,5136.03,2394.72,-30848.445,-8572.275,-8217.18,-28468.395,2966.805,10238.76
1764769009.6555955,5171.849999999999,2410.425,-30846.015,-8574.255,-8226.225,-28482.57,2959.065,10249.83
1764769009.6555955,5156.325,2416.23,-30833.73,-8559.315,-8205.885,-28458.855,2965.41,10229.76
1764769009.6555955,5162.04,2415.015,-30840.48,-8566.154999999999,-8213.445,-28468.305,2964.375,10239.3
1764769009.6555955,5171.804999999999,2397.285,-30855.87,-8579.25,-8226.765,-28479.06,2967.93,10262.205
1764769009.6555955,5161.455,2394.18,-30849.255,-8572.949999999999,-8218.89,-28468.395,2963.25,10246.275
1764769009.6555955,5156.145,2390.625,-30863.79,-8589.195,-8232.119999999999,-28481.13,2956.905,10237.23
1764769009.6555955,5160.24,2394.18,-30875.445,-8598.645,-8235.494999999999,-28479.825,2959.11,10238.895
1764769009.6555955,5174.955,2427.705,-30848.13,-8580.779999999999,-8228.52,-28480.32,2960.595,10245.87
1764769009.656603,5160.105,2404.845,-30852.495,-8577.0,-8227.98,-28487.655,2954.385,10238.265
1764769009.656603,5154.21,2385.54,-30844.845,-8564.265,-8215.154999999999,-28471.77,2959.605,10238.715
1764769009.656603,5147.37,2386.035,-30848.445,-8572.68,-8222.67,-28476.63,2954.16,10231.155
1764769009.656603,5160.15,2394.27,-30853.305,-8577.72,-8225.369999999999,-28478.655,2955.51,10236.915
1764769009.656603,5146.11,2390.265,-30854.25,-8577.36,-8223.705,-28476.765,2954.97,10227.96
1764769009.656603,5136.3,2390.355,-30853.215,-8577.9,-8227.08,-28481.49,2951.19,10224.045
1764769009.656603,5157.855,2398.455,-30853.26,-8578.305,-8228.52,-28483.47,2952.855,10237.455
1764769009.656603,5146.245,2397.555,-30855.24,-8580.375,-8230.949999999999,-28486.53,2947.23,10226.295
1764769009.656603,5148.0,2391.795,-30856.725,-8581.095,-8228.34,-28480.995,2950.56,10229.445
1764769009.656603,5161.185,2398.77,-30852.18,-8575.38,-8223.255,-28475.19,2957.22,10240.29
1764769009.656603,5141.7,2385.27,-30861.495,-8582.4,-8229.105,-28481.805,2948.22,10226.34
1764769009.656603,5149.935,2391.93,-30856.545,-8578.574999999999,-8224.74,-28477.53,2953.26,10233.81
1764769009.656603,5156.28,2399.355,-30853.665,-8579.789999999999,-8228.744999999999,-28482.165,2951.505,10236.24
1764769009.656603,5153.49,2396.385,-30854.745,-8578.125,-8225.369999999999,-28477.665,2954.295,10235.61
1764769009.656603,5157.224999999999,2399.76,-30850.92,-8573.22,-8220.735,-28473.165,2958.525,10239.705
1764769009.656603,5159.25,2401.2,-30850.155,-8572.23,-8220.465,-28472.715,2958.93,10239.66
1764769009.656603,5150.16,2391.885,-30859.245,-8581.32,-8229.375,-28481.085,2951.055,10228.41
1764769009.702993,5158.17,2400.3,-30849.93,-8572.23,-8219.97,-28471.095,2958.345,10235.43
1764769009.702993,5161.095,2408.22,-30842.595,-8564.22,-8213.58,-28464.84,2961.495,10238.31
1764769009.702993,5161.77,2410.29,-30838.905,-8560.08,-8208.18,-28460.25,2967.165,10243.485
1764769009.702993,5164.83,2403.855,-30849.795,-8571.69,-8219.115,-28472.445,2960.775,10242.135
1764769009.7035036,5161.365,2403.855,-30856.005,-8579.97,-8228.34,-28482.84,2953.665,10234.575
1764769009.7035036,5148.855,2392.47,-30858.345,-8579.52,-8223.21,-28474.155,2961.045,10236.285
1764769009.7035036,5146.695,2392.605,-30854.43,-8572.095,-8215.244999999999,-28466.91,2963.43,10236.15
1764769009.7035036,5148.72,2401.605,-30845.655,-8566.605,-8214.705,-28471.68,2958.66,10233.18
1764769009.7035036,5171.58,2426.76,-30831.93,-8555.265,-8203.815,-28461.33,2966.985,10244.205
1764769009.7035036,5161.59,2427.255,-30830.13,-8549.685,-8194.41,-28448.28,2972.79,10239.795
1764769009.7035036,5167.889999999999,2398.365,-30855.42,-8570.205,-8209.44,-28458.99,2968.515,10248.39
1764769009.7035036,5185.8,2402.505,-30852.765,-8571.645,-8215.605,-28468.08,2974.905,10262.16
1764769009.7035036,5198.355,2438.415,-30814.605,-8541.404999999999,-8193.285,-28448.28,2984.355,10267.695
1764769009.7035036,5195.97,2434.455,-30820.59,-8544.779999999999,-8191.53,-28444.59,2987.235,10269.135
1764769009.7035036,5168.835,2420.64,-30827.52,-8549.64,-8195.445,-28448.73,2987.19,10265.58
1764769009.7035036,5174.55,2417.535,-30829.32,-8552.115,-8201.34,-28456.605,2981.7,10269.63
1764769009.7035036,5190.03,2432.205,-30818.295,-8542.305,-8191.98,-28446.615,2986.965,10273.905
1764769009.7035036,5189.22,2431.485,-30820.905,-8543.744999999999,-8192.205,-28447.92,2985.255,10270.755
1764769009.7035036,5186.655,2431.845,-30824.64,-8549.775,-8197.83,-28453.455,2981.925,10266.57
1764769009.7035036,5188.455,2433.555,-30827.385,-8549.64,-8195.265,-28449.9,2984.67,10268.865
1764769009.7035036,5195.7,2436.435,-30817.62,-8538.57,-8185.86,-28440.585,2990.835,10276.02
1764769009.7035036,5190.795,2433.51,-30817.98,-8540.01,-8188.424999999999,-28442.79,2987.46,10270.53
1764769009.750348,5197.005,2443.725,-30812.4,-8534.88,-8182.934999999999,-28437.03,2992.545,10275.93
1764769009.750348,5195.385,2439.495,-30816.72,-8537.49,-8183.34,-28437.075,2992.455,10277.01
1764769009.750348,5191.29,2435.4,-30806.91,-8526.24,-8171.46,-28425.555,2996.91,10278.27
1764769009.750348,5193.675,2442.285,-30807.0,-8529.57,-8179.245,-28434.78,2993.31,10277.505
1764769009.750348,5185.17,2428.785,-30821.985,-8542.17,-8187.884999999999,-28440.81,2988.945,10269.54
1764769009.750348,5182.29,2429.685,-30819.465,-8541.81,-8191.799999999999,-28447.38,2983.41,10264.815
1764769009.750348,5194.349999999999,2440.26,-30811.455,-8533.305,-8182.934999999999,-28436.76,2993.805,10276.11
1764769009.750348,5189.67,2432.79,-30818.88,-8540.82,-8189.775,-28443.735,2988.9,10270.35
1764769009.750348,5195.88,2438.145,-30815.64,-8536.994999999999,-8183.7,-28434.555,2996.055,10277.55
1764769009.750348,5203.665,2447.955,-30809.88,-8530.289999999999,-8174.79,-28424.115,3003.39,10283.895
1764769009.750348,5209.514999999999,2463.21,-30794.04,-8514.63,-8162.054999999999,-28415.79,3007.845,10279.395
1764769009.750348,5188.23,2453.355,-30801.42,-8524.44,-8174.115,-28430.19,2995.695,10263.33
1764769009.750348,5184.0,2437.155,-30813.93,-8529.93,-8171.594999999999,-28420.65,3002.31,10270.035
1764769009.750348,5205.014999999999,2456.82,-30792.87,-8515.215,-8166.554999999999,-28419.615,3005.145,10286.055
1764769009.750348,5215.455,2441.88,-30816.495,-8540.505,-8189.009999999999,-28441.71,3004.29,10302.03
1764769009.750348,5181.165,2435.445,-30811.77,-8530.83,-8177.67,-28432.53,3001.59,10275.165
1764769009.750348,5200.83,2441.205,-30808.845,-8529.029999999999,-8176.59,-28431.765,3001.5,10288.305
1764769009.750348,5197.724999999999,2439.945,-30817.26,-8539.515,-8188.065,-28441.89,2994.795,10279.395
1764769009.750348,5192.46,2435.805,-30826.395,-8543.835,-8188.29,-28439.055,2994.345,10274.13
1764769009.750348,5192.28,2433.06,-30827.925,-8541.09,-8179.29,-28427.31,2999.07,10275.75
1764769009.750348,5215.86,2463.48,-30797.91,-8522.64,-8174.835,-28430.145,3002.625,10289.52
1764769009.750348,5208.12,2453.85,-30796.695,-8521.244999999999,-8174.79,-28430.505,3004.02,10287.81
1764769009.750348,5204.79,2446.47,-30799.935,-8520.48,-8169.255,-28423.665,3006.945,10288.035
1764769009.750348,5201.145,2447.235,-30802.68,-8524.17,-8174.79,-28430.595,3001.365,10282.59
1764769009.7968538,5191.11,2442.735,-30809.745,-8531.46,-8183.115,-28438.47,2993.355,10273.005
1764769009.7968538,5191.605,2448.495,-30807.495,-8530.515,-8182.08,-28435.815,2994.525,10273.185
1764769009.7968538,5214.87,2438.865,-30828.87,-8550.99,-8197.965,-28448.595,2991.105,10281.015
1764769009.7968538,5180.58,2428.155,-30825.675,-8538.795,-8179.38,-28426.995,3000.42,10263.825
1764769009.7968538,5171.4,2429.01,-30808.44,-8526.555,-8175.599999999999,-28426.77,2994.93,10263.15
1764769009.7968538,5204.61,2443.905,-30808.395,-8532.0,-8184.509999999999,-28437.84,2996.73,10283.085
1764769009.7968538,5211.179999999999,2456.415,-30796.38,-8517.015,-8166.825,-28418.58,3012.39,10293.435
1764769009.7968538,5203.17,2449.71,-30801.195,-8521.38,-8171.73,-28425.6,3006.0,10285.695
1764769009.7968538,5201.91,2450.205,-30801.06,-8521.47,-8171.19,-28424.745,3005.73,10285.695
1764769009.7968538,5205.33,2447.055,-30806.82,-8527.68,-8176.139999999999,-28430.19,3001.41,10285.47
1764769009.7968538,5215.77,2448.27,-30805.11,-8524.17,-8169.21,-28422.09,3009.285,10292.76
1764769009.7968538,5181.435,2457.405,-30784.905,-8502.975,-8146.215,-28395.63,3023.73,10280.61
1764769009.7968538,5213.61,2464.245,-30790.44,-8512.244999999999,-8161.245,-28415.43,3015.18,10300.5
1764769009.7968538,5211.855,2463.93,-30789.315,-8510.625,-8159.445,-28414.305,3012.03,10292.4
1764769009.7968538,5223.15,2476.575,-30784.14,-8506.529999999999,-8155.844999999999,-28410.615,3018.87,10298.565
1764769009.7978537,5205.735,2462.625,-30785.805,-8505.045,-8151.344999999999,-28403.37,3025.98,10298.7
1764769009.7978537,5215.32,2467.755,-30779.955,-8499.33,-8146.485,-28399.23,3025.53,10296.765
1764769009.7978537,5225.31,2465.37,-30788.145,-8509.545,-8159.355,-28412.64,3019.32,10305.855
1764769009.7978537,5217.03,2446.47,-30807.72,-8528.22,-8176.23,-28427.355,3013.785,10304.01
1764769009.7978537,5210.19,2454.03,-30804.12,-8525.07,-8174.384999999999,-28427.265,3008.43,10292.355
1764769009.7978537,5213.52,2454.345,-30800.025,-8520.705,-8166.78,-28418.175,3015.495,10298.295
1764769009.7978537,5205.96,2442.735,-30810.645,-8526.465,-8168.804999999999,-28419.525,3011.31,10291.41
1764769009.8449862,5223.96,2461.275,-30802.275,-8520.029999999999,-8164.71,-28417.995,3008.115,10289.475
1764769009.8449862,5226.389999999999,2472.12,-30791.79,-8515.935,-8163.45,-28414.305,3017.475,10289.7
1764769009.8449862,5195.34,2448.27,-30799.71,-8520.164999999999,-8166.33,-28416.285,3020.31,10297.035
1764769009.8449862,5214.78,2452.455,-30786.93,-8504.91,-8153.28,-28403.82,3024.045,10307.07
1764769009.8449862,5234.895,2472.705,-30774.915,-8499.465,-8151.57,-28403.19,3021.255,10301.58
1764769009.8449862,5228.19,2474.28,-30778.155,-8501.985,-8150.67,-28402.38,3022.335,10297.26
1764769009.8449862,5204.88,2455.695,-30788.28,-8507.744999999999,-8152.83,-28402.245,3031.605,10311.345
1764769009.8449862,5223.42,2463.165,-30788.325,-8508.465,-8155.844999999999,-28407.15,3026.655,10312.425
1764769009.8449862,5216.13,2461.05,-30789.675,-8511.255,-8161.605,-28416.24,3019.32,10301.535
1764769009.8449862,5211.9,2455.56,-30789.675,-8510.445,-8160.705,-28416.915,3015.495,10296.585
1764769009.8449862,5217.3,2461.545,-30786.345,-8507.744999999999,-8158.634999999999,-28414.035,3017.97,10300.275
1764769009.8449862,5219.415,2461.095,-30787.92,-8508.779999999999,-8157.915,-28411.065,3020.31,10301.94
1764769009.8449862,5226.705,2469.195,-30779.235,-8501.535,-8149.094999999999,-28400.445,3027.735,10309.545
1764769009.8449862,5236.83,2480.31,-30768.48,-8490.24,-8134.605,-28386.045,3040.47,10322.01
1764769009.8449862,5238.675,2479.41,-30768.84,-8486.685,-8128.98,-28381.23,3045.33,10326.105
1764769009.8449862,5243.264999999999,2488.32,-30763.395,-8487.27,-8137.575,-28392.84,3037.14,10323.945
1764769009.8449862,5240.474999999999,2474.325,-30783.51,-8503.47,-8146.934999999999,-28399.14,3034.305,10320.255
1764769009.8449862,5220.585,2462.445,-30783.78,-8500.904999999999,-8141.355,-28392.255,3035.115,10308.555
1764769009.8449862,5215.095,2471.175,-30769.47,-8493.119999999999,-8144.639999999999,-28401.84,3028.905,10305.81
1764769009.8449862,5232.42,2475.81,-30772.17,-8496.765,-8149.455,-28408.05,3028.41,10316.205
1764769009.8449862,5239.935,2482.92,-30771.18,-8491.77,-8138.295,-28392.48,3040.38,10323.765
1764769009.8449862,5235.435,2476.935,-30781.665,-8500.095,-8143.38,-28394.595,3037.545,10318.185
1764769009.8449862,5225.4,2468.025,-30779.01,-8500.545,-8146.44,-28396.71,3031.92,10308.33
1764769009.8449862,5235.165,2487.105,-30763.845,-8489.52,-8138.655,-28390.59,3032.505,10304.01
1764769009.8883858,5242.455,2506.545,-30748.995,-8474.445,-8125.83,-28380.24,3043.08,10314.585
1764769009.8883858,5230.665,2477.16,-30765.24,-8485.605,-8133.299999999999,-28388.07,3042.36,10320.03
1764769009.8883858,5225.58,2476.53,-30768.255,-8488.845,-8136.99,-28393.2,3031.605,10304.01
1764769009.8883858,5242.59,2476.935,-30766.905,-8490.869999999999,-8142.57,-28399.95,3038.13,10334.835
1764769009.8883858,5239.8,2471.67,-30774.87,-8497.845,-8146.304999999999,-28401.84,3036.51,10329.03
1764769009.8883858,5227.47,2466.945,-30781.44,-8505.765,-8157.195,-28415.07,3022.875,10310.085
1764769009.8883858,5228.145,2480.535,-30773.115,-8497.935,-8151.705,-28410.705,3022.47,10308.555
1764769009.8883858,5220.72,2468.7,-30783.15,-8508.779999999999,-8160.255,-28417.275,3014.55,10299.105
1764769009.8899555,5218.74,2449.8,-30794.49,-8515.619999999999,-8162.054999999999,-28415.25,3016.215,10300.05
1764769009.8899555,5224.139999999999,2461.005,-30784.05,-8504.595,-8151.929999999999,-28406.43,3023.055,10305.9
1764769009.8899555,5236.785,2479.14,-30770.055,-8492.13,-8141.085,-28395.54,3033.81,10318.68
1764769009.8899555,5237.595,2480.085,-30768.615,-8489.52,-8137.665,-28391.805,3037.635,10320.795
1764769009.8899555,5233.41,2476.305,-30766.14,-8486.775,-8134.424999999999,-28389.555,3037.455,10318.905
1764769009.8899555,5224.905,2468.115,-30774.96,-8496.225,-8145.09,-28401.03,3029.445,10309.545
1764769009.8899555,5225.445,2468.25,-30777.435,-8499.69,-8149.634999999999,-28404.81,3027.87,10309.32
1764769009.8899555,5227.695,2469.735,-30775.005,-8496.72,-8145.99,-28400.265,3030.525,10311.795
1764769009.8899555,5233.32,2475.36,-30768.12,-8489.385,-8137.665,-28391.445,3036.825,10317.465
1764769009.8899555,5228.955,2470.32,-30774.6,-8496.99,-8146.485,-28399.86,3030.39,10310.4
1764769009.890319,5231.429999999999,2472.03,-30774.105,-8496.72,-8145.855,-28398.645,3030.21,10311.795
1764769009.890319,5239.44,2484.315,-30761.37,-8482.815,-8130.33,-28382.625,3041.505,10320.615
1764769009.890319,5244.03,2509.695,-30741.12,-8465.265,-8115.434999999999,-28369.53,3048.75,10320.66
1764769009.890319,5244.48,2491.785,-30758.445,-8482.68,-8129.519999999999,-28381.41,3053.61,10335.735
1764769009.890319,5272.065,2497.68,-30761.685,-8481.465,-8125.11,-28377.99,3060.81,10353.915
1764769009.890319,5253.21,2489.895,-30753.63,-8474.31,-8122.094999999999,-28376.415,3053.97,10337.895
1764769009.9359126,5249.385,2490.57,-30755.97,-8476.56,-8124.795,-28379.025,3049.965,10333.485
1764769009.9359126,5248.575,2492.73,-30742.47,-8462.52,-8111.745,-28366.83,3054.825,10333.8
1764769009.9359126,5251.365,2507.58,-30729.915,-8450.235,-8097.929999999999,-28350.945,3064.41,10332.72
1764769009.9359126,5263.605,2515.275,-30728.97,-8451.449999999999,-8098.965,-28350.72,3067.2,10346.355
1764769009.9359126,5268.33,2500.56,-30745.08,-8466.615,-8110.304999999999,-28358.145,3067.875,10358.28
1764769009.9359126,5253.929999999999,2487.24,-30752.1,-8471.025,-8111.295,-28355.22,3063.87,10345.545
1764769009.9369218,5283.224999999999,2513.88,-30739.365,-8461.08,-8105.04,-28354.275,3062.745,10348.02
1764769009.9369218,5268.96,2512.62,-30750.48,-8469.045,-8108.82,-28359.495,3059.28,10335.825
1764769009.9369218,5252.22,2493.585,-30756.915,-8473.365,-8114.13,-28365.12,3068.955,10354.275
1764769009.9369218,5270.355,2490.57,-30747.645,-8471.789999999999,-8120.565,-28373.67,3056.085,10350.18
1764769009.9369218,5222.205,2480.67,-30741.705,-8459.145,-8100.855,-28349.595,3063.15,10322.505
1764769009.9369218,5243.22,2499.48,-30739.815,-8461.98,-8108.639999999999,-28361.025,3057.525,10334.79
1764769009.9369218,5259.96,2495.205,-30751.92,-8477.19,-8127.09,-28379.205,3047.535,10339.11
1764769009.9369218,5264.235,2503.395,-30744.36,-8467.605,-8112.69,-28361.88,3057.66,10340.685
1764769009.9369218,5277.33,2505.285,-30748.86,-8468.865,-8111.655,-28360.53,3056.535,10336.05
1764769009.9369218,5249.295,2481.435,-30762.09,-8478.36,-8119.259999999999,-28368.72,3052.935,10331.505
1764769009.9369218,5258.205,2484.225,-30755.97,-8476.965,-8121.69,-28374.345,3052.71,10343.835
1764769009.9369218,5220.135,2473.65,-30760.515,-8476.11,-8113.905,-28361.925,3051.45,10315.395
1764769009.9369218,5237.46,2489.67,-30749.985,-8475.975,-8127.315,-28383.12,3040.65,10324.845
1764769009.9369218,5250.51,2486.97,-30757.59,-8482.32,-8130.15,-28385.46,3042.225,10331.415
1764769009.9369218,5243.58,2481.525,-30761.595,-8481.24,-8121.825,-28373.49,3048.57,10328.445
1764769009.9369218,5255.28,2490.885,-30762.72,-8486.145,-8129.79,-28381.095,3045.06,10332.315
1764769009.9369218,5257.17,2494.08,-30761.82,-8486.414999999999,-8131.995,-28385.73,3043.53,10331.91
1764769009.9369218,5260.095,2502.9,-30746.97,-8472.015,-8122.005,-28380.15,3046.5,10334.43
1764769009.9823549,5268.42,2505.735,-30738.42,-8461.395,-8107.245,-28361.115,3061.035,10346.985
1764769009.9828808,5266.755,2498.76,-30741.345,-8459.73,-8098.065,-28346.715,3070.395,10351.17
1764769009.9828808,5273.19,2508.525,-30735.315,-8454.105,-8097.21,-28349.505,3071.34,10354.995
1764769009.9828808,5271.165,2507.445,-30737.43,-8456.355,-8100.764999999999,-28356.255,3066.93,10352.475
1764769009.9828808,5266.53,2505.87,-30742.02,-8460.81,-8104.32,-28359.54,3065.265,10348.02
1764769009.9828808,5267.025,2505.465,-30748.14,-8464.994999999999,-8105.13,-28357.92,3066.93,10349.1
1764769009.9828808,5270.085,2505.375,-30739.005,-8457.39,-8098.155,-28350.675,3072.645,10354.5
1764769009.9828808,5269.635,2509.785,-30726.72,-8450.64,-8098.785,-28355.985,3067.83,10351.665
1764769009.9828808,5268.33,2514.87,-30731.265,-8454.105,-8101.755,-28357.29,3061.08,10337.715
1764769009.9828808,5247.135,2503.53,-30742.245,-8462.565,-8106.389999999999,-28359.27,3051.81,10317.51
1764769009.9828808,5239.935,2483.91,-30755.565,-8472.375,-8111.79,-28360.575,3051.72,10322.1
1764769009.9828808,5264.505,2496.105,-30747.42,-8469.09,-8113.634999999999,-28365.03,3057.84,10349.46
1764769009.9828808,5278.86,2504.88,-30744.63,-8466.345,-8110.08,-28362.195,3069.0,10367.73
1764769009.9828808,5267.61,2511.0,-30739.095,-8459.369999999999,-8104.32,-28357.875,3064.185,10351.845
1764769009.9828808,5264.099999999999,2493.945,-30739.815,-8458.83,-8101.665,-28353.645,3063.735,10349.01
1764769009.9828808,5262.615,2496.87,-30743.145,-8464.23,-8109.719999999999,-28363.86,3058.245,10344.78
1764769009.9828808,5269.5,2506.86,-30737.52,-8459.64,-8104.545,-28358.19,3063.33,10351.485
1764769009.9828808,5265.36,2502.405,-30741.975,-8463.6,-8106.525,-28360.125,3060.045,10346.805
1764769009.9828808,5257.755,2493.495,-30751.155,-8471.654999999999,-8114.715,-28367.82,3053.115,10338.3
1764769009.9828808,5257.935,2493.0,-30751.605,-8470.89,-8114.04,-28366.065,3053.835,10338.165
1764769009.9828808,5264.145,2500.92,-30744.765,-8464.635,-8107.11,-28358.235,3057.705,10342.98
1764769009.9828808,5263.965,2509.785,-30746.295,-8468.82,-8113.23,-28364.94,3050.145,10333.71
1764769010.0285144,5260.635,2514.78,-30738.825,-8459.505,-8102.924999999999,-28354.77,3060.225,10339.425
1764769010.0285144,5251.679999999999,2478.33,-30753.495,-8469.539999999999,-8108.639999999999,-28359.45,3060.135,10344.15
1764769010.0285144,5253.345,2486.07,-30753.81,-8473.14,-8114.174999999999,-28367.415,3051.315,10334.385
1764769010.0285144,5254.245,2499.03,-30743.415,-8463.869999999999,-8106.84,-28360.98,3054.78,10335.915
1764769010.0285144,5256.72,2489.985,-30756.105,-8476.74,-8119.125,-28371.78,3050.19,10336.86
1764769010.0285144,5254.065,2487.735,-30761.19,-8482.005,-8121.105,-28370.43,3050.82,10334.295
1764769010.0285144,5247.99,2494.17,-30754.215,-8473.23,-8112.42,-28362.555,3050.82,10323.09
1764769010.0285144,5250.375,2484.045,-30758.58,-8479.305,-8123.445,-28378.53,3042.945,10327.14
1764769010.0285144,5261.849999999999,2480.715,-30758.445,-8479.89,-8122.815,-28375.875,3047.76,10341.18
1764769010.0285144,5261.985,2491.065,-30752.055,-8472.914999999999,-8115.705,-28367.865,3051.495,10339.065
1764769010.0285144,5264.595,2497.86,-30747.375,-8468.64,-8112.15,-28365.21,3055.455,10340.55
1764769010.0285144,5255.639999999999,2492.865,-30754.845,-8476.199999999999,-8120.655,-28373.895,3047.76,10331.82
1764769010.0285144,5259.06,2488.815,-30752.235,-8471.295,-8112.825,-28363.68,3055.905,10340.73
1764769010.0285144,5273.28,2507.355,-30744.765,-8468.865,-8112.195,-28366.335,3053.25,10341.18
1764769010.0285144,5270.804999999999,2515.41,-30744.315,-8465.355,-8103.465,-28354.005,3059.145,10333.17
1764769010.0285144,5250.195,2495.565,-30758.22,-8471.97,-8104.679999999999,-28350.315,3067.74,10341.63
1764769010.0285144,5272.29,2494.395,-30749.85,-8469.404999999999,-8115.344999999999,-28369.08,3055.635,10354.275
1764769010.0285144,5264.55,2497.32,-30736.17,-8452.529999999999,-8097.12,-28351.035,3055.86,10337.175
1764769010.0285144,5250.33,2479.995,-30757.635,-8469.855,-8111.474999999999,-28364.445,3055.41,10332.765
1764769010.0285144,5281.65,2506.275,-30743.415,-8467.515,-8119.17,-28373.625,3046.635,10333.935
1764769010.0285144,5265.945,2501.955,-30737.07,-8455.77,-8100.855,-28352.115,3064.32,10341.18
1764769010.0285144,5244.345,2483.235,-30753.405,-8469.09,-8111.745,-28363.365,3058.605,10344.24
1764769010.0285144,5269.635,2502.855,-30737.88,-8458.695,-8106.21,-28359.72,3059.28,10350.72
1764769010.0285144,5279.085,2516.355,-30725.145,-8446.095,-8092.259999999999,-28345.77,3071.52,10358.46
1764769010.0783362,5281.92,2518.29,-30725.865,-8445.33,-8088.84,-28341.18,3077.01,10361.61
1764769010.0788395,5281.47,2516.94,-30726.63,-8444.205,-8086.59,-28337.895,3078.18,10361.565
1764769010.0788395,5281.155,2516.805,-30725.415,-8444.07,-8088.434999999999,-28342.125,3074.085,10359.045
1764769010.0788395,5273.415,2507.67,-30735.72,-8454.555,-8100.9,-28355.445,3064.41,10348.56
1764769010.0788395,5274.36,2509.155,-30738.78,-8459.145,-8103.42,-28354.545,3065.31,10348.29
1764769010.0788395,5286.33,2522.97,-30729.645,-8450.055,-8093.205,-28343.655,3074.94,10358.82
1764769010.0788395,5283.405,2512.8,-30731.22,-8444.34,-8083.98,-28333.8,3080.52,10362.915
1764769010.0788395,5280.929999999999,2511.225,-30729.78,-8443.529999999999,-8086.545,-28339.74,3074.58,10359.405
1764769010.0788395,5277.51,2511.72,-30730.41,-8447.49,-8094.15,-28350.27,3067.38,10352.565
1764769010.0788395,5270.715,2506.5,-30733.92,-8450.82,-8097.03,-28351.755,3064.185,10346.715
1764769010.0788395,5265.585,2499.3,-30740.175,-8455.275,-8098.92,-28350.405,3064.32,10344.285
1764769010.0788395,5273.55,2505.015,-30741.705,-8459.279999999999,-8104.005,-28354.86,3065.31,10349.235
1764769010.0788395,5285.205,2513.61,-30740.58,-8457.84,-8100.54,-28349.37,3070.755,10356.345
1764769010.0788395,5292.495,2503.17,-30743.865,-8456.31,-8098.38,-28348.065,3068.01,10357.11
1764769010.0788395,5239.304999999999,2495.385,-30728.97,-8439.255,-8081.28,-28330.11,3069.495,10326.195
1764769010.0788395,5278.185,2515.14,-30737.79,-8452.574999999999,-8096.219999999999,-28346.355,3069.855,10355.985
1764769010.0788395,5291.054999999999,2514.915,-30729.195,-8442.135,-8086.005,-28336.275,3078.63,10366.245
1764769010.0788395,5277.06,2513.655,-30718.26,-8436.42,-8090.594999999999,-28346.49,3067.425,10350.495
1764769010.0788395,5271.165,2504.385,-30735.405,-8451.135,-8098.245,-28348.515,3064.545,10347.525
1764769010.0788395,5268.33,2497.545,-30742.56,-8455.904999999999,-8099.46,-28347.075,3064.23,10345.995
1764769010.0788395,5273.91,2507.13,-30733.155,-8448.93,-8098.019999999999,-28349.055,3064.545,10348.875
1764769010.0788395,5271.974999999999,2507.445,-30732.705,-8447.22,-8097.255,-28348.38,3063.78,10347.03
1764769010.0788395,5271.3,2502.765,-30737.565,-8450.414999999999,-8098.11,-28346.67,3063.51,10346.58
1764769010.0788395,5280.435,2512.305,-30730.14,-8443.664999999999,-8092.934999999999,-28342.665,3066.93,10353.285
1764769010.1247578,5282.55,2516.085,-30726.99,-8439.3,-8087.535,-28336.59,3071.655,10355.67
1764769010.1247578,5290.11,2516.13,-30730.95,-8442.99,-8091.0,-28340.055,3069.495,10356.84
1764769010.1247578,5281.65,2516.085,-30721.095,-8429.039999999999,-8069.58,-28311.39,3090.195,10359.855
1764769010.1247578,5270.58,2528.1,-30714.93,-8426.789999999999,-8071.74,-28316.88,3082.77,10348.245
1764769010.1247578,5282.235,2526.93,-30725.145,-8437.77,-8085.78,-28333.53,3069.135,10343.205
1764769010.1247578,5282.595,2512.53,-30732.57,-8443.485,-8093.115,-28343.07,3070.62,10358.46
1764769010.1247578,5287.86,2531.835,-30723.435,-8436.51,-8087.219999999999,-28339.02,3069.135,10347.75
1764769010.1247578,5271.389999999999,2514.555,-30722.4,-8433.539999999999,-8078.085,-28324.71,3079.08,10357.38
1764769010.1247578,5295.195,2506.5,-30731.535,-8444.115,-8089.245,-28334.565,3078.135,10378.08
1764769010.1247578,5295.33,2517.885,-30725.73,-8438.085,-8083.394999999999,-28328.895,3079.755,10368.72
1764769010.1247578,5290.965,2518.965,-30725.37,-8438.49,-8083.889999999999,-28331.28,3075.165,10361.16
1764769010.1247578,5281.065,2526.795,-30718.665,-8431.38,-8076.644999999999,-28325.43,3073.995,10347.57
1764769010.1247578,5285.745,2537.82,-30711.6,-8427.69,-8076.42,-28325.34,3072.465,10351.98
1764769010.1247578,5297.985,2507.805,-30737.25,-8449.83,-8091.54,-28335.69,3079.71,10377.54
1764769010.1247578,5289.03,2502.72,-30739.995,-8452.664999999999,-8093.474999999999,-28337.805,3075.795,10368.72
1764769010.1247578,5287.185,2514.33,-30739.545,-8454.69,-8094.87,-28341.225,3068.73,10359.945
1764769010.12577,5282.82,2496.42,-30754.89,-8459.055,-8091.45,-28334.745,3069.99,10356.345
1764769010.12577,5254.065,2482.335,-30746.52,-8456.67,-8099.639999999999,-28345.77,3053.97,10328.13
1764769010.12577,5277.42,2501.73,-30744.18,-8461.935,-8113.184999999999,-28365.165,3039.255,10327.995
1764769010.12577,5255.054999999999,2490.705,-30748.23,-8461.619999999999,-8108.594999999999,-28355.58,3050.415,10337.58
1764769010.12577,5252.085,2479.14,-30765.15,-8477.369999999999,-8120.745,-28365.84,3042.36,10332.225
1764769010.12577,5259.645,2487.555,-30759.165,-8465.355,-8101.394999999999,-28345.635,3056.985,10338.795
1764769010.12577,5265.135,2495.295,-30743.82,-8454.33,-8099.594999999999,-28346.805,3053.655,10339.425
1764769010.12577,5262.075,2487.195,-30753.63,-8470.89,-8119.53,-28366.02,3039.48,10329.885
1764769010.1726716,5259.285,2485.305,-30762.54,-8477.145,-8121.69,-28368.27,3040.245,10330.245
1764769010.1726716,5255.595,2482.38,-30762.405,-8474.13,-8117.37,-28363.545,3042.405,10329.615
1764769010.1726716,5250.69,2480.085,-30756.555,-8471.16,-8117.639999999999,-28365.3,3036.735,10323.495
1764769010.1726716,5252.535,2480.895,-30757.14,-8471.07,-8117.28,-28363.59,3035.16,10322.415
1764769010.1726716,5256.585,2487.195,-30757.455,-8472.195,-8117.73,-28364.49,3033.72,10319.985
1764769010.1726716,5249.205,2485.485,-30768.075,-8485.154999999999,-8131.32,-28377.585,3036.285,10322.28
1764769010.1726716,5251.05,2473.605,-30780.225,-8491.59,-8134.92,-28380.105,3033.135,10323.855
1764769010.1726716,5247.27,2468.16,-30763.44,-8474.265,-8120.115,-28366.065,3034.17,10319.445
1764769010.1726716,5248.665,2473.65,-30761.415,-8474.67,-8121.285,-28367.595,3033.495,10318.635
1764769010.1726716,5239.62,2465.415,-30775.05,-8488.845,-8133.84,-28379.565,3024.855,10309.23
1764769010.1726716,5240.16,2467.755,-30778.965,-8493.39,-8137.844999999999,-28383.975,3024.27,10308.33
1764769010.1726716,5263.605,2488.14,-30768.435,-8483.94,-8130.24,-28378.305,3029.535,10316.16
1764769010.1726716,5258.835,2484.18,-30762.495,-8477.64,-8123.804999999999,-28371.24,3031.605,10310.895
1764769010.1726716,5219.235,2451.465,-30783.015,-8492.58,-8132.04,-28373.265,3033.045,10312.335
1764769010.1726716,5235.66,2459.925,-30790.845,-8504.505,-8150.985,-28397.565,3014.505,10302.795
1764769010.1726716,5218.605,2436.93,-30797.955,-8507.52,-8150.94,-28395.9,3014.55,10295.73
1764769010.1726716,5226.66,2448.765,-30791.115,-8504.19,-8151.389999999999,-28397.79,3010.77,10296.135
1764769010.1726716,5234.31,2459.205,-30790.26,-8498.07,-8139.195,-28382.04,3021.255,10303.83
1764769010.1726716,5242.86,2467.71,-30779.055,-8489.115,-8134.245,-28380.825,3026.52,10312.02
1764769010.1726716,5241.645,2467.305,-30769.47,-8484.975,-8136.764999999999,-28387.62,3024.135,10310.85
1764769010.1726716,5239.08,2467.035,-30767.985,-8482.005,-8133.75,-28385.955,3024.09,10309.905
1764769010.1726716,5236.92,2465.505,-30773.115,-8486.595,-8137.98,-28389.69,3021.705,10307.52
1764769010.1726716,5228.685,2455.65,-30784.95,-8498.654999999999,-8148.78,-28398.465,3014.55,10298.835
1764769010.1726716,5233.185,2458.26,-30784.365,-8499.375,-8147.519999999999,-28394.685,3017.43,10302.21
1764769010.2201214,5229.54,2453.4,-30789.27,-8504.55,-8152.065,-28399.68,3014.595,10297.71
1764769010.2201214,5234.94,2458.935,-30782.295,-8494.74,-8143.695,-28394.28,3019.32,10303.47
1764769010.2201214,5235.435,2458.62,-30781.17,-8492.895,-8141.759999999999,-28393.2,3019.14,10303.83
1764769010.2201214,5238.72,2464.695,-30775.455,-8489.16,-8140.41,-28392.03,3020.58,10305.495
1764769010.2201214,5238.99,2469.78,-30775.77,-8490.24,-8139.825,-28388.745,3022.83,10306.845
1764769010.2201214,5225.76,2465.73,-30783.42,-8497.26,-8145.315,-28393.785,3013.155,10291.23
1764769010.2201214,5224.724999999999,2454.12,-30784.14,-8496.045,-8145.269999999999,-28396.62,3017.61,10299.33
1764769010.2201214,5249.835,2466.81,-30772.395,-8486.955,-8139.599999999999,-28392.48,3026.79,10318.41
1764769010.2201214,5250.69,2475.63,-30768.03,-8481.824999999999,-8132.309999999999,-28383.39,3029.22,10317.015
1764769010.2201214,5239.17,2467.17,-30774.6,-8487.72,-8136.495,-28385.82,3025.17,10306.485
1764769010.2201214,5224.005,2462.13,-30780.09,-8491.455,-8141.985,-28393.92,3014.685,10285.47
1764769010.2201214,5233.32,2455.92,-30786.48,-8499.645,-8154.179999999999,-28407.285,3010.23,10297.305
1764769010.2201214,5253.929999999999,2452.815,-30791.205,-8505.045,-8156.295,-28407.015,3015.855,10314.9
1764769010.2201214,5237.82,2457.855,-30783.465,-8494.74,-8141.4,-28391.85,3015.225,10287.495
1764769010.2201214,5211.45,2471.04,-30761.955,-8473.365,-8121.42,-28371.42,3027.06,10284.66
1764769010.2201214,5259.735,2457.18,-30795.165,-8510.805,-8162.955,-28416.645,3016.08,10324.08
1764769010.2201214,5228.73,2467.935,-30780.675,-8490.69,-8136.945,-28387.665,3022.785,10289.745
1764769010.2201214,5226.12,2460.42,-30785.22,-8497.98,-8146.665,-28397.205,3017.43,10301.085
1764769010.2201214,5241.78,2439.045,-30807.315,-8522.324999999999,-8172.54,-28423.17,3008.07,10311.57
1764769010.2201214,5239.53,2460.06,-30789.225,-8508.105,-8162.009999999999,-28417.05,3006.81,10300.32
1764769010.2201214,5246.099999999999,2470.815,-30779.145,-8497.845,-8152.605,-28409.985,3015.675,10309.005
1764769010.2201214,5237.145,2448.405,-30797.415,-8506.8,-8152.605,-28404.99,3018.195,10305.855
1764769010.2201214,5223.69,2428.515,-30803.04,-8510.175,-8156.34,-28409.805,3004.65,10284.39
1764769010.2201214,5244.345,2457.72,-30784.365,-8502.57,-8157.915,-28413.765,3000.6,10286.19
1764769010.2634945,5233.23,2461.455,-30771.54,-8491.545,-8146.215,-28399.995,3017.52,10306.845
1764769010.2634945,5242.275,2460.195,-30780.9,-8497.35,-8149.5,-28403.055,3017.655,10311.21
1764769010.2634945,5236.875,2453.535,-30789.09,-8503.425,-8153.37,-28407.51,3013.245,10302.345
1764769010.2634945,5242.59,2463.705,-30773.79,-8492.039999999999,-8145.99,-28401.525,3018.06,10306.935
1764769010.2634945,5239.62,2463.12,-30775.905,-8494.515,-8147.924999999999,-28403.415,3016.665,10303.965
1764769010.2634945,5234.22,2461.635,-30778.245,-8495.64,-8148.87,-28404.09,3013.695,10298.79
1764769010.2634945,5233.679999999999,2454.21,-30785.355,-8502.39,-8152.605,-28405.305,3013.92,10299.78
1764769010.2634945,5246.099999999999,2459.565,-30782.43,-8498.34,-8146.844999999999,-28398.33,3020.13,10309.41
1764769010.2634945,5248.8,2468.43,-30773.115,-8489.295,-8139.42,-28392.3,3023.955,10311.705
1764769010.2650352,5249.61,2470.545,-30771.9,-8488.08,-8139.105,-28392.03,3024.09,10312.155
1764769010.2650352,5245.47,2465.19,-30777.615,-8492.13,-8142.03,-28393.47,3022.605,10309.23
1764769010.2650352,5236.11,2459.745,-30789.045,-8506.755,-8157.78,-28411.515,3010.005,10297.71
1764769010.2650352,5245.56,2472.03,-30787.2,-8506.529999999999,-8156.924999999999,-28410.165,3014.685,10305.585
1764769010.2650352,5245.29,2458.53,-30796.11,-8507.97,-8149.995,-28398.465,3017.16,10306.125
1764769010.2650352,5226.48,2439.675,-30794.31,-8505.855,-8147.79,-28394.055,3009.465,10287.585
1764769010.2650352,5228.595,2434.995,-30800.97,-8512.83,-8161.514999999999,-28415.34,3006.135,10293.255
1764769010.2650352,5225.804999999999,2446.875,-30785.625,-8498.835,-8153.28,-28412.37,3006.18,10287.54
1764769010.2650352,5205.645,2453.76,-30783.42,-8498.789999999999,-8152.335,-28408.005,3004.065,10275.435
1764769010.2650352,5247.405,2461.23,-30789.36,-8505.945,-8160.66,-28416.465,3004.785,10304.55
1764769010.2650352,5232.69,2450.115,-30793.905,-8503.244999999999,-8151.705,-28403.865,3011.355,10297.035
1764769010.2650352,5244.705,2465.595,-30782.88,-8494.38,-8144.82,-28397.205,3020.355,10306.215
1764769010.2650352,5243.58,2453.265,-30785.265,-8499.69,-8152.785,-28406.97,3009.78,10292.265
1764769010.2650352,5235.255,2456.055,-30777.39,-8491.095,-8146.394999999999,-28403.145,3010.05,10287.495
1764769010.2650352,5218.695,2447.235,-30784.5,-8497.529999999999,-8149.95,-28404.18,3016.44,10303.11
1764769010.3111122,5242.905,2458.665,-30786.03,-8501.535,-8155.44,-28410.03,3011.58,10304.505
1764769010.3111122,5236.785,2453.85,-30781.71,-8492.895,-8143.605,-28395.72,3021.48,10307.97
1764769010.3111122,5240.655,2461.32,-30776.22,-8488.8,-8141.58,-28396.26,3018.555,10304.91
1764769010.3111122,5253.075,2471.895,-30769.38,-8483.49,-8137.08,-28391.535,3025.305,10314.36
1764769010.3111122,5252.31,2468.385,-30773.34,-8487.045,-8140.724999999999,-28393.875,3023.325,10312.47
1764769010.3111122,5250.554999999999,2466.45,-30774.735,-8488.35,-8140.59,-28393.74,3022.92,10310.625
1764769010.3111122,5252.175,2469.105,-30770.73,-8484.93,-8138.745,-28393.29,3025.485,10312.83
1764769010.3111122,5237.054999999999,2457.315,-30783.555,-8497.485,-8151.974999999999,-28407.015,3012.21,10297.8
1764769010.3111122,5236.155,2464.65,-30777.03,-8491.455,-8146.215,-28402.47,3012.84,10296.81
1764769010.3111122,5241.465,2466.54,-30779.775,-8494.56,-8147.384999999999,-28402.155,3012.165,10295.91
1764769010.3111122,5230.304999999999,2448.585,-30787.02,-8500.41,-8150.849999999999,-28404.585,3014.64,10300.5
1764769010.3111122,5244.255,2450.97,-30789.54,-8503.154999999999,-8154.855,-28409.85,3009.195,10301.715
1764769010.3111122,5237.145,2449.845,-30790.665,-8503.74,-8155.259999999999,-28410.705,3006.36,10294.875
1764769010.311623,5226.525,2440.71,-30800.745,-8513.414999999999,-8166.24,-28420.155,2997.405,10283.445
1764769010.311623,5221.395,2438.955,-30801.6,-8511.435,-8161.83,-28413.99,2998.755,10279.08
1764769010.311623,5221.304999999999,2452.86,-30789.63,-8502.255,-8154.674999999999,-28408.95,2999.385,10273.95
1764769010.311623,5252.355,2463.795,-30791.61,-8505.404999999999,-8153.415,-28404.765,3013.335,10306.62
1764769010.311623,5245.74,2449.17,-30805.065,-8513.19,-8156.835,-28404.855,3018.96,10310.31
1764769010.311623,5235.12,2449.98,-30786.525,-8495.505,-8150.04,-28405.845,3012.345,10301.085
1764769010.311623,5237.235,2451.555,-30777.885,-8493.164999999999,-8153.91,-28413.99,3003.345,10296.495
1764769010.3576438,5228.145,2443.635,-30792.69,-8506.664999999999,-8162.28,-28419.66,3000.06,10287.585
1764769010.3576438,5223.51,2438.685,-30800.52,-8513.324999999999,-8168.174999999999,-28424.295,2995.245,10281.375
1764769010.3576438,5227.2,2440.755,-30799.215,-8512.244999999999,-8167.59,-28423.89,2996.955,10283.355
1764769010.3576438,5225.445,2439.18,-30800.16,-8512.74,-8168.535,-28425.06,2994.345,10280.655
1764769010.3576438,5216.264999999999,2437.245,-30799.215,-8508.824999999999,-8163.179999999999,-28419.525,2994.66,10273.41
1764769010.3586483,5216.04,2456.325,-30784.59,-8495.955,-8150.219999999999,-28406.205,2994.075,10255.455
1764769010.3586483,5239.935,2481.345,-30771.45,-8488.44,-8144.415,-28397.34,3003.525,10273.545
1764769010.3586483,5233.5,2421.855,-30829.905,-8538.795,-8181.09,-28425.195,3011.445,10312.785
1764769010.3586483,5232.105,2424.645,-30829.815,-8536.5,-8184.24,-28435.77,3000.555,10299.51
1764769010.3586483,5232.15,2435.535,-30798.81,-8510.715,-8169.03,-28426.185,2995.335,10284.3
1764769010.3586483,5248.304999999999,2454.885,-30779.865,-8492.265,-8150.49,-28407.015,3001.77,10287.045
1764769010.3586483,5228.37,2446.02,-30788.82,-8499.869999999999,-8156.205,-28412.01,3006.36,10293.57
1764769010.3586483,5227.38,2435.625,-30803.265,-8516.88,-8174.969999999999,-28432.26,2994.435,10289.52
1764769010.3586483,5236.38,2445.84,-30796.38,-8509.904999999999,-8167.094999999999,-28424.925,2998.17,10291.005
1764769010.3586483,5234.985,2445.885,-30796.74,-8509.365,-8166.24,-28421.325,2998.53,10289.61
1764769010.3586483,5232.51,2443.995,-30797.73,-8511.615,-8168.4,-28422.855,2997.36,10287.36
1764769010.3586483,5249.835,2461.68,-30781.17,-8496.27,-8151.165,-28404.0,3015.27,10305.855
1764769010.3586483,5249.97,2461.545,-30781.98,-8495.505,-8148.69,-28400.355,3018.42,10307.745
1764769010.3586483,5239.349999999999,2453.76,-30787.47,-8500.949999999999,-8157.735,-28413.72,3007.71,10296.9
1764769010.3586483,5239.304999999999,2454.21,-30787.02,-8501.445,-8159.13,-28415.745,3007.26,10296.27
1764769010.3586483,5245.47,2458.26,-30782.97,-8497.305,-8153.865,-28407.96,3012.345,10301.58
1764769010.3586483,5245.695,2457.81,-30783.42,-8497.755,-8154.809999999999,-28408.77,3011.31,10300.905
1764769010.3586483,5245.875,2458.035,-30782.295,-8495.865,-8154.09,-28407.465,3011.985,10300.77
1764769010.3586483,5238.179999999999,2453.445,-30786.795,-8499.6,-8158.23,-28412.37,3006.99,10292.94
1764769010.3586483,5239.665,2456.28,-30781.485,-8493.345,-8152.38,-28405.62,3011.04,10297.485
1764769010.3586483,5248.485,2454.66,-30785.535,-8498.07,-8155.844999999999,-28407.15,3012.03,10303.02
1764769010.4053247,5257.665,2459.385,-30781.755,-8493.795,-8152.155,-28404.18,3016.845,10310.355
1764769010.4053247,5264.955,2457.135,-30784.23,-8495.414999999999,-8153.505,-28405.665,3017.115,10312.65
1764769010.4053247,5214.06,2455.605,-30777.39,-8487.09,-8143.245,-28392.615,3017.52,10281.51
1764769010.4053247,5251.86,2467.53,-30777.885,-8492.715,-8157.554999999999,-28412.235,3010.68,10307.7
1764769010.4053247,5248.98,2454.03,-30778.965,-8487.855,-8151.66,-28404.27,3014.1,10307.07
1764769010.4053247,5253.795,2461.635,-30774.24,-8482.86,-8148.42,-28400.4,3011.58,10302.075
1764769010.4053247,5240.16,2450.745,-30784.68,-8491.545,-8157.87,-28408.59,3010.455,10295.235
1764769010.4053247,5228.325,2431.17,-30805.155,-8509.77,-8177.49,-28426.185,2998.08,10288.98
1764769010.4053247,5233.32,2439.9,-30799.71,-8503.199999999999,-8172.09,-28420.695,2998.08,10286.55
1764769010.4053247,5252.445,2461.59,-30784.455,-8487.81,-8155.755,-28405.215,3010.095,10301.085
1764769010.4053247,5265.405,2469.285,-30775.815,-8475.795,-8140.545,-28387.665,3023.055,10309.095
1764769010.4053247,5255.73,2452.545,-30784.455,-8484.119999999999,-8147.025,-28391.625,3016.665,10294.47
1764769010.4053247,5232.465,2452.185,-30774.915,-8481.15,-8151.615,-28402.695,3018.06,10302.795
1764769010.4058063,5259.78,2469.42,-30770.55,-8480.025,-8151.12,-28405.575,3020.22,10318.5
1764769010.4058063,5246.099999999999,2461.905,-30778.065,-8489.52,-8156.969999999999,-28408.995,3013.47,10304.46
1764769010.4058063,5252.22,2489.49,-30764.7,-8476.02,-8143.559999999999,-28399.095,3013.74,10299.42
1764769010.4058063,5232.195,2446.56,-30778.2,-8479.485,-8137.62,-28389.87,3019.14,10297.665
1764769010.4058063,5254.65,2449.485,-30779.91,-8486.414999999999,-8148.644999999999,-28402.11,3008.88,10294.065
1764769010.4058063,5232.735,2439.63,-30784.86,-8495.64,-8159.894999999999,-28411.74,2999.43,10284.48
1764769010.4058063,5236.335,2428.11,-30798.765,-8504.055,-8164.889999999999,-28415.295,3003.615,10296.945
1764769010.4058063,5256.81,2454.93,-30773.07,-8482.77,-8151.299999999999,-28407.285,3009.645,10306.98
1764769010.4058063,5244.345,2451.195,-30778.155,-8488.35,-8157.465,-28412.955,3002.04,10293.93
1764769010.451757,5246.91,2454.93,-30774.24,-8482.14,-8148.915,-28403.595,3009.555,10299.375
1764769010.451757,5244.525,2450.025,-30778.2,-8485.515,-8149.86,-28403.64,3010.23,10298.43
1764769010.451757,5244.075,2448.855,-30784.86,-8496.27,-8164.394999999999,-28416.825,2999.835,10292.49
1764769010.452762,5246.145,2449.665,-30783.555,-8493.3,-8161.11,-28412.775,3002.085,10294.335
1764769010.452762,5242.635,2445.705,-30786.84,-8495.369999999999,-8162.46,-28413.81,2999.835,10290.51
1764769010.452762,5234.535,2436.525,-30795.615,-8503.875,-8171.415,-28421.505,2992.005,10280.61
1764769010.452762,5243.085,2445.12,-30787.47,-8495.955,-8162.009999999999,-28411.335,2999.655,10289.655
1764769010.452762,5243.535,2444.625,-30788.1,-8496.539999999999,-8160.84,-28409.715,3000.51,10290.33
1764769010.452762,5244.705,2445.39,-30786.255,-8494.515,-8158.32,-28407.24,3002.535,10292.04
1764769010.452762,5244.84,2448.315,-30782.655,-8492.58,-8156.745,-28407.51,3004.11,10292.49
1764769010.452762,5250.285,2454.21,-30782.16,-8492.67,-8153.054999999999,-28406.43,3009.015,10298.475
1764769010.452762,5249.34,2449.845,-30790.845,-8497.44,-8151.615,-28404.18,3013.155,10301.355
1764769010.452762,5231.925,2431.62,-30797.865,-8504.145,-8157.69,-28407.87,3005.73,10286.775
1764769010.452762,5229.045,2440.935,-30781.845,-8499.24,-8166.33,-28421.685,2987.91,10272.96
1764769010.452762,5240.429999999999,2436.975,-30793.905,-8509.095,-8172.45,-28425.825,2992.365,10284.93
1764769010.452762,5248.349999999999,2442.6,-30792.96,-8505.9,-8165.835,-28417.185,2998.8,10290.78
1764769010.452762,5262.435,2462.13,-30777.93,-8491.23,-8156.115,-28412.73,2998.8,10287.63
1764769010.452762,5241.195,2456.235,-30777.75,-8488.845,-8151.705,-28406.295,3004.29,10285.02
1764769010.452762,5239.575,2462.085,-30773.43,-8485.289999999999,-8147.429999999999,-28401.39,3005.28,10280.52
1764769010.452762,5246.01,2455.11,-30778.38,-8489.654999999999,-8152.335,-28407.69,3002.13,10283.85
1764769010.452762,5240.295,2431.755,-30794.94,-8504.955,-8165.115,-28418.13,3005.37,10301.805
1764769010.452762,5244.21,2427.705,-30800.88,-8512.02,-8174.115,-28428.39,2998.755,10301.85
1764769010.452762,5255.235,2430.495,-30804.39,-8515.305,-8177.445,-28432.53,2992.455,10294.785
1764769010.452762,5224.635,2433.285,-30792.33,-8500.005,-8157.195,-28408.545,3003.795,10278.135
1764769010.4987535,5222.115,2433.825,-30797.505,-8509.815,-8172.945,-28427.085,2991.33,10274.67
1764769010.4987535,5242.545,2432.43,-30805.29,-8519.445,-8184.69,-28440.045,2985.075,10283.67
1764769010.4987535,5244.795,2439.72,-30794.13,-8505.225,-8168.94,-28423.44,2995.155,10287.63
1764769010.4987535,5250.06,2445.66,-30789.135,-8500.23,-8163.945,-28418.175,3001.32,10293.795
1764769010.4987535,5251.23,2448.045,-30787.695,-8499.195,-8161.83,-28415.79,3003.885,10295.64
1764769010.4987535,5241.87,2439.81,-30796.155,-8507.654999999999,-8169.974999999999,-28423.665,2996.01,10286.37
1764769010.4987535,5249.429999999999,2448.315,-30787.245,-8498.16,-8159.355,-28413.945,3003.525,10295.37
1764769010.4987535,5250.554999999999,2450.16,-30785.715,-8496.36,-8157.014999999999,-28411.605,3004.965,10296.81
1764769010.4987535,5253.345,2450.97,-30787.785,-8497.395,-8155.53,-28406.745,3011.31,10302.255
1764769010.4987535,5254.2,2452.185,-30786.525,-8496.855,-8157.24,-28410.165,3009.195,10301.22
1764769010.4987535,5249.835,2449.53,-30788.19,-8498.925,-8163.405,-28421.505,3001.905,10294.29
1764769010.4987535,5256.36,2461.86,-30776.85,-8487.539999999999,-8154.36,-28413.9,3007.8,10299.195
1764769010.4987535,5252.13,2453.445,-30780.855,-8489.295,-8153.009999999999,-28408.005,3012.075,10299.735
1764769010.4987535,5255.46,2449.08,-30790.44,-8498.97,-8161.83,-28416.42,3006.18,10297.305
1764769010.4987535,5270.49,2473.335,-30776.715,-8489.88,-8154.99,-28411.515,3013.11,10308.33
1764769010.4987535,5258.97,2459.52,-30786.975,-8497.619999999999,-8160.389999999999,-28417.275,3008.835,10300.86
1764769010.4987535,5250.735,2443.995,-30780.63,-8487.63,-8147.025,-28402.335,3013.335,10301.085
1764769010.4987535,5253.165,2450.115,-30777.255,-8487.494999999999,-8148.285,-28403.46,3013.11,10300.995
1764769010.4987535,5250.645,2447.505,-30790.305,-8502.3,-8161.74,-28415.34,3005.28,10294.245
1764769010.4987535,5256.36,2451.555,-30796.515,-8506.08,-8160.795,-28413.09,3007.125,10295.73
1764769010.4987535,5264.595,2459.655,-30791.52,-8497.17,-8149.905,-28403.91,3008.7,10292.715
1764769010.4987535,5225.085,2436.885,-30782.835,-8488.8,-8144.549999999999,-28396.44,3016.935,10283.805
1764769010.4987535,5244.929999999999,2432.565,-30793.545,-8508.69,-8172.719999999999,-28428.66,3002.13,10296.315
1764769010.4987535,5257.62,2450.565,-30786.57,-8500.14,-8161.605,-28416.465,3006.675,10298.25
1764769010.5460236,5275.26,2472.57,-30765.915,-8479.44,-8144.099999999999,-28402.92,3018.555,10314.09
1764769010.5460236,5276.835,2479.32,-30757.725,-8472.914999999999,-8142.03,-28405.53,3018.15,10314.675
1764769010.5460236,5268.554999999999,2465.685,-30769.56,-8482.14,-8144.549999999999,-28404.27,3019.725,10311.57
1764769010.5460236,5261.76,2456.235,-30777.435,-8488.89,-8149.32,-28407.42,3016.845,10306.53
1764769010.5460236,5264.73,2470.275,-30767.895,-8481.105,-8142.48,-28400.445,3020.355,10306.125
1764769010.5460236,5256.045,2468.97,-30773.43,-8484.795,-8144.505,-28401.075,3015.99,10294.695
1764769010.5460236,5255.73,2442.735,-30793.68,-8503.515,-8165.07,-28420.47,3003.795,10297.935
1764769010.5460236,5258.925,2440.53,-30791.97,-8503.83,-8166.195,-28421.415,3005.055,10301.22
1764769010.5460236,5271.255,2465.505,-30774.015,-8487.449999999999,-8153.054999999999,-28411.245,3007.395,10294.335
1764769010.5460236,5281.514999999999,2469.735,-30766.68,-8478.36,-8138.655,-28392.705,3024.585,10309.005
1764769010.5460236,5262.75,2459.835,-30770.055,-8480.43,-8140.545,-28394.73,3030.75,10323.045
1764769010.5460236,5272.92,2462.355,-30778.83,-8492.265,-8156.115,-28414.665,3014.055,10311.12
1764769010.5460236,5257.215,2447.19,-30786.48,-8497.08,-8158.32,-28412.865,3013.29,10304.37
1764769010.5460236,5266.935,2461.86,-30775.365,-8488.8,-8151.615,-28406.475,3016.17,10310.49
1764769010.5460236,5272.335,2464.965,-30777.345,-8489.61,-8149.139999999999,-28403.145,3020.04,10313.775
1764769010.5460236,5265.945,2455.785,-30781.215,-8490.195,-8149.724999999999,-28405.08,3015.855,10307.835
1764769010.5464015,5252.715,2445.48,-30787.065,-8499.779999999999,-8163.764999999999,-28421.415,2999.295,10291.32
1764769010.5464015,5249.385,2440.305,-30794.085,-8505.99,-8168.715,-28424.025,2996.415,10287.585
1764769010.5464015,5261.175,2452.095,-30784.905,-8496.81,-8159.219999999999,-28413.855,3005.01,10298.34
1764769010.5464015,5255.865,2448.72,-30788.82,-8500.365,-8161.29,-28416.06,3002.985,10294.155
1764769010.5464015,5256.945,2455.245,-30780.315,-8491.365,-8150.219999999999,-28403.82,3011.4,10298.52
1764769010.5464015,5258.07,2452.635,-30786.615,-8500.095,-8158.23,-28409.58,3006.135,10297.395
1764769010.588476,5269.905,2455.515,-30784.59,-8496.539999999999,-8154.134999999999,-28407.555,3015.63,10311.57
1764769010.588476,5262.345,2450.745,-30787.965,-8498.744999999999,-8156.61,-28411.83,3010.05,10303.785
1764769010.588476,5268.69,2452.59,-30780.09,-8492.715,-8153.144999999999,-28407.465,3011.22,10306.305
1764769010.588476,5274.09,2444.4,-30790.17,-8502.029999999999,-8162.775,-28418.13,3003.525,10302.885
1764769010.588476,5226.12,2436.525,-30792.78,-8499.779999999999,-8151.795,-28400.805,3006.54,10271.475
1764769010.588476,5261.264999999999,2446.38,-30799.215,-8509.365,-8166.87,-28420.425,2996.415,10286.415
1764769010.588476,5251.5,2436.795,-30794.22,-8507.295,-8168.13,-28420.83,2995.56,10287.18
1764769010.588476,5239.935,2432.655,-30793.275,-8510.58,-8173.844999999999,-28426.95,2991.285,10287.45
1764769010.588476,5254.02,2450.88,-30784.59,-8499.869999999999,-8160.48,-28414.755,2997.18,10285.335
1764769010.588476,5252.04,2463.705,-30779.91,-8497.08,-8159.804999999999,-28414.98,2993.085,10272.645
1764769010.588476,5256.315,2442.6,-30796.92,-8513.91,-8174.519999999999,-28427.58,2997.585,10296.72
1764769010.588476,5250.014999999999,2421.72,-30808.17,-8520.93,-8176.32,-28427.715,2997.405,10297.53
1764769010.589514,5256.27,2443.815,-30791.79,-8505.99,-8164.215,-28417.77,2997.54,10291.41
1764769010.589514,5259.78,2452.5,-30789.045,-8499.195,-8153.549999999999,-28404.18,3002.805,10284.885
1764769010.589514,5259.06,2454.03,-30783.69,-8499.645,-8161.155,-28417.095,3002.13,10296.855
1764769010.589514,5266.53,2452.5,-30797.595,-8518.23,-8179.965,-28435.59,2997.405,10302.345
1764769010.589514,5271.12,2455.29,-30802.005,-8515.755,-8172.495,-28426.905,3001.275,10301.76
1764769010.589514,5256.585,2432.745,-30789.18,-8499.6,-8156.519999999999,-28410.48,3001.635,10293.435
1764769010.589514,5263.785,2448.63,-30773.7,-8489.475,-8149.5,-28405.62,3007.395,10298.835
1764769010.589514,5254.02,2439.18,-30791.655,-8507.654999999999,-8165.07,-28421.37,2998.71,10288.935
1764769010.589514,5252.22,2440.125,-30796.74,-8515.215,-8172.63,-28429.29,2992.59,10285.38
1764769010.589514,5255.01,2445.345,-30796.11,-8515.395,-8175.465,-28433.79,2989.305,10285.11
1764769010.6354115,5254.785,2438.91,-30794.04,-8510.31,-8166.375,-28423.08,2997.27,10290.465
1764769010.6354115,5248.665,2430.135,-30799.53,-8514.315,-8168.309999999999,-28423.8,2995.245,10285.47
1764769010.6354115,5245.38,2430.72,-30802.995,-8519.22,-8174.61,-28430.955,2990.385,10279.44
1764769010.6354115,5257.08,2448.54,-30792.15,-8506.935,-8163.764999999999,-28421.73,2996.91,10285.785
1764769010.6354115,5249.07,2447.55,-30784.905,-8498.97,-8156.34,-28413.855,2998.26,10280.07
1764769010.6354115,5260.005,2425.725,-30803.265,-8519.715,-8174.655,-28426.23,2996.325,10290.96
1764769010.6354115,5254.695,2451.87,-30786.39,-8499.914999999999,-8151.84,-28405.08,3009.78,10283.805
1764769010.6354115,5264.325,2458.395,-30789.54,-8502.84,-8157.285,-28413.495,3006.855,10295.145
1764769010.6354115,5271.75,2440.575,-30794.13,-8510.985,-8168.264999999999,-28426.23,3006.36,10308.51
1764769010.6354115,5268.825,2446.335,-30781.755,-8501.805,-8163.99,-28424.475,3003.93,10300.545
1764769010.6354115,5278.139999999999,2460.33,-30773.07,-8490.42,-8147.16,-28404.09,3012.885,10305.495
1764769010.6354115,5262.48,2448.945,-30787.92,-8505.539999999999,-8160.075,-28414.755,3007.62,10292.4
1764769010.6354115,5255.55,2438.91,-30803.04,-8520.435,-8175.42,-28430.145,3000.195,10291.32
1764769010.6354115,5270.94,2445.435,-30792.78,-8505.63,-8158.634999999999,-28412.73,3011.49,10302.525
1764769010.6354115,5277.87,2458.53,-30772.755,-8490.465,-8151.344999999999,-28409.715,3014.55,10306.35
1764769010.6354115,5274.179999999999,2458.53,-30773.925,-8491.635,-8150.58,-28407.24,3013.56,10302.345
1764769010.6354115,5278.905,2463.795,-30769.785,-8486.46,-8144.594999999999,-28402.065,3018.06,10306.665
1764769010.6354115,5272.29,2457.405,-30779.325,-8497.98,-8158.815,-28417.815,3008.61,10297.17
1764769010.6354115,5271.57,2451.645,-30785.67,-8502.795,-8160.57,-28418.4,3011.535,10299.195
1764769010.6354115,5283.675,2452.86,-30781.485,-8497.215,-8152.695,-28410.705,3016.395,10308.06
1764769010.6354115,5242.23,2441.205,-30779.64,-8493.164999999999,-8143.965,-28398.015,3017.88,10281.69
1764769010.6354115,5277.645,2461.23,-30775.23,-8496.449999999999,-8156.295,-28416.375,3009.87,10305.54
1764769010.6354115,5287.995,2461.86,-30777.255,-8496.99,-8154.134999999999,-28412.595,3010.32,10304.145
1764769010.6354115,5291.145,2467.44,-30770.055,-8489.295,-8148.509999999999,-28410.705,3007.62,10292.985
1764769010.6828418,5250.87,2443.275,-30785.22,-8503.38,-8160.21,-28417.86,3007.305,10290.87
1764769010.6828418,5269.545,2451.285,-30790.98,-8513.82,-8172.09,-28428.48,3004.29,10302.165
1764769010.6828418,5288.22,2467.62,-30778.965,-8498.34,-8154.179999999999,-28411.92,3017.97,10313.145
1764769010.6828418,5269.32,2449.935,-30782.115,-8498.295,-8154.495,-28413.855,3007.935,10295.325
1764769010.6828418,5252.445,2437.02,-30785.445,-8503.56,-8160.344999999999,-28417.95,3001.905,10286.91
1764769010.6828418,5270.715,2444.265,-30789.855,-8508.15,-8162.594999999999,-28420.155,3006.27,10299.42
1764769010.6828418,5288.535,2460.465,-30773.07,-8491.185,-8145.855,-28405.17,3019.995,10315.44
1764769010.6828418,5288.085,2463.435,-30772.845,-8490.69,-8144.37,-28403.325,3020.58,10314.585
1764769010.6828418,5278.995,2451.825,-30787.695,-8502.3,-8154.224999999999,-28411.065,3014.19,10306.395
1764769010.6828418,5264.55,2440.035,-30790.215,-8509.949999999999,-8168.58,-28425.69,2995.605,10287.585
1764769010.6828418,5260.635,2438.145,-30787.47,-8509.86,-8169.75,-28426.32,2990.52,10282.32
1764769010.6828418,5266.755,2443.725,-30787.65,-8506.574999999999,-8163.045,-28418.535,2999.295,10291.14
1764769010.6828418,5282.19,2458.485,-30776.22,-8494.47,-8150.894999999999,-28407.69,3010.32,10303.065
1764769010.6828418,5293.53,2466.9,-30771.585,-8491.005,-8148.15,-28406.925,3009.015,10300.995
1764769010.6828418,5268.195,2453.175,-30780.0,-8498.744999999999,-8154.269999999999,-28411.92,3009.375,10297.98
1764769010.6828418,5266.125,2446.245,-30785.13,-8503.154999999999,-8157.33,-28413.81,3011.22,10305.045
1764769010.6828418,5279.355,2452.59,-30776.535,-8494.11,-8146.934999999999,-28402.785,3017.07,10309.995
1764769010.6828418,5279.535,2456.685,-30778.02,-8496.315,-8150.849999999999,-28407.24,3013.245,10305.945
1764769010.6828418,5279.804999999999,2455.065,-30779.415,-8497.98,-8152.38,-28407.42,3011.67,10304.235
1764769010.6828418,5275.485,2450.655,-30782.16,-8502.119999999999,-8156.835,-28412.91,3006.585,10299.195
1764769010.6828418,5269.185,2444.445,-30787.29,-8506.619999999999,-8160.615,-28415.385,3002.445,10292.31
1764769010.6838586,5268.69,2456.37,-30779.46,-8498.295,-8151.03,-28404.36,3004.74,10282.545
1764769010.6838586,5280.795,2468.88,-30768.795,-8488.619999999999,-8144.19,-28398.69,3013.02,10299.735
1764769010.6838586,5286.24,2455.605,-30782.97,-8506.035,-8165.7,-28424.475,3007.845,10316.925
1764769010.72982,5281.56,2461.05,-30779.73,-8502.75,-8158.59,-28416.69,3008.16,10304.865
1764769010.72982,5285.16,2471.85,-30775.05,-8493.93,-8145.045,-28400.895,3016.08,10298.295
1764769010.72982,5278.455,2452.77,-30785.58,-8499.96,-8151.12,-28405.98,3017.205,10309.41
1764769010.72982,5274.72,2435.31,-30781.665,-8497.305,-8152.65,-28408.005,3013.92,10312.11
1764769010.72982,5288.895,2459.97,-30766.095,-8483.895,-8139.33,-28394.505,3022.605,10317.42
1764769010.72982,5290.56,2464.2,-30768.39,-8487.045,-8140.905,-28395.675,3021.795,10315.89
1764769010.72982,5288.13,2459.295,-30776.715,-8494.02,-8146.665,-28401.03,3016.485,10309.995
1764769010.72982,5296.455,2470.41,-30770.145,-8493.57,-8153.549999999999,-28408.59,3010.815,10310.985
1764769010.72982,5284.935,2453.985,-30775.365,-8492.67,-8147.295,-28400.67,3014.64,10307.61
1764769010.72982,5277.735,2460.285,-30774.87,-8494.92,-8152.875,-28410.21,3004.11,10292.67
1764769010.72982,5271.66,2451.105,-30775.815,-8493.795,-8148.105,-28402.2,3015.675,10304.55
1764769010.72982,5288.535,2452.77,-30776.715,-8496.945,-8152.38,-28407.87,3013.38,10311.66
1764769010.72982,5287.545,2457.585,-30775.77,-8496.18,-8151.705,-28407.825,3010.32,10306.395
1764769010.72982,5285.655,2454.795,-30779.055,-8497.89,-8152.469999999999,-28409.04,3006.81,10296.9
1764769010.72982,5266.035,2442.6,-30787.29,-8505.0,-8158.634999999999,-28413.63,2997.36,10277.46
1764769010.72982,5260.32,2435.265,-30790.98,-8508.869999999999,-8160.75,-28411.065,3004.02,10290.87
1764769010.72982,5275.62,2448.135,-30791.34,-8512.74,-8165.565,-28416.195,3005.82,10304.46
1764769010.72982,5292.764999999999,2461.005,-30795.48,-8515.89,-8165.79,-28416.915,3006.675,10311.435
1764769010.72982,5284.935,2448.27,-30794.31,-8509.904999999999,-8157.15,-28408.68,3009.51,10306.08
1764769010.72982,5270.175,2432.7,-30788.73,-8510.355,-8166.465,-28420.83,2995.74,10290.105
1764769010.72982,5275.035,2447.28,-30776.94,-8501.85,-8159.219999999999,-28413.99,3001.77,10296.495
1764769010.72982,5271.885,2443.23,-30785.58,-8508.555,-8167.094999999999,-28426.455,2995.65,10290.465
1764769010.72982,5270.535,2442.285,-30786.03,-8509.86,-8168.264999999999,-28427.22,2990.655,10285.47
1764769010.72982,5276.7,2448.99,-30784.14,-8508.24,-8161.019999999999,-28413.81,2995.875,10287.405
1764769010.7759907,5279.264999999999,2451.42,-30790.26,-8513.414999999999,-8161.83,-28409.895,3012.75,10301.355
1764769010.7759907,5276.61,2440.035,-30796.47,-8518.59,-8172.764999999999,-28428.075,3000.735,10297.71
1764769010.7759907,5272.425,2441.16,-30777.615,-8501.76,-8163.134999999999,-28424.52,2994.255,10288.755
1764769010.7759907,5287.41,2457.27,-30769.56,-8494.605,-8152.875,-28411.065,3007.44,10302.615
1764769010.7759907,5288.67,2457.81,-30772.845,-8497.529999999999,-8154.405,-28410.165,3010.005,10305.09
1764769010.7759907,5277.105,2455.47,-30777.03,-8501.985,-8160.255,-28417.68,3001.995,10295.055
1764769010.7759907,5282.505,2462.265,-30770.415,-8497.35,-8156.519999999999,-28415.205,3004.605,10299.33
1764769010.7759907,5285.16,2445.885,-30783.195,-8507.115,-8160.57,-28414.665,3006.585,10301.76
1764769010.7759907,5286.599999999999,2452.05,-30776.76,-8500.05,-8153.775,-28407.78,3010.185,10304.64
1764769010.7759907,5290.065,2458.26,-30773.385,-8497.89,-8153.415,-28406.925,3011.175,10306.71
1764769010.7759907,5288.22,2455.695,-30775.545,-8500.5,-8156.205,-28410.57,3007.08,10302.12
1764769010.7759907,5289.03,2458.125,-30773.385,-8499.645,-8156.384999999999,-28411.02,3006.405,10301.67
1764769010.7759907,5286.554999999999,2452.32,-30781.035,-8505.494999999999,-8159.445,-28411.29,3005.28,10300.095
1764769010.7759907,5280.795,2443.905,-30788.775,-8513.19,-8164.755,-28413.675,3002.31,10295.01
1764769010.777164,5281.605,2443.86,-30790.62,-8512.244999999999,-8161.92,-28411.47,3005.01,10297.395
1764769010.777164,5277.87,2446.155,-30782.745,-8506.71,-8160.299999999999,-28414.305,3000.915,10292.76
1764769010.777164,5276.88,2449.17,-30778.515,-8503.875,-8158.905,-28413.63,2997.495,10285.11
1764769010.777164,5304.15,2465.505,-30773.115,-8501.13,-8157.014999999999,-28411.38,2999.07,10290.51
1764769010.777164,5285.79,2451.195,-30788.82,-8512.11,-8160.255,-28409.22,3012.615,10304.01
1764769010.777164,5274.179999999999,2431.17,-30802.725,-8520.255,-8164.62,-28411.74,3010.005,10308.105
1764769010.777164,5275.17,2438.145,-30787.155,-8512.065,-8165.34,-28416.645,2999.925,10295.145
1764769010.777164,5276.835,2443.725,-30787.92,-8519.13,-8178.884999999999,-28434.06,2983.185,10276.83
1764769010.777164,5283.585,2445.075,-30795.48,-8522.01,-8177.94,-28432.035,2981.655,10272.555
1764769010.777164,5266.08,2436.255,-30792.195,-8515.664999999999,-8167.769999999999,-28417.905,2997.27,10288.35
1764769010.8231535,5275.889999999999,2436.03,-30791.115,-8513.505,-8166.554999999999,-28416.105,2999.97,10297.935
1764769010.8231535,5277.554999999999,2442.735,-30790.485,-8514.18,-8168.355,-28419.795,2995.155,10290.6
1764769010.8231535,5273.73,2440.08,-30793.77,-8517.24,-8170.965,-28422.405,2992.68,10287.045
1764769010.8231535,5279.76,2445.3,-30788.46,-8510.94,-8164.304999999999,-28415.34,2998.485,10293.795
1764769010.8231535,5273.639999999999,2438.73,-30794.625,-8517.96,-8171.73,-28422.765,2992.59,10286.955
1764769010.8231535,5274.36,2440.485,-30794.58,-8518.23,-8171.144999999999,-28421.82,2994.165,10286.73
1764769010.8231535,5275.304999999999,2449.935,-30786.075,-8507.34,-8156.79,-28407.15,3001.905,10283.085
1764769010.8231535,5273.37,2454.3,-30776.67,-8493.975,-8140.679999999999,-28391.265,3007.395,10279.8
1764769010.8231535,5288.67,2447.01,-30785.895,-8511.164999999999,-8165.655,-28416.42,3001.725,10304.235
1764769010.8231535,5299.875,2450.52,-30786.525,-8511.255,-8163.855,-28413.135,3010.095,10316.52
1764769010.8236704,5299.425,2460.645,-30778.065,-8500.815,-8151.255,-28399.68,3016.17,10313.235
1764769010.8236704,5287.679999999999,2450.7,-30785.895,-8506.98,-8157.014999999999,-28407.06,3008.52,10302.48
1764769010.8236704,5280.345,2440.215,-30792.915,-8515.755,-8167.905,-28420.74,2996.235,10291.635
1764769010.8236704,5301.54,2446.695,-30790.17,-8514.045,-8166.644999999999,-28421.1,2998.98,10303.74
1764769010.8236704,5261.67,2446.245,-30783.375,-8505.494999999999,-8154.99,-28407.51,3003.03,10277.235
1764769010.8236704,5286.69,2481.3,-30767.805,-8495.145,-8152.38,-28409.76,3000.96,10283.355
1764769010.8236704,5277.33,2460.24,-30778.74,-8500.185,-8153.775,-28408.995,3003.66,10286.235
1764769010.8236704,5281.695,2424.96,-30798.495,-8518.23,-8168.849999999999,-28419.93,3006.045,10308.33
1764769010.8236704,5298.57,2452.86,-30788.415,-8511.57,-8163.63,-28415.205,3002.445,10296.72
1764769010.8236704,5280.389999999999,2462.67,-30772.395,-8492.94,-8142.795,-28392.165,3014.01,10290.87
1764769010.8236704,5305.41,2450.745,-30780.135,-8500.14,-8154.36,-28408.275,3016.17,10323.0
1764769010.8236704,5303.025,2452.32,-30786.75,-8508.465,-8158.275,-28409.67,3014.235,10316.16
1764769010.870262,5302.62,2461.455,-30791.565,-8512.289999999999,-8157.78,-28408.905,3016.26,10314.045
1764769010.8707736,5303.34,2454.885,-30790.71,-8508.33,-8154.719999999999,-28407.645,3016.62,10313.865
1764769010.8707736,5288.355,2440.755,-30788.73,-8507.61,-8157.87,-28412.28,3005.775,10299.6
1764769010.8707736,5288.13,2446.695,-30790.98,-8511.57,-8163.495,-28418.67,3000.78,10295.955
1764769010.8707736,5298.3,2464.695,-30774.33,-8499.69,-8155.98,-28412.865,3006.09,10302.39
1764769010.8707736,5290.335,2464.425,-30774.465,-8499.645,-8156.79,-28414.215,3005.19,10297.17
1764769010.8707736,5300.82,2453.13,-30779.37,-8496.63,-8150.355,-28404.855,3014.73,10310.085
1764769010.8707736,5300.099999999999,2452.41,-30773.88,-8494.289999999999,-8151.929999999999,-28408.815,3010.545,10306.845
1764769010.8707736,5296.724999999999,2456.505,-30776.355,-8498.43,-8156.115,-28413.225,3008.385,10302.39
1764769010.8707736,5289.435,2447.685,-30787.605,-8508.195,-8161.695,-28416.645,3006.63,10296.81
1764769010.8707736,5295.78,2454.12,-30781.485,-8503.11,-8155.755,-28411.065,3011.67,10303.56
1764769010.8707736,5294.79,2454.57,-30778.065,-8498.699999999999,-8153.054999999999,-28409.31,3009.285,10301.94
1764769010.8707736,5299.245,2457.765,-30774.825,-8495.73,-8151.255,-28407.69,3006.675,10300.365
1764769010.8707736,5292.27,2453.445,-30780.09,-8501.085,-8155.844999999999,-28410.84,3007.62,10294.155
1764769010.8707736,5276.61,2433.96,-30799.26,-8521.11,-8177.445,-28433.43,2996.28,10288.08
1764769010.8707736,5275.035,2430.585,-30802.59,-8525.34,-8182.349999999999,-28438.425,2986.335,10279.485
1764769010.8707736,5279.985,2440.08,-30794.58,-8517.69,-8175.599999999999,-28431.99,2989.98,10283.04
1764769010.8707736,5270.264999999999,2437.83,-30796.785,-8518.68,-8176.545,-28433.52,2986.92,10275.795
1764769010.8707736,5276.07,2428.38,-30799.44,-8520.345,-8175.735,-28430.01,2991.015,10281.285
1764769010.8707736,5268.69,2418.84,-30812.715,-8535.06,-8189.594999999999,-28444.185,2981.205,10271.385
1764769010.8707736,5264.28,2420.235,-30811.815,-8534.115,-8189.19,-28444.23,2978.82,10268.505
1764769010.8707736,5262.705,2420.235,-30813.48,-8535.914999999999,-8191.62,-28446.435,2976.12,10267.155
1764769010.9172645,5266.755,2424.285,-30813.57,-8536.005,-8191.889999999999,-28445.4,2979.27,10270.26
1764769010.9172645,5268.599999999999,2425.815,-30811.545,-8532.855,-8188.65,-28441.44,2980.125,10271.295
1764769010.9172645,5270.22,2425.455,-30802.635,-8524.529999999999,-8180.82,-28434.42,2983.68,10274.445
1764769010.9172645,5265.135,2423.16,-30806.865,-8527.32,-8182.62,-28435.32,2983.05,10269.45
1764769010.9172645,5271.165,2433.555,-30796.695,-8518.77,-8174.384999999999,-28426.545,2988.585,10274.4
1764769010.9172645,5290.335,2440.035,-30793.995,-8516.744999999999,-8169.974999999999,-28420.38,2998.305,10290.825
1764769010.9172645,5289.075,2439.9,-30792.24,-8515.98,-8168.94,-28421.145,2999.295,10291.455
1764769010.9172645,5274.585,2430.405,-30801.645,-8526.105,-8178.84,-28431.63,2987.415,10276.83
1764769010.9172645,5276.295,2429.595,-30803.4,-8525.34,-8175.644999999999,-28427.715,2992.41,10280.835
1764769010.9172645,5284.62,2439.405,-30799.305,-8521.83,-8173.035,-28427.085,2996.685,10287.9
1764769010.9172645,5275.53,2429.28,-30810.33,-8530.605,-8178.705,-28430.505,2993.04,10281.735
1764769010.9172645,5276.655,2427.39,-30798.765,-8523.404999999999,-8174.474999999999,-28424.97,2992.32,10281.96
1764769010.9172645,5273.595,2430.54,-30791.79,-8520.21,-8174.79,-28428.03,2986.47,10274.85
1764769010.9172645,5286.195,2437.155,-30792.375,-8515.619999999999,-8164.62,-28414.08,3000.195,10287.18
1764769010.9172645,5309.685,2451.42,-30788.865,-8512.695,-8163.585,-28413.18,3002.445,10292.22
1764769010.9172645,5293.755,2450.745,-30780.855,-8507.835,-8164.665,-28416.51,3002.085,10292.13
1764769010.9172645,5291.46,2447.19,-30779.325,-8506.89,-8163.09,-28415.16,3005.505,10301.985
1764769010.9172645,5292.63,2444.58,-30786.255,-8512.74,-8164.98,-28415.745,3001.23,10294.515
1764769010.9172645,5285.835,2435.715,-30797.505,-8524.26,-8176.5,-28428.12,2989.89,10281.015
1764769010.9172645,5301.9,2445.84,-30797.64,-8526.69,-8181.269999999999,-28435.14,2981.79,10272.96
1764769010.9182703,5274.585,2432.25,-30800.115,-8525.25,-8174.655,-28423.755,2994.03,10278.855
1764769010.9182703,5287.995,2425.095,-30802.59,-8527.5,-8174.474999999999,-28421.19,3000.555,10303.56
1764769010.9182703,5278.23,2427.255,-30798.585,-8522.775,-8168.985,-28416.735,2994.345,10279.89
1764769010.9182703,5264.37,2439.0,-30784.545,-8510.49,-8162.505,-28414.44,2993.67,10273.995
1764769010.9614885,5301.224999999999,2449.17,-30792.6,-8522.82,-8177.49,-28430.415,2989.98,10295.775
1764769010.9614885,5295.195,2447.64,-30795.525,-8524.08,-8175.78,-28427.67,2992.68,10289.07
1764769010.9614885,5292.99,2458.935,-30775.815,-8502.164999999999,-8153.865,-28406.61,2999.655,10284.165
1764769010.9614885,5275.44,2438.235,-30783.645,-8508.555,-8157.465,-28407.105,2997.0,10271.655
1764769010.9614885,5279.76,2425.68,-30800.475,-8528.535,-8179.019999999999,-28428.93,2985.975,10276.605
1764769010.9614885,5272.335,2415.96,-30808.98,-8536.68,-8185.365,-28433.52,2990.07,10287.72
1764769010.9614885,5295.465,2436.48,-30801.42,-8532.045,-8184.87,-28435.005,2988.9,10292.805
1764769010.9614885,5294.52,2448.45,-30791.52,-8522.279999999999,-8174.07,-28423.8,2992.5,10285.515
1764769010.9614885,5274.27,2439.405,-30792.15,-8521.47,-8172.585,-28423.845,2983.23,10264.185
1764769010.9614885,5282.145,2429.505,-30803.04,-8533.89,-8186.085,-28436.49,2977.335,10275.93
1764769010.9614885,5288.76,2423.025,-30815.325,-8545.815,-8192.925,-28437.525,2983.995,10285.92
1764769010.9630096,5292.945,2432.88,-30813.39,-8538.164999999999,-8176.32,-28417.455,2993.535,10281.465
1764769010.9630096,5291.325,2437.2,-30811.905,-8531.64,-8166.915,-28407.555,2997.045,10278.18
1764769010.9630096,5275.035,2416.455,-30812.13,-8540.865,-8190.269999999999,-28436.985,2983.095,10281.915
1764769010.9630096,5284.62,2428.38,-30799.215,-8532.675,-8187.12,-28440.225,2981.655,10283.175
1764769010.9630096,5276.429999999999,2419.515,-30806.19,-8534.52,-8188.38,-28442.835,2975.76,10271.07
1764769010.9630096,5267.205,2410.74,-30804.435,-8533.98,-8188.38,-28440.855,2971.71,10262.925
1764769010.9630096,5278.23,2422.53,-30804.075,-8534.88,-8185.455,-28434.465,2979.99,10272.825
1764769010.9630096,5274.855,2421.54,-30808.665,-8539.92,-8191.304999999999,-28441.26,2973.69,10266.57
1764769010.9630096,5269.59,2421.405,-30804.795,-8534.97,-8189.28,-28441.395,2969.325,10261.26
1764769010.9630096,5276.16,2421.18,-30802.635,-8531.1,-8183.34,-28431.945,2977.605,10270.035
1764769010.9630096,5280.435,2421.225,-30805.695,-8533.935,-8182.844999999999,-28430.055,2980.44,10273.86
1764769010.9630096,5288.625,2433.33,-30796.38,-8526.69,-8177.219999999999,-28425.96,2986.425,10282.095
1764769010.9630096,5287.005,2433.42,-30796.29,-8527.095,-8176.365,-28425.33,2987.865,10282.005
1764769011.0089247,5282.595,2430.855,-30799.035,-8531.865,-8181.495,-28430.865,2984.985,10277.685
1764769011.0089247,5283.27,2431.53,-30800.565,-8532.63,-8180.415,-28428.705,2987.505,10279.485
1764769011.0094297,5284.17,2429.01,-30802.995,-8530.965,-8177.04,-28425.645,2990.07,10281.555
1764769011.0094297,5283.045,2429.505,-30799.215,-8529.255,-8180.054999999999,-28430.505,2985.12,10277.73
1764769011.0094297,5280.705,2429.145,-30802.77,-8531.73,-8180.37,-28428.615,2984.13,10276.425
1764769011.0094297,5282.955,2437.29,-30794.31,-8522.55,-8172.269999999999,-28421.955,2987.1,10279.62
1764769011.0094297,5294.474999999999,2431.485,-30801.24,-8529.615,-8177.625,-28426.365,2984.22,10280.475
1764769011.0094297,5299.335,2443.05,-30788.73,-8516.744999999999,-8165.835,-28414.125,2997.405,10287.045
1764769011.0094297,5296.005,2440.71,-30787.965,-8517.465,-8167.905,-28416.51,3004.11,10298.655
1764769011.0094297,5294.295,2439.81,-30793.5,-8523.494999999999,-8174.429999999999,-28424.88,2995.335,10290.69
1764769011.0094297,5296.275,2443.185,-30789.63,-8519.805,-8170.335,-28420.515,2998.125,10293.66
1764769011.0094297,5302.71,2449.08,-30783.06,-8513.01,-8161.605,-28411.785,3004.605,10299.87
1764769011.0094297,5306.355,2452.77,-30780.675,-8510.535,-8159.94,-28412.235,3006.495,10301.94
1764769011.0094297,5310.135,2457.585,-30777.255,-8507.16,-8156.79,-28408.95,3011.445,10305.945
1764769011.0094297,5305.679999999999,2451.51,-30782.07,-8508.015,-8152.92,-28403.82,3015.495,10304.1
1764769011.0094297,5295.195,2451.51,-30778.515,-8508.914999999999,-8159.985,-28412.73,3003.21,10288.89
1764769011.0094297,5313.78,2454.21,-30781.575,-8511.84,-8160.344999999999,-28409.715,3009.105,10304.865
1764769011.0094297,5336.054999999999,2449.71,-30789.315,-8516.565,-8161.875,-28410.525,3013.155,10320.255
1764769011.0099485,5294.295,2447.955,-30782.295,-8505.18,-8145.405,-28393.605,3019.86,10296.585
1764769011.0099485,5289.615,2447.595,-30790.62,-8519.445,-8168.13,-28420.83,2999.88,10290.69
1764769011.0099485,5309.054999999999,2451.015,-30785.895,-8520.615,-8173.304999999999,-28425.24,2998.62,10300.545
1764769011.0099485,5306.4,2449.125,-30778.38,-8508.824999999999,-8159.625,-28411.335,3007.845,10302.165
1764769011.0099485,5304.96,2451.105,-30781.71,-8514.404999999999,-8169.66,-28425.78,2999.835,10296.18
1764769011.0099485,5311.08,2451.33,-30784.59,-8517.195,-8170.424999999999,-28424.115,2998.665,10293.03
1764769011.0551553,5323.679999999999,2463.885,-30774.465,-8506.305,-8158.005,-28410.705,3006.27,10298.7
1764769011.0556798,5302.845,2454.21,-30778.155,-8509.5,-8159.625,-28411.785,3011.715,10308.06
1764769011.0556798,5324.355,2463.705,-30781.17,-8515.125,-8167.679999999999,-28421.955,3005.055,10307.835
