Timestamp,Channel1,Channel2,Channel3,Channel4,Channel5,Channel6,Channel7,Channel8
1764768150.6492145,7788.78,258.885,-33267.51,-11367.54,-8797.005,-27706.095,1381.5449999999998,9631.395
1764768150.6492145,7782.705,252.72,-33272.01,-11371.725,-8802.494999999999,-27713.25,1374.84,9624.195
1764768150.6492145,7769.835,240.03,-33284.88,-11383.65,-8812.935,-27723.24,1363.05,9610.83
1764768150.6492145,7770.285,241.515,-33284.34,-11382.795,-8810.19,-27719.595,1363.77,9612.18
1764768150.6492145,7783.469999999999,255.87,-33270.39,-11368.53,-8795.52,-27705.555,1376.28,9626.355
1764768150.6492145,7786.125,259.065,-33267.78,-11365.605,-8792.19,-27702.945,1380.465,9629.685
1764768150.6492145,7781.4,253.935,-33272.19,-11370.33,-8797.14,-27708.48,1377.495,9624.96
1764768150.6492145,7785.36,257.13,-33268.86,-11366.46,-8793.315,-27703.8,1382.13,9629.19
1764768150.6492145,7793.639999999999,265.725,-33260.22,-11358.18,-8786.475,-27696.78,1389.735,9638.37
1764768150.6492145,7789.545,261.18,-33264.494999999995,-11362.725,-8792.145,-27703.35,1384.9199999999998,9633.6
1764768150.6492145,7788.509999999999,260.01,-33265.305,-11363.265,-8793.18,-27702.855,1383.435,9631.8
1764768150.6492145,7785.945,257.04,-33267.78,-11365.47,-8794.395,-27703.395,1380.51,9629.01
1764768150.6492145,7785.045,256.905,-33269.22,-11366.82,-8795.43,-27704.025,1378.215,9628.155
1764768150.6492145,7785.764999999999,257.85,-33268.725,-11366.595,-8795.16,-27705.465,1379.205,9628.785
1764768150.6492145,7780.139999999999,252.585,-33274.395,-11372.04,-8801.685,-27712.98,1375.965,9624.24
1764768150.6492145,7782.75,254.655,-33271.74,-11369.565,-8797.77,-27709.02,1379.16,9626.805
1764768150.6492145,7793.415,265.86,-33261.119999999995,-11359.395,-8785.98,-27696.645,1389.195,9636.795
1764768150.6492145,7792.155,265.23,-33261.435,-11359.755,-8786.88,-27697.005,1389.285,9636.345
1764768150.6492145,7794.585,266.355,-33259.86,-11358.36,-8785.664999999999,-27696.015,1389.195,9638.505
1764768150.6492145,7777.575,248.4,-33277.14,-11376.585,-8804.115,-27714.06,1371.78,9620.46
1764768150.6492145,7775.28,246.465,-33279.255,-11378.295,-8805.465,-27716.22,1368.1799999999998,9616.455
1764768150.6492145,7780.815,251.955,-33273.99,-11372.265,-8798.22,-27709.695,1372.5449999999998,9622.305
1764768150.6492145,7774.605,244.755,-33281.19,-11378.925,-8804.789999999999,-27716.715,1366.875,9615.87
1764768150.6492145,7777.304999999999,247.545,-33278.58,-11376.63,-8800.92,-27711.495,1371.195,9618.705
1764768150.6945825,7785.719999999999,255.6,-33270.345,-11369.475,-8793.539999999999,-27704.34,1379.475,9627.3
1764768150.6945825,7780.139999999999,249.66,-33276.42,-11375.64,-8801.279999999999,-27713.97,1374.12,9621.36
1764768150.6945825,7785.405,255.42,-33271.335,-11371.545,-8799.164999999999,-27714.33,1377.81,9627.435
1764768150.6945825,7786.53,256.5,-33269.76,-11370.375,-8801.145,-27715.995,1378.3049999999998,9628.065
1764768150.6945825,7786.53,257.31,-33268.545,-11368.44,-8798.49,-27709.785,1379.385,9627.57
1764768150.6945825,7774.335,243.585,-33281.145,-11380.995,-8809.02,-27719.46,1366.65,9613.755
1764768150.6945825,7778.969999999999,247.815,-33276.825,-11375.37,-8802.72,-27711.9,1370.61,9618.3
1764768150.6945825,7774.74,244.125,-33280.38,-11378.25,-8805.24,-27715.005,1368.945,9614.25
1764768150.6945825,7785.495,254.88,-33271.515,-11368.305,-8794.755,-27702.27,1380.78,9626.67
1764768150.695105,7792.469999999999,262.935,-33263.955,-11361.915,-8787.42,-27696.735,1388.385,9634.95
1764768150.695105,7794.809999999999,265.32,-33261.3,-11359.8,-8784.9,-27695.745,1390.14,9637.245
1764768150.695105,7794.045,264.915,-33261.615,-11359.53,-8785.125,-27696.465,1388.52,9636.12
1764768150.695105,7788.285,259.335,-33266.97,-11365.065,-8791.695,-27702.0,1383.12,9630.27
1764768150.695105,7796.025,266.445,-33258.645,-11356.965,-8782.695,-27690.525,1391.13,9638.73
1764768150.695105,7797.644999999999,268.02,-33256.619999999995,-11354.67,-8779.14,-27687.78,1394.28,9640.89
1764768150.695105,7789.455,259.875,-33265.619999999995,-11364.795,-8791.154999999999,-27700.2,1384.965,9632.205
1764768150.695105,7784.054999999999,253.26,-33272.64,-11372.04,-8799.57,-27709.155,1377.36,9625.32
1764768150.695105,7776.495,245.655,-33280.11,-11378.655,-8809.65,-27720.855,1371.015,9617.805
1764768150.695105,7782.66,251.73,-33273.72,-11371.59,-8804.025,-27714.78,1376.28,9623.565
1764768150.695105,7771.95,241.74,-33283.8,-11380.455,-8810.505,-27722.115,1367.37,9612.81
1764768150.744057,7769.745,239.895,-33285.735,-11382.705,-8811.99,-27724.545,1365.12,9612.045
1764768150.744057,7774.469999999999,244.8,-33280.155,-11377.755,-8806.23,-27718.02,1369.755,9617.535
1764768150.744057,7768.17,237.87,-33286.32,-11384.325,-8813.34,-27724.41,1364.6699999999998,9611.1
1764768150.744057,7772.625,244.035,-33280.335,-11378.16,-8807.805,-27719.505,1369.89,9616.725
1764768150.744057,7788.644999999999,259.785,-33264.9,-11362.455,-8792.73,-27703.71,1384.875,9632.205
1764768150.744057,7777.394999999999,246.96,-33278.175,-11375.415,-8805.51,-27715.77,1373.58,9619.29
1764768150.744057,7773.705,243.855,-33280.695,-11376.945,-8806.32,-27716.805,1369.395,9615.735
1764768150.744057,7778.745,248.895,-33275.565,-11371.5,-8800.11,-27709.65,1373.4,9620.685
1764768150.744057,7774.38,244.62,-33279.975,-11376.81,-8805.779999999999,-27714.465,1369.62,9616.59
1764768150.744057,7776.179999999999,247.455,-33277.005,-11373.84,-8803.44,-27712.44,1372.095,9619.38
1764768150.745085,7785.54,257.67,-33266.07,-11363.535,-8792.01,-27701.415,1381.905,9629.685
1764768150.745085,7783.29,256.635,-33266.97,-11365.11,-8793.225,-27702.585,1382.085,9628.785
1764768150.745085,7775.37,247.23,-33275.61,-11373.48,-8801.91,-27711.99,1374.255,9619.605
1764768150.745085,7776.855,248.4,-33274.845,-11372.58,-8801.73,-27711.63,1374.48,9620.73
1764768150.745085,7790.13,263.745,-33260.67,-11358.765,-8788.365,-27698.94,1386.1799999999998,9634.185
1764768150.745085,7789.184999999999,262.17,-33262.335,-11359.89,-8788.77,-27701.145,1383.255,9630.81
1764768150.745085,7781.445,252.99,-33270.39,-11367.27,-8794.664999999999,-27706.725,1375.785,9621.585
1764768150.745085,7782.075,252.18,-33270.66,-11366.55,-8791.92,-27700.515,1378.62,9623.115
1764768150.745085,7774.74,242.82,-33280.2,-11376.495,-8800.605,-27708.93,1372.095,9615.105
1764768150.745085,7767.54,236.205,-33286.545,-11383.425,-8807.76,-27716.94,1365.345,9608.085
1764768150.745085,7766.144999999999,236.025,-33286.905,-11384.28,-8809.11,-27718.02,1364.94,9607.455
1764768150.745085,7764.434999999999,234.855,-33288.39,-11387.07,-8814.015,-27723.15,1362.285,9604.98
1764768150.745085,7768.889999999999,239.985,-33283.98,-11383.695,-8812.17,-27721.71,1364.625,9608.58
1764768150.745085,7780.32,252.9,-33271.2,-11370.33,-8797.68,-27707.265,1375.785,9620.505
1764768150.745085,7779.69,251.955,-33272.28,-11369.655,-8796.06,-27706.905,1377.135,9620.37
1764768150.745085,7767.36,238.725,-33285.375,-11383.56,-8812.395,-27728.46,1364.985,9607.23
1764768150.78746,7773.974999999999,245.43,-33278.22,-11376.99,-8807.76,-27724.905,1369.755,9613.305
1764768150.78746,7773.389999999999,245.025,-33278.895,-11377.575,-8807.805,-27718.74,1370.07,9611.955
1764768150.78746,7763.94,235.035,-33288.795,-11386.53,-8814.33,-27720.675,1362.33,9602.91
1764768150.78746,7765.155,236.16,-33286.185,-11383.47,-8809.335,-27714.555,1365.165,9605.835
1764768150.78746,7776.99,248.805,-33274.215,-11371.005,-8796.869999999999,-27704.7,1375.785,9617.985
1764768150.78746,7774.469999999999,246.375,-33278.085,-11375.145,-8801.055,-27711.54,1373.58,9614.25
1764768150.78746,7775.054999999999,247.275,-33278.04,-11374.56,-8799.795,-27711.99,1373.445,9615.105
1764768150.78746,7784.415,256.5,-33268.905,-11364.615,-8791.11,-27704.115,1380.96,9624.51
1764768150.78746,7786.934999999999,258.255,-33267.015,-11362.545,-8790.66,-27702.54,1382.31,9625.77
1764768150.78746,7782.705,252.225,-33272.055,-11368.845,-8796.645,-27707.76,1377.945,9621.045
1764768150.78746,7783.019999999999,252.945,-33272.145,-11370.195,-8800.02,-27712.935,1378.215,9621.405
1764768150.78746,7776.134999999999,246.195,-33278.895,-11377.575,-8809.289999999999,-27723.87,1372.32,9614.07
1764768150.78746,7777.755,248.355,-33276.33,-11373.66,-8804.744999999999,-27718.02,1374.705,9616.185
1764768150.78746,7787.384999999999,258.66,-33266.88,-11363.58,-8794.619999999999,-27704.79,1384.155,9626.715
1764768150.78746,7782.884999999999,254.16,-33270.75,-11367.99,-8798.67,-27707.13,1382.175,9623.205
1764768150.78746,7784.549999999999,257.58,-33267.69,-11364.615,-8795.43,-27705.51,1385.505,9626.445
1764768150.78746,7787.384999999999,260.325,-33264.945,-11361.6,-8791.83,-27703.08,1388.475,9628.92
1764768150.78746,7791.84,265.095,-33259.68,-11355.84,-8785.845,-27697.185,1392.615,9633.735
1764768150.78746,7802.37,276.03,-33247.98,-11344.86,-8774.01,-27685.71,1401.9299999999998,9644.895
1764768150.78746,7793.19,265.545,-33258.915,-11356.245,-8784.81,-27697.545,1391.355,9633.825
1764768150.78746,7788.465,259.425,-33264.945,-11361.15,-8790.074999999999,-27702.945,1386.1799999999998,9627.885
1764768150.78746,7783.74,254.565,-33270.57,-11365.74,-8795.789999999999,-27708.165,1380.96,9622.665
1764768150.8365989,7784.144999999999,254.745,-33271.02,-11365.92,-8796.465,-27708.48,1380.735,9623.34
1764768150.8365989,7785.719999999999,257.445,-33268.41,-11363.715,-8793.585,-27706.095,1382.04,9625.275
1764768150.8365989,7792.65,265.68,-33259.905,-11354.895,-8785.08,-27697.59,1389.735,9633.24
1764768150.8365989,7788.42,261.9,-33262.38,-11357.775,-8788.365,-27701.415,1386.405,9629.145
1764768150.8365989,7797.42,271.62,-33251.805,-11348.505,-8778.914999999999,-27692.505,1394.235,9638.325
1764768150.8365989,7796.969999999999,271.305,-33252.615,-11348.37,-8777.654999999999,-27690.795,1395.1799999999998,9638.235
1764768150.8365989,7806.059999999999,281.205,-33242.58,-11336.94,-8764.785,-27675.63,1406.835,9649.26
1764768150.8365989,7801.92,276.12,-33248.205,-11342.205,-8769.555,-27678.24,1403.64,9645.03
1764768150.8365989,7810.38,284.13,-33240.195,-11333.79,-8763.029999999999,-27671.58,1409.265,9652.545
1764768150.8365989,7809.84,284.04,-33240.735,-11334.285,-8763.84,-27673.38,1408.635,9651.555
1764768150.8365989,7804.53,278.46,-33246.855,-11340.27,-8770.904999999999,-27680.49,1405.53,9646.47
1764768150.8365989,7802.73,277.02,-33248.07,-11341.89,-8773.199999999999,-27682.47,1403.73,9645.165
1764768150.8365989,7809.12,283.545,-33241.59,-11335.14,-8766.81,-27675.99,1408.41,9651.195
1764768150.8365989,7802.505,276.795,-33248.475,-11341.665,-8771.715,-27681.48,1402.47,9643.995
1764768150.8365989,7799.67,275.13,-33249.24,-11342.43,-8771.039999999999,-27682.245,1401.615,9642.42
1764768150.8365989,7803.585,278.73,-33245.1,-11337.885,-8765.595,-27676.575,1405.26,9646.785
1764768150.8365989,7816.005,291.195,-33233.67,-11326.05,-8752.32,-27662.895,1416.24,9658.935
1764768150.8365989,7809.165,282.645,-33242.355,-11335.14,-8760.869999999999,-27672.75,1409.58,9651.735
1764768150.8365989,7808.535,281.7,-33243.48,-11336.22,-8763.255,-27677.97,1410.255,9650.97
1764768150.8365989,7809.255,282.825,-33243.705,-11336.715,-8767.17,-27684.495,1409.31,9650.52
1764768150.8365989,7818.48,292.23,-33234.21,-11327.265,-8759.295,-27674.73,1416.465,9659.745
1764768150.8365989,7819.11,293.13,-33232.68,-11325.285,-8756.369999999999,-27669.195,1417.59,9660.375
1764768150.8365989,7809.66,283.95,-33241.32,-11332.53,-8760.465,-27669.24,1411.785,9652.005
1764768150.8365989,7805.969999999999,281.07,-33243.705,-11334.96,-8761.455,-27669.24,1409.13,9648.405
1764768150.879433,7804.98,279.405,-33245.28,-11336.805,-8764.695,-27674.73,1405.71,9647.28
1764768150.879433,7809.884999999999,285.12,-33240.33,-11332.035,-8761.23,-27671.85,1410.75,9653.13
1764768150.879433,7822.304999999999,297.675,-33227.775,-11320.515,-8751.195,-27661.86,1422.54,9665.685
1764768150.879433,7818.48,291.69,-33232.68,-11324.97,-8754.615,-27663.12,1418.49,9660.555
1764768150.8800397,7809.705,282.465,-33242.13,-11334.24,-8762.31,-27670.635,1409.85,9650.79
1764768150.8800397,7812.63,286.695,-33238.26,-11329.785,-8758.485,-27668.025,1413.27,9654.75
1764768150.8800397,7826.355,302.13,-33222.735,-11314.35,-8742.735,-27652.95,1426.455,9669.645
1764768150.8800397,7832.07,309.105,-33214.77,-11306.565,-8735.175,-27646.605,1433.7,9676.035
1764768150.8800397,7825.815,301.77,-33221.43,-11312.73,-8741.34,-27653.535,1428.885,9670.095
1764768150.8800397,7821.36,297.585,-33226.83,-11318.445,-8746.875,-27659.295,1424.25,9665.865
1764768150.8800397,7818.929999999999,295.605,-33229.26,-11321.19,-8751.105,-27663.3,1421.505,9663.48
1764768150.8800397,7823.835,299.61,-33224.67,-11316.69,-8747.64,-27659.88,1426.6799999999998,9667.935
1764768150.8800397,7837.785,314.46,-33209.325,-11301.165,-8730.539999999999,-27643.095,1440.675,9682.74
1764768150.8800397,7825.905,302.04,-33220.98,-11313.765,-8742.645,-27653.265,1428.66,9670.77
1764768150.8800397,7828.559999999999,304.425,-33219.27,-11311.515,-8740.17,-27650.43,1428.75,9672.39
1764768150.8800397,7826.715,302.355,-33221.205,-11313.63,-8741.565,-27652.905,1426.005,9670.005
1764768150.8800397,7825.005,300.33,-33222.78,-11315.205,-8744.039999999999,-27655.83,1424.385,9668.07
1764768150.8800397,7821.585,296.46,-33227.145,-11319.165,-8748.81,-27661.32,1421.505,9664.245
1764768150.8800397,7827.795,303.75,-33220.17,-11312.415,-8741.789999999999,-27653.175,1429.02,9671.76
1764768150.8800397,7820.235,296.235,-33226.965,-11318.58,-8747.414999999999,-27657.54,1424.52,9665.01
1764768150.8800397,7827.21,303.39,-33218.82,-11311.425,-8740.26,-27649.575,1430.235,9672.57
1764768150.8800397,7834.005,311.175,-33212.025,-11303.955,-8732.43,-27642.06,1437.705,9680.04
1764768150.8800397,7837.019999999999,313.83,-33210.045,-11302.2,-8729.82,-27640.53,1440.1799999999998,9682.785
1764768150.8800397,7828.019999999999,302.49,-33220.35,-11313.27,-8739.765,-27651.645,1430.595,9672.975
1764768150.9300013,7817.67,290.205,-33232.455,-11325.33,-8752.545,-27664.695,1419.3,9660.87
1764768150.9300013,7813.304999999999,285.84,-33237.18,-11330.01,-8757.404999999999,-27670.095,1413.81,9655.965
1764768150.9300013,7820.19,293.535,-33229.71,-11322.675,-8749.485,-27663.165,1420.56,9662.94
1764768150.9300013,7816.995,290.52,-33232.14,-11324.97,-8753.67,-27666.855,1418.445,9659.655
1764768150.9300013,7823.519999999999,297.99,-33224.49,-11317.23,-8746.605,-27658.845,1424.97,9667.395
1764768150.9300013,7821.09,295.155,-33226.92,-11319.345,-8748.404999999999,-27660.06,1423.3049999999998,9664.785
1764768150.9300013,7824.285,299.205,-33223.41,-11315.88,-8743.14,-27655.065,1426.995,9668.16
1764768150.9300013,7829.415,305.505,-33216.795,-11309.67,-8735.85,-27648.99,1433.07,9674.055
1764768150.9300013,7838.505,315.045,-33208.2,-11300.94,-8727.255,-27640.53,1441.62,9683.1
1764768150.9300013,7825.95,300.51,-33222.42,-11315.97,-8743.59,-27655.155,1429.155,9670.005
1764768150.9300013,7828.83,303.615,-33219.18,-11313.09,-8740.98,-27651.96,1431.9,9673.56
1764768150.9300013,7821.99,296.235,-33226.38,-11320.065,-8749.035,-27659.16,1425.51,9665.505
1764768150.9300013,7823.835,298.53,-33223.68,-11316.69,-8746.92,-27658.035,1425.825,9667.44
1764768150.9300013,7817.759999999999,293.58,-33228.9,-11321.145,-8750.61,-27661.23,1421.505,9662.31
1764768150.9300013,7824.87,301.905,-33220.575,-11312.685,-8741.16,-27652.5,1428.3,9670.77
1764768150.9310064,7829.505,306.27,-33215.895,-11308.23,-8736.975,-27649.8,1431.63,9674.37
1764768150.9310064,7832.924999999999,309.735,-33212.79,-11304.945,-8734.725,-27647.415,1435.185,9678.78
1764768150.9310064,7834.634999999999,312.12,-33211.17,-11303.055,-8731.89,-27642.555,1438.02,9681.525
1764768150.9310064,7832.16,309.15,-33214.23,-11305.71,-8733.96,-27644.04,1436.175,9679.095
1764768150.9310064,7814.969999999999,290.205,-33232.77,-11323.935,-8751.914999999999,-27661.95,1417.41,9659.16
1764768150.9310064,7813.844999999999,288.855,-33233.94,-11324.115,-8751.555,-27659.655,1415.835,9657.81
1764768150.9310064,7822.755,297.765,-33225.03,-11315.61,-8742.51,-27650.97,1423.485,9666.585
1764768150.9310064,7820.054999999999,295.335,-33227.505,-11318.265,-8746.875,-27658.71,1420.2,9663.48
1764768150.9310064,7811.19,285.075,-33237.9,-11329.425,-8760.6,-27675.585,1410.615,9653.04
1764768150.9770124,7821.134999999999,295.605,-33227.64,-11319.075,-8751.42,-27665.64,1419.975,9664.38
1764768150.9770124,7822.889999999999,298.08,-33224.985,-11315.205,-8746.965,-27657.45,1424.385,9667.71
1764768150.9770124,7818.929999999999,295.965,-33226.695,-11316.915,-8747.235,-27655.695,1422.675,9664.02
1764768150.9770124,7822.304999999999,299.34,-33222.6,-11312.865,-8741.744999999999,-27648.63,1424.97,9666.585
1764768150.9770124,7824.059999999999,299.835,-33221.115,-11311.92,-8739.81,-27646.74,1426.275,9667.755
1764768150.9770124,7808.58,283.86,-33236.775,-11327.49,-8756.324999999999,-27663.75,1412.415,9652.005
1764768150.9770124,7806.195,281.43,-33239.565,-11330.37,-8760.824999999999,-27669.645,1409.76,9649.35
1764768150.9770124,7804.53,278.775,-33242.175,-11332.305,-8762.67,-27671.625,1406.4299999999998,9646.56
1764768150.9770124,7812.134999999999,287.145,-33233.49,-11323.44,-8754.255,-27662.58,1412.37,9653.67
1764768150.9770124,7813.394999999999,289.215,-33232.14,-11322.315,-8752.949999999999,-27662.895,1413.225,9655.245
1764768150.9770124,7808.759999999999,285.435,-33236.235,-11325.87,-8756.73,-27667.665,1410.345,9651.87
1764768150.9770124,7800.075,276.345,-33246.0,-11335.365,-8766.855,-27679.14,1402.605,9642.33
1764768150.9770124,7809.21,285.435,-33237.855,-11327.175,-8758.395,-27670.455,1410.21,9652.005
1764768150.9770124,7813.304999999999,290.745,-33232.725,-11321.955,-8753.94,-27665.865,1414.215,9656.82
1764768150.9770124,7818.299999999999,295.83,-33226.605,-11316.825,-8748.765,-27661.365,1419.66,9661.365
1764768150.9770124,7813.575,291.15,-33231.465,-11321.955,-8754.705,-27666.225,1415.205,9656.505
1764768150.9770124,7808.535,285.885,-33237.54,-11327.76,-8760.33,-27670.815,1411.47,9651.51
1764768150.9770124,7808.445,285.21,-33237.405,-11326.59,-8758.395,-27667.665,1413.135,9652.68
1764768150.9780211,7817.309999999999,294.75,-33227.82,-11317.05,-8748.09,-27655.74,1422.09,9661.905
1764768150.9780211,7819.2,298.035,-33225.075,-11314.305,-8744.265,-27651.96,1424.79,9664.515
1764768150.9780211,7810.2,288.81,-33234.975,-11324.79,-8753.805,-27663.39,1416.4199999999998,9654.615
1764768150.9780211,7803.269999999999,281.97,-33242.355,-11332.53,-8762.13,-27673.155,1408.455,9646.47
1764768151.0207317,7804.44,283.77,-33240.645,-11330.775,-8759.16,-27671.58,1407.96,9646.83
1764768151.0207317,7813.304999999999,293.355,-33231.465,-11321.64,-8748.09,-27660.645,1415.16,9656.73
1764768151.0207317,7821.09,300.015,-33225.84,-11314.53,-8740.215,-27651.195,1422.855,9665.145
1764768151.0207317,7819.74,297.99,-33227.415,-11316.42,-8742.6,-27652.59,1423.62,9664.47
1764768151.0207317,7814.07,292.635,-33233.355,-11322.855,-8752.005,-27662.67,1418.22,9658.17
1764768151.0207317,7819.424999999999,297.81,-33229.215,-11319.345,-8751.285,-27662.535,1421.505,9663.435
1764768151.0207317,7822.035,299.745,-33227.865,-11318.58,-8753.535,-27664.515,1423.71,9665.145
1764768151.0207317,7812.315,289.485,-33238.485,-11328.57,-8763.48,-27673.515,1415.745,9654.57
1764768151.0207317,7810.514999999999,288.855,-33238.395,-11327.355,-8758.98,-27666.765,1415.07,9653.085
1764768151.0207317,7815.735,294.795,-33232.23,-11320.605,-8749.935,-27657.315,1420.38,9659.475
1764768151.0207317,7807.32,284.31,-33242.715,-11331.09,-8760.555,-27668.34,1412.91,9650.79
1764768151.0207317,7809.21,286.74,-33241.23,-11329.92,-8760.06,-27669.24,1413.855,9652.455
1764768151.0207317,7818.66,296.46,-33230.744999999995,-11319.705,-8751.779999999999,-27661.905,1421.01,9661.635
1764768151.0207317,7805.205,281.115,-33245.415,-11334.24,-8767.845,-27677.52,1406.88,9646.02
1764768151.0207317,7800.12,275.085,-33252.165,-11339.82,-8772.39,-27680.715,1401.435,9639.9
1764768151.0207317,7804.575,279.675,-33248.07,-11333.745,-8764.875,-27673.38,1406.07,9645.48
1764768151.0207317,7805.07,281.52,-33246.45,-11331.63,-8762.985,-27672.705,1406.16,9646.38
1764768151.0207317,7804.844999999999,281.565,-33244.74,-11331.0,-8762.76,-27671.94,1406.475,9646.47
1764768151.0207317,7808.985,286.065,-33240.78,-11326.185,-8758.44,-27667.755,1411.29,9651.285
1764768151.0207317,7810.245,287.955,-33240.195,-11324.88,-8757.315,-27666.99,1414.1699999999998,9654.075
1764768151.0207317,7802.955,280.845,-33246.54,-11331.18,-8763.255,-27671.67,1408.365,9646.875
1764768151.0207317,7804.934999999999,282.51,-33243.435,-11328.48,-8760.105,-27667.44,1409.49,9648.315
1764768151.0207317,7815.78,293.355,-33232.815,-11317.14,-8750.25,-27657.495,1418.6699999999998,9659.565
1764768151.0207317,7804.934999999999,280.755,-33244.74,-11328.165,-8762.625,-27671.625,1408.005,9648.45
1764768151.0678132,7801.74,276.93,-33247.619999999995,-11332.395,-8768.295,-27681.255,1402.9199999999998,9643.635
1764768151.0678132,7804.98,280.485,-33244.83,-11330.19,-8768.115,-27682.245,1403.505,9646.02
1764768151.0678132,7796.969999999999,271.98,-33252.795,-11337.57,-8774.685,-27685.89,1396.8,9637.785
1764768151.0678132,7802.505,278.01,-33246.36,-11330.19,-8765.685,-27673.245,1403.82,9644.31
1764768151.0678132,7799.13,275.76,-33249.6,-11333.475,-8768.744999999999,-27676.845,1401.21,9641.295
1764768151.0678132,7809.12,287.055,-33239.25,-11322.585,-8758.619999999999,-27667.08,1411.02,9652.185
1764768151.0678132,7806.285,284.85,-33241.41,-11325.33,-8761.68,-27669.465,1408.725,9649.575
1764768151.0678132,7808.625,288.045,-33237.09,-11321.595,-8756.865,-27664.065,1411.245,9652.23
1764768151.0678132,7820.73,300.105,-33224.715,-11308.5,-8741.654999999999,-27647.865,1423.755,9665.235
1764768151.0678132,7816.005,294.21,-33232.095,-11314.845,-8747.279999999999,-27652.59,1419.705,9660.06
1764768151.0678132,7806.24,284.67,-33242.67,-11325.645,-8758.619999999999,-27665.145,1410.255,9649.035
1764768151.0678132,7807.95,286.875,-33240.51,-11324.205,-8758.44,-27665.145,1410.255,9650.07
1764768151.0678132,7804.44,283.23,-33243.57,-11327.355,-8762.535,-27669.195,1407.735,9647.055
1764768151.0678132,7809.48,288.72,-33237.81,-11321.55,-8757.72,-27664.38,1413.135,9653.445
1764768151.0678132,7801.695,280.575,-33245.865,-11329.875,-8765.82,-27673.02,1405.575,9644.355
1764768151.0678132,7797.195,275.4,-33250.86,-11335.275,-8770.41,-27678.33,1400.4,9638.685
1764768151.0678132,7802.594999999999,281.205,-33244.74,-11329.335,-8764.154999999999,-27671.625,1406.2949999999998,9644.31
1764768151.0678132,7808.985,288.765,-33237.36,-11321.73,-8755.74,-27663.705,1413.225,9651.87
1764768151.0678132,7820.144999999999,299.565,-33226.155,-11310.66,-8743.68,-27651.96,1423.26,9662.895
1764768151.0678132,7817.4,296.01,-33229.485,-11313.855,-8746.695,-27655.29,1418.85,9658.755
1764768151.0678132,7808.535,286.155,-33238.89,-11323.62,-8756.279999999999,-27665.415,1409.76,9648.855
1764768151.0678132,7803.09,280.485,-33244.47,-11328.795,-8760.914999999999,-27669.645,1404.72,9643.32
1764768151.0678132,7804.844999999999,283.23,-33241.635,-11324.52,-8756.82,-27666.495,1408.185,9646.56
1764768151.0678132,7816.995,296.055,-33229.215,-11312.64,-8745.029999999999,-27655.605,1420.515,9660.33
1764768151.1149256,7818.66,299.07,-33227.055,-11311.29,-8745.345,-27656.28,1421.865,9661.86
1764768151.1149256,7816.905,297.765,-33228.315,-11312.73,-8747.055,-27658.8,1419.435,9659.925
1764768151.1149256,7817.445,297.135,-33227.685,-11311.695,-8744.265,-27653.895,1421.46,9660.87
1764768151.1149256,7810.559999999999,289.98,-33234.255,-11317.545,-8749.935,-27660.105,1417.005,9655.065
1764768151.1149256,7809.795,289.395,-33234.84,-11319.075,-8752.05,-27663.615,1414.62,9653.76
1764768151.1149256,7802.235,281.475,-33243.39,-11327.49,-8761.32,-27672.975,1406.655,9645.345
1764768151.1149256,7810.11,289.575,-33236.235,-11319.615,-8753.039999999999,-27663.12,1413.27,9652.185
1764768151.1149256,7802.054999999999,281.205,-33244.605,-11327.58,-8760.33,-27670.275,1405.935,9643.635
1764768151.1149256,7799.085,278.01,-33247.8,-11329.695,-8762.039999999999,-27672.885,1403.505,9641.61
1764768151.1149256,7799.535,277.65,-33247.665,-11330.235,-8763.345,-27674.73,1402.56,9640.755
1764768151.1149256,7806.105,284.535,-33240.42,-11323.935,-8757.539999999999,-27669.15,1409.265,9648.495
1764768151.1154368,7798.86,277.38,-33247.619999999995,-11331.45,-8765.235,-27676.125,1403.91,9642.195
1764768151.1154368,7796.07,274.95,-33250.05,-11334.825,-8769.285,-27679.905,1399.32,9638.595
1764768151.1154368,7802.009999999999,282.15,-33242.85,-11326.23,-8759.475,-27670.14,1405.485,9645.075
1764768151.1154368,7818.12,299.385,-33225.885,-11307.96,-8740.845,-27651.78,1421.37,9662.445
1764768151.1154368,7813.035,294.03,-33231.42,-11313.315,-8747.55,-27661.275,1418.085,9657.27
1764768151.1154368,7814.429999999999,294.12,-33231.015,-11313.405,-8748.945,-27663.84,1419.255,9657.99
1764768151.1154368,7823.115,303.165,-33221.835,-11304.9,-8740.08,-27653.085,1427.715,9667.17
1764768151.1154368,7827.929999999999,309.105,-33216.165,-11298.375,-8734.68,-27645.165,1432.62,9672.615
1764768151.1154368,7825.679999999999,306.63,-33218.28,-11300.175,-8735.94,-27643.365,1430.01,9669.06
1764768151.1154368,7816.094999999999,296.955,-33227.28,-11309.805,-8744.13,-27652.815,1422.0449999999998,9659.475
1764768151.1154368,7819.38,300.87,-33223.545,-11305.89,-8740.35,-27650.565,1425.69,9663.57
1764768151.1611133,7815.285,296.82,-33228.315,-11310.39,-8745.48,-27656.19,1421.685,9659.205
1764768151.1611133,7824.375,306.54,-33218.325,-11300.085,-8735.895,-27646.515,1429.065,9667.755
1764768151.1611133,7826.535,308.565,-33215.805,-11297.79,-8734.32,-27646.2,1429.83,9668.52
1764768151.1611133,7811.415,293.445,-33231.869999999995,-11313.765,-8750.744999999999,-27663.21,1414.575,9652.095
1764768151.1611133,7809.12,290.34,-33235.38,-11316.87,-8752.68,-27665.235,1411.83,9650.07
1764768151.1611133,7805.025,286.02,-33238.89,-11320.74,-8755.02,-27667.44,1410.75,9646.92
1764768151.1611133,7812.945,294.93,-33229.845,-11310.84,-8744.715,-27656.1,1418.895,9655.56
1764768151.1611133,7815.825,298.17,-33226.244999999995,-11307.105,-8740.17,-27649.71,1422.63,9659.43
1764768151.1611133,7813.215,296.055,-33228.18,-11309.805,-8743.545,-27654.39,1419.84,9657.27
1764768151.1611133,7811.37,294.075,-33230.565,-11312.325,-8745.48,-27658.215,1417.815,9655.83
1764768151.1611133,7813.62,296.91,-33228.99,-11311.29,-8745.57,-27659.745,1420.245,9657.72
1764768151.1611133,7813.215,295.155,-33230.34,-11312.415,-8749.529999999999,-27662.805,1418.6699999999998,9656.235
1764768151.1611133,7812.674999999999,294.12,-33230.835,-11313.27,-8750.52,-27660.69,1417.6799999999998,9655.29
1764768151.1611133,7802.73,284.085,-33241.32,-11323.71,-8760.824999999999,-27667.53,1408.77,9644.31
1764768151.1611133,7808.219999999999,288.585,-33236.235,-11318.67,-8753.715,-27659.88,1413.09,9649.62
1764768151.1611133,7810.29,291.015,-33234.345,-11316.555,-8752.815,-27662.445,1414.395,9651.825
1764768151.1611133,7811.505,293.31,-33233.085,-11314.62,-8750.654999999999,-27661.455,1416.15,9653.985
1764768151.1611133,7804.98,286.29,-33240.33,-11322.045,-8756.775,-27666.855,1411.695,9647.46
1764768151.1611133,7807.679999999999,289.26,-33237.765,-11319.795,-8754.435,-27666.315,1413.585,9650.205
1764768151.1611133,7816.815,299.115,-33228.315,-11310.705,-8746.065,-27658.665,1421.46,9660.195
1764768151.1611133,7806.465,288.765,-33238.395,-11320.695,-8755.154999999999,-27666.855,1412.955,9650.655
1764768151.1611133,7808.58,290.97,-33235.92,-11317.32,-8750.25,-27661.23,1415.88,9652.77
1764768151.1624317,7819.469999999999,302.715,-33224.715,-11305.8,-8738.595,-27649.845,1425.285,9664.02
1764768151.1624317,7816.905,299.925,-33227.955,-11309.175,-8742.24,-27654.075,1421.01,9660.735
1764768151.2079513,7815.105,297.585,-33229.98,-11310.615,-8743.815,-27655.65,1419.3,9658.485
1764768151.2084615,7809.66,292.05,-33235.605,-11316.15,-8749.125,-27660.6,1415.205,9653.13
1764768151.2084615,7815.059999999999,297.405,-33230.475,-11310.66,-8743.185,-27654.165,1421.415,9659.295
1764768151.2084615,7826.085,309.195,-33218.505,-11299.23,-8731.215,-27641.295,1432.035,9670.59
1764768151.2084615,7825.094999999999,309.24,-33218.595,-11299.5,-8732.295,-27642.555,1432.215,9669.96
1764768151.2084615,7835.985,321.39,-33206.13,-11287.71,-8721.99,-27633.42,1443.33,9682.155
1764768151.2084615,7839.585,324.63,-33203.025,-11284.92,-8720.865,-27633.105,1446.57,9685.62
1764768151.2084615,7834.905,320.76,-33206.265,-11287.845,-8722.529999999999,-27634.77,1445.49,9681.705
1764768151.2084615,7841.565,327.42,-33199.74,-11281.005,-8713.98,-27625.77,1451.16,9688.365
1764768151.2084615,7828.695,312.48,-33214.545,-11295.405,-8728.695,-27640.665,1436.895,9673.56
1764768151.2084615,7824.105,307.17,-33220.305,-11301.66,-8734.904999999999,-27646.965,1429.74,9667.8
1764768151.2084615,7825.365,308.07,-33219.855,-11300.715,-8733.869999999999,-27645.75,1429.155,9668.475
1764768151.2084615,7820.009999999999,302.76,-33226.2,-11305.89,-8738.82,-27649.845,1424.52,9663.39
1764768151.2084615,7813.17,295.83,-33232.59,-11311.47,-8745.615,-27657.18,1418.8049999999998,9656.505
1764768151.2084615,7816.365,299.565,-33229.215,-11307.33,-8741.61,-27654.12,1421.145,9660.285
1764768151.2084615,7813.799999999999,298.215,-33231.195,-11309.49,-8744.49,-27658.8,1419.705,9658.35
1764768151.2084615,7818.48,303.93,-33225.48,-11304.54,-8739.045,-27654.48,1424.07,9662.85
1764768151.2084615,7824.735,310.32,-33219.27,-11298.105,-8732.07,-27646.065,1429.965,9669.915
1764768151.2084615,7817.445,300.06,-33228.9,-11307.015,-8739.945,-27652.41,1423.98,9662.04
1764768151.2084615,7802.144999999999,283.23,-33245.505,-11323.17,-8757.63,-27671.355,1408.6799999999998,9644.895
1764768151.2550452,7812.36,294.345,-33234.255,-11312.64,-8749.215,-27665.01,1417.815,9654.48
1764768151.2550452,7813.485,295.695,-33232.905,-11311.83,-8749.035,-27663.345,1419.03,9654.93
1764768151.2550452,7823.16,305.82,-33223.185,-11301.39,-8737.785,-27649.485,1426.77,9665.145
1764768151.2550452,7827.21,311.445,-33216.57,-11295.54,-8730.63,-27639.72,1433.07,9670.545
1764768151.2550452,7825.275,310.095,-33218.28,-11296.215,-8728.83,-27636.975,1435.5,9669.87
1764768151.2550452,7827.48,312.885,-33215.76,-11292.795,-8724.015,-27633.915,1437.7949999999998,9672.21
1764768151.2550452,7833.87,320.085,-33207.795,-11285.595,-8716.14,-27626.85,1442.205,9679.32
1764768151.2550452,7836.48,323.505,-33203.655,-11281.455,-8711.369999999999,-27623.295,1445.31,9682.785
1764768151.2550452,7838.28,324.945,-33202.35,-11279.745,-8708.265,-27620.82,1447.605,9684.81
1764768151.2550452,7830.36,316.035,-33212.07,-11289.15,-8718.345,-27632.97,1438.695,9675.135
1764768151.2550452,7839.134999999999,324.405,-33204.465,-11281.815,-8712.72,-27627.39,1445.4,9683.235
1764768151.2550452,7831.755,316.26,-33212.07,-11290.14,-8722.395,-27635.58,1439.46,9676.755
1764768151.2550452,7827.66,312.21,-33216.705,-11295.855,-8730.27,-27641.565,1436.445,9672.705
1764768151.255551,7824.195,308.205,-33220.17,-11300.13,-8738.369999999999,-27649.395,1432.26,9667.395
1764768151.255551,7819.785,303.57,-33223.815,-11303.595,-8741.744999999999,-27651.15,1427.535,9663.615
1764768151.255551,7817.985,302.4,-33223.994999999995,-11302.65,-8737.695,-27645.615,1426.5449999999998,9662.67
1764768151.255551,7818.615,303.435,-33223.455,-11302.875,-8736.975,-27645.03,1426.995,9663.57
1764768151.255551,7830.045,315.63,-33212.115,-11291.58,-8728.47,-27638.19,1436.58,9674.865
1764768151.255551,7835.445,320.85,-33206.76,-11286.72,-8725.23,-27633.96,1441.755,9679.905
1764768151.255551,7824.33,309.285,-33218.55,-11298.15,-8735.265,-27644.94,1431.585,9667.89
1764768151.255551,7824.87,309.51,-33218.595,-11296.89,-8732.61,-27642.915,1431.99,9669.105
1764768151.255551,7838.235,324.675,-33203.565,-11281.815,-8717.49,-27627.435,1444.6799999999998,9683.46
1764768151.255551,7835.264999999999,321.345,-33206.715,-11285.415,-8720.73,-27631.53,1442.4299999999998,9681.03
1764768151.255551,7841.924999999999,329.355,-33199.695,-11278.395,-8712.855,-27623.745,1448.28,9688.095
1764768151.255551,7845.48,333.9,-33195.105,-11273.49,-8707.5,-27618.975,1452.5549999999998,9691.965
1764768151.255551,7837.65,326.205,-33202.17,-11280.33,-8715.105,-27626.985,1447.11,9684.72
1764768151.3017006,7837.29,326.295,-33201.945,-11280.105,-8716.365,-27627.705,1446.435,9684.855
1764768151.3017006,7846.065,335.16,-33191.82,-11270.205,-8706.24,-27618.03,1454.76,9694.485
1764768151.3017006,7839.495,327.105,-33199.695,-11277.54,-8713.755,-27625.905,1446.975,9686.205
1764768151.3017006,7821.045,306.72,-33220.89,-11299.095,-8735.265,-27648.45,1426.77,9665.37
1764768151.3017006,7816.005,301.23,-33226.56,-11305.215,-8741.43,-27655.065,1419.705,9659.61
1764768151.3017006,7821.719999999999,306.9,-33220.08,-11299.545,-8735.039999999999,-27647.1,1425.105,9665.73
1764768151.3017006,7820.505,305.01,-33221.97,-11300.895,-8736.705,-27648.0,1423.98,9664.335
1764768151.3017006,7818.299999999999,304.065,-33223.635,-11301.975,-8737.785,-27650.34,1422.81,9662.535
1764768151.3017006,7809.21,295.245,-33232.275,-11309.625,-8745.795,-27658.845,1416.15,9653.805
1764768151.3017006,7807.769999999999,293.445,-33234.165,-11311.2,-8746.02,-27657.99,1416.645,9653.58
1764768151.3017006,7811.594999999999,297.81,-33231.24,-11308.095,-8741.744999999999,-27653.535,1420.605,9657.225
1764768151.3017006,7822.215,310.05,-33219.045,-11296.53,-8730.855,-27643.005,1430.73,9668.205
1764768151.3017006,7826.894999999999,313.785,-33214.455,-11292.3,-8728.02,-27639.72,1433.925,9672.705
1764768151.3017006,7818.434999999999,304.605,-33223.86,-11301.165,-8737.605,-27649.17,1424.88,9662.715
1764768151.3017006,7815.644999999999,301.68,-33227.19,-11302.83,-8738.279999999999,-27648.72,1421.0549999999998,9659.475
1764768151.3017006,7813.934999999999,300.465,-33227.055,-11303.055,-8736.885,-27646.74,1419.12,9658.26
1764768151.3017006,7815.915,302.13,-33225.03,-11301.48,-8734.904999999999,-27646.74,1421.91,9661.41
1764768151.3017006,7829.009999999999,316.305,-33211.755,-11287.53,-8721.72,-27636.03,1435.5449999999998,9675.63
1764768151.3017006,7835.625,323.595,-33205.005,-11280.78,-8717.625,-27635.22,1442.2949999999998,9682.155
1764768151.3017006,7835.445,323.955,-33205.095,-11281.86,-8723.07,-27641.655,1442.2949999999998,9681.84
1764768151.3017006,7831.17,320.58,-33208.83,-11285.595,-8728.515,-27642.78,1440.0449999999998,9677.43
1764768151.3017006,7836.389999999999,325.935,-33201.9,-11277.99,-8718.21,-27626.355,1445.895,9684.315
1764768151.3492634,7835.67,325.395,-33201.405,-11276.955,-8714.385,-27621.63,1444.185,9683.235
1764768151.3492634,7826.759999999999,314.73,-33212.744999999995,-11287.89,-8725.23,-27634.68,1434.06,9671.85
1764768151.3492634,7828.605,316.935,-33211.53,-11285.82,-8723.744999999999,-27634.14,1435.275,9673.245
1764768151.3492634,7836.57,324.72,-33203.34,-11277.36,-8715.24,-27625.455,1443.33,9682.47
1764768151.3492634,7829.505,316.845,-33211.215,-11284.74,-8722.305,-27630.63,1438.2,9676.08
1764768151.3492634,7833.78,322.02,-33206.22,-11280.15,-8718.029999999999,-27627.885,1441.395,9681.165
1764768151.3492634,7832.429999999999,321.435,-33206.85,-11280.69,-8719.289999999999,-27630.63,1440.0,9680.04
1764768151.3492634,7829.28,317.745,-33209.28,-11283.345,-8722.755,-27632.835,1438.695,9677.16
1764768151.3492634,7837.38,326.61,-33200.82,-11274.84,-8713.845,-27623.925,1446.84,9686.61
1764768151.3492634,7836.795,326.16,-33202.08,-11275.875,-8714.52,-27625.41,1446.75,9685.98
1764768151.3492634,7830.36,318.33,-33209.91,-11283.84,-8723.34,-27634.32,1439.37,9677.88
1764768151.3492634,7821.045,307.665,-33219.72,-11294.19,-8733.645,-27645.435,1428.75,9667.755
1764768151.3492634,7813.889999999999,298.935,-33228.585,-11303.64,-8741.97,-27652.05,1420.245,9659.205
1764768151.3492634,7804.53,288.945,-33238.8,-11312.82,-8750.52,-27659.34,1411.605,9648.72
1764768151.3492634,7805.16,290.385,-33237.36,-11311.425,-8749.44,-27657.855,1411.9199999999998,9649.71
1764768151.3492634,7813.259999999999,299.25,-33228.315,-11303.19,-8742.824999999999,-27651.915,1418.085,9657.855
1764768151.3492634,7815.059999999999,302.31,-33225.48,-11300.805,-8741.88,-27652.185,1420.2,9660.51
1764768151.3492634,7815.554999999999,303.885,-33224.805,-11298.825,-8738.73,-27649.89,1422.945,9661.41
1764768151.3492634,7829.73,318.42,-33209.73,-11284.02,-8722.935,-27634.455,1438.02,9676.755
1764768151.3492634,7838.955,327.555,-33201.225,-11274.84,-8713.574999999999,-27624.375,1446.66,9686.205
1764768151.3492634,7842.375,330.615,-33197.04,-11271.69,-8709.029999999999,-27620.82,1450.035,9689.4
1764768151.350273,7832.16,320.31,-33207.255,-11282.445,-8719.065,-27632.52,1440.855,9677.97
1764768151.350273,7840.485,329.31,-33198.84,-11274.21,-8712.135,-27623.115,1448.64,9686.52
1764768151.350273,7843.005,330.435,-33196.5,-11272.005,-8710.38,-27621.27,1450.35,9689.31
1764768151.3967907,7837.245,324.54,-33202.08,-11278.08,-8716.23,-27626.715,1444.275,9683.28
1764768151.3967907,7834.769999999999,321.93,-33205.32,-11281.545,-8720.865,-27630.09,1441.8,9680.355
1764768151.3967907,7830.405,317.7,-33209.91,-11286.135,-8725.77,-27634.995,1437.03,9675.9
1764768151.3967907,7821.405,309.33,-33218.28,-11293.425,-8732.654999999999,-27643.365,1429.335,9667.305
1764768151.3967907,7822.62,310.635,-33217.065,-11292.12,-8731.485,-27642.105,1429.605,9668.475
1764768151.3967907,7817.58,304.965,-33222.33,-11297.88,-8737.47,-27647.82,1425.51,9662.895
1764768151.3967907,7824.33,311.805,-33215.895,-11291.265,-8730.27,-27640.305,1431.675,9670.275
1764768151.3967907,7814.655,301.635,-33225.795,-11300.31,-8740.215,-27650.16,1422.0449999999998,9660.015
1764768151.3967907,7808.894999999999,295.425,-33231.735,-11306.7,-8746.38,-27656.73,1415.79,9653.58
1764768151.3967907,7805.519999999999,291.015,-33236.46,-11311.11,-8752.365,-27664.29,1409.535,9648.36
1764768151.3967907,7811.099999999999,297.945,-33229.71,-11304.315,-8746.289999999999,-27658.62,1414.035,9654.345
1764768151.3967907,7810.65,298.08,-33228.99,-11303.64,-8744.76,-27656.415,1415.745,9655.065
1764768151.3967907,7799.985,286.2,-33240.645,-11315.34,-8755.515,-27665.325,1408.455,9644.85
1764768151.3967907,7802.91,290.16,-33236.28,-11311.02,-8750.789999999999,-27661.365,1413.315,9648.81
1764768151.3967907,7815.42,302.805,-33223.545,-11298.015,-8738.324999999999,-27648.495,1423.935,9661.68
1764768151.3967907,7817.759999999999,306.045,-33221.205,-11295.045,-8735.67,-27645.795,1425.645,9663.885
1764768151.3967907,7816.32,304.29,-33223.5,-11296.485,-8736.57,-27647.145,1422.81,9660.555
1764768151.3967907,7794.764999999999,280.125,-33247.08,-11320.02,-8759.744999999999,-27669.96,1400.445,9636.705
1764768151.3967907,7789.545,274.635,-33252.165,-11325.06,-8764.47,-27673.965,1396.125,9632.07
1764768151.3967907,7792.695,278.01,-33248.79,-11321.145,-8760.24,-27669.78,1399.005,9635.085
1764768151.3967907,7800.884999999999,286.605,-33239.744999999995,-11312.73,-8751.51,-27662.085,1406.2949999999998,9642.51
1764768151.3967907,7796.745,282.78,-33243.66,-11317.455,-8757.09,-27666.99,1402.605,9638.82
1764768151.3967907,7804.259999999999,291.24,-33235.244999999995,-11308.905,-8750.699999999999,-27662.04,1409.58,9647.235
1764768151.3967907,7808.625,296.685,-33230.205,-11303.73,-8747.73,-27661.14,1414.71,9652.005
1764768151.4443548,7804.575,292.77,-33232.994999999995,-11307.15,-8750.07,-27662.4,1412.505,9649.125
1764768151.4448888,7800.255,288.18,-33236.685,-11310.39,-8749.98,-27658.8,1409.895,9644.985
1764768151.4448888,7802.82,290.745,-33234.345,-11307.735,-8746.02,-27652.86,1413.0449999999998,9647.955
1764768151.4448888,7793.684999999999,280.845,-33245.01,-11317.77,-8755.47,-27661.41,1405.89,9638.685
1764768151.4448888,7793.82,281.97,-33243.84,-11316.915,-8755.425,-27662.715,1404.765,9638.415
1764768151.4448888,7798.049999999999,285.615,-33239.88,-11313.81,-8753.805,-27663.615,1407.465,9641.61
1764768151.4448888,7800.974999999999,288.585,-33237.09,-11311.155,-8751.42,-27661.815,1410.255,9644.31
1764768151.4448888,7807.23,296.19,-33229.53,-11303.28,-8743.545,-27652.635,1416.51,9651.96
1764768151.4448888,7806.96,295.335,-33230.115,-11304.27,-8745.795,-27653.715,1415.52,9650.295
1764768151.4448888,7804.485,293.13,-33232.635,-11307.015,-8747.64,-27655.38,1413.405,9648.36
1764768151.4454298,7800.57,290.745,-33235.155,-11309.76,-8748.72,-27658.62,1412.28,9645.93
1764768151.4454298,7812.945,304.785,-33221.52,-11295.54,-8733.869999999999,-27643.14,1425.285,9659.97
1764768151.4454298,7812.495,303.57,-33224.04,-11297.34,-8734.77,-27643.86,1422.855,9658.305
1764768151.4454298,7803.179999999999,292.95,-33235.02,-11308.095,-8746.065,-27655.695,1411.11,9647.55
1764768151.4454298,7800.389999999999,290.43,-33237.63,-11310.66,-8749.485,-27660.42,1408.725,9644.355
1764768151.4454298,7808.67,299.205,-33229.305,-11301.615,-8741.744999999999,-27652.455,1415.655,9652.185
1764768151.4454298,7802.73,293.265,-33235.56,-11308.14,-8749.395,-27659.52,1409.31,9645.48
1764768151.4454298,7803.9,295.47,-33233.355,-11307.195,-8748.36,-27659.115,1411.11,9648.315
1764768151.4454298,7811.235,304.245,-33224.895,-11299.005,-8740.035,-27651.69,1418.085,9656.595
1764768151.4454298,7802.91,295.74,-33232.77,-11307.015,-8748.315,-27660.015,1411.83,9648.405
1764768151.4454298,7805.205,298.26,-33229.755,-11304.675,-8745.795,-27658.62,1414.215,9650.835
1764768151.4454298,7811.46,303.705,-33225.345,-11299.95,-8742.06,-27655.065,1417.32,9655.92
1764768151.4454298,7821.99,314.415,-33215.31,-11289.78,-8733.24,-27646.425,1425.15,9665.82
1764768151.4454298,7819.559999999999,312.75,-33218.01,-11293.02,-8736.255,-27651.105,1421.73,9662.85
1764768151.4454298,7820.28,312.48,-33217.74,-11292.165,-8734.545,-27649.44,1422.9,9662.985
1764768151.4454298,7819.019999999999,310.77,-33218.46,-11292.03,-8731.755,-27644.22,1425.78,9663.705
1764768151.4879973,7814.384999999999,305.685,-33223.275,-11296.395,-8735.265,-27646.56,1424.61,9659.835
1764768151.4879973,7817.13,308.115,-33221.655,-11294.55,-8734.545,-27646.29,1425.96,9661.86
1764768151.4879973,7816.634999999999,308.115,-33220.98,-11294.82,-8735.265,-27648.09,1424.52,9661.68
1764768151.4879973,7819.559999999999,311.535,-33218.28,-11292.57,-8732.88,-27646.155,1425.33,9664.83
1764768151.4879973,7816.724999999999,308.205,-33221.205,-11295.63,-8735.985,-27650.115,1422.09,9661.905
1764768151.4879973,7811.415,302.04,-33226.244999999995,-11301.57,-8740.845,-27655.155,1416.195,9655.245
1764768151.4879973,7801.965,291.51,-33237.63,-11312.145,-8750.34,-27662.985,1406.2949999999998,9644.535
1764768151.4879973,7785.674999999999,274.545,-33254.64,-11328.795,-8767.26,-27680.445,1390.5,9627.21
1764768151.4879973,7782.165,271.53,-33256.935,-11331.225,-8769.735,-27682.785,1388.79,9625.545
1764768151.4879973,7788.24,277.38,-33250.77,-11324.385,-8762.895,-27675.045,1395.135,9632.205
1764768151.4879973,7782.57,271.395,-33257.34,-11331.135,-8770.455,-27682.155,1389.87,9625.77
1764768151.4879973,7782.795,272.52,-33255.99,-11329.83,-8770.545,-27680.625,1391.175,9626.805
1764768151.4879973,7790.085,281.925,-33246.405,-11320.245,-8761.14,-27670.59,1398.4199999999998,9634.77
1764768151.4879973,7786.62,278.775,-33249.555,-11323.305,-8761.949999999999,-27672.48,1396.08,9631.845
1764768151.4879973,7797.15,290.52,-33238.08,-11311.245,-8749.71,-27661.77,1406.88,9643.41
1764768151.4879973,7801.514999999999,295.245,-33233.265,-11306.565,-8745.164999999999,-27657.225,1413.0,9648.315
1764768151.4879973,7812.809999999999,306.63,-33221.52,-11294.955,-8732.475,-27644.445,1424.07,9659.61
1764768151.4879973,7806.059999999999,298.215,-33229.845,-11303.055,-8741.115,-27651.78,1417.6799999999998,9651.645
1764768151.4879973,7811.865,303.615,-33224.31,-11298.465,-8737.199999999999,-27648.405,1421.325,9656.73
1764768151.4879973,7806.735,298.98,-33228.585,-11303.73,-8743.005,-27655.605,1415.61,9650.43
1764768151.4879973,7811.955,304.74,-33221.744999999995,-11297.16,-8736.119999999999,-27647.91,1421.145,9656.595
1764768151.4879973,7808.4,300.24,-33225.57,-11300.265,-8738.055,-27648.405,1419.615,9653.31
1764768151.5353763,7801.2,292.995,-33233.85,-11308.455,-8745.705,-27655.605,1413.81,9646.92
1764768151.5353763,7810.514999999999,303.21,-33224.22,-11297.655,-8734.949999999999,-27646.785,1421.46,9656.73
1764768151.5353763,7813.485,305.64,-33220.98,-11294.235,-8731.845,-27644.805,1422.36,9658.395
1764768151.5353763,7814.519999999999,306.99,-33220.44,-11292.165,-8730.36,-27642.69,1423.935,9659.385
1764768151.5353763,7814.07,306.585,-33220.845,-11292.975,-8731.485,-27644.04,1423.575,9659.16
1764768151.5353763,7799.804999999999,291.915,-33235.695,-11308.455,-8746.154999999999,-27659.295,1409.76,9644.535
1764768151.5353763,7803.63,294.615,-33231.915,-11304.855,-8743.095,-27654.84,1413.0,9647.685
1764768151.5353763,7794.224999999999,284.895,-33241.59,-11314.53,-8754.885,-27665.19,1405.26,9637.92
1764768151.5353763,7792.38,283.68,-33243.48,-11317.095,-8758.664999999999,-27668.655,1403.0549999999998,9636.525
1764768151.5353763,7795.575,287.82,-33239.025,-11313.63,-8754.705,-27664.74,1404.54,9640.215
1764768151.5353763,7793.594999999999,286.605,-33240.24,-11314.44,-8754.795,-27663.57,1404.135,9638.055
1764768151.5353763,7791.12,284.31,-33242.85,-11316.825,-8758.125,-27665.865,1402.785,9635.535
1764768151.5353763,7795.259999999999,288.945,-33238.305,-11312.595,-8752.545,-27662.04,1406.16,9640.575
1764768151.5353763,7803.63,298.395,-33229.35,-11303.415,-8742.96,-27655.965,1414.665,9649.08
1764768151.5353763,7821.99,319.365,-33209.505,-11283.615,-8724.555,-27642.105,1433.16,9669.645
1764768151.5353763,7821.54,318.195,-33210.494999999995,-11286.405,-8728.965,-27647.64,1432.26,9668.475
1764768151.5353763,7818.03,313.605,-33215.445,-11291.715,-8735.94,-27650.25,1428.66,9663.705
1764768151.5353763,7815.15,310.545,-33218.73,-11293.065,-8734.904999999999,-27644.175,1426.365,9661.275
1764768151.5353763,7818.21,313.29,-33214.994999999995,-11288.16,-8725.095,-27630.405,1431.945,9665.55
1764768151.5353763,7821.9,318.33,-33210.0,-11283.12,-8721.27,-27628.965,1435.725,9669.285
1764768151.5353763,7828.965,326.295,-33202.395,-11276.1,-8714.97,-27624.69,1441.26,9676.485
1764768151.5353763,7822.349999999999,320.13,-33208.244999999995,-11281.545,-8719.65,-27629.73,1436.445,9670.635
1764768151.5353763,7824.87,324.18,-33203.79,-11276.955,-8715.465,-27627.03,1440.1799999999998,9674.055
1764768151.5353763,7829.19,329.805,-33197.895,-11271.78,-8710.289999999999,-27622.71,1444.275,9679.41
1764768151.5823462,7838.955,339.21,-33189.165,-11262.69,-8699.355,-27610.515,1454.715,9690.48
1764768151.5823462,7835.759999999999,334.305,-33193.755,-11266.29,-8703.09,-27613.755,1452.24,9686.745
1764768151.5823462,7829.009999999999,327.105,-33200.82,-11273.895,-8712.315,-27624.51,1443.915,9678.555
1764768151.5823462,7815.915,312.795,-33215.94,-11290.005,-8729.369999999999,-27642.465,1429.02,9663.795
1764768151.5823462,7809.255,306.405,-33222.555,-11296.08,-8735.13,-27648.72,1422.72,9656.55
1764768151.5823462,7806.96,305.055,-33223.23,-11296.35,-8734.365,-27647.73,1420.965,9654.975
1764768151.5823462,7811.82,310.635,-33218.19,-11291.04,-8728.38,-27642.51,1425.195,9660.06
1764768151.5823462,7802.28,301.77,-33228.494999999995,-11301.84,-8738.865,-27653.265,1416.6,9649.755
1764768151.5823462,7805.88,304.2,-33225.93,-11300.13,-8736.885,-27651.24,1417.95,9652.41
1764768151.5823462,7802.73,299.835,-33229.395,-11303.505,-8739.9,-27653.94,1414.3049999999998,9648.675
1764768151.5823462,7810.695,308.475,-33220.665,-11293.92,-8730.36,-27644.715,1422.405,9657.18
1764768151.5823462,7799.4,297.045,-33231.96,-11304.855,-8742.42,-27657.675,1411.695,9645.255
1764768151.5823462,7804.394999999999,301.59,-33226.875,-11300.805,-8738.505,-27653.895,1415.16,9649.62
1764768151.5823462,7798.679999999999,295.11,-33233.265,-11307.105,-8745.255,-27659.835,1410.255,9644.31
1764768151.5823462,7806.96,304.785,-33223.23,-11297.52,-8735.895,-27649.08,1419.525,9654.57
1764768151.5823462,7813.71,312.345,-33216.48,-11290.14,-8729.82,-27642.69,1426.455,9661.995
1764768151.5823462,7813.934999999999,312.93,-33216.255,-11290.275,-8729.82,-27642.735,1427.31,9662.715
1764768151.5823462,7807.59,306.0,-33223.545,-11297.61,-8736.84,-27650.34,1422.765,9654.93
1764768151.5823462,7807.005,305.955,-33223.14,-11297.79,-8736.93,-27649.44,1422.27,9655.02
1764768151.5823462,7811.594999999999,311.085,-33217.83,-11292.255,-8730.99,-27643.86,1425.105,9660.285
1764768151.5823462,7811.235,309.69,-33219.135,-11293.11,-8731.664999999999,-27644.805,1423.71,9659.205
1764768151.5823462,7798.545,296.685,-33231.645,-11305.395,-8743.904999999999,-27657.45,1411.785,9647.055
1764768151.6288123,7796.429999999999,294.255,-33233.355,-11307.645,-8745.57,-27659.88,1408.23,9643.635
1764768151.6288123,7796.474999999999,294.21,-33233.31,-11307.735,-8745.21,-27659.97,1407.24,9643.005
1764768151.6288123,7796.07,293.445,-33233.985,-11307.33,-8743.994999999999,-27658.755,1407.825,9643.05
1764768151.6288123,7797.465,295.245,-33232.095,-11305.17,-8740.125,-27652.545,1411.83,9646.425
1764768151.6288123,7805.969999999999,304.83,-33222.78,-11296.395,-8731.26,-27642.915,1422.1799999999998,9657.27
1764768151.6288123,7808.085,306.855,-33220.215,-11294.415,-8730.99,-27643.14,1424.61,9659.475
1764768151.6288123,7816.95,316.8,-33210.36,-11284.695,-8723.43,-27636.39,1431.81,9668.655
1764768151.6288123,7814.07,313.515,-33212.744999999995,-11286.765,-8726.22,-27639.855,1430.64,9666.585
1764768151.6293292,7823.384999999999,323.28,-33203.7,-11276.82,-8716.275,-27629.37,1439.82,9676.125
1764768151.6293292,7814.384999999999,314.1,-33213.6,-11286.54,-8726.94,-27637.02,1430.01,9665.37
1764768151.6293292,7817.355,316.845,-33210.315,-11283.525,-8723.97,-27632.34,1432.125,9667.89
1764768151.6293292,7827.615,327.51,-33200.28,-11273.535,-8713.574999999999,-27624.33,1440.0,9677.745
1764768151.6293292,7829.955,331.155,-33196.23,-11270.655,-8713.89,-27627.12,1442.655,9680.355
1764768151.6293292,7822.71,324.045,-33202.98,-11278.17,-8723.115,-27638.19,1436.895,9672.705
1764768151.6293292,7816.724999999999,317.655,-33208.92,-11284.245,-8727.164999999999,-27639.9,1432.3049999999998,9667.17
1764768151.6293292,7816.679999999999,318.42,-33208.83,-11283.255,-8723.789999999999,-27635.4,1433.97,9668.745
1764768151.6293292,7822.755,325.845,-33201.675,-11275.2,-8713.305,-27624.015,1442.16,9677.115
1764768151.6293292,7816.995,319.68,-33207.66,-11280.645,-8718.66,-27628.29,1437.12,9670.275
1764768151.6293292,7823.519999999999,326.295,-33201.09,-11274.12,-8712.99,-27622.845,1441.3049999999998,9676.215
1764768151.6293292,7812.585,314.145,-33213.015,-11286.72,-8724.555,-27634.995,1428.525,9663.255
1764768151.6293292,7811.684999999999,312.885,-33213.33,-11288.115,-8724.779999999999,-27637.02,1426.815,9661.635
1764768151.6293292,7809.66,310.365,-33215.76,-11290.59,-8727.39,-27641.07,1425.24,9659.61
1764768151.6751373,7808.085,307.62,-33218.595,-11294.055,-8731.17,-27646.38,1422.54,9658.17
1764768151.675642,7810.559999999999,309.735,-33216.39,-11291.67,-8730.404999999999,-27646.245,1423.395,9660.645
1764768151.675642,7806.735,306.0,-33219.9,-11295.045,-8735.22,-27648.72,1419.435,9656.37
1764768151.675642,7797.465,297.63,-33227.82,-11303.415,-8742.735,-27652.68,1412.73,9647.505
1764768151.675642,7798.32,298.89,-33226.695,-11302.065,-8740.755,-27649.98,1413.72,9649.17
1764768151.675642,7792.469999999999,292.59,-33233.355,-11308.365,-8748.18,-27659.25,1407.87,9642.51
1764768151.675642,7804.755,305.955,-33220.8,-11296.08,-8736.705,-27648.0,1418.6699999999998,9655.29
1764768151.675642,7805.745,305.865,-33220.619999999995,-11295.945,-8736.39,-27648.045,1418.13,9655.605
1764768151.675642,7804.799999999999,304.74,-33221.475,-11295.855,-8736.3,-27649.125,1417.5,9654.03
1764768151.675642,7798.094999999999,298.485,-33227.19,-11301.75,-8741.97,-27654.12,1413.0,9646.785
1764768151.675642,7807.094999999999,308.7,-33217.155,-11292.345,-8731.395,-27642.69,1422.09,9656.775
1764768151.675642,7804.934999999999,306.855,-33218.055,-11293.245,-8732.205,-27642.915,1421.19,9655.56
1764768151.675642,7806.059999999999,307.845,-33217.065,-11291.76,-8729.775,-27640.17,1423.35,9657.36
1764768151.675642,7811.415,313.695,-33211.845,-11286.405,-8724.735,-27635.625,1427.985,9663.795
1764768151.675642,7810.65,313.02,-33213.015,-11287.845,-8727.345,-27638.46,1426.365,9663.12
1764768151.675642,7803.495,305.685,-33221.025,-11296.26,-8735.895,-27647.505,1419.84,9655.605
1764768151.675642,7811.099999999999,313.785,-33213.6,-11289.015,-8729.414999999999,-27642.06,1426.77,9664.065
1764768151.675642,7796.025,298.035,-33229.08,-11305.26,-8747.64,-27659.97,1410.57,9647.145
1764768151.675642,7789.184999999999,289.755,-33236.505,-11312.415,-8754.39,-27665.145,1403.235,9638.91
1764768151.675642,7783.74,283.95,-33241.86,-11316.96,-8757.494999999999,-27668.07,1397.88,9633.24
1764768151.675642,7788.105,288.27,-33238.035,-11311.425,-8751.824999999999,-27662.67,1401.03,9637.11
1764768151.675642,7788.42,289.44,-33237.135,-11309.535,-8749.664999999999,-27661.59,1401.615,9637.245
1764768151.675642,7787.115,289.215,-33237.405,-11309.715,-8749.664999999999,-27663.12,1399.86,9635.445
1764768151.675642,7775.73,277.245,-33249.105,-11321.955,-8762.13,-27676.71,1388.925,9624.06
1764768151.7222362,7773.795,274.455,-33252.165,-11324.655,-8763.48,-27676.8,1388.2949999999998,9623.16
1764768151.7222362,7782.525,283.995,-33242.355,-11315.25,-8752.05,-27664.74,1397.61,9633.555
1764768151.7222362,7784.82,286.83,-33239.7,-11313.225,-8751.869999999999,-27668.43,1397.88,9634.95
1764768151.7222362,7769.835,271.125,-33256.44,-11329.11,-8768.43,-27686.52,1381.995,9617.625
1764768151.7222362,7769.835,271.125,-33256.395,-11328.48,-8766.135,-27680.715,1384.11,9619.695
1764768151.7222362,7763.174999999999,263.79,-33263.325,-11335.455,-8773.154999999999,-27685.17,1380.06,9613.53
1764768151.7222362,7763.13,264.33,-33262.83,-11335.68,-8774.865,-27685.665,1378.98,9613.305
1764768151.7222362,7769.384999999999,272.25,-33255.45,-11329.2,-8769.735,-27680.58,1384.335,9619.11
1764768151.7222362,7768.08,271.215,-33257.25,-11330.82,-8771.039999999999,-27683.415,1383.885,9617.67
1764768151.7222362,7777.17,281.97,-33245.82,-11319.21,-8756.955,-27669.6,1393.695,9628.56
1764768151.7222362,7781.849999999999,287.595,-33240.645,-11313.765,-8750.97,-27665.145,1398.5549999999998,9634.32
1764768151.7222362,7784.955,290.205,-33238.395,-11311.83,-8751.51,-27667.845,1401.03,9637.515
1764768151.7222362,7787.7,293.085,-33236.19,-11309.805,-8748.99,-27665.19,1404.945,9640.395
1764768151.7222362,7779.915,285.255,-33244.605,-11317.545,-8756.595,-27671.715,1398.465,9631.89
1764768151.723251,7783.695,290.52,-33239.025,-11311.875,-8749.619999999999,-27663.57,1403.91,9636.21
1764768151.723251,7792.785,300.015,-33228.675,-11302.155,-8740.305,-27653.04,1411.9199999999998,9645.93
1764768151.723251,7794.405,301.68,-33227.595,-11300.94,-8739.99,-27652.59,1412.0549999999998,9646.695
1764768151.723251,7794.495,302.76,-33227.145,-11299.95,-8739.494999999999,-27651.87,1413.135,9646.875
1764768151.723251,7788.42,297.225,-33232.095,-11305.98,-8745.255,-27659.34,1407.735,9640.125
1764768151.723251,7785.719999999999,295.29,-33234.705,-11307.645,-8746.92,-27661.455,1405.98,9638.73
1764768151.723251,7787.205,296.1,-33233.94,-11305.845,-8743.725,-27656.28,1407.465,9640.8
1764768151.723251,7798.005,306.36,-33223.14,-11295.045,-8731.26,-27642.915,1418.22,9652.635
1764768151.723251,7800.344999999999,308.79,-33220.71,-11293.155,-8730.225,-27642.69,1419.975,9654.39
1764768151.723251,7787.384999999999,294.345,-33234.075,-11307.465,-8745.119999999999,-27660.42,1406.025,9639.36
1764768151.7696078,7794.045,301.5,-33226.83,-11300.94,-8739.27,-27655.92,1412.235,9645.84
1764768151.7696078,7790.894999999999,298.35,-33230.07,-11303.955,-8744.13,-27659.745,1408.995,9642.78
1764768151.7696078,7791.21,298.755,-33229.935,-11304.18,-8745.75,-27658.98,1408.77,9642.96
1764768151.7696078,7789.59,296.73,-33232.23,-11305.89,-8747.595,-27658.665,1406.115,9640.17
1764768151.7696078,7785.045,291.555,-33236.505,-11309.805,-8749.26,-27658.44,1402.11,9635.13
1764768151.7696078,7784.594999999999,291.42,-33235.47,-11309.22,-8748.09,-27657.63,1402.9199999999998,9635.22
1764768151.7696078,7785.9,293.49,-33233.895,-11308.005,-8747.279999999999,-27656.685,1405.35,9636.975
1764768151.7696078,7788.554999999999,296.1,-33231.465,-11305.125,-8745.255,-27653.895,1408.095,9640.125
1764768151.7696078,7787.88,295.155,-33232.545,-11306.43,-8746.515,-27655.245,1406.475,9638.595
1764768151.7696078,7776.63,283.455,-33244.965,-11319.03,-8758.98,-27667.845,1395.9,9626.355
1764768151.7696078,7772.985,279.45,-33249.33,-11323.62,-8763.345,-27674.055,1390.635,9621.585
1764768151.7696078,7769.835,275.31,-33253.02,-11327.535,-8767.26,-27680.175,1385.685,9617.535
1764768151.7696078,7770.33,275.67,-33252.84,-11327.22,-8766.494999999999,-27678.96,1386.45,9618.255
1764768151.7696078,7771.005,276.57,-33251.355,-11326.545,-8764.515,-27676.215,1388.385,9619.785
1764768151.7696078,7776.405,283.68,-33244.38,-11320.11,-8759.654999999999,-27672.795,1393.9199999999998,9625.905
1764768151.7696078,7780.634999999999,290.655,-33237.315,-11313.405,-8753.13,-27668.925,1400.535,9631.26
1764768151.7696078,7785.945,295.56,-33232.68,-11308.725,-8746.83,-27661.59,1405.8,9636.345
1764768151.7696078,7797.15,307.44,-33220.8,-11296.395,-8735.22,-27648.855,1415.745,9647.955
1764768151.7696078,7799.355,309.735,-33218.19,-11293.56,-8731.395,-27643.41,1418.895,9650.88
1764768151.7696078,7786.304999999999,295.83,-33233.04,-11307.24,-8743.185,-27652.995,1408.6799999999998,9638.73
1764768151.7696078,7795.71,305.01,-33224.4,-11298.465,-8733.779999999999,-27644.085,1417.005,9648.72
1764768151.7696078,7800.21,309.42,-33220.755,-11295.315,-8730.945,-27642.915,1419.39,9651.555
1764768151.7696078,7797.509999999999,306.855,-33223.994999999995,-11299.23,-8736.21,-27648.315,1415.925,9646.965
1764768151.7696078,7783.019999999999,291.6,-33238.53,-11314.935,-8753.895,-27664.065,1403.235,9632.07
1764768151.8137963,7779.195,288.27,-33241.14,-11317.77,-8756.955,-27665.01,1399.59,9629.055
1764768151.8137963,7788.195,297.945,-33231.96,-11308.275,-8747.19,-27657.18,1406.925,9638.145
1764768151.8137963,7786.53,295.38,-33234.93,-11311.11,-8751.33,-27662.445,1405.53,9635.535
1764768151.8137963,7792.92,302.715,-33227.955,-11304.54,-8744.625,-27657.855,1411.695,9643.275
1764768151.8137963,7803.855,315.495,-33214.77,-11290.77,-8728.92,-27643.185,1423.26,9655.83
1764768151.8137963,7794.315,304.515,-33224.805,-11300.13,-8737.74,-27651.195,1414.35,9645.48
1764768151.8137963,7802.19,312.3,-33216.795,-11291.985,-8730.404999999999,-27642.465,1420.74,9652.815
1764768151.8137963,7799.04,309.42,-33219.855,-11295.18,-8734.14,-27646.065,1417.185,9648.99
1764768151.8137963,7790.804999999999,300.51,-33228.855,-11305.035,-8744.355,-27656.64,1409.58,9640.845
1764768151.8137963,7799.535,309.825,-33219.855,-11295.945,-8734.994999999999,-27647.82,1418.265,9650.115
1764768151.8137963,7795.304999999999,306.135,-33222.78,-11299.455,-8738.324999999999,-27651.87,1415.475,9645.885
1764768151.8137963,7797.24,307.845,-33221.07,-11297.925,-8738.145,-27651.78,1417.815,9647.955
1764768151.8137963,7802.009999999999,313.11,-33215.94,-11292.705,-8733.914999999999,-27647.505,1423.1699999999998,9654.525
1764768151.8137963,7809.75,322.74,-33206.67,-11282.04,-8721.81,-27635.4,1432.26,9663.435
1764768151.8137963,7825.32,338.76,-33190.244999999995,-11265.57,-8702.82,-27615.465,1447.155,9679.005
1764768151.8137963,7820.73,333.225,-33195.555,-11271.555,-8708.4,-27621.09,1442.07,9673.11
1764768151.8137963,7820.639999999999,332.91,-33196.05,-11271.645,-8709.074999999999,-27622.845,1441.89,9673.335
1764768151.8137963,7827.12,339.165,-33189.21,-11265.57,-8702.73,-27618.75,1447.9199999999998,9679.815
1764768151.8137963,7821.134999999999,331.335,-33198.165,-11274.3,-8712.539999999999,-27629.55,1442.205,9672.255
1764768151.8137963,7821.405,332.055,-33197.805,-11275.245,-8714.34,-27631.08,1442.61,9671.85
1764768151.8137963,7825.32,336.78,-33193.44,-11270.88,-8709.164999999999,-27623.34,1446.075,9676.26
1764768151.8137963,7828.245,340.2,-33189.39,-11265.345,-8701.695,-27612.81,1449.0449999999998,9680.355
1764768151.8611672,7824.33,336.015,-33192.63,-11268.18,-8703.72,-27614.925,1446.21,9676.35
1764768151.8616824,7816.41,327.375,-33201.494999999995,-11277.315,-8713.619999999999,-27627.705,1438.83,9666.945
1764768151.8616824,7822.665,333.045,-33196.095,-11272.095,-8709.75,-27623.88,1443.06,9672.435
1764768151.8616824,7808.535,318.105,-33210.494999999995,-11287.98,-8726.13,-27639.9,1429.29,9657.495
1764768151.8616824,7803.9,313.335,-33215.85,-11293.65,-8732.07,-27645.21,1424.16,9651.69
1764768151.8616824,7802.415,311.535,-33218.28,-11295.675,-8734.59,-27646.875,1421.0549999999998,9649.845
1764768151.8616824,7807.679999999999,316.935,-33213.06,-11289.42,-8728.425,-27639.225,1425.915,9655.155
1764768151.8616824,7800.795,309.645,-33218.955,-11294.775,-8730.99,-27640.575,1421.0549999999998,9648.765
1764768151.8616824,7798.455,307.53,-33220.89,-11296.305,-8731.71,-27641.475,1419.075,9646.83
1764768151.8616824,7797.465,307.935,-33221.295,-11296.26,-8731.755,-27643.185,1418.625,9646.92
1764768151.8616824,7806.554999999999,318.42,-33211.395,-11286.225,-8722.529999999999,-27633.285,1427.94,9658.755
1764768151.8616824,7811.235,323.415,-33206.445,-11281.77,-8717.58,-27628.92,1433.97,9663.795
1764768151.8616824,7816.86,329.76,-33200.369999999995,-11276.415,-8712.99,-27626.805,1439.91,9669.87
1764768151.8616824,7807.049999999999,318.375,-33213.105,-11288.745,-8727.029999999999,-27640.485,1429.83,9658.71
1764768151.8616824,7813.035,324.72,-33206.625,-11282.13,-8720.595,-27632.115,1435.005,9665.28
1764768151.8616824,7815.599999999999,327.105,-33203.79,-11279.565,-8716.455,-27627.03,1436.985,9667.305
1764768151.8616824,7816.23,329.13,-33202.485,-11277.72,-8714.52,-27624.645,1438.605,9668.925
1764768151.8616824,7809.389999999999,322.29,-33210.09,-11284.56,-8721.765,-27633.42,1432.89,9662.49
1764768151.8616824,7809.344999999999,322.695,-33209.415,-11283.93,-8721.99,-27634.5,1432.755,9662.76
1764768151.8616824,7816.184999999999,330.075,-33202.305,-11276.685,-8714.43,-27628.155,1438.38,9670.455
1764768151.8616824,7818.255,331.875,-33200.1,-11275.335,-8712.539999999999,-27625.59,1440.405,9672.165
1764768151.8616824,7814.835,329.445,-33202.619999999995,-11277.945,-8716.635,-27629.64,1438.785,9668.295
1764768151.9081104,7820.37,334.395,-33197.94,-11273.085,-8712.99,-27626.4,1442.16,9673.74
1764768151.9081104,7809.21,321.75,-33210.405,-11285.64,-8725.545,-27637.335,1429.83,9661.05
1764768151.9081104,7812.674999999999,324.135,-33207.615,-11281.86,-8718.119999999999,-27627.615,1434.5549999999998,9666.135
1764768151.9081104,7811.235,321.435,-33209.595,-11283.705,-8718.525,-27627.03,1434.24,9664.92
1764768151.9081104,7804.394999999999,314.685,-33216.57,-11290.59,-8726.805,-27636.03,1427.985,9657.63
1764768151.9081104,7813.53,325.665,-33205.994999999995,-11280.24,-8716.904999999999,-27627.93,1436.985,9667.44
1764768151.9081104,7817.264999999999,330.75,-33201.72,-11276.595,-8712.765,-27624.69,1440.0449999999998,9671.085
1764768151.9081104,7818.57,332.685,-33199.65,-11273.58,-8710.695,-27622.44,1442.385,9673.155
1764768151.9081104,7812.585,326.97,-33205.68,-11279.115,-8716.005,-27627.165,1438.56,9667.44
1764768151.9081104,7814.969999999999,329.76,-33202.485,-11276.28,-8711.73,-27621.9,1441.395,9670.41
1764768151.9081104,7821.855,336.555,-33196.05,-11269.845,-8704.71,-27616.365,1445.6699999999998,9677.295
1764768151.9081104,7813.934999999999,328.095,-33204.24,-11278.305,-8713.35,-27625.995,1436.985,9668.295
1764768151.9081104,7807.139999999999,321.525,-33210.494999999995,-11284.785,-8720.91,-27632.79,1431.81,9661.365
1764768151.9081104,7806.059999999999,320.265,-33211.17,-11285.82,-8722.845,-27633.915,1429.965,9660.33
1764768151.9081104,7804.934999999999,319.635,-33213.015,-11288.025,-8725.05,-27636.12,1427.895,9659.61
1764768151.9081104,7811.775,327.33,-33205.005,-11280.015,-8719.154999999999,-27629.865,1434.105,9667.395
1764768151.9081104,7809.57,325.8,-33205.905,-11280.42,-8720.595,-27632.655,1432.53,9665.415
1764768151.9081104,7795.394999999999,310.095,-33221.205,-11294.505,-8734.14,-27646.47,1418.985,9650.61
1764768151.9081104,7792.469999999999,305.505,-33226.47,-11299.815,-8739.63,-27652.5,1413.63,9646.785
1764768151.9081104,7798.769999999999,312.75,-33219.27,-11293.065,-8733.42,-27646.29,1417.635,9652.995
1764768151.9081104,7799.309999999999,314.28,-33217.29,-11291.22,-8730.404999999999,-27642.42,1419.885,9654.165
1764768151.9081104,7782.48,296.73,-33234.255,-11308.635,-8745.57,-27657.045,1404.765,9637.155
1764768151.9081104,7776.99,290.745,-33240.78,-11314.665,-8751.33,-27662.49,1399.41,9631.08
1764768151.9081104,7779.195,292.725,-33239.34,-11312.73,-8750.205,-27661.815,1400.085,9632.43
1764768151.95512,7789.86,304.29,-33228.54,-11301.165,-8739.315,-27650.88,1407.915,9643.59
1764768151.95512,7793.235,308.925,-33224.04,-11295.99,-8733.779999999999,-27647.01,1411.605,9647.865
1764768151.95512,7793.594999999999,310.365,-33222.42,-11295.72,-8732.565,-27646.29,1414.3049999999998,9649.935
1764768151.9556296,7788.465,305.46,-33227.73,-11300.76,-8737.605,-27650.025,1411.56,9644.895
1764768151.9556296,7789.184999999999,306.09,-33226.92,-11299.68,-8735.445,-27646.92,1411.9199999999998,9644.85
1764768151.9556296,7795.485,311.31,-33221.07,-11293.38,-8728.154999999999,-27639.0,1417.905,9650.97
1764768151.9556296,7811.505,327.465,-33205.095,-11277.63,-8712.36,-27625.77,1432.1699999999998,9667.035
1764768151.9556296,7812.585,329.04,-33204.195,-11276.415,-8713.755,-27630.135,1433.835,9668.745
1764768151.9556296,7805.474999999999,321.435,-33211.44,-11283.975,-8722.71,-27640.575,1428.39,9660.78
1764768151.9556296,7805.924999999999,321.75,-33210.315,-11283.255,-8722.17,-27638.595,1428.975,9660.96
1764768151.9556296,7813.71,330.165,-33201.855,-11274.525,-8714.115,-27629.37,1435.455,9668.79
1764768151.9556296,7813.755,330.93,-33200.73,-11273.805,-8710.38,-27622.89,1436.8049999999998,9669.15
1764768151.9556296,7810.155,327.87,-33204.15,-11277.225,-8711.279999999999,-27625.41,1433.2949999999998,9666.135
1764768151.9556296,7808.219999999999,325.755,-33206.355,-11280.42,-8715.42,-27630.135,1431.63,9664.92
1764768151.9556296,7804.98,322.425,-33210.045,-11284.065,-8720.055,-27634.545,1429.875,9661.635
1764768151.9556296,7816.41,334.305,-33197.895,-11272.77,-8709.66,-27623.385,1439.955,9673.38
1764768151.9556296,7821.269999999999,340.695,-33192.494999999995,-11267.28,-8705.34,-27619.38,1444.14,9678.06
1764768151.9556296,7820.28,340.47,-33192.315,-11267.145,-8706.015,-27622.395,1442.25,9676.305
1764768151.9556296,7817.309999999999,336.87,-33196.23,-11269.53,-8707.14,-27623.34,1439.955,9672.525
1764768151.9556296,7802.37,320.4,-33212.7,-11285.955,-8720.73,-27634.95,1427.31,9657.045
1764768151.9556296,7799.355,316.395,-33216.66,-11289.735,-8722.529999999999,-27635.265,1426.77,9655.515
1764768151.9556296,7798.139999999999,315.045,-33217.83,-11290.995,-8725.14,-27637.74,1425.4199999999998,9654.705
1764768151.9556296,7800.795,317.745,-33214.68,-11289.33,-8725.275,-27639.225,1426.995,9657.045
1764768151.9556296,7799.355,317.52,-33215.085,-11290.23,-8726.85,-27642.195,1425.825,9656.82
1764768152.002534,7799.085,317.475,-33215.49,-11290.32,-8727.615,-27642.51,1424.52,9655.695
1764768152.002534,7805.16,323.595,-33209.145,-11283.48,-8719.695,-27634.68,1429.155,9661.185
1764768152.002534,7804.799999999999,323.28,-33209.595,-11284.515,-8721.0,-27636.12,1427.22,9660.24
1764768152.002534,7790.49,308.565,-33224.715,-11299.815,-8736.345,-27652.14,1413.315,9645.255
1764768152.002534,7794.0,312.705,-33221.025,-11296.665,-8733.015,-27648.405,1415.835,9648.855
1764768152.002534,7783.469999999999,301.995,-33232.095,-11308.095,-8745.705,-27662.715,1404.585,9636.93
1764768152.002534,7783.019999999999,301.23,-33232.905,-11309.805,-8747.955,-27666.945,1403.415,9636.12
1764768152.002534,7795.035,314.82,-33218.82,-11295.54,-8733.465,-27650.205,1415.925,9649.755
1764768152.002534,7799.355,320.175,-33213.915,-11290.23,-8727.435,-27641.655,1422.0,9654.705
1764768152.002534,7794.809999999999,316.71,-33217.83,-11294.28,-8731.619999999999,-27648.09,1419.615,9650.835
1764768152.002534,7794.855,317.07,-33217.29,-11293.92,-8729.82,-27646.83,1419.615,9650.925
1764768152.002534,7798.23,320.31,-33213.735,-11290.095,-8725.32,-27642.015,1423.44,9655.2
1764768152.002534,7813.62,335.61,-33199.02,-11274.57,-8710.199999999999,-27626.535,1437.615,9671.58
1764768152.002534,7811.865,333.36,-33201.54,-11277.315,-8714.205,-27630.855,1434.4199999999998,9669.015
1764768152.002534,7811.73,333.18,-33201.765,-11278.8,-8716.05,-27633.06,1434.105,9668.43
1764768152.002534,7805.565,327.555,-33207.39,-11284.155,-8721.81,-27638.685,1428.975,9661.095
1764768152.002534,7809.66,332.73,-33202.215,-11278.305,-8715.779999999999,-27631.665,1433.655,9665.28
1764768152.002534,7801.605,323.64,-33210.675,-11286.855,-8723.43,-27637.965,1426.86,9658.035
1764768152.002534,7803.809999999999,325.845,-33208.875,-11284.245,-8721.81,-27636.165,1428.57,9660.735
1764768152.002534,7797.735,320.535,-33213.78,-11289.42,-8727.57,-27643.23,1423.53,9654.57
1764768152.002534,7799.849999999999,323.955,-33211.17,-11286.765,-8724.69,-27640.935,1426.005,9657.585
1764768152.002534,7810.785,334.845,-33199.92,-11275.83,-8714.205,-27629.73,1436.31,9669.555
1764768152.002534,7813.349999999999,336.96,-33198.525,-11274.615,-8711.865,-27626.265,1439.73,9672.075
1764768152.002534,7798.679999999999,321.39,-33213.645,-11290.455,-8726.175,-27640.53,1426.14,9656.775
1764768152.0455196,7797.24,319.905,-33214.815,-11291.715,-8727.525,-27641.88,1424.385,9654.795
1764768152.0455196,7797.735,320.85,-33214.77,-11291.31,-8727.615,-27642.375,1423.98,9654.975
1764768152.0455196,7797.105,319.545,-33215.535,-11292.975,-8728.83,-27643.86,1422.81,9654.3
1764768152.0455196,7796.16,318.78,-33214.59,-11292.525,-8728.695,-27643.59,1422.675,9653.76
1764768152.0455196,7806.059999999999,330.255,-33204.195,-11282.22,-8718.119999999999,-27633.285,1431.585,9664.11
1764768152.0455196,7806.599999999999,331.47,-33203.07,-11281.455,-8716.77,-27633.24,1432.1699999999998,9664.92
1764768152.0455196,7798.32,321.705,-33213.33,-11290.995,-8727.029999999999,-27644.535,1424.025,9655.605
1764768152.0455196,7797.509999999999,321.345,-33214.32,-11290.68,-8725.05,-27640.665,1424.4299999999998,9655.83
1764768152.0455196,7798.815,321.93,-33213.33,-11290.59,-8722.35,-27636.12,1424.7,9656.055
1764768152.0455196,7788.87,310.32,-33224.265,-11302.11,-8734.32,-27650.655,1413.225,9644.58
1764768152.0455196,7781.219999999999,302.58,-33232.455,-11310.255,-8744.265,-27662.85,1405.89,9635.985
1764768152.0455196,7782.525,304.605,-33231.105,-11309.4,-8745.975,-27667.62,1406.4299999999998,9638.055
1764768152.0455196,7771.184999999999,293.31,-33242.94,-11322.09,-8761.365,-27682.245,1396.53,9626.94
1764768152.0455196,7772.219999999999,295.965,-33241.05,-11321.055,-8761.994999999999,-27679.5,1397.52,9628.155
1764768152.0455196,7780.139999999999,306.09,-33230.205,-11310.345,-8752.635,-27667.665,1404.9,9637.335
1764768152.0465934,7772.58,299.07,-33235.965,-11315.52,-8754.345,-27667.395,1399.32,9629.37
1764768152.0465934,7773.66,300.015,-33235.47,-11314.26,-8750.88,-27664.155,1401.12,9631.62
1764768152.0465934,7782.255,309.195,-33226.83,-11305.845,-8741.835,-27655.11,1409.985,9642.105
1764768152.0465934,7783.605,309.78,-33226.02,-11304.45,-8741.789999999999,-27655.155,1411.245,9642.555
1764768152.0465934,7770.285,294.705,-33239.744999999995,-11318.445,-8755.65,-27669.78,1398.285,9628.38
1764768152.093089,7771.545,295.2,-33239.16,-11317.545,-8752.949999999999,-27665.55,1400.085,9629.91
1764768152.093089,7778.655,303.03,-33231.78,-11308.59,-8743.994999999999,-27655.65,1405.8,9637.2
1764768152.093089,7782.66,308.295,-33227.235,-11303.19,-8738.91,-27651.915,1409.31,9642.195
1764768152.093089,7784.325,310.32,-33224.715,-11301.615,-8736.93,-27650.475,1411.56,9643.32
1764768152.093089,7779.15,305.82,-33229.305,-11306.79,-8742.105,-27656.37,1408.365,9638.595
1764768152.093089,7784.684999999999,311.4,-33224.175,-11301.795,-8735.67,-27650.7,1413.405,9645.03
1764768152.093089,7781.4,308.79,-33227.415,-11305.44,-8740.71,-27657.27,1410.57,9641.205
1764768152.093089,7788.78,317.295,-33219.54,-11299.455,-8737.289999999999,-27656.865,1416.285,9649.08
1764768152.093089,7793.099999999999,321.93,-33215.67,-11295.54,-8736.119999999999,-27655.47,1420.875,9654.075
1764768152.093089,7787.429999999999,316.395,-33220.98,-11300.715,-8740.8,-27657.18,1416.825,9648.045
1764768152.093089,7778.16,306.63,-33229.755,-11310.165,-8748.765,-27664.065,1407.96,9638.01
1764768152.093089,7768.62,296.1,-33239.115,-11319.705,-8758.755,-27673.695,1397.385,9627.165
1764768152.093089,7768.62,294.93,-33239.34,-11320.155,-8759.025,-27672.75,1395.225,9625.725
1764768152.093089,7756.605,283.23,-33252.03,-11332.08,-8770.455,-27682.965,1384.56,9614.16
1764768152.093089,7755.03,282.285,-33253.965,-11333.52,-8771.355,-27684.09,1383.21,9613.395
1764768152.093089,7763.535,291.735,-33244.47,-11323.665,-8760.645,-27674.775,1391.85,9622.665
1764768152.093089,7758.09,286.245,-33248.88,-11327.94,-8765.279999999999,-27680.04,1387.98,9617.13
1764768152.093089,7756.92,285.57,-33249.105,-11328.885,-8765.865,-27680.85,1387.08,9616.635
1764768152.093089,7764.974999999999,293.22,-33242.49,-11321.19,-8758.215,-27672.705,1393.695,9624.555
1764768152.093089,7752.33,278.955,-33256.575,-11335.545,-8772.795,-27687.015,1381.23,9610.245
1764768152.093089,7753.41,279.945,-33255.765,-11335.005,-8772.029999999999,-27687.33,1381.77,9610.875
1764768152.093089,7760.25,288.135,-33247.35,-11327.04,-8764.335,-27680.94,1389.645,9618.93
1764768152.093089,7761.915,290.295,-33245.01,-11324.79,-8762.085,-27678.735,1391.265,9620.82
1764768152.093089,7765.785,294.795,-33240.6,-11319.3,-8757.09,-27672.57,1393.83,9625.14
1764768152.093089,7761.195,290.205,-33245.055,-11325.015,-8761.77,-27675.9,1390.5,9621.45
1764768152.093089,7756.335,285.12,-33250.14,-11330.01,-8767.035,-27680.265,1386.585,9616.41
1764768152.139417,7754.58,283.23,-33252.3,-11332.08,-8767.619999999999,-27681.84,1384.065,9614.61
1764768152.139417,7756.605,285.75,-33249.869999999995,-11329.38,-8764.92,-27679.41,1385.235,9616.77
1764768152.139417,7762.275,292.32,-33243.39,-11323.215,-8760.465,-27675.72,1390.77,9622.71
1764768152.139417,7758.9,287.865,-33247.17,-11327.94,-8766.404999999999,-27682.875,1385.91,9618.39
1764768152.139417,7758.269999999999,287.145,-33249.15,-11329.695,-8766.225,-27681.525,1385.1,9617.715
1764768152.139417,7759.035,287.595,-33248.115,-11329.515,-8764.56,-27678.78,1387.665,9619.245
1764768152.139417,7754.894999999999,284.085,-33251.715,-11333.88,-8770.365,-27685.215,1385.1,9615.15
1764768152.139417,7758.9,290.115,-33245.82,-11329.29,-8768.07,-27682.74,1389.06,9620.46
1764768152.139417,7769.25,300.33,-33235.47,-11318.805,-8758.89,-27673.245,1396.755,9630.36
1764768152.139417,7765.559999999999,296.1,-33240.24,-11322.54,-8761.41,-27676.62,1392.705,9626.76
1764768152.139417,7763.309999999999,295.11,-33241.23,-11324.745,-8764.199999999999,-27681.255,1391.04,9624.6
1764768152.139417,7765.559999999999,297.495,-33239.07,-11322.99,-8764.02,-27681.21,1392.48,9626.355
1764768152.1399262,7764.974999999999,296.505,-33240.869999999995,-11323.845,-8765.01,-27681.615,1392.03,9625.185
1764768152.1399262,7748.054999999999,279.09,-33257.565,-11340.045,-8780.31,-27694.395,1377.945,9608.805
1764768152.1399262,7741.485,271.485,-33264.765,-11347.695,-8785.89,-27699.615,1369.935,9601.515
1764768152.1399262,7738.92,268.695,-33267.825,-11351.115,-8790.029999999999,-27705.915,1364.085,9597.015
1764768152.1399262,7739.19,268.38,-33267.24,-11349.765,-8789.58,-27704.79,1363.86,9597.015
1764768152.1399262,7737.255,265.41,-33269.49,-11351.745,-8788.904999999999,-27702.27,1364.715,9596.655
1764768152.1399262,7736.264999999999,265.14,-33271.02,-11352.105,-8788.59,-27701.505,1364.6699999999998,9595.845
1764768152.1399262,7735.5,265.86,-33270.39,-11351.565,-8789.13,-27705.6,1363.95,9595.755
1764768152.1399262,7736.759999999999,267.48,-33269.13,-11350.53,-8788.994999999999,-27708.705,1365.255,9597.87
1764768152.1399262,7743.285,274.23,-33263.235,-11345.22,-8784.945,-27704.88,1371.96,9604.62
1764768152.1894724,7757.415,289.17,-33248.97,-11331.63,-8772.615,-27691.425,1385.595,9619.155
1764768152.1894724,7752.825,284.715,-33253.38,-11335.23,-8776.619999999999,-27692.055,1381.41,9614.115
1764768152.1894724,7744.545,276.075,-33261.165,-11342.835,-8781.885,-27693.855,1374.165,9605.16
1764768152.1894724,7742.429999999999,273.33,-33263.865,-11346.48,-8783.145,-27693.765,1370.7,9601.965
1764768152.1894724,7746.389999999999,278.1,-33260.13,-11341.89,-8778.195,-27690.255,1373.58,9606.33
1764768152.1894724,7738.424999999999,270.855,-33266.7,-11347.515,-8783.865,-27696.645,1367.64,9598.68
1764768152.1894724,7746.974999999999,279.675,-33256.53,-11337.255,-8772.975,-27686.655,1375.695,9607.86
1764768152.1894724,7751.429999999999,285.345,-33252.21,-11332.89,-8768.43,-27682.47,1381.5449999999998,9613.845
1764768152.1894724,7750.349999999999,284.085,-33254.145,-11335.545,-8771.58,-27685.89,1381.095,9612.945
1764768152.1894724,7742.79,275.895,-33262.47,-11343.555,-8781.975,-27696.42,1373.31,9603.81
1764768152.1894724,7749.674999999999,282.51,-33255.45,-11336.94,-8777.295,-27693.045,1378.125,9610.155
1764768152.1894724,7746.57,278.235,-33259.59,-11340.81,-8782.515,-27697.32,1374.66,9607.095
1764768152.1894724,7738.155,269.415,-33268.994999999995,-11349.315,-8789.805,-27701.505,1368.45,9598.5
1764768152.1894724,7741.485,273.825,-33264.72,-11344.365,-8782.965,-27695.205,1372.095,9602.235
1764768152.1894724,7751.384999999999,285.165,-33253.02,-11332.62,-8770.14,-27683.055,1381.77,9612.405
1764768152.1894724,7744.455,279.225,-33258.24,-11338.245,-8775.855,-27689.805,1377.135,9606.15
1764768152.1894724,7748.684999999999,283.905,-33254.01,-11334.06,-8771.895,-27686.655,1381.41,9611.28
1764768152.1894724,7763.174999999999,298.98,-33238.845,-11319.3,-8757.72,-27672.345,1396.08,9627.075
1764768152.1894724,7768.394999999999,304.605,-33232.545,-11313.135,-8752.095,-27665.73,1402.9199999999998,9633.51
1764768152.1894724,7769.07,306.36,-33231.375,-11311.92,-8751.33,-27664.02,1405.89,9634.68
1764768152.1894724,7782.705,320.355,-33218.505,-11298.78,-8738.55,-27649.53,1417.995,9648.63
1764768152.1894724,7783.335,320.13,-33219.18,-11298.42,-8737.92,-27649.89,1416.4199999999998,9647.865
1764768152.1894724,7783.335,319.635,-33219.315,-11298.87,-8737.83,-27650.52,1415.655,9646.11
1764768152.1894724,7773.929999999999,309.96,-33228.63,-11309.13,-8748.045,-27660.78,1406.835,9636.48
1764768152.236085,7777.259999999999,313.47,-33225.03,-11305.89,-8744.67,-27657.27,1409.4,9640.17
1764768152.236085,7777.08,313.65,-33224.94,-11305.575,-8744.805,-27657.27,1409.535,9640.305
1764768152.236085,7774.11,311.31,-33227.055,-11307.24,-8747.324999999999,-27660.735,1407.96,9638.46
1764768152.236085,7768.17,305.64,-33233.22,-11313.855,-8754.615,-27671.13,1401.705,9632.07
1764768152.236085,7774.965,313.155,-33224.94,-11305.89,-8745.705,-27661.725,1407.33,9639.225
1764768152.236085,7777.394999999999,315.765,-33221.655,-11302.515,-8740.08,-27655.785,1410.84,9641.7
1764768152.236085,7779.285,316.755,-33221.43,-11301.93,-8739.765,-27656.01,1412.01,9642.825
1764768152.236085,7770.509999999999,306.45,-33231.42,-11312.235,-8751.914999999999,-27667.89,1402.11,9633.195
1764768152.236085,7764.255,298.935,-33239.61,-11320.38,-8760.195,-27674.64,1397.385,9626.94
1764768152.236085,7762.815,298.26,-33240.42,-11321.505,-8762.805,-27676.89,1396.845,9626.085
1764768152.236085,7768.485,304.74,-33233.085,-11314.125,-8756.414999999999,-27670.95,1401.345,9631.98
1764768152.236085,7765.785,303.03,-33235.065,-11316.69,-8758.529999999999,-27674.64,1398.645,9629.1
1764768152.236085,7772.67,311.85,-33225.975,-11308.095,-8749.395,-27666.315,1406.16,9638.01
1764768152.236085,7771.23,309.42,-33227.595,-11309.625,-8750.34,-27664.38,1405.395,9636.795
1764768152.236085,7768.665,305.775,-33231.33,-11313.135,-8752.86,-27665.64,1403.64,9634.185
1764768152.236085,7759.08,295.56,-33241.14,-11324.115,-8764.515,-27677.025,1393.785,9623.79
1764768152.2371871,7766.505,303.975,-33231.869999999995,-11315.79,-8756.64,-27670.095,1399.86,9631.44
1764768152.2371871,7766.684999999999,304.335,-33231.24,-11314.8,-8755.56,-27670.095,1400.13,9631.62
1764768152.2371871,7769.88,307.305,-33229.89,-11312.73,-8753.039999999999,-27667.98,1403.1,9634.725
1764768152.2371871,7767.809999999999,305.82,-33231.78,-11315.07,-8754.57,-27670.77,1401.21,9632.655
1764768152.2371871,7757.415,295.47,-33242.22,-11325.015,-8764.425,-27681.12,1392.21,9621.99
1764768152.2371871,7758.674999999999,297.09,-33240.645,-11323.98,-8762.715,-27679.815,1393.605,9623.925
1764768152.2371871,7765.92,304.605,-33232.994999999995,-11316.33,-8755.38,-27671.67,1399.86,9631.755
1764768152.2371871,7757.505,294.795,-33242.67,-11325.51,-8764.65,-27681.03,1391.13,9623.025
1764768152.2805786,7755.884999999999,293.355,-33244.065,-11327.805,-8767.395,-27684.18,1390.23,9621.72
1764768152.2805786,7757.91,296.55,-33240.195,-11323.665,-8763.615,-27680.67,1394.325,9624.78
1764768152.2805786,7767.719999999999,306.315,-33230.655,-11313.63,-8755.335,-27672.165,1401.885,9635.4
1764768152.2805786,7765.335,303.48,-33232.905,-11316.465,-8760.195,-27677.655,1399.05,9632.88
1764768152.2805786,7765.155,302.535,-33234.3,-11317.725,-8760.375,-27676.215,1398.78,9631.755
1764768152.2805786,7760.16,297.315,-33239.43,-11323.485,-8765.46,-27678.6,1394.19,9626.31
1764768152.2805786,7751.969999999999,289.62,-33247.08,-11331.09,-8772.84,-27684.99,1386.585,9618.165
1764768152.2805786,7751.384999999999,289.125,-33248.16,-11331.405,-8772.21,-27684.675,1384.83,9617.355
1764768152.2805786,7742.61,280.26,-33257.295,-11340.495,-8781.84,-27694.53,1377.27,9608.13
1764768152.2805786,7740.36,278.46,-33260.445,-11343.24,-8785.755,-27700.02,1374.39,9606.105
1764768152.2805786,7744.86,283.41,-33255.09,-11338.74,-8782.83,-27698.4,1377.1799999999998,9610.785
1764768152.2805786,7739.955,279.585,-33259.5,-11343.465,-8788.545,-27704.835,1372.725,9606.15
1764768152.2805786,7748.054999999999,288.09,-33251.67,-11335.23,-8779.32,-27694.98,1379.97,9614.16
1764768152.2805786,7744.41,283.905,-33255.63,-11339.235,-8781.345,-27695.475,1376.46,9610.29
1764768152.2805786,7745.445,283.59,-33254.369999999995,-11338.155,-8779.86,-27692.865,1377.315,9610.92
1764768152.2805786,7748.684999999999,287.775,-33250.815,-11333.52,-8775.99,-27688.365,1381.41,9614.7
1764768152.2805786,7750.349999999999,289.845,-33248.88,-11331.72,-8775.045,-27687.06,1382.535,9616.455
1764768152.2805786,7746.255,286.335,-33251.76,-11335.365,-8778.42,-27690.795,1378.935,9612.855
1764768152.2805786,7740.134999999999,280.935,-33257.565,-11340.675,-8783.279999999999,-27695.745,1374.84,9607.86
1764768152.2805786,7744.815,286.335,-33252.345,-11334.915,-8778.195,-27690.705,1380.645,9613.53
1764768152.3287158,7759.259999999999,300.645,-33237.945,-11319.975,-8762.805,-27674.82,1393.9199999999998,9628.695
1764768152.3287158,7764.615,304.965,-33233.355,-11315.205,-8757.36,-27669.195,1398.24,9633.105
1764768152.3287158,7764.21,305.01,-33233.355,-11315.025,-8757.765,-27670.86,1398.735,9632.295
1764768152.3287158,7749.63,290.25,-33248.52,-11331.045,-8774.865,-27690.12,1384.155,9616.635
1764768152.3287158,7744.545,284.67,-33253.425,-11336.04,-8780.445,-27698.04,1377.72,9611.01
1764768152.3287158,7745.985,286.74,-33251.085,-11333.97,-8779.5,-27696.69,1377.765,9611.91
1764768152.3287158,7753.5,295.605,-33242.355,-11324.25,-8768.88,-27683.01,1386.36,9620.865
1764768152.3287158,7748.865,289.935,-33248.07,-11328.525,-8770.23,-27679.455,1382.6699999999998,9617.085
1764768152.3287158,7735.634999999999,275.58,-33262.38,-11342.655,-8781.435,-27689.805,1371.915,9603.72
1764768152.3287158,7737.12,278.91,-33259.275,-11340.9,-8781.255,-27692.82,1374.165,9605.88
1764768152.3287158,7749.405,292.005,-33247.125,-11330.19,-8773.875,-27688.095,1385.19,9619.065
1764768152.3287158,7754.894999999999,297.36,-33242.805,-11326.455,-8771.805,-27684.945,1390.185,9623.88
1764768152.3287158,7759.08,301.905,-33237.9,-11322.045,-8768.97,-27680.13,1394.73,9628.785
1764768152.3287158,7753.545,295.425,-33244.425,-11329.38,-8775.765,-27686.52,1388.61,9622.62
1764768152.3287158,7748.009999999999,289.755,-33250.32,-11335.095,-8782.065,-27691.515,1382.31,9615.195
1764768152.3287158,7756.2,299.025,-33241.185,-11324.925,-8771.58,-27682.335,1390.32,9624.195
1764768152.3287158,7752.059999999999,294.48,-33245.235,-11329.38,-8775.045,-27687.87,1386.81,9619.74
1764768152.3287158,7750.304999999999,293.895,-33245.955,-11329.425,-8773.425,-27684.945,1388.25,9619.65
1764768152.3287158,7759.62,304.38,-33236.235,-11318.58,-8762.175,-27673.74,1397.16,9629.325
1764768152.3287158,7762.139999999999,306.945,-33233.715,-11316.69,-8760.6,-27673.065,1399.23,9632.16
1764768152.3287158,7755.57,299.925,-33241.23,-11324.7,-8769.375,-27682.29,1392.9299999999998,9624.87
1764768152.3287158,7760.07,305.46,-33236.055,-11319.705,-8764.244999999999,-27676.98,1396.26,9629.865
1764768152.3287158,7762.455,307.53,-33234.165,-11317.32,-8761.86,-27674.595,1398.4199999999998,9631.26
1764768152.3287158,7753.455,297.63,-33244.02,-11327.535,-8771.895,-27684.72,1389.825,9621.81
1764768152.3287158,7763.264999999999,307.215,-33234.255,-11317.32,-8761.59,-27674.19,1398.51,9631.665
1764768152.3287158,7764.21,309.285,-33231.69,-11315.07,-8758.98,-27671.85,1400.355,9633.645
1764768152.372537,7755.84,301.77,-33240.105,-11322.765,-8767.17,-27680.22,1394.19,9625.185
1764768152.372537,7750.575,296.46,-33245.28,-11327.94,-8773.244999999999,-27686.655,1389.015,9620.055
1764768152.3730462,7753.679999999999,299.925,-33241.275,-11324.925,-8770.904999999999,-27683.955,1392.255,9623.88
1764768152.3730462,7757.099999999999,303.3,-33238.17,-11321.28,-8768.07,-27681.615,1395.585,9627.525
1764768152.3730462,7763.04,309.735,-33232.455,-11315.79,-8762.58,-27675.945,1401.57,9634.5
1764768152.3730462,7757.73,305.145,-33237.99,-11320.92,-8767.755,-27680.895,1397.88,9628.875
1764768152.3730462,7765.83,314.1,-33229.665,-11311.92,-8758.8,-27671.985,1405.35,9637.245
1764768152.3730462,7753.184999999999,299.97,-33243.255,-11325.465,-8773.154999999999,-27685.62,1392.21,9623.52
1764768152.3730462,7749.495,296.055,-33246.945,-11329.56,-8777.88,-27689.895,1387.26,9619.245
1764768152.3730462,7758.179999999999,303.93,-33239.25,-11321.235,-8769.869999999999,-27681.93,1393.65,9625.995
1764768152.3730462,7752.735,297.81,-33244.83,-11326.905,-8774.73,-27687.15,1390.41,9621.18
1764768152.3730462,7752.87,299.205,-33244.244999999995,-11326.005,-8773.515,-27685.845,1391.895,9622.305
1764768152.3730462,7759.215,306.09,-33237.09,-11318.085,-8765.505,-27678.555,1398.105,9629.505
1764768152.3730462,7751.474999999999,297.36,-33244.83,-11326.23,-8773.695,-27686.115,1391.22,9621.45
1764768152.3730462,7752.87,299.835,-33242.445,-11324.115,-8772.164999999999,-27683.865,1392.48,9622.62
1764768152.3730462,7767.764999999999,315.765,-33227.775,-11308.905,-8756.64,-27669.195,1405.98,9637.47
1764768152.3730462,7779.33,327.465,-33217.244999999995,-11298.195,-8745.795,-27658.71,1417.5,9649.26
1764768152.3730462,7772.985,319.995,-33224.445,-11306.115,-8753.76,-27666.63,1410.885,9641.88
1764768152.3730462,7768.755,316.665,-33228.45,-11309.805,-8757.945,-27670.5,1406.16,9637.335
1764768152.3730462,7764.075,311.535,-33233.085,-11314.395,-8763.029999999999,-27674.1,1400.8049999999998,9631.89
1764768152.3730462,7757.325,303.84,-33240.78,-11322.9,-8770.41,-27681.84,1394.73,9624.96
1764768152.3730462,7760.384999999999,306.315,-33238.53,-11320.335,-8766.99,-27678.33,1397.4299999999998,9628.875
1764768152.418682,7763.445,309.915,-33234.345,-11316.015,-8764.199999999999,-27676.215,1400.085,9631.71
1764768152.418682,7755.705,302.67,-33241.545,-11323.395,-8772.48,-27685.53,1393.83,9624.465
1764768152.418682,7757.28,305.055,-33239.52,-11320.92,-8768.475,-27682.065,1396.665,9627.75
1764768152.41919,7751.025,298.845,-33245.73,-11327.175,-8774.91,-27687.69,1390.77,9621.225
1764768152.41919,7758.585,306.855,-33238.26,-11320.515,-8769.465,-27682.965,1395.225,9627.84
1764768152.41919,7749.945,297.855,-33247.125,-11329.02,-8777.744999999999,-27690.615,1386.225,9618.48
1764768152.41919,7755.75,304.605,-33240.78,-11321.955,-8770.77,-27683.145,1391.4,9624.555
1764768152.41919,7757.415,306.27,-33239.655,-11321.055,-8770.904999999999,-27684.36,1393.47,9625.635
1764768152.41919,7752.78,301.275,-33244.92,-11326.68,-8777.744999999999,-27693.9,1389.375,9620.505
1764768152.41919,7750.62,300.15,-33245.865,-11327.94,-8779.05,-27697.455,1387.935,9619.56
1764768152.41919,7752.375,302.715,-33242.67,-11325.375,-8776.215,-27693.9,1390.995,9622.845
1764768152.41919,7760.519999999999,310.545,-33234.57,-11317.41,-8769.33,-27686.07,1399.77,9631.845
1764768152.41919,7756.605,307.26,-33237.945,-11321.28,-8773.289999999999,-27685.8,1397.655,9628.83
1764768152.41919,7755.255,306.135,-33239.115,-11322.315,-8773.875,-27685.62,1395.765,9626.67
1764768152.41919,7763.264999999999,313.92,-33230.565,-11314.395,-8765.91,-27677.7,1402.2,9634.455
1764768152.41919,7755.12,305.325,-33238.89,-11322.9,-8775.36,-27687.69,1394.235,9625.77
1764768152.41919,7745.4,295.245,-33248.655,-11332.215,-8783.279999999999,-27696.105,1385.145,9615.33
1764768152.41919,7751.519999999999,301.68,-33241.95,-11325.78,-8777.025,-27690.39,1389.51,9621.09
1764768152.41919,7755.389999999999,306.135,-33238.125,-11321.82,-8773.74,-27687.42,1393.56,9625.23
1764768152.41919,7757.73,309.78,-33235.244999999995,-11319.255,-8770.455,-27684.36,1396.485,9628.29
1764768152.41919,7755.21,307.71,-33237.225,-11321.955,-8772.57,-27686.295,1394.28,9625.77
1764768152.41919,7751.61,303.12,-33240.645,-11326.545,-8778.015,-27691.83,1390.32,9622.08
1764768152.4197206,7751.384999999999,302.94,-33241.23,-11327.04,-8778.869999999999,-27694.935,1390.635,9621.72
1764768152.4197206,7754.355,306.18,-33238.17,-11323.665,-8776.215,-27693.36,1393.9199999999998,9624.96
1764768152.465796,7755.929999999999,308.34,-33236.595,-11322.45,-8775.585,-27692.73,1396.08,9626.985
1764768152.465796,7750.62,301.05,-33243.75,-11329.785,-8782.695,-27698.895,1388.655,9619.29
1764768152.465796,7744.545,294.255,-33249.915,-11336.85,-8788.095,-27701.685,1382.13,9611.91
1764768152.465796,7750.125,300.87,-33242.715,-11330.055,-8779.32,-27691.47,1387.71,9617.355
1764768152.465796,7750.53,302.175,-33240.645,-11328.345,-8776.89,-27690.255,1388.925,9618.48
1764768152.465796,7742.7,294.03,-33248.205,-11336.445,-8786.295,-27699.66,1382.8049999999998,9611.46
1764768152.465796,7752.78,305.145,-33237.945,-11326.545,-8777.34,-27689.85,1393.515,9623.07
1764768152.465796,7756.469999999999,310.635,-33232.77,-11322.18,-8773.74,-27687.195,1398.015,9628.515
1764768152.465796,7757.054999999999,311.805,-33231.645,-11320.65,-8771.985,-27685.44,1400.8049999999998,9630.27
1764768152.465796,7753.455,308.115,-33234.525,-11324.025,-8775.27,-27686.52,1398.195,9626.445
1764768152.465796,7758.855,314.055,-33228.585,-11318.13,-8769.69,-27681.795,1401.75,9632.205
1764768152.465796,7744.59,299.25,-33243.39,-11332.665,-8783.685,-27697.275,1388.205,9617.355
1764768152.465796,7741.304999999999,297.045,-33245.28,-11334.33,-8785.08,-27699.39,1385.505,9614.16
1764768152.465796,7748.235,303.975,-33237.45,-11328.075,-8778.105,-27693.585,1390.995,9620.19
1764768152.465796,7761.285,318.42,-33223.545,-11314.98,-8764.695,-27679.86,1404.225,9634.275
1764768152.465796,7762.905,320.58,-33222.015,-11312.73,-8761.095,-27675.18,1408.05,9638.145
1764768152.465796,7753.23,308.88,-33233.67,-11323.35,-8770.904999999999,-27684.135,1400.76,9629.01
1764768152.4663017,7750.259999999999,306.36,-33235.47,-11325.87,-8775.945,-27690.93,1397.52,9626.4
1764768152.4663017,7757.415,314.28,-33227.595,-11319.12,-8771.039999999999,-27687.69,1403.37,9633.87
1764768152.4663017,7764.21,322.02,-33219.405,-11311.605,-8763.615,-27680.04,1410.7949999999998,9641.43
1764768152.4663017,7768.349999999999,326.115,-33214.95,-11307.15,-8758.664999999999,-27674.145,1415.4299999999998,9645.435
1764768152.4663017,7758.495,314.595,-33226.38,-11318.805,-8769.51,-27684.18,1404.495,9634.725
1764768152.5151508,7749.855,306.855,-33234.795,-11327.355,-8778.105,-27693.315,1396.845,9625.545
1764768152.5151508,7746.66,304.695,-33237.18,-11330.28,-8780.895,-27696.555,1394.73,9622.935
1764768152.5151508,7746.075,303.885,-33237.99,-11330.73,-8781.795,-27698.04,1392.885,9622.395
1764768152.5151508,7745.759999999999,304.83,-33237.0,-11330.82,-8782.83,-27698.31,1392.57,9622.395
1764768152.5151508,7745.535,305.055,-33237.405,-11330.955,-8782.289999999999,-27699.03,1392.705,9623.61
1764768152.5151508,7749.63,308.88,-33233.805,-11327.445,-8778.24,-27695.835,1396.53,9628.065
1764768152.5151508,7755.165,315.72,-33227.865,-11321.64,-8772.074999999999,-27688.815,1402.47,9634.725
1764768152.5151508,7752.825,312.93,-33230.655,-11323.665,-8774.235,-27691.02,1401.525,9632.475
1764768152.5151508,7760.519999999999,320.94,-33223.59,-11316.24,-8767.529999999999,-27684.855,1408.32,9639.315
1764768152.5151508,7753.23,312.975,-33232.095,-11325.06,-8775.855,-27691.875,1401.975,9631.395
1764768152.5151508,7751.835,311.76,-33233.265,-11326.185,-8776.44,-27692.775,1400.85,9630.135
1764768152.5156577,7748.144999999999,309.015,-33235.65,-11329.065,-8779.904999999999,-27696.87,1397.34,9627.03
1764768152.5156577,7750.485,310.86,-33234.3,-11327.715,-8779.095,-27697.095,1398.645,9629.055
1764768152.5156577,7756.019999999999,315.495,-33229.845,-11322.405,-8774.73,-27693.09,1402.155,9633.645
1764768152.5156577,7747.335,306.585,-33239.34,-11332.08,-8784.945,-27702.765,1393.56,9624.33
1764768152.5156577,7744.049999999999,303.615,-33241.59,-11335.005,-8787.195,-27704.97,1391.355,9622.485
1764768152.5156577,7749.585,309.465,-33235.56,-11328.705,-8778.015,-27695.565,1398.465,9629.505
1764768152.5156577,7744.094999999999,304.38,-33240.825,-11333.88,-8781.119999999999,-27699.435,1393.605,9623.43
1764768152.5156577,7750.844999999999,311.58,-33233.895,-11327.04,-8774.55,-27693.99,1398.6,9629.28
1764768152.5156577,7745.985,305.955,-33240.015,-11332.845,-8781.119999999999,-27702.72,1392.705,9623.88
1764768152.5156577,7746.12,304.695,-33240.78,-11334.195,-8783.91,-27706.365,1393.065,9623.835
1764768152.5156577,7746.03,303.795,-33241.994999999995,-11336.445,-8789.22,-27710.01,1392.7949999999998,9623.43
1764768152.5156577,7738.83,297.495,-33249.285,-11343.555,-8799.795,-27716.94,1387.53,9616.14
1764768152.5156577,7743.735,303.345,-33241.77,-11336.22,-8793.585,-27707.58,1393.335,9622.17
1764768152.5156577,7743.509999999999,302.085,-33242.355,-11335.905,-8790.345,-27703.845,1394.1,9622.26
1764768152.5156577,7741.755,300.555,-33243.795,-11337.345,-8791.92,-27707.04,1392.165,9621.045
1764768152.562286,7741.394999999999,300.15,-33244.695,-11338.92,-8793.9,-27710.28,1390.905,9620.145
1764768152.5628047,7735.455,295.65,-33249.69,-11343.87,-8797.59,-27712.305,1387.08,9615.69
1764768152.5628047,7754.309999999999,315.27,-33230.61,-11322.81,-8776.529999999999,-27690.345,1405.8,9635.58
1764768152.5628047,7754.445,315.36,-33231.06,-11322.855,-8776.44,-27690.93,1405.125,9635.715
1764768152.5628047,7751.745,312.75,-33234.48,-11325.24,-8778.555,-27693.9,1402.875,9632.16
1764768152.5628047,7744.815,305.595,-33241.725,-11332.62,-8784.72,-27699.84,1395.99,9624.78
1764768152.5628047,7752.285,313.695,-33234.75,-11325.915,-8778.24,-27693.45,1402.47,9632.43
1764768152.5628047,7751.384999999999,313.695,-33234.75,-11326.725,-8781.029999999999,-27697.725,1401.525,9631.935
1764768152.5628047,7748.46,311.22,-33237.494999999995,-11329.65,-8785.89,-27705.465,1398.78,9628.92
1764768152.5628047,7740.269999999999,302.67,-33246.18,-11337.435,-8795.744999999999,-27717.03,1391.76,9621.09
1764768152.5628047,7747.065,311.085,-33237.99,-11328.48,-8787.42,-27706.95,1397.745,9629.28
1764768152.5628047,7751.25,315.585,-33233.76,-11324.835,-8781.435,-27699.03,1401.075,9632.925
1764768152.5628047,7749.945,313.92,-33235.875,-11325.87,-8779.904999999999,-27692.055,1402.02,9633.195
1764768152.5628047,7740.405,303.615,-33246.27,-11335.545,-8788.14,-27696.915,1395.45,9624.105
1764768152.5628047,7745.13,309.15,-33240.645,-11330.505,-8784.765,-27693.765,1400.22,9628.02
1764768152.5628047,7752.509999999999,317.565,-33232.32,-11321.82,-8778.195,-27686.745,1408.23,9636.75
1764768152.5628047,7761.644999999999,327.285,-33223.275,-11312.325,-8770.05,-27681.615,1416.465,9646.11
1764768152.5628047,7762.365,329.175,-33221.205,-11310.66,-8768.115,-27681.39,1418.895,9648.045
1764768152.5628047,7761.465,328.365,-33221.7,-11310.12,-8767.529999999999,-27679.23,1418.76,9647.415
1764768152.5628047,7751.655,318.285,-33231.24,-11319.615,-8776.98,-27688.23,1409.6699999999998,9637.02
1764768152.5628047,7753.32,320.31,-33230.385,-11318.895,-8775.99,-27688.455,1410.255,9639.18
1764768152.5628047,7767.269999999999,335.52,-33216.165,-11305.17,-8762.4,-27675.45,1422.1799999999998,9654.3
1764768152.6060326,7774.605,343.98,-33208.425,-11297.565,-8754.21,-27668.25,1428.7949999999998,9661.635
1764768152.6060326,7771.005,339.435,-33211.89,-11300.715,-8757.99,-27671.94,1425.24,9657.27
1764768152.6060326,7765.65,332.73,-33217.83,-11306.295,-8764.154999999999,-27677.07,1420.9199999999998,9651.33
1764768152.6060326,7769.474999999999,337.77,-33213.06,-11301.435,-8759.07,-27671.265,1424.205,9655.695
1764768152.6060326,7767.315,336.06,-33216.119999999995,-11303.685,-8761.185,-27672.66,1421.73,9653.355
1764768152.6060326,7759.304999999999,327.375,-33224.67,-11312.19,-8769.33,-27681.165,1414.035,9644.4
1764768152.6060326,7759.934999999999,328.95,-33223.005,-11309.445,-8765.955,-27675.945,1417.095,9646.74
1764768152.6060326,7769.61,339.03,-33213.015,-11299.59,-8755.56,-27664.515,1427.535,9658.305
1764768152.6060326,7768.98,337.995,-33213.6,-11300.67,-8757.99,-27667.98,1426.23,9657.315
1764768152.6060326,7761.915,331.29,-33219.675,-11306.745,-8765.595,-27676.305,1419.975,9649.935
1764768152.6060326,7771.634999999999,340.83,-33210.9,-11298.375,-8756.82,-27668.07,1428.84,9659.385
1764768152.6060326,7763.13,332.01,-33219.99,-11307.78,-8766.72,-27678.915,1421.235,9650.205
1764768152.6060326,7759.215,327.69,-33223.005,-11310.93,-8769.015,-27681.165,1416.735,9646.155
1764768152.6060326,7759.62,327.87,-33222.015,-11309.67,-8766.585,-27678.69,1417.185,9645.795
1764768152.6060326,7759.62,327.645,-33222.195,-11309.94,-8766.945,-27679.59,1416.5549999999998,9645.03
1764768152.6060326,7759.755,328.77,-33220.935,-11308.23,-8765.46,-27678.87,1416.69,9645.12
1764768152.6071603,7766.505,336.645,-33212.744999999995,-11301.03,-8756.955,-27670.23,1423.575,9652.77
1764768152.6071603,7766.684999999999,336.96,-33212.655,-11302.02,-8757.81,-27669.735,1424.925,9654.3
1764768152.6071603,7767.0,336.51,-33213.69,-11302.515,-8760.555,-27670.59,1426.005,9655.2
1764768152.6071603,7768.665,338.76,-33212.205,-11300.895,-8761.815,-27671.13,1427.22,9656.64
1764768152.6071603,7772.4,342.855,-33208.515,-11296.395,-8758.17,-27667.485,1429.785,9659.925
1764768152.6071603,7768.53,338.76,-33211.485,-11299.545,-8761.455,-27671.67,1426.5,9655.2
1764768152.6071603,7759.53,329.04,-33220.755,-11309.04,-8769.869999999999,-27680.265,1418.535,9645.75
1764768152.6071603,7767.179999999999,337.635,-33212.025,-11299.365,-8759.789999999999,-27670.77,1425.06,9654.075
1764768152.653387,7771.905,343.485,-33206.67,-11294.235,-8754.48,-27664.785,1430.145,9659.52
1764768152.653387,7765.469999999999,337.905,-33212.655,-11300.31,-8760.779999999999,-27670.23,1425.285,9653.355
1764768152.653387,7769.519999999999,342.27,-33207.84,-11295.72,-8755.56,-27664.875,1428.75,9657.63
1764768152.653387,7764.165,336.78,-33214.095,-11301.93,-8761.455,-27670.32,1422.945,9651.915
1764768152.653387,7770.105,342.9,-33207.615,-11295.405,-8755.83,-27666.09,1428.165,9658.26
1764768152.653387,7766.73,339.39,-33211.215,-11298.465,-8760.779999999999,-27671.31,1424.52,9654.255
1764768152.653387,7777.62,351.765,-33199.155,-11287.08,-8748.765,-27659.475,1433.97,9665.325
1764768152.653387,7767.9,340.56,-33210.315,-11298.78,-8758.71,-27668.385,1424.835,9654.525
1764768152.653387,7763.94,335.88,-33215.04,-11302.38,-8760.33,-27668.79,1422.135,9650.61
1764768152.653387,7761.15,333.72,-33217.244999999995,-11304.27,-8762.355,-27670.905,1418.535,9648.72
1764768152.653387,7768.17,341.82,-33209.865,-11296.35,-8754.435,-27663.795,1424.655,9656.595
1764768152.653387,7766.46,339.165,-33212.34,-11298.555,-8756.64,-27666.405,1423.935,9655.335
1764768152.653387,7757.91,329.76,-33221.07,-11307.87,-8766.315,-27675.405,1417.05,9646.92
1764768152.653387,7760.565,333.72,-33217.155,-11304.9,-8763.525,-27673.695,1420.74,9650.385
1764768152.653387,7767.99,340.785,-33209.955,-11297.52,-8756.19,-27666.27,1427.31,9657.27
1764768152.653387,7765.559999999999,337.68,-33212.34,-11301.12,-8760.465,-27670.005,1424.52,9654.435
1764768152.653387,7772.985,345.735,-33204.42,-11293.83,-8753.805,-27662.31,1431.09,9662.31
1764768152.653387,7762.86,334.755,-33215.4,-11303.37,-8764.785,-27673.47,1421.325,9651.735
1764768152.653387,7768.349999999999,341.055,-33210.54,-11297.61,-8761.14,-27668.925,1425.15,9657.0
1764768152.653387,7765.785,338.4,-33213.33,-11300.355,-8762.445,-27669.24,1422.135,9653.31
1764768152.653387,7771.184999999999,344.115,-33206.985,-11292.795,-8754.3,-27661.59,1427.6699999999998,9659.34
1764768152.653387,7772.804999999999,346.095,-33205.23,-11291.22,-8753.13,-27662.67,1429.38,9661.905
1764768152.6999247,7772.58,346.32,-33204.195,-11290.815,-8752.815,-27663.795,1429.155,9662.175
1764768152.6999247,7762.184999999999,335.115,-33215.04,-11301.705,-8764.065,-27676.395,1419.7949999999998,9651.375
1764768152.6999247,7754.804999999999,326.745,-33223.635,-11310.12,-8773.38,-27686.025,1413.99,9644.355
1764768152.6999247,7757.865,330.48,-33220.98,-11308.275,-8773.065,-27683.505,1417.77,9647.82
1764768152.6999247,7772.58,346.455,-33205.994999999995,-11293.29,-8758.35,-27664.74,1430.01,9662.76
1764768152.6999247,7774.335,348.975,-33201.99,-11289.645,-8753.58,-27659.115,1431.585,9664.56
1764768152.7004366,7775.91,350.595,-33199.2,-11286.765,-8752.59,-27663.255,1433.115,9665.595
1764768152.7004366,7770.42,344.61,-33205.5,-11292.345,-8757.315,-27668.34,1428.3,9660.06
1764768152.7004366,7762.86,336.78,-33213.465,-11298.87,-8761.095,-27669.465,1423.53,9652.995
1764768152.7004366,7768.62,342.495,-33207.93,-11292.795,-8755.92,-27665.325,1428.9299999999998,9659.205
1764768152.7004366,7762.365,336.915,-33213.42,-11299.095,-8765.1,-27674.73,1422.945,9653.04
1764768152.7004366,7758.405,333.585,-33216.75,-11302.83,-8768.925,-27677.97,1419.975,9649.26
1764768152.7004366,7769.88,344.61,-33205.68,-11291.58,-8755.92,-27664.83,1430.955,9661.41
1764768152.7004366,7775.82,351.675,-33199.56,-11285.235,-8749.485,-27658.395,1435.86,9667.35
1764768152.7004366,7775.639999999999,350.595,-33200.73,-11287.35,-8750.52,-27660.33,1434.24,9666.18
1764768152.7004366,7769.969999999999,343.935,-33207.75,-11295.315,-8758.574999999999,-27667.53,1428.03,9660.33
1764768152.7004366,7767.179999999999,340.56,-33211.17,-11298.645,-8762.085,-27670.455,1425.51,9657.18
1764768152.7004366,7765.514999999999,339.03,-33211.8,-11299.365,-8761.545,-27670.545,1424.61,9655.56
1764768152.7004366,7766.865,340.65,-33211.035,-11298.24,-8760.105,-27670.14,1425.4199999999998,9657.135
1764768152.7004366,7764.974999999999,338.805,-33213.69,-11300.04,-8761.77,-27672.93,1424.16,9655.605
1764768152.7004366,7755.66,330.615,-33222.825,-11308.905,-8771.76,-27683.415,1417.32,9647.145
1764768152.7004366,7757.009999999999,333.18,-33220.395,-11307.87,-8772.39,-27684.18,1420.245,9649.08
1764768152.7004366,7761.059999999999,336.51,-33216.57,-11305.98,-8770.725,-27682.56,1422.81,9652.68
1764768152.7004366,7770.735,346.77,-33205.86,-11293.965,-8758.935,-27667.665,1431.945,9663.12
1764768152.747002,7779.24,356.49,-33196.05,-11283.525,-8746.83,-27653.58,1441.845,9672.975
1764768152.747002,7776.719999999999,354.42,-33198.03,-11285.73,-8748.225,-27656.505,1440.09,9670.185
1764768152.747002,7764.84,342.18,-33210.494999999995,-11298.735,-8761.725,-27671.94,1429.155,9658.035
1764768152.747002,7761.014999999999,337.455,-33214.635,-11303.82,-8767.215,-27679.05,1423.845,9652.86
1764768152.747002,7761.285,337.77,-33215.895,-11304.9,-8767.845,-27679.815,1422.27,9652.815
1764768152.747002,7767.45,344.43,-33208.785,-11298.195,-8761.455,-27673.38,1426.365,9658.44
1764768152.747002,7762.815,339.66,-33213.06,-11302.695,-8765.865,-27679.005,1422.135,9653.175
1764768152.747002,7767.855,345.33,-33207.03,-11295.99,-8760.15,-27673.92,1428.255,9659.295
1764768152.747002,7761.465,337.005,-33214.994999999995,-11304.54,-8767.619999999999,-27681.525,1423.26,9653.31
1764768152.747002,7764.705,339.975,-33212.295,-11300.85,-8763.57,-27675.045,1429.245,9658.71
1764768152.747002,7780.41,357.48,-33196.365,-11284.965,-8747.46,-27658.26,1443.87,9675.315
1764768152.747002,7780.545,358.83,-33194.97,-11284.47,-8746.65,-27657.99,1443.51,9675.45
1764768152.747002,7774.514999999999,352.485,-33200.865,-11290.545,-8754.164999999999,-27664.83,1438.29,9669.285
1764768152.747002,7776.36,352.935,-33200.325,-11289.375,-8753.49,-27663.48,1437.66,9670.185
1764768152.747002,7765.335,341.055,-33212.07,-11301.165,-8764.965,-27675.99,1426.275,9657.405
1764768152.747002,7758.045,334.08,-33218.73,-11306.88,-8770.77,-27682.155,1419.885,9650.115
1764768152.747002,7751.34,327.96,-33224.805,-11312.955,-8777.205,-27688.005,1413.945,9643.86
1764768152.747002,7748.955,325.035,-33228.045,-11316.285,-8781.119999999999,-27692.955,1410.345,9640.98
1764768152.747002,7755.57,330.66,-33222.195,-11311.155,-8775.404999999999,-27688.23,1414.53,9646.605
1764768152.747002,7757.28,333.27,-33220.35,-11308.995,-8773.02,-27685.98,1416.375,9648.63
1764768152.747002,7751.969999999999,327.51,-33226.244999999995,-11314.62,-8777.61,-27691.155,1409.58,9643.41
1764768152.747002,7744.86,320.4,-33232.59,-11321.19,-8783.685,-27696.51,1402.65,9636.075
1764768152.794032,7744.41,319.725,-33232.635,-11322.09,-8784.585,-27698.355,1402.785,9635.085
1764768152.794032,7735.139999999999,310.5,-33243.345,-11332.71,-8795.88,-27709.65,1394.865,9625.545
1764768152.794032,7733.205,308.61,-33245.955,-11335.185,-8799.57,-27713.205,1393.56,9623.61
1764768152.794032,7737.434999999999,313.56,-33241.59,-11330.955,-8796.555,-27711.54,1398.735,9628.425
1764768152.794032,7753.815,332.595,-33222.735,-11312.325,-8778.285,-27693.63,1415.2949999999998,9646.38
1764768152.794032,7752.87,331.695,-33222.24,-11310.885,-8776.664999999999,-27688.455,1415.925,9645.525
1764768152.794032,7757.73,336.69,-33217.2,-11305.98,-8770.545,-27681.39,1419.57,9650.79
1764768152.794032,7751.745,329.85,-33223.635,-11312.055,-8775.765,-27687.645,1414.08,9644.13
1764768152.794032,7760.61,339.345,-33214.455,-11302.965,-8766.494999999999,-27679.365,1421.595,9652.725
1764768152.794032,7760.115,338.805,-33214.815,-11303.415,-8766.945,-27680.625,1420.155,9651.33
1764768152.794032,7751.429999999999,329.355,-33223.59,-11312.415,-8775.0,-27686.565,1412.145,9641.565
1764768152.794032,7754.445,331.155,-33221.97,-11310.255,-8771.49,-27680.31,1414.845,9644.49
1764768152.794032,7749.585,326.43,-33227.369999999995,-11316.69,-8777.295,-27686.835,1411.56,9640.53
1764768152.794032,7755.03,332.055,-33221.565,-11311.29,-8773.515,-27687.015,1415.61,9647.145
1764768152.794032,7753.275,330.12,-33222.825,-11312.82,-8776.08,-27690.39,1414.44,9645.345
1764768152.794032,7738.245,315.0,-33239.025,-11328.165,-8792.279999999999,-27704.385,1401.12,9630.0
1764768152.794032,7735.545,312.255,-33241.95,-11331.855,-8797.994999999999,-27707.85,1396.845,9627.03
1764768152.794032,7744.139999999999,321.255,-33232.23,-11322.54,-8786.52,-27696.465,1404.0,9635.67
1764768152.794032,7747.29,323.82,-33229.845,-11318.895,-8781.21,-27691.29,1407.33,9638.19
1764768152.794032,7739.91,315.855,-33238.89,-11326.995,-8788.725,-27699.21,1400.31,9629.955
1764768152.794032,7736.04,311.67,-33243.165,-11331.585,-8793.27,-27704.385,1395.135,9625.23
1764768152.794032,7729.019999999999,304.155,-33250.545,-11339.955,-8801.414999999999,-27712.395,1387.395,9617.355
1764768152.843357,7734.96,310.86,-33244.47,-11333.43,-8795.25,-27705.51,1392.84,9623.43
1764768152.843357,7730.73,307.17,-33248.79,-11337.57,-8800.244999999999,-27711.63,1389.33,9618.48
1764768152.843357,7739.415,317.43,-33238.619999999995,-11327.445,-8790.885,-27702.54,1396.62,9628.02
1764768152.843357,7744.275,323.235,-33230.97,-11320.83,-8782.74,-27695.205,1402.785,9635.13
1764768152.843357,7744.184999999999,322.515,-33232.32,-11321.19,-8782.244999999999,-27694.53,1404.0449999999998,9635.715
1764768152.843357,7744.094999999999,321.48,-33233.895,-11323.08,-8783.55,-27694.98,1404.27,9634.455
1764768152.843357,7751.07,328.59,-33227.73,-11316.645,-8777.88,-27689.94,1411.02,9641.655
1764768152.843357,7737.884999999999,314.91,-33242.13,-11330.505,-8791.47,-27704.79,1396.98,9627.39
1764768152.843357,7734.735,310.77,-33245.055,-11333.34,-8794.17,-27707.49,1392.075,9622.98
1764768152.843357,7740.269999999999,315.99,-33238.935,-11327.76,-8787.645,-27701.73,1395.45,9628.38
1764768152.843357,7740.764999999999,316.98,-33238.485,-11327.13,-8787.015,-27701.415,1395.765,9629.235
1764768152.843357,7740.36,316.35,-33239.295,-11328.03,-8788.14,-27702.63,1396.845,9629.37
1764768152.843357,7737.795,314.46,-33241.59,-11330.64,-8792.324999999999,-27707.67,1395.765,9628.11
1764768152.843357,7746.075,323.145,-33232.5,-11321.955,-8785.215,-27700.38,1403.775,9637.65
1764768152.843357,7743.87,320.985,-33234.615,-11324.43,-8788.14,-27701.955,1400.895,9634.77
1764768152.843357,7742.07,319.455,-33235.92,-11325.51,-8789.4,-27702.9,1398.735,9633.69
1764768152.843357,7744.545,322.605,-33233.265,-11323.035,-8786.744999999999,-27698.13,1400.895,9636.345
1764768152.843357,7742.025,318.645,-33236.91,-11326.095,-8787.33,-27696.915,1399.6799999999998,9633.645
1764768152.843357,7737.929999999999,314.19,-33241.275,-11329.695,-8790.3,-27701.235,1397.4299999999998,9629.685
1764768152.843357,7737.48,314.37,-33240.24,-11328.12,-8789.13,-27701.595,1397.025,9628.785
1764768152.843357,7738.11,313.02,-33241.68,-11330.01,-8790.975,-27702.765,1395.27,9627.93
1764768152.843357,7739.235,313.875,-33241.635,-11329.965,-8789.715,-27701.1,1395.945,9628.785
1764768152.843357,7745.625,321.975,-33234.705,-11322.675,-8782.56,-27695.385,1402.38,9635.805
1764768152.843357,7737.884999999999,314.235,-33242.805,-11331.27,-8791.515,-27705.78,1395.405,9627.93
1764768152.843357,7738.155,314.685,-33242.805,-11331.315,-8791.74,-27707.22,1394.91,9627.795
1764768152.843357,7745.985,323.01,-33234.119999999995,-11322.99,-8784.675,-27701.82,1400.715,9635.355
1764768152.843357,7745.894999999999,322.11,-33233.58,-11321.865,-8782.875,-27698.58,1401.12,9635.085
1764768152.843357,7732.485,307.17,-33248.025,-11335.23,-8795.295,-27709.065,1388.835,9621.09
1764768152.8878925,7738.065,312.21,-33243.165,-11330.505,-8789.85,-27703.575,1393.9199999999998,9626.265
1764768152.8878925,7744.905,320.22,-33234.615,-11322.63,-8782.02,-27695.295,1400.49,9633.735
1764768152.8878925,7739.144999999999,313.335,-33240.735,-11328.795,-8789.039999999999,-27702.54,1395.855,9627.705
1764768152.8878925,7736.759999999999,311.22,-33243.39,-11330.775,-8789.715,-27702.72,1393.965,9626.04
1764768152.8878925,7737.344999999999,312.93,-33241.635,-11327.265,-8785.035,-27696.51,1395.0449999999998,9627.93
1764768152.8878925,7746.434999999999,323.46,-33230.744999999995,-11316.015,-8771.94,-27685.08,1403.775,9637.83
1764768152.8878925,7754.219999999999,331.065,-33223.815,-11310.075,-8765.369999999999,-27678.87,1412.0549999999998,9646.11
1764768152.8878925,7760.429999999999,336.51,-33218.865,-11305.395,-8760.555,-27672.885,1418.445,9652.14
1764768152.8878925,7754.085,329.85,-33225.345,-11312.505,-8768.43,-27680.175,1411.83,9645.12
1764768152.8878925,7747.11,322.335,-33233.625,-11321.37,-8780.805,-27692.955,1403.46,9637.245
1764768152.8878925,7750.53,325.395,-33230.97,-11319.525,-8783.955,-27698.265,1406.79,9640.53
1764768152.8878925,7749.405,324.045,-33230.835,-11320.2,-8786.43,-27703.17,1406.115,9639.81
1764768152.8878925,7760.07,335.835,-33218.28,-11306.79,-8770.23,-27684.765,1417.635,9651.69
1764768152.8878925,7760.25,336.555,-33217.605,-11305.755,-8768.34,-27680.895,1418.175,9652.995
1764768152.8878925,7756.559999999999,332.505,-33220.98,-11308.95,-8770.77,-27681.345,1415.52,9649.62
1764768152.8878925,7749.315,324.855,-33228.765,-11316.42,-8777.205,-27686.115,1409.445,9642.285
1764768152.8878925,7755.705,331.83,-33222.42,-11310.12,-8771.535,-27684.045,1414.53,9648.945
1764768152.8878925,7752.96,328.77,-33225.345,-11312.505,-8774.46,-27688.545,1412.0549999999998,9645.66
1764768152.8878925,7764.299999999999,341.055,-33213.375,-11301.435,-8762.445,-27677.115,1422.09,9657.0
1764768152.8878925,7765.875,342.72,-33211.44,-11299.41,-8760.42,-27676.305,1422.855,9657.81
1764768152.9347725,7768.53,345.645,-33209.145,-11296.62,-8757.539999999999,-27672.93,1425.96,9660.285
1764768152.9347725,7769.61,346.41,-33208.47,-11295.18,-8753.94,-27667.305,1429.335,9662.625
1764768152.9347725,7766.46,344.43,-33210.63,-11297.565,-8756.01,-27668.745,1429.11,9660.51
1764768152.9347725,7773.929999999999,354.24,-33200.685,-11288.115,-8747.324999999999,-27659.925,1438.245,9669.735
1764768152.9347725,7784.099999999999,364.5,-33190.47,-11277.495,-8736.164999999999,-27650.025,1447.695,9679.995
1764768152.9347725,7777.98,358.335,-33196.905,-11285.055,-8742.779999999999,-27657.225,1442.745,9673.785
1764768152.9347725,7774.38,354.015,-33200.775,-11289.735,-8748.135,-27664.425,1438.335,9670.5
1764768152.9347725,7774.695,354.6,-33200.055,-11289.78,-8749.215,-27666.945,1437.3,9669.96
1764768152.9347725,7786.755,367.74,-33188.355,-11278.89,-8738.82,-27656.955,1447.605,9681.66
1764768152.9347725,7784.775,366.12,-33189.93,-11281.23,-8740.395,-27658.395,1444.635,9679.455
1764768152.9347725,7781.309999999999,361.62,-33193.935,-11285.37,-8743.23,-27659.295,1440.0449999999998,9674.595
1764768152.9347725,7772.535,351.945,-33202.665,-11293.47,-8748.494999999999,-27662.805,1433.2949999999998,9665.685
1764768152.9347725,7767.945,347.445,-33207.03,-11297.43,-8749.26,-27662.895,1430.28,9661.86
1764768152.9347725,7765.335,345.33,-33210.225,-11299.455,-8750.835,-27664.965,1428.885,9660.24
1764768152.9347725,7771.094999999999,351.45,-33204.825,-11293.605,-8746.92,-27662.67,1431.945,9666.225
1764768152.9347725,7769.07,348.435,-33208.02,-11297.655,-8751.375,-27667.665,1429.29,9663.57
1764768152.9347725,7759.53,337.995,-33218.82,-11308.86,-8762.94,-27677.655,1420.11,9653.22
1764768152.9347725,7763.625,342.27,-33214.905,-11304.675,-8759.88,-27674.73,1422.495,9657.045
1764768152.9347725,7767.045,345.285,-33211.395,-11301.66,-8757.135,-27672.84,1424.745,9659.7
1764768152.9347725,7756.92,334.395,-33221.565,-11311.47,-8765.369999999999,-27679.005,1414.935,9648.27
1764768152.9347725,7761.509999999999,339.03,-33217.515,-11307.015,-8759.385,-27672.84,1418.76,9652.68
1764768152.9347725,7763.445,340.83,-33215.535,-11305.44,-8757.18,-27671.22,1420.785,9654.75
1764768152.9347725,7767.585,344.655,-33211.98,-11302.02,-8752.994999999999,-27667.395,1423.845,9658.08
1764768152.9347725,7766.37,344.565,-33211.89,-11302.065,-8752.77,-27667.845,1423.395,9657.54
1764768152.9784057,7764.66,343.395,-33213.465,-11303.415,-8753.085,-27668.43,1422.27,9657.09
1764768152.9784057,7763.894999999999,342.585,-33214.68,-11305.44,-8753.895,-27668.97,1421.73,9656.46
1764768152.9784057,7762.86,340.2,-33217.244999999995,-11308.23,-8757.045,-27672.345,1419.435,9654.03
1764768152.9784057,7766.775,344.295,-33212.97,-11303.82,-8752.545,-27667.935,1423.53,9658.08
1764768152.9784057,7776.54,354.87,-33202.619999999995,-11293.965,-8741.52,-27657.09,1434.735,9669.42
1764768152.9784057,7775.549999999999,354.285,-33204.825,-11295.27,-8742.96,-27657.315,1433.655,9668.25
1764768152.9784057,7771.32,349.56,-33209.28,-11299.14,-8744.67,-27660.105,1428.66,9662.895
1764768152.9784057,7768.259999999999,347.04,-33211.44,-11300.715,-8744.67,-27660.915,1425.51,9659.7
1764768152.9784057,7761.24,338.76,-33218.775,-11307.87,-8750.744999999999,-27667.665,1419.57,9652.23
1764768152.9784057,7760.34,337.455,-33219.81,-11309.22,-8751.69,-27669.645,1417.005,9650.97
1764768152.9784057,7755.389999999999,331.83,-33226.515,-11316.105,-8760.105,-27678.87,1410.525,9644.76
1764768152.9784057,7753.95,330.975,-33227.955,-11318.805,-8765.369999999999,-27683.955,1408.905,9643.545
1764768152.9784057,7757.009999999999,333.63,-33224.715,-11315.925,-8765.505,-27680.85,1413.1799999999998,9647.235
1764768152.9784057,7754.535,331.785,-33226.155,-11318.355,-8771.445,-27684.045,1412.46,9645.21
1764768152.9784057,7766.549999999999,344.16,-33213.465,-11304.36,-8755.83,-27664.965,1423.35,9656.505
1764768152.9784057,7767.179999999999,344.61,-33213.42,-11302.605,-8751.105,-27660.69,1423.26,9656.415
1764768152.9784057,7761.915,339.345,-33218.82,-11307.465,-8755.38,-27665.865,1419.255,9651.195
1764768152.9784057,7764.48,342.675,-33215.715,-11304.045,-8752.994999999999,-27664.38,1421.325,9653.13
1764768152.9784057,7768.799999999999,348.03,-33210.765,-11299.23,-8749.395,-27663.48,1424.16,9656.82
1764768152.9784057,7781.759999999999,362.07,-33196.77,-11285.055,-8734.68,-27649.665,1436.535,9670.14
1764768152.9784057,7790.535,370.98,-33188.58,-11275.605,-8722.395,-27634.815,1447.695,9680.265
1764768152.9784057,7787.295,367.785,-33191.865,-11278.935,-8722.845,-27633.24,1446.57,9678.06
1764768152.9801142,7778.519999999999,358.065,-33200.73,-11288.97,-8731.98,-27642.105,1438.245,9668.43
1764768152.9801142,7788.285,367.83,-33190.56,-11278.53,-8722.035,-27634.725,1445.985,9677.25
1764768153.0259645,7791.48,370.62,-33187.545,-11276.325,-8720.324999999999,-27636.3,1447.38,9679.23
1764768153.0259645,7790.67,369.495,-33189.075,-11278.755,-8724.24,-27640.395,1445.6699999999998,9677.295
1764768153.0259645,7790.085,367.605,-33189.75,-11280.195,-8726.58,-27640.62,1444.005,9675.81
1764768153.0259645,7781.174999999999,357.39,-33200.369999999995,-11290.635,-8737.154999999999,-27648.27,1434.96,9665.91
1764768153.0259645,7785.809999999999,361.935,-33196.635,-11286.945,-8732.565,-27641.025,1437.66,9670.455
1764768153.0259645,7781.804999999999,357.795,-33198.975,-11289.24,-8732.97,-27642.06,1434.285,9666.045
1764768153.026471,7772.445,347.49,-33208.875,-11298.15,-8740.89,-27650.25,1426.59,9657.27
1764768153.026471,7770.42,345.96,-33211.125,-11299.545,-8741.07,-27650.07,1425.105,9656.055
1764768153.026471,7776.315,352.53,-33205.095,-11293.02,-8735.265,-27644.355,1429.605,9662.535
1764768153.026471,7770.059999999999,344.565,-33213.24,-11301.03,-8743.05,-27651.6,1422.99,9654.255
1764768153.026471,7771.23,343.935,-33212.385,-11300.76,-8742.645,-27652.05,1422.765,9654.93
1764768153.026471,7756.65,328.41,-33227.955,-11316.06,-8758.305,-27669.015,1408.365,9639.45
1764768153.026471,7762.23,333.27,-33223.41,-11311.56,-8755.515,-27666.495,1410.12,9643.275
1764768153.026471,7762.455,333.09,-33224.175,-11311.47,-8756.19,-27667.845,1409.58,9642.735
1764768153.026471,7754.085,324.63,-33233.265,-11320.605,-8765.64,-27676.665,1402.74,9634.23
1764768153.026471,7754.4,324.495,-33232.41,-11320.47,-8763.705,-27673.65,1403.415,9634.68
1764768153.026471,7764.57,334.665,-33221.07,-11309.13,-8751.105,-27661.59,1413.135,9645.48
1764768153.026471,7767.9,338.265,-33217.29,-11304.855,-8747.369999999999,-27657.72,1417.185,9648.9
1764768153.026471,7763.085,332.145,-33223.59,-11311.11,-8755.38,-27667.035,1409.76,9643.23
1764768153.026471,7763.535,333.09,-33222.24,-11309.715,-8752.815,-27663.705,1410.84,9643.635
1764768153.026471,7761.285,330.75,-33225.03,-11311.515,-8752.994999999999,-27663.705,1409.535,9640.845
1764768153.026471,7750.799999999999,319.725,-33236.775,-11323.755,-8764.92,-27677.34,1398.15,9628.92
1764768153.026471,7756.11,324.675,-33232.545,-11319.255,-8761.095,-27674.37,1402.38,9633.87
1764768153.026471,7766.009999999999,334.17,-33222.15,-11309.76,-8751.465,-27664.29,1411.065,9643.77
1764768153.0728192,7767.63,335.925,-33220.44,-11308.095,-8749.89,-27661.905,1413.0449999999998,9645.885
1764768153.0728192,7766.684999999999,334.17,-33222.645,-11309.49,-8750.97,-27662.13,1412.37,9644.67
1764768153.0728192,7765.155,332.235,-33224.22,-11311.425,-8751.375,-27663.39,1411.245,9642.51
1764768153.0728192,7776.674999999999,345.375,-33211.53,-11298.195,-8737.695,-27649.89,1422.585,9654.795
1764768153.0728192,7784.054999999999,352.53,-33204.24,-11290.365,-8730.72,-27643.14,1429.56,9662.355
