Timestamp,Channel1,Channel2,Channel3,Channel4,Channel5,Channel6,Channel7,Channel8
1764768072.5771246,7690.95,57.735,-33533.1,-11684.88,-8901.18,-27666.315,1191.375,9519.525
1764768072.5771246,7688.25,54.495,-33536.565,-11688.255,-8902.305,-27667.17,1189.71,9518.085
1764768072.5771246,7684.38,52.875,-33537.915,-11687.985,-8901.494999999999,-27669.51,1186.02,9514.935
1764768072.5771246,7679.115,48.87,-33540.75,-11691.585,-8905.545,-27673.83,1181.52,9510.75
1764768072.5771246,7678.934999999999,48.78,-33540.165,-11691.675,-8905.14,-27672.84,1182.06,9510.795
1764768072.5771246,7688.07,58.41,-33530.715,-11682.72,-8896.14,-27662.715,1190.43,9521.235
1764768072.5771246,7682.804999999999,52.605,-33536.43,-11688.75,-8901.09,-27669.87,1185.7949999999998,9516.06
1764768072.5771246,7685.235,54.675,-33534.99,-11687.625,-8900.595,-27670.635,1184.895,9517.05
1764768072.5771246,7681.545,50.895,-33538.95,-11690.775,-8905.23,-27674.28,1180.035,9513.36
1764768072.5771246,7679.295,48.42,-33541.065,-11691.54,-8904.51,-27672.21,1180.305,9512.235
1764768072.5771246,7676.73,45.99,-33543.855,-11693.745,-8905.365,-27674.415,1177.74,9509.13
1764768072.5771246,7665.615,34.92,-33555.375,-11705.625,-8917.38,-27688.275,1165.05,9497.115
1764768072.5771246,7667.009999999999,36.72,-33553.845,-11705.22,-8917.56,-27689.805,1163.745,9497.385
1764768072.6152835,7661.88,30.78,-33559.425,-11711.88,-8924.94,-27695.745,1160.235,9492.885
1764768072.6152835,7658.639999999999,26.235,-33564.195,-11716.74,-8928.585,-27696.96,1160.28,9491.805
1764768072.6152835,7659.719999999999,27.81,-33563.34,-11715.3,-8927.595,-27692.82,1163.52,9494.955
1764768072.6152835,7667.594999999999,37.215,-33552.9,-11703.96,-8922.06,-27687.69,1170.945,9503.01
1764768072.6152835,7680.644999999999,50.49,-33541.38,-11693.52,-8912.52,-27676.305,1182.87,9515.88
1764768072.6152835,7676.91,46.35,-33543.855,-11695.59,-8910.63,-27673.965,1179.0449999999998,9511.245
1764768072.6152835,7672.094999999999,42.66,-33547.59,-11697.975,-8913.645,-27679.815,1174.23,9505.71
1764768072.6152835,7663.41,34.11,-33555.915,-11706.84,-8924.58,-27689.175,1167.165,9497.655
1764768072.6152835,7669.98,40.59,-33548.895,-11700.855,-8917.92,-27682.02,1173.06,9504.99
1764768072.6152835,7666.469999999999,38.745,-33550.515,-11705.04,-8921.43,-27686.43,1169.01,9501.3
1764768072.6152835,7678.665,52.56,-33536.79,-11691.63,-8908.289999999999,-27673.29,1180.575,9513.9
1764768072.6152835,7682.804999999999,55.53,-33533.64,-11688.255,-8905.68,-27672.03,1184.805,9518.445
1764768072.6152835,7677.855,50.445,-33537.645,-11692.035,-8909.73,-27677.79,1180.035,9513.045
1764768072.6152835,7670.429999999999,42.795,-33546.015,-11698.515,-8914.455,-27682.875,1174.455,9506.205
1764768072.6152835,7678.485,50.22,-33538.994999999995,-11688.57,-8902.755,-27670.725,1182.15,9515.16
1764768072.6152835,7668.45,39.33,-33549.615,-11699.1,-8914.23,-27680.58,1173.555,9505.035
1764768072.6152835,7673.58,44.685,-33543.945,-11694.195,-8909.55,-27675.63,1177.695,9509.94
1764768072.6152835,7666.38,38.295,-33550.875,-11702.61,-8918.865,-27685.395,1168.965,9500.895
1764768072.6152835,7667.505,39.285,-33548.535,-11702.16,-8920.035,-27686.025,1169.19,9502.2
1764768072.6152835,7662.059999999999,32.535,-33555.465,-11709.18,-8929.215,-27694.305,1165.815,9497.385
1764768072.6152835,7667.144999999999,39.015,-33548.76,-11702.205,-8921.654999999999,-27688.23,1170.495,9502.605
1764768072.6152835,7658.505,31.455,-33555.06,-11708.1,-8927.91,-27696.51,1160.55,9491.76
1764768072.6152835,7662.33,37.53,-33549.57,-11705.58,-8925.119999999999,-27690.57,1165.77,9496.71
1764768072.6152835,7672.455,49.14,-33537.51,-11695.005,-8914.59,-27679.815,1175.265,9508.005
1764768072.6152835,7677.269999999999,49.545,-33537.105,-11688.03,-8904.015,-27671.58,1182.69,9513.405
1764768072.6152835,7668.63,39.42,-33548.49,-11700.585,-8916.885,-27683.64,1173.645,9503.955
1764768072.661445,7664.67,36.495,-33551.91,-11705.355,-8921.475,-27686.88,1168.56,9499.365
1764768072.661445,7662.195,31.455,-33555.015,-11705.715,-8919.63,-27684.945,1169.01,9497.835
1764768072.661445,7666.695,37.215,-33548.94,-11700.405,-8915.805,-27680.94,1172.745,9501.975
1764768072.661445,7666.245,40.23,-33547.14,-11699.64,-8917.109999999999,-27684.54,1171.53,9501.255
1764768072.661445,7668.36,43.29,-33544.17,-11696.22,-8915.4,-27685.125,1172.745,9504.045
1764768072.661445,7672.41,48.78,-33539.445,-11695.545,-8916.93,-27686.295,1175.4,9506.925
1764768072.661445,7673.67,49.86,-33539.04,-11696.805,-8918.82,-27683.955,1177.74,9508.005
1764768072.661445,7675.11,49.23,-33539.31,-11694.915,-8915.85,-27681.435,1179.945,9509.355
1764768072.661445,7679.655,53.505,-33534.405,-11688.075,-8906.31,-27672.795,1184.31,9513.675
1764768072.661445,7667.28,38.835,-33547.5,-11698.875,-8916.119999999999,-27685.08,1173.51,9500.625
1764768072.661445,7663.32,33.345,-33553.35,-11704.23,-8919.855,-27686.385,1170.63,9496.845
1764768072.661445,7661.655,33.615,-33553.305,-11704.905,-8919.494999999999,-27683.235,1168.965,9495.315
1764768072.661445,7661.969999999999,33.66,-33552.315,-11703.735,-8917.199999999999,-27682.38,1171.35,9497.34
1764768072.661445,7667.505,41.76,-33545.205,-11698.92,-8918.279999999999,-27683.145,1175.04,9503.055
1764768072.661445,7680.78,58.23,-33528.195,-11684.385,-8907.57,-27671.985,1187.91,9517.185
1764768072.661445,7674.299999999999,49.95,-33536.744999999995,-11693.79,-8915.039999999999,-27675.405,1185.84,9511.605
1764768072.661445,7672.365,49.59,-33537.105,-11694.105,-8915.039999999999,-27675.495,1182.375,9508.455
1764768072.661445,7676.505,53.505,-33532.65,-11689.74,-8910.135,-27673.38,1184.76,9511.83
1764768072.661445,7683.12,58.005,-33529.005,-11683.575,-8902.26,-27666.945,1190.475,9518.67
1764768072.661445,7675.245,47.925,-33538.815,-11688.66,-8905.005,-27671.985,1183.5449999999998,9511.245
1764768072.7077315,7668.315,39.555,-33545.925,-11695.68,-8912.205,-27679.59,1177.065,9503.46
1764768072.7077315,7660.44,32.49,-33553.98,-11706.705,-8924.94,-27691.245,1169.325,9494.82
1764768072.7077315,7665.884999999999,38.88,-33547.68,-11700.405,-8918.64,-27685.89,1173.33,9499.77
1764768072.7077315,7669.44,44.01,-33542.325,-11694.96,-8913.195,-27682.155,1176.975,9503.505
1764768072.7077315,7671.735,47.385,-33539.85,-11694.96,-8913.914999999999,-27681.885,1180.305,9506.43
1764768072.7077315,7667.684999999999,43.335,-33544.17,-11701.17,-8922.869999999999,-27691.245,1176.255,9501.93
1764768072.7077315,7678.844999999999,53.1,-33534.765,-11691.315,-8914.68,-27681.93,1186.785,9514.17
1764768072.7077315,7682.759999999999,57.105,-33530.175,-11685.645,-8907.705,-27673.695,1190.655,9518.175
1764768072.7077315,7676.19,51.075,-33535.98,-11690.415,-8912.295,-27678.465,1183.635,9511.47
1764768072.7077315,7665.884999999999,39.87,-33547.32,-11701.44,-8922.285,-27689.535,1172.835,9499.725
1764768072.7077315,7668.09,41.985,-33544.395,-11699.73,-8920.755,-27685.755,1174.23,9500.805
1764768072.7077315,7656.344999999999,30.96,-33554.115,-11710.395,-8932.455,-27695.16,1163.025,9488.295
1764768072.7088146,7649.91,24.93,-33559.965,-11715.84,-8937.765,-27701.325,1156.815,9483.075
1764768072.7088146,7650.36,24.885,-33561.63,-11716.605,-8936.595,-27701.19,1159.47,9484.38
1764768072.7088146,7657.335,32.22,-33556.23,-11710.08,-8930.43,-27696.96,1167.345,9492.345
1764768072.7088146,7663.455,39.15,-33549.39,-11703.6,-8924.58,-27690.84,1174.815,9500.58
1764768072.7088146,7661.025,37.305,-33551.55,-11705.49,-8925.93,-27690.57,1174.59,9499.275
1764768072.7088146,7669.394999999999,46.665,-33540.885,-11694.105,-8915.4,-27679.095,1181.745,9506.835
1764768072.7088146,7672.995,51.3,-33536.385,-11690.64,-8911.619999999999,-27674.235,1184.6699999999998,9509.805
1764768072.7088146,7664.355,42.705,-33545.07,-11699.82,-8921.744999999999,-27685.44,1176.075,9499.86
1764768072.7088146,7662.105,40.365,-33547.32,-11701.8,-8923.365,-27688.86,1171.125,9496.44
1764768072.7088146,7667.73,45.81,-33542.01,-11696.49,-8917.065,-27681.03,1175.895,9503.28
1764768072.7088146,7670.61,49.725,-33538.86,-11694.105,-8915.895,-27680.22,1178.145,9506.655
1764768072.7088146,7669.844999999999,50.04,-33538.994999999995,-11694.69,-8917.74,-27682.425,1178.73,9506.61
1764768072.7088146,7661.969999999999,42.75,-33545.565,-11701.53,-8924.715,-27686.43,1172.16,9498.33
1764768072.7088146,7665.48,45.72,-33542.64,-11697.12,-8917.065,-27674.91,1178.91,9503.64
1764768072.7088146,7665.03,43.11,-33545.025,-11699.37,-8919.315,-27677.115,1181.61,9504.225
1764768072.7088146,7671.195,50.445,-33537.24,-11693.79,-8917.875,-27680.58,1185.345,9510.3
1764768072.754594,7676.28,55.935,-33531.255,-11688.03,-8913.33,-27676.395,1189.26,9515.43
1764768072.754594,7670.16,49.365,-33536.79,-11693.34,-8917.335,-27678.42,1182.78,9508.005
1764768072.754594,7663.995,42.705,-33544.665,-11701.215,-8924.22,-27685.395,1176.345,9501.21
1764768072.754594,7653.78,32.67,-33555.869999999995,-11712.87,-8936.595,-27699.39,1165.905,9490.41
1764768072.7551231,7662.059999999999,42.255,-33546.33,-11704.32,-8928.494999999999,-27692.19,1172.385,9499.095
1764768072.7551231,7661.16,44.055,-33543.045,-11706.57,-8932.32,-27695.835,1170.45,9497.835
1764768072.7551231,7650.674999999999,32.22,-33554.43,-11716.29,-8942.49,-27706.05,1161.72,9487.8
1764768072.7551231,7647.974999999999,26.55,-33560.64,-11717.82,-8943.119999999999,-27706.59,1162.035,9486.9
1764768072.7551231,7656.344999999999,35.01,-33551.865,-11709.495,-8933.67,-27696.555,1168.56,9495.675
1764768072.7551231,7659.405,37.53,-33549.165,-11704.725,-8927.19,-27691.02,1172.385,9499.095
1764768072.7551231,7662.87,40.455,-33546.6,-11702.745,-8926.244999999999,-27690.615,1174.32,9500.625
1764768072.7551231,7650.809999999999,26.46,-33560.955,-11719.215,-8942.76,-27703.845,1162.89,9487.485
1764768072.7551231,7648.469999999999,26.55,-33559.92,-11719.305,-8941.725,-27703.08,1160.235,9484.38
1764768072.7551231,7647.705,28.17,-33556.59,-11716.965,-8940.015,-27703.71,1157.6699999999998,9482.76
1764768072.7551231,7655.174999999999,36.315,-33548.49,-11710.395,-8936.414999999999,-27700.11,1163.43,9490.545
1764768072.7551231,7653.105,30.78,-33555.96,-11715.66,-8937.494999999999,-27700.695,1165.095,9490.86
1764768072.7551231,7645.184999999999,22.86,-33565.41,-11723.76,-8943.255,-27707.85,1159.155,9484.02
1764768072.7551231,7652.205,31.095,-33557.31,-11715.48,-8936.505,-27701.64,1166.49,9492.3
1764768072.7551231,7655.264999999999,36.81,-33551.505,-11711.97,-8936.279999999999,-27701.1,1168.9199999999998,9495.36
1764768072.7551231,7659.719999999999,40.185,-33547.14,-11705.67,-8933.67,-27697.95,1173.69,9500.76
1764768072.7551231,7662.96,42.525,-33544.89,-11701.395,-8928.18,-27688.59,1178.505,9504.63
1764768072.7551231,7659.36,39.33,-33548.265,-11705.715,-8930.475,-27690.03,1173.33,9500.175
1764768072.8013885,7656.57,36.27,-33551.46,-11711.205,-8938.17,-27699.255,1168.875,9495.09
1764768072.8013885,7645.094999999999,24.57,-33562.755,-11721.87,-8948.97,-27711.225,1158.84,9483.525
1764768072.8013885,7648.335,28.53,-33559.515,-11719.98,-8947.664999999999,-27709.29,1161.585,9487.26
1764768072.8013885,7640.46,21.33,-33567.119999999995,-11729.79,-8960.445,-27720.81,1153.62,9479.7
1764768072.8013885,7647.615,28.71,-33558.57,-11721.195,-8951.49,-27712.08,1160.325,9488.16
1764768072.8013885,7648.83,30.78,-33556.994999999995,-11716.875,-8944.605,-27705.195,1163.475,9490.545
1764768072.8013885,7647.299999999999,28.71,-33558.435,-11715.615,-8940.195,-27701.325,1166.265,9490.77
1764768072.8013885,7643.61,24.66,-33561.18,-11719.035,-8943.615,-27704.655,1162.62,9486.72
1764768072.8025825,7654.41,35.504999999999995,-33551.369999999995,-11710.845,-8937.045,-27698.265,1170.09,9496.53
1764768072.8025825,7651.62,33.12,-33554.79,-11714.265,-8939.52,-27700.605,1167.39,9493.605
1764768072.8025825,7651.799999999999,33.254999999999995,-33553.53,-11713.455,-8937.494999999999,-27697.815,1168.605,9494.055
1764768072.8025825,7646.67,28.62,-33558.84,-11719.665,-8944.38,-27705.285,1162.89,9487.71
1764768072.8025825,7645.094999999999,28.35,-33559.425,-11720.205,-8945.19,-27707.895,1160.685,9485.955
1764768072.8025825,7649.955,32.535,-33556.005,-11716.515,-8941.23,-27705.87,1162.935,9490.95
1764768072.8025825,7644.105,26.595,-33561.45,-11722.365,-8947.44,-27713.43,1157.355,9484.92
1764768072.8025825,7650.0,31.815,-33556.14,-11716.695,-8943.119999999999,-27707.265,1165.185,9492.03
1764768072.8025825,7652.969999999999,35.01,-33553.44,-11714.715,-8942.715,-27706.095,1168.11,9495.495
1764768072.8025825,7651.799999999999,35.01,-33552.81,-11715.075,-8943.255,-27704.97,1167.03,9494.55
1764768072.8025825,7653.42,36.585,-33551.19,-11713.455,-8940.6,-27701.415,1168.245,9494.73
1764768072.8025825,7649.415,31.95,-33555.24,-11716.74,-8941.815,-27700.875,1164.69,9489.87
1764768072.8025825,7651.08,33.93,-33553.935,-11714.715,-8939.744999999999,-27697.59,1167.48,9492.615
1764768072.8025825,7650.315,33.39,-33554.744999999995,-11715.525,-8941.455,-27701.145,1165.995,9492.03
1764768072.8494282,7642.08,24.705,-33562.215,-11724.435,-8952.525,-27713.97,1157.6699999999998,9483.075
1764768072.8494282,7646.58,29.61,-33557.805,-11719.98,-8948.699999999999,-27711.945,1161.585,9487.17
1764768072.8494282,7643.61,28.035,-33558.615,-11721.42,-8949.51,-27713.34,1159.515,9484.65
1764768072.8494282,7652.16,36.495,-33550.965,-11713.59,-8941.949999999999,-27705.195,1165.995,9492.57
1764768072.8494282,7656.974999999999,41.04,-33545.88,-11708.325,-8936.369999999999,-27699.885,1170.81,9497.61
1764768072.8494282,7655.67,39.15,-33547.455,-11709.315,-8936.595,-27699.75,1170.09,9497.34
1764768072.8494282,7651.665,34.74,-33552.09,-11714.805,-8940.734999999999,-27703.035,1165.95,9492.705
1764768072.8494282,7644.87,27.27,-33559.56,-11722.185,-8949.869999999999,-27712.395,1157.805,9485.055
1764768072.8494282,7634.745,16.919999999999998,-33569.685,-11731.77,-8959.365,-27721.26,1149.525,9475.11
1764768072.8494282,7631.73,13.86,-33571.935,-11733.93,-8961.029999999999,-27721.8,1147.275,9472.77
1764768072.8494282,7643.429999999999,25.83,-33560.235,-11722.14,-8950.005,-27711.18,1157.94,9485.28
1764768072.8494282,7647.165,29.88,-33556.32,-11718.315,-8946.315,-27709.515,1162.1699999999998,9490.005
1764768072.8504453,7649.46,32.715,-33554.205,-11715.975,-8944.605,-27708.795,1164.915,9492.66
1764768072.8504453,7648.2,32.805,-33554.205,-11716.515,-8946.315,-27711.36,1165.005,9491.445
1764768072.8504453,7657.469999999999,43.155,-33543.63,-11706.3,-8936.55,-27703.305,1174.5449999999998,9500.625
1764768072.8504453,7651.844999999999,35.955,-33550.605,-11713.455,-8945.73,-27712.845,1169.46,9494.415
1764768072.8504453,7656.705,40.095,-33545.88,-11709.72,-8942.13,-27706.41,1171.845,9498.33
1764768072.8504453,7646.535,29.205,-33556.86,-11721.015,-8953.92,-27715.77,1161.63,9486.765
1764768072.8504453,7647.255,30.195,-33554.744999999995,-11718.63,-8950.725,-27712.125,1162.62,9488.16
1764768072.8504453,7640.46,24.165,-33562.08,-11726.19,-8955.99,-27717.795,1156.32,9481.77
1764768072.8504453,7647.795,33.254999999999995,-33553.755,-11719.08,-8948.07,-27711.18,1160.91,9487.935
1764768072.8504453,7645.634999999999,30.96,-33554.79,-11720.025,-8948.475,-27712.62,1159.38,9485.01
1764768072.8504453,7638.299999999999,22.23,-33564.105,-11726.91,-8953.515,-27719.46,1155.915,9480.105
1764768072.8509748,7643.969999999999,27.945,-33558.57,-11718.63,-8945.46,-27713.385,1161.9,9488.115
1764768072.8932395,7636.634999999999,19.845,-33566.22,-11724.48,-8950.23,-27717.345,1158.12,9482.04
1764768072.8932395,7638.66,23.76,-33562.035,-11724.39,-8952.255,-27718.74,1159.38,9483.03
1764768072.8932395,7650.405,36.315,-33550.38,-11715.84,-8945.505,-27709.785,1169.505,9495.36
1764768072.8932395,7643.969999999999,27.81,-33558.885,-11721.915,-8952.705,-27716.355,1162.71,9488.25
1764768072.8932395,7637.535,21.105,-33565.14,-11726.28,-8959.23,-27718.965,1156.05,9481.005
1764768072.8932395,7631.955,16.29,-33569.369999999995,-11729.925,-8967.24,-27724.59,1149.525,9474.615
1764768072.8932395,7623.585,7.92,-33578.415,-11740.86,-8978.039999999999,-27737.19,1141.11,9466.02
1764768072.8932395,7618.905,2.61,-33583.905,-11747.07,-8983.17,-27743.445,1134.765,9461.25
1764768072.8944268,7623.495,9.045,-33577.92,-11741.13,-8976.869999999999,-27738.18,1136.61,9465.21
1764768072.8944268,7621.695,7.875,-33578.595,-11741.13,-8977.23,-27738.765,1136.61,9464.22
1764768072.8944268,7625.384999999999,10.53,-33574.905,-11737.98,-8972.91,-27732.24,1142.685,9468.945
1764768072.8944268,7628.219999999999,13.32,-33572.61,-11734.38,-8967.69,-27727.155,1147.14,9473.355
1764768072.8944268,7629.705,12.6,-33573.24,-11730.87,-8962.515,-27722.07,1151.055,9475.875
1764768072.8944268,7618.184999999999,-0.27,-33586.244999999995,-11743.83,-8976.465,-27736.11,1138.455,9462.42
1764768072.8944268,7618.545,0.495,-33585.705,-11743.965,-8977.725,-27738.18,1136.835,9461.7
1764768072.8944268,7623.54,4.545,-33581.385,-11737.98,-8971.199999999999,-27732.735,1141.245,9467.01
1764768072.8944268,7623.855,5.265,-33580.44,-11738.925,-8972.505,-27734.22,1140.435,9466.38
1764768072.8944268,7620.57,2.61,-33582.42,-11741.85,-8975.295,-27738.18,1137.4199999999998,9463.32
1764768072.8944268,7618.679999999999,1.485,-33583.455,-11742.57,-8976.42,-27740.655,1135.665,9461.79
1764768072.8944268,7616.205,-0.54,-33585.03,-11744.37,-8978.715,-27742.32,1134.945,9460.665
1764768072.8944268,7612.92,-3.06,-33587.73,-11745.945,-8981.82,-27746.64,1132.47,9457.695
1764768072.8944268,7610.219999999999,-6.255,-33591.555,-11750.805,-8988.119999999999,-27752.22,1130.985,9455.535
1764768072.9407885,7617.87,1.71,-33583.41,-11742.615,-8979.615,-27743.94,1136.97,9462.555
1764768072.9407885,7605.09,-11.205,-33597.54,-11757.915,-8994.779999999999,-27758.16,1124.64,9450.18
1764768072.9407885,7607.88,-8.145,-33593.58,-11753.91,-8989.83,-27753.48,1126.26,9451.98
1764768072.9407885,7620.255,5.805,-33578.055,-11738.43,-8973.855,-27738.72,1138.41,9464.895
1764768072.9407885,7621.875,7.38,-33576.75,-11737.575,-8973.945,-27739.62,1139.895,9466.47
1764768072.9407885,7614.719999999999,0.18,-33584.85,-11744.865,-8982.945,-27747.72,1133.82,9458.595
1764768072.9407885,7619.894999999999,5.715,-33579.0,-11740.005,-8977.185,-27740.745,1139.715,9466.155
1764768072.9407885,7610.625,-2.115,-33586.29,-11749.5,-8987.49,-27749.925,1132.11,9455.895
1764768072.9407885,7601.67,-11.565,-33597.315,-11759.985,-8998.515,-27760.995,1122.21,9446.085
1764768072.9407885,7600.32,-15.705,-33600.105,-11760.435,-8997.164999999999,-27759.24,1121.715,9445.635
1764768072.9407885,7610.309999999999,-3.825,-33587.19,-11747.295,-8985.195,-27747.36,1132.245,9456.93
1764768072.9407885,7603.11,-9.45,-33594.03,-11755.08,-8994.645,-27756.99,1124.145,9448.605
1764768072.9407885,7605.9,-8.415,-33594.21,-11754.99,-8994.24,-27756.045,1124.775,9450.135
1764768072.9407885,7597.575,-18.045,-33603.48,-11764.215,-9004.05,-27765.765,1116.135,9440.19
1764768072.9407885,7597.485,-17.865,-33604.155,-11764.35,-9003.914999999999,-27765.99,1115.685,9439.56
1764768072.9407885,7605.855,-7.739999999999999,-33593.715,-11754.54,-8993.97,-27755.64,1124.775,9449.64
1764768072.9407885,7610.355,-2.16,-33588.18,-11749.05,-8989.02,-27749.97,1130.355,9456.21
1764768072.9422235,7611.75,1.215,-33586.244999999995,-11748.33,-8988.66,-27750.33,1131.525,9457.245
1764768072.9422235,7614.674999999999,5.58,-33583.14,-11746.665,-8987.22,-27748.62,1134.945,9459.81
1764768072.9422235,7612.019999999999,0.8999999999999999,-33589.485,-11750.67,-8989.695,-27750.96,1133.37,9457.74
1764768072.9422235,7624.394999999999,8.28,-33579.45,-11738.52,-8976.105,-27736.875,1145.835,9471.105
1764768072.9422235,7623.269999999999,8.325,-33575.4,-11735.19,-8974.845,-27736.74,1143.225,9468.36
1764768072.9422235,7620.434999999999,7.109999999999999,-33578.325,-11738.655,-8977.725,-27739.035,1141.425,9464.265
1764768072.9422235,7625.969999999999,12.33,-33573.869999999995,-11734.29,-8971.92,-27731.25,1147.68,9471.51
1764768072.9872482,7622.73,9.18,-33576.885,-11737.665,-8975.25,-27734.58,1145.655,9468.45
1764768072.9872482,7631.28,19.035,-33566.58,-11727.63,-8966.34,-27726.705,1152.315,9477.36
1764768072.9872482,7637.13,25.47,-33560.235,-11720.745,-8960.715,-27721.62,1157.85,9483.57
1764768072.9872482,7636.365,25.29,-33561.315,-11721.915,-8961.029999999999,-27722.745,1158.21,9483.93
1764768072.9872482,7635.825,24.12,-33560.955,-11720.97,-8959.275,-27721.17,1159.155,9484.11
1764768072.9872482,7632.764999999999,20.16,-33564.105,-11723.445,-8961.795,-27722.655,1156.05,9481.32
1764768072.9872482,7631.28,19.485,-33564.645,-11723.895,-8963.279999999999,-27723.96,1154.2949999999998,9479.79
1764768072.9872482,7626.059999999999,14.985,-33569.505,-11729.07,-8969.355,-27729.405,1149.075,9475.245
1764768072.9872482,7627.724999999999,15.66,-33568.965,-11728.845,-8968.68,-27729.27,1149.7949999999998,9475.65
1764768072.9877572,7623.269999999999,11.43,-33572.925,-11731.68,-8972.775,-27735.345,1144.665,9470.385
1764768072.9877572,7628.894999999999,17.055,-33566.985,-11725.155,-8965.484999999999,-27727.245,1149.435,9476.37
1764768072.9877572,7623.9,10.935,-33573.195,-11732.445,-8972.01,-27732.6,1146.285,9471.555
1764768072.9877572,7625.745,13.68,-33568.92,-11727.585,-8968.095,-27729.54,1148.31,9474.345
1764768072.9877572,7617.24,5.22,-33576.345,-11734.695,-8975.925,-27738.765,1140.165,9465.3
1764768072.9877572,7623.809999999999,11.115,-33571.53,-11730.6,-8970.93,-27732.465,1148.715,9473.58
1764768072.9877572,7637.4,24.93,-33558.525,-11717.325,-8960.13,-27719.775,1162.935,9488.43
1764768072.9877572,7642.755,30.285,-33552.945,-11711.115,-8955.72,-27712.53,1167.165,9493.02
1764768072.9877572,7636.094999999999,24.03,-33558.119999999995,-11716.2,-8960.445,-27716.085,1158.7949999999998,9485.415
1764768072.9877572,7633.62,23.58,-33558.119999999995,-11717.01,-8959.05,-27714.69,1157.355,9482.67
1764768072.9877572,7624.799999999999,14.58,-33567.57,-11726.595,-8967.69,-27725.895,1148.31,9472.905
1764768072.9877572,7629.615,18.99,-33563.7,-11721.78,-8962.65,-27722.925,1151.64,9477.99
1764768072.9877572,7622.594999999999,10.665,-33570.99,-11728.44,-8970.975,-27731.745,1145.88,9470.61
1764768073.0371785,7628.58,17.055,-33565.32,-11723.31,-8966.609999999999,-27726.3,1151.82,9478.395
1764768073.0371785,7629.255,17.82,-33565.095,-11724.84,-8969.58,-27728.415,1152.945,9478.35
1764768073.0371785,7624.394999999999,13.545,-33569.28,-11730.195,-8977.275,-27735.975,1148.58,9472.275
1764768073.0371785,7629.705,20.07,-33561.765,-11723.4,-8969.984999999999,-27725.04,1152.81,9477.27
1764768073.0371785,7632.045,22.14,-33559.695,-11720.655,-8964.045,-27715.14,1154.52,9479.205
1764768073.0371785,7624.304999999999,11.655,-33570.225,-11727.36,-8967.645,-27720.63,1149.12,9471.555
1764768073.0371785,7614.495,-0.63,-33583.455,-11739.69,-8979.164999999999,-27732.915,1141.335,9461.925
1764768073.0371785,7609.32,-5.49,-33587.64,-11745.855,-8987.625,-27742.77,1135.1699999999998,9456.255
1764768073.0371785,7611.705,-0.585,-33582.465,-11740.95,-8983.89,-27742.455,1136.97,9459.18
1764768073.0371785,7613.684999999999,1.98,-33579.585,-11739.69,-8982.855,-27740.115,1137.06,9460.26
1764768073.0371785,7622.82,11.88,-33570.27,-11732.895,-8976.96,-27734.265,1142.73,9467.91
1764768073.0371785,7627.094999999999,16.2,-33566.13,-11730.78,-8973.765,-27732.465,1146.555,9473.04
1764768073.0371785,7625.16,13.95,-33567.795,-11731.68,-8975.205,-27736.425,1143.0449999999998,9469.98
1764768073.0371785,7621.695,9.99,-33571.08,-11734.065,-8977.949999999999,-27738.495,1140.165,9466.02
1764768073.0371785,7621.469999999999,5.85,-33575.85,-11732.67,-8973.72,-27732.87,1142.01,9467.46
1764768073.0371785,7617.87,1.665,-33579.675,-11737.575,-8977.859999999999,-27735.93,1137.96,9463.545
1764768073.0371785,7612.065,-4.5,-33584.625,-11743.02,-8982.494999999999,-27739.845,1132.605,9457.02
1764768073.0371785,7600.005,-18.36,-33599.25,-11757.24,-8995.005,-27751.59,1122.03,9445.545
1764768073.0371785,7606.304999999999,-10.44,-33591.645,-11750.895,-8990.234999999999,-27747.63,1125.225,9451.935
1764768073.0371785,7600.32,-15.93,-33597.494999999995,-11756.97,-8997.48,-27755.865,1118.97,9444.87
1764768073.0371785,7599.87,-15.3,-33598.575,-11758.68,-8999.369999999999,-27757.35,1119.375,9443.97
1764768073.0371785,7606.485,-6.345,-33589.71,-11751.03,-8992.664999999999,-27751.455,1125.675,9451.44
1764768073.0371785,7609.59,-3.24,-33587.73,-11750.04,-8993.295,-27754.65,1127.34,9454.77
1764768073.0371785,7609.724999999999,-4.275,-33587.505,-11747.565,-8989.38,-27753.03,1129.005,9455.535
1764768073.0371785,7610.849999999999,-3.555,-33585.885,-11744.1,-8984.34,-27745.605,1131.7949999999998,9455.895
1764768073.0371785,7598.295,-14.49,-33597.54,-11757.915,-9002.835,-27762.3,1117.98,9441.27
1764768073.0805514,7598.07,-13.77,-33598.575,-11760.255,-9005.58,-27764.1,1117.035,9440.955
1764768073.0805514,7609.545,-2.34,-33587.73,-11748.105,-8990.55,-27747.99,1130.04,9454.5
1764768073.0815742,7607.429999999999,-6.795,-33593.58,-11750.355,-8988.93,-27745.02,1132.38,9454.77
1764768073.0815742,7616.025,3.555,-33582.735,-11738.385,-8977.095,-27735.48,1140.03,9463.635
1764768073.0815742,7617.78,6.569999999999999,-33580.08,-11737.53,-8979.21,-27737.01,1142.01,9466.155
1764768073.0815742,7605.224999999999,-5.175,-33591.465,-11750.58,-8992.935,-27750.375,1129.68,9451.935
1764768073.0815742,7603.2,-6.75,-33592.86,-11754.81,-8995.994999999999,-27754.065,1126.305,9448.515
1764768073.0815742,7605.134999999999,-4.995,-33590.925,-11754.63,-8995.815,-27754.245,1126.575,9449.73
1764768073.0815742,7617.15,6.525,-33579.63,-11740.32,-8982.315,-27740.97,1137.06,9462.105
1764768073.0815742,7616.519999999999,3.51,-33584.22,-11740.095,-8979.705,-27738.765,1138.5449999999998,9462.96
1764768073.0815742,7613.775,2.88,-33584.58,-11741.58,-8980.065,-27739.035,1137.78,9460.08
1764768073.0815742,7623.179999999999,14.175,-33573.555,-11732.04,-8970.795,-27729.72,1144.935,9469.26
1764768073.0815742,7629.344999999999,19.935,-33569.01,-11726.73,-8965.08,-27725.49,1150.56,9475.56
1764768073.0815742,7629.75,20.565,-33567.119999999995,-11726.1,-8963.46,-27725.895,1151.235,9476.685
1764768073.0815742,7628.985,20.7,-33566.13,-11725.56,-8962.244999999999,-27722.745,1154.61,9478.26
1764768073.0815742,7623.99,16.064999999999998,-33571.215,-11731.455,-8968.365,-27728.685,1150.425,9473.58
1764768073.0815742,7631.549999999999,24.75,-33562.395,-11723.625,-8961.029999999999,-27721.53,1157.13,9482.4
1764768073.0815742,7634.295,29.16,-33557.985,-11721.555,-8960.715,-27718.83,1159.605,9483.795
1764768073.0815742,7635.644999999999,28.845,-33557.985,-11721.6,-8962.965,-27721.62,1158.66,9483.255
1764768073.0815742,7620.884999999999,12.87,-33573.51,-11736.495,-8977.859999999999,-27739.935,1144.44,9467.595
1764768073.0825665,7618.32,9.315,-33576.165,-11737.89,-8978.13,-27742.23,1142.505,9465.435
1764768073.0825665,7617.554999999999,8.145,-33577.47,-11738.655,-8977.68,-27741.42,1142.955,9465.525
1764768073.1287122,7616.79,8.955,-33575.895,-11737.26,-8977.365,-27742.68,1143.54,9465.57
1764768073.1287122,7618.23,9.495,-33575.175,-11736.09,-8974.664999999999,-27738.54,1146.33,9467.37
1764768073.1287122,7629.66,21.555,-33563.25,-11723.175,-8961.795,-27725.22,1156.86,9479.205
1764768073.1287122,7635.42,27.855,-33556.32,-11717.19,-8957.25,-27720.225,1162.26,9484.785
1764768073.1287122,7630.155,21.555,-33563.655,-11725.245,-8966.34,-27727.92,1158.525,9479.43
1764768073.1287122,7630.605,22.455,-33561.72,-11724.03,-8965.44,-27729.09,1158.975,9479.925
1764768073.1292202,7639.83,31.995,-33552.225,-11714.625,-8955.945,-27719.325,1166.76,9488.745
1764768073.1292202,7627.59,18.36,-33565.5,-11727.855,-8969.039999999999,-27729.99,1153.845,9474.66
1764768073.1292202,7627.769999999999,18.99,-33564.555,-11727.315,-8968.365,-27727.74,1155.51,9475.02
1764768073.1292202,7641.945,32.85,-33551.055,-11714.445,-8956.71,-27717.795,1168.785,9490.005
1764768073.1292202,7647.075,35.775,-33547.815,-11709.54,-8949.24,-27712.53,1174.23,9496.26
1764768073.1292202,7643.88,34.83,-33547.68,-11709.225,-8948.744999999999,-27712.395,1172.88,9493.38
1764768073.1292202,7654.679999999999,48.285,-33535.575,-11698.245,-8939.295,-27703.26,1182.555,9504.585
1764768073.1292202,7655.355,50.175,-33534.18,-11697.165,-8940.015,-27702.72,1183.95,9506.25
1764768073.1292202,7650.809999999999,45.405,-33538.545,-11703.645,-8945.595,-27708.075,1178.505,9500.445
1764768073.1292202,7661.384999999999,56.205,-33526.619999999995,-11692.485,-8933.94,-27697.725,1187.055,9510.795
1764768073.1292202,7664.58,58.32,-33526.53,-11690.505,-8931.375,-27695.295,1190.2949999999998,9514.035
1764768073.1292202,7652.025,44.055,-33540.795,-11705.625,-8947.215,-27708.615,1178.505,9500.985
1764768073.1292202,7650.9,39.69,-33545.88,-11707.065,-8944.65,-27705.6,1179.36,9500.58
1764768073.1292202,7650.134999999999,39.375,-33545.7,-11705.85,-8943.435,-27704.205,1179.495,9500.805
1764768073.1292202,7656.929999999999,46.935,-33537.69,-11698.155,-8936.46,-27698.4,1185.615,9508.545
1764768073.1292202,7652.519999999999,45.18,-33538.68,-11700.72,-8942.31,-27705.465,1182.645,9504.045
1764768073.1292202,7653.195,45.315,-33538.905,-11701.17,-8943.885,-27705.195,1182.375,9504.765
1764768073.1292202,7655.535,47.295,-33537.555,-11699.28,-8943.345,-27706.815,1182.33,9505.44
1764768073.1755486,7656.21,48.285,-33535.665,-11698.2,-8940.285,-27703.305,1183.68,9506.34
1764768073.176061,7666.245,59.76,-33523.83,-11687.175,-8926.74,-27689.94,1192.5,9516.96
1764768073.176061,7669.755,63.27,-33519.33,-11682.45,-8920.845,-27683.955,1195.47,9520.11
1764768073.176061,7667.009999999999,58.005,-33526.53,-11688.795,-8924.535,-27686.52,1193.715,9517.275
1764768073.176061,7661.384999999999,51.48,-33534.135,-11694.33,-8930.43,-27694.35,1188.63,9512.28
1764768073.176061,7650.269999999999,43.245,-33541.695,-11704.95,-8945.145,-27711.27,1177.245,9499.77
1764768073.176061,7651.259999999999,45.675,-33539.22,-11705.265,-8949.105,-27715.095,1177.245,9499.77
1764768073.176061,7651.035,42.435,-33543.27,-11707.065,-8952.93,-27716.355,1176.615,9500.31
1764768073.176061,7647.344999999999,39.06,-33545.744999999995,-11709.63,-8954.369999999999,-27714.42,1173.375,9496.8
1764768073.176061,7643.295,37.98,-33545.115,-11709.945,-8954.414999999999,-27712.935,1169.91,9492.525
1764768073.176061,7640.28,33.57,-33550.92,-11715.66,-8957.475,-27717.03,1168.425,9489.87
1764768073.176061,7634.655,28.035,-33556.455,-11723.4,-8966.25,-27724.995,1163.565,9483.885
1764768073.176061,7642.755,36.045,-33548.445,-11714.985,-8957.744999999999,-27717.165,1170.225,9491.535
1764768073.176061,7630.155,22.995,-33561.45,-11725.965,-8970.48,-27729.99,1157.22,9477.675
1764768073.176061,7626.465,17.325,-33565.455,-11727.54,-8971.109999999999,-27732.78,1153.215,9473.175
1764768073.176061,7622.639999999999,11.115,-33570.585,-11730.465,-8970.119999999999,-27733.41,1151.73,9470.745
1764768073.176061,7622.235,11.16,-33570.9,-11731.32,-8969.94,-27734.49,1151.955,9470.475
1764768073.176061,7622.325,12.78,-33569.415,-11730.465,-8972.055,-27737.28,1149.66,9469.08
1764768073.176061,7623.719999999999,15.48,-33568.695,-11733.57,-8976.69,-27739.89,1149.705,9470.88
1764768073.176061,7626.78,19.305,-33564.869999999995,-11732.535,-8974.619999999999,-27736.56,1150.83,9473.76
1764768073.176061,7628.174999999999,21.735,-33561.45,-11728.89,-8971.065,-27734.49,1152.0449999999998,9474.255
1764768073.176061,7629.48,21.555,-33563.52,-11727.765,-8966.565,-27730.08,1157.04,9478.26
1764768073.2214384,7629.57,19.62,-33565.365,-11725.695,-8963.685,-27728.415,1158.66,9479.25
1764768073.2214384,7622.054999999999,10.935,-33573.555,-11732.67,-8971.83,-27737.28,1150.65,9472.14
1764768073.2214384,7619.759999999999,9.585,-33574.86,-11736.585,-8978.535,-27741.42,1145.97,9468.675
1764768073.2214384,7615.98,7.604999999999999,-33576.165,-11739.78,-8981.414999999999,-27740.745,1142.865,9464.985
1764768073.2214384,7606.934999999999,-0.09,-33582.96,-11746.17,-8986.859999999999,-27746.775,1136.745,9456.39
1764768073.2214384,7609.049999999999,0.0,-33583.05,-11744.775,-8982.81,-27744.66,1139.445,9458.595
1764768073.2214384,7618.545,11.295,-33573.105,-11735.64,-8973.9,-27738.855,1147.095,9468.72
1764768073.2214384,7612.695,6.345,-33578.46,-11742.84,-8982.09,-27748.08,1141.785,9462.33
1764768073.2214384,7619.625,12.06,-33572.88,-11734.92,-8973.63,-27740.43,1149.255,9470.52
1764768073.2214384,7623.495,13.995,-33570.765,-11731.005,-8969.895,-27736.245,1153.53,9475.425
1764768073.2214384,7625.61,16.47,-33567.705,-11729.88,-8968.994999999999,-27732.69,1156.455,9477.315
1764768073.2214384,7613.46,3.105,-33581.205,-11743.245,-8980.875,-27742.32,1144.755,9464.58
1764768073.2219672,7611.974999999999,3.78,-33580.98,-11743.56,-8981.595,-27743.67,1141.65,9462.78
1764768073.2219672,7621.83,15.615,-33569.369999999995,-11732.49,-8971.83,-27735.39,1148.535,9472.005
1764768073.2219672,7623.179999999999,14.805,-33571.08,-11732.355,-8969.805,-27734.625,1151.91,9474.57
1764768073.2219672,7617.059999999999,7.875,-33577.92,-11739.96,-8977.14,-27741.195,1147.185,9468.045
1764768073.2219672,7622.505,15.255,-33570.72,-11733.165,-8971.965,-27734.805,1152.675,9474.66
1764768073.2219672,7617.87,10.305,-33574.815,-11737.89,-8977.545,-27740.61,1149.03,9471.06
1764768073.2219672,7629.57,23.04,-33563.79,-11729.43,-8971.605,-27736.695,1157.445,9482.67
1764768073.2219672,7633.665,29.385,-33557.265,-11724.3,-8965.935,-27731.115,1161.855,9486.36
1764768073.2219672,7635.42,29.61,-33555.825,-11719.35,-8957.07,-27720.765,1166.13,9489.285
1764768073.2219672,7630.38,22.995,-33561.315,-11722.905,-8960.265,-27724.59,1161.27,9483.84
1764768073.2219672,7624.934999999999,17.73,-33568.155,-11728.35,-8964.855,-27730.17,1156.14,9478.44
1764768073.2219672,7635.375,28.845,-33558.255,-11719.215,-8954.55,-27720.315,1164.195,9488.025
1764768073.2219672,7637.219999999999,30.42,-33557.175,-11716.065,-8948.88,-27716.805,1167.345,9490.725
1764768073.2219672,7627.32,22.455,-33563.97,-11723.355,-8958.195,-27728.415,1159.335,9480.78
1764768073.269626,7631.46,27.045,-33560.865,-11721.555,-8959.14,-27729.09,1163.925,9486.27
1764768073.269626,7643.384999999999,38.655,-33550.244999999995,-11711.565,-8952.029999999999,-27719.82,1173.4199999999998,9498.6
1764768073.269626,7647.255,43.695,-33545.16,-11707.74,-8951.58,-27714.69,1176.705,9502.425
1764768073.269626,7645.455,42.21,-33546.195,-11707.155,-8949.375,-27707.355,1177.38,9500.985
1764768073.269626,7641.405,37.08,-33549.615,-11708.19,-8945.234999999999,-27705.915,1173.4199999999998,9495.72
1764768073.269626,7630.605,27.63,-33559.2,-11719.035,-8958.105,-27722.61,1161.72,9483.435
1764768073.269626,7638.884999999999,35.055,-33552.855,-11711.97,-8951.4,-27716.67,1168.83,9491.985
1764768073.269626,7634.384999999999,30.735,-33557.625,-11717.37,-8957.07,-27722.16,1164.735,9487.08
1764768073.269626,7636.545,32.58,-33556.23,-11717.505,-8960.445,-27723.915,1166.13,9488.61
1764768073.269626,7642.98,37.035,-33551.28,-11708.955,-8949.375,-27712.71,1175.4,9497.34
1764768073.269626,7645.049999999999,40.905,-33546.375,-11706.57,-8945.505,-27709.245,1177.65,9499.545
1764768073.269626,7642.17,39.15,-33547.32,-11711.43,-8950.994999999999,-27711.81,1173.645,9496.125
1764768073.269626,7632.764999999999,30.15,-33556.86,-11721.015,-8961.029999999999,-27720.63,1163.88,9485.46
1764768073.269626,7634.384999999999,29.655,-33557.85,-11717.37,-8954.64,-27716.715,1166.49,9487.17
1764768073.269626,7648.11,40.995,-33546.42,-11699.64,-8934.119999999999,-27699.48,1180.26,9502.29
1764768073.269626,7646.085,37.575,-33549.39,-11701.305,-8935.965,-27702.09,1177.785,9500.175
1764768073.269626,7646.445,38.79,-33548.625,-11703.96,-8939.295,-27705.645,1176.705,9499.365
1764768073.269626,7638.705,32.535,-33554.25,-11710.53,-8948.205,-27715.005,1169.91,9491.175
1764768073.269626,7637.804999999999,31.68,-33555.195,-11711.61,-8948.205,-27713.43,1170.72,9491.76
1764768073.269626,7637.894999999999,33.345,-33553.665,-11710.08,-8946.494999999999,-27711.225,1171.935,9493.02
1764768073.269626,7649.144999999999,45.18,-33542.055,-11698.245,-8937.63,-27700.965,1183.005,9504.585
1764768073.269626,7650.405,46.53,-33540.165,-11697.615,-8937.63,-27699.885,1183.68,9505.845
1764768073.3159783,7641.09,36.0,-33550.65,-11707.605,-8944.92,-27706.32,1176.345,9496.44
1764768073.3159783,7639.29,33.795,-33553.53,-11710.17,-8946.63,-27706.41,1173.87,9493.875
1764768073.3159783,7645.724999999999,40.815,-33546.42,-11703.105,-8939.925,-27700.74,1177.875,9500.085
1764768073.3159783,7633.035,27.9,-33559.065,-11716.92,-8954.505,-27716.085,1164.51,9485.91
1764768073.3159783,7633.53,27.495,-33559.11,-11717.775,-8955.539999999999,-27716.13,1164.015,9485.1
1764768073.3159783,7639.785,35.235,-33550.965,-11710.035,-8948.699999999999,-27710.46,1168.785,9492.12
1764768073.3159783,7641.045,35.91,-33550.83,-11708.73,-8945.955,-27707.22,1171.53,9493.875
1764768073.3159783,7639.245,34.11,-33552.405,-11710.98,-8947.664999999999,-27708.345,1169.28,9490.77
1764768073.3159783,7630.155,25.785,-33559.47,-11720.205,-8958.824999999999,-27719.775,1160.37,9480.555
1764768073.3159783,7629.884999999999,22.455,-33563.88,-11721.105,-8957.835,-27719.955,1161.45,9482.355
1764768073.3159783,7621.785,14.76,-33572.97,-11729.565,-8965.08,-27727.245,1153.755,9474.03
1764768073.3159783,7623.9,16.74,-33570.315,-11726.505,-8961.93,-27725.67,1155.06,9475.785
1764768073.3159783,7636.86,29.475,-33557.535,-11713.86,-8950.275,-27714.87,1166.985,9490.095
1764768073.3159783,7626.96,19.44,-33567.165,-11725.155,-8961.57,-27726.345,1157.13,9478.305
1764768073.3159783,7624.755,17.46,-33569.145,-11728.215,-8965.08,-27727.425,1154.79,9475.11
1764768073.3159783,7627.995,22.455,-33564.735,-11725.29,-8961.84,-27723.015,1157.355,9478.53
1764768073.3159783,7640.955,35.775,-33551.46,-11708.955,-8943.93,-27706.095,1170.585,9493.605
1764768073.3159783,7642.035,35.955,-33550.29,-11706.795,-8942.039999999999,-27706.185,1172.61,9496.17
1764768073.316985,7635.014999999999,29.07,-33556.365,-11713.725,-8948.835,-27715.23,1167.03,9488.79
1764768073.316985,7639.965,34.155,-33550.74,-11707.38,-8942.355,-27709.65,1172.385,9494.73
1764768073.316985,7642.62,36.585,-33548.49,-11707.83,-8943.345,-27710.595,1173.78,9496.62
1764768073.316985,7643.205,38.295,-33547.635,-11707.245,-8944.154999999999,-27712.395,1173.69,9496.755
1764768073.3601303,7643.655,39.33,-33547.365,-11706.255,-8944.965,-27712.44,1174.77,9496.89
1764768073.3601303,7632.9,27.945,-33558.525,-11716.695,-8955.81,-27720.495,1163.97,9485.55
1764768073.3601303,7640.235,35.415,-33550.56,-11708.325,-8946.18,-27709.515,1170.405,9493.785
1764768073.3601303,7638.884999999999,34.47,-33552.0,-11709.99,-8947.395,-27712.08,1169.01,9493.02
1764768073.3601303,7636.094999999999,31.635,-33556.05,-11714.94,-8954.01,-27719.505,1166.13,9489.42
1764768073.3601303,7645.005,40.005,-33548.085,-11708.1,-8946.63,-27711.18,1173.735,9497.61
1764768073.3601303,7644.42,39.195,-33546.51,-11705.67,-8942.67,-27706.86,1174.23,9497.295
1764768073.3601303,7636.32,30.87,-33554.07,-11712.42,-8948.925,-27713.565,1167.39,9489.645
1764768073.3601303,7628.219999999999,20.97,-33564.96,-11723.31,-8959.365,-27726.12,1157.13,9479.025
1764768073.3601303,7633.844999999999,27.945,-33558.57,-11715.795,-8952.48,-27721.845,1161.36,9484.47
1764768073.3601303,7648.965,42.93,-33544.395,-11700.54,-8937.27,-27707.895,1174.5449999999998,9499.635
1764768073.3601303,7645.769999999999,39.285,-33547.005,-11702.565,-8937.18,-27709.965,1171.1699999999998,9495.855
1764768073.3601303,7636.184999999999,30.375,-33555.645,-11712.465,-8947.664999999999,-27719.505,1163.205,9485.82
1764768073.3601303,7633.485,27.72,-33558.57,-11713.95,-8947.17,-27713.835,1164.96,9485.55
1764768073.3601303,7641.63,35.145,-33550.56,-11705.265,-8935.695,-27699.705,1173.51,9494.28
1764768073.3601303,7642.08,35.055,-33550.605,-11706.75,-8936.64,-27703.755,1172.07,9493.875
1764768073.3601303,7637.625,30.6,-33555.105,-11711.97,-8943.39,-27712.395,1168.29,9490.185
1764768073.3601303,7627.41,19.17,-33567.345,-11725.065,-8958.24,-27724.77,1159.47,9479.52
1764768073.3601303,7626.69,18.045,-33569.01,-11728.08,-8964.315,-27728.1,1158.255,9478.485
1764768073.3601303,7636.094999999999,27.27,-33559.695,-11716.92,-8955.0,-27716.085,1165.5,9487.845
1764768073.3601303,7639.469999999999,31.545,-33554.79,-11711.205,-8947.395,-27707.895,1169.19,9491.31
1764768073.3601303,7623.719999999999,15.705,-33570.045,-11728.125,-8962.515,-27724.77,1152.99,9473.445
1764768073.3601303,7626.554999999999,18.81,-33566.13,-11724.66,-8959.815,-27723.42,1153.35,9474.84
1764768073.3601303,7618.365,10.935,-33574.905,-11733.255,-8969.175,-27733.005,1144.62,9465.795
1764768073.4070077,7619.849999999999,10.845,-33575.355,-11730.105,-8964.855,-27731.07,1146.915,9468.45
1764768073.4070077,7614.719999999999,2.16,-33583.815,-11734.74,-8967.6,-27736.155,1143.945,9463.815
1764768073.4070077,7621.019999999999,9.495,-33576.075,-11728.845,-8960.805,-27729.36,1149.7949999999998,9470.295
1764768073.4070077,7612.335,1.035,-33584.625,-11738.385,-8972.505,-27741.105,1141.2,9460.575
1764768073.4070077,7612.11,0.54,-33584.895,-11739.96,-8975.295,-27745.02,1139.4,9460.035
1764768073.4070077,7614.585,3.285,-33581.744999999995,-11737.395,-8972.685,-27742.545,1141.875,9462.96
1764768073.4070077,7625.115,15.48,-33569.46,-11726.595,-8962.785,-27732.195,1151.01,9473.445
1764768073.4070077,7617.285,5.805,-33579.225,-11735.28,-8971.74,-27740.34,1143.9,9465.255
1764768073.4070077,7607.07,-4.455,-33590.205,-11746.665,-8983.035,-27751.5,1134.0449999999998,9453.78
1764768073.4070077,7605.36,-4.995,-33590.565,-11745.855,-8982.855,-27750.69,1132.155,9451.89
1764768073.4070077,7616.25,5.895,-33579.225,-11733.03,-8968.365,-27735.345,1142.28,9463.455
1764768073.4070077,7617.285,5.58,-33579.27,-11731.365,-8964.539999999999,-27731.52,1144.485,9465.3
1764768073.4070077,7613.37,1.53,-33583.23,-11736.045,-8967.69,-27733.905,1143.225,9462.735
1764768073.4070077,7619.445,8.82,-33576.119999999995,-11729.52,-8960.355,-27727.515,1149.165,9469.035
1764768073.4070077,7616.07,5.355,-33579.0,-11732.265,-8963.234999999999,-27731.745,1146.4199999999998,9464.85
1764768073.4070077,7622.415,12.78,-33571.8,-11726.145,-8958.465,-27727.245,1152.135,9471.06
1764768073.4070077,7636.905,27.855,-33557.22,-11712.105,-8946.18,-27714.645,1166.22,9486.045
1764768073.4070077,7634.295,24.435,-33561.09,-11716.695,-8953.875,-27721.8,1161.0449999999998,9481.545
1764768073.4070077,7624.755,14.445,-33570.135,-11727.405,-8964.225,-27729.81,1152.135,9472.005
1764768073.4070077,7624.304999999999,16.47,-33567.84,-11727.9,-8963.505,-27728.82,1150.065,9470.745
1764768073.4070077,7629.57,21.51,-33564.555,-11722.23,-8955.404999999999,-27722.97,1156.815,9476.91
1764768073.4070077,7635.644999999999,25.695,-33560.865,-11711.97,-8945.73,-27715.635,1164.51,9484.02
1764768073.453873,7648.559999999999,39.06,-33546.78,-11696.895,-8929.44,-27698.94,1177.785,9498.825
1764768073.453873,7647.48,36.9,-33548.175,-11695.41,-8924.22,-27692.55,1180.62,9499.005
1764768073.453873,7641.809999999999,33.165,-33552.675,-11703.33,-8932.545,-27699.39,1176.48,9493.155
1764768073.453873,7642.259999999999,36.585,-33548.895,-11703.78,-8936.369999999999,-27705.105,1173.915,9492.075
1764768073.453873,7649.684999999999,41.85,-33543.494999999995,-11694.555,-8925.66,-27696.645,1180.755,9500.58
1764768073.453873,7636.905,25.425,-33560.955,-11709.315,-8938.484999999999,-27707.805,1168.695,9487.17
1764768073.453873,7640.594999999999,29.7,-33556.23,-11705.04,-8934.39,-27700.965,1170.945,9490.455
1764768073.453873,7640.009999999999,30.735,-33553.89,-11703.285,-8932.815,-27697.77,1171.755,9490.185
1764768073.453873,7634.025,22.5,-33562.755,-11711.385,-8939.88,-27704.205,1168.11,9484.83
1764768073.453873,7633.889999999999,24.345,-33561.945,-11711.43,-8941.05,-27707.76,1166.76,9485.055
1764768073.453873,7641.36,32.985,-33553.035,-11703.645,-8935.289999999999,-27703.17,1170.945,9491.985
1764768073.453873,7635.15,25.47,-33560.55,-11711.925,-8944.92,-27713.79,1164.33,9485.325
1764768073.453873,7632.405,22.905,-33562.755,-11713.68,-8946.494999999999,-27715.905,1162.1699999999998,9483.075
1764768073.453873,7632.9,22.86,-33562.8,-11712.915,-8945.595,-27712.8,1163.385,9483.57
1764768073.453873,7643.205,32.22,-33552.99,-11702.655,-8933.67,-27699.795,1174.005,9494.235
1764768073.453873,7640.28,28.845,-33556.86,-11707.695,-8939.25,-27706.545,1169.145,9489.78
1764768073.453873,7630.875,18.315,-33567.255,-11716.965,-8949.465,-27716.175,1160.37,9479.295
1764768073.453873,7633.889999999999,20.835,-33563.475,-11712.195,-8943.75,-27710.46,1163.7,9483.03
1764768073.453873,7632.179999999999,20.655,-33563.34,-11712.645,-8944.47,-27712.35,1163.205,9482.355
1764768073.453873,7637.985,28.08,-33556.815,-11705.895,-8938.44,-27707.49,1167.57,9489.015
1764768073.453873,7632.179999999999,23.22,-33561.765,-11711.295,-8944.74,-27714.15,1162.305,9482.895
1764768073.453873,7630.019999999999,21.285,-33563.34,-11713.365,-8945.865,-27713.565,1161.72,9481.5
1764768073.453873,7634.34,25.92,-33557.94,-11708.505,-8940.645,-27706.455,1166.6699999999998,9486.045
1764768073.453873,7644.509999999999,36.855,-33547.23,-11698.92,-8929.574999999999,-27694.98,1175.31,9496.53
1764768073.453873,7649.009999999999,39.96,-33544.935,-11695.095,-8923.095,-27689.175,1179.63,9501.255
1764768073.453873,7643.295,32.31,-33552.36,-11700.315,-8928.0,-27696.465,1171.89,9493.245
1764768073.5014455,7633.349999999999,21.87,-33563.475,-11712.51,-8941.545,-27710.64,1161.36,9481.86
1764768073.5014455,7633.394999999999,22.77,-33563.744999999995,-11712.555,-8941.185,-27709.74,1161.585,9483.21
1764768073.5014455,7642.035,31.59,-33553.845,-11701.305,-8927.279999999999,-27697.185,1170.135,9492.795
1764768073.5014455,7644.014999999999,35.235,-33550.244999999995,-11697.795,-8924.039999999999,-27696.33,1171.89,9494.64
1764768073.5014455,7641.269999999999,32.985,-33552.45,-11701.62,-8927.055,-27699.57,1171.485,9492.57
1764768073.5014455,7651.17,43.38,-33541.695,-11692.395,-8920.755,-27693.045,1180.62,9502.56
1764768073.5014455,7656.434999999999,46.395,-33538.77,-11689.11,-8920.619999999999,-27690.75,1187.235,9509.13
1764768073.5014455,7655.759999999999,46.35,-33538.905,-11689.065,-8922.869999999999,-27690.165,1187.91,9510.39
1764768073.5014455,7655.535,47.925,-33538.095,-11690.01,-8925.615,-27688.59,1185.435,9509.085
1764768073.5014455,7649.46,42.885,-33542.775,-11696.22,-8929.755,-27689.715,1177.785,9501.165
1764768073.5014455,7638.12,30.51,-33554.43,-11706.39,-8938.395,-27702.36,1166.535,9488.7
1764768073.5014455,7636.86,28.575,-33556.41,-11705.22,-8936.369999999999,-27703.035,1166.895,9488.07
1764768073.5014455,7649.955,40.635,-33544.755,-11691.225,-8922.06,-27689.715,1180.98,9502.335
1764768073.5014455,7653.554999999999,43.92,-33540.84,-11687.715,-8918.055,-27685.305,1184.58,9505.98
1764768073.5014455,7643.835,35.37,-33549.03,-11697.705,-8927.685,-27694.215,1175.895,9497.295
1764768073.5014455,7645.769999999999,37.755,-33546.285,-11695.455,-8925.074999999999,-27691.47,1176.84,9499.185
1764768073.5014455,7637.219999999999,29.295,-33554.115,-11704.365,-8934.255,-27702.27,1169.37,9490.185
1764768073.5014455,7636.634999999999,28.395,-33554.295,-11703.375,-8931.824999999999,-27700.65,1168.875,9488.925
1764768073.5014455,7641.405,33.21,-33550.244999999995,-11697.705,-8925.435,-27693.855,1174.185,9494.28
1764768073.5014455,7631.099999999999,20.97,-33562.53,-11710.62,-8938.845,-27706.095,1164.015,9482.535
1764768073.5014455,7640.505,30.6,-33551.865,-11701.215,-8931.06,-27696.825,1172.52,9491.895
1764768073.5014455,7636.005,24.705,-33558.119999999995,-11707.29,-8936.91,-27701.505,1169.28,9487.08
1764768073.548271,7638.255,26.64,-33556.455,-11704.14,-8933.49,-27697.86,1171.98,9489.375
1764768073.548271,7650.179999999999,40.815,-33542.055,-11690.37,-8920.619999999999,-27686.295,1181.43,9500.985
1764768073.548271,7645.455,37.35,-33545.34,-11694.915,-8925.93,-27693.765,1175.94,9495.36
1764768073.548271,7639.605,29.7,-33552.81,-11701.44,-8932.23,-27699.795,1169.37,9489.06
1764768073.548271,7640.684999999999,29.295,-33553.935,-11701.71,-8930.654999999999,-27696.465,1170.81,9489.87
1764768073.548271,7641.855,29.205,-33553.665,-11700.765,-8929.395,-27695.43,1171.755,9490.725
1764768073.548271,7638.929999999999,26.235,-33557.22,-11704.455,-8934.39,-27701.64,1167.165,9486.045
1764768073.548271,7623.405,9.315,-33572.565,-11720.7,-8948.699999999999,-27715.815,1153.485,9470.295
1764768073.548271,7618.86,5.175,-33576.57,-11724.03,-8951.85,-27718.425,1149.075,9465.57
1764768073.548271,7621.965,9.45,-33573.465,-11721.33,-8951.265,-27718.245,1150.47,9468.135
1764768073.548271,7628.535,16.245,-33565.725,-11715.255,-8945.414999999999,-27713.34,1155.06,9474.57
1764768073.548271,7621.155,6.84,-33574.815,-11721.33,-8948.115,-27715.455,1150.335,9468.405
1764768073.548271,7624.98,10.485,-33571.08,-11716.695,-8944.109999999999,-27710.505,1153.035,9472.545
1764768073.548271,7616.7,2.16,-33577.65,-11725.065,-8951.49,-27718.245,1146.195,9464.175
1764768073.548271,7615.934999999999,2.07,-33577.335,-11726.19,-8953.425,-27722.34,1144.395,9462.33
1764768073.548271,7619.759999999999,6.66,-33574.32,-11723.31,-8951.4,-27719.37,1148.58,9466.83
1764768073.548271,7629.66,15.255,-33566.67,-11715.84,-8943.39,-27708.57,1157.49,9476.235
1764768073.548271,7626.96,13.545,-33567.119999999995,-11719.035,-8948.295,-27714.33,1152.54,9472.185
1764768073.548271,7621.2,8.504999999999999,-33572.79,-11724.03,-8953.515,-27720.99,1148.085,9467.46
1764768073.548271,7619.445,5.715,-33576.255,-11724.48,-8953.065,-27719.64,1147.32,9467.325
1764768073.548271,7626.735,13.59,-33567.3,-11717.865,-8947.44,-27713.295,1153.44,9474.12
1764768073.548271,7619.894999999999,6.569999999999999,-33573.24,-11723.67,-8952.705,-27718.875,1146.645,9466.335
1764768073.548271,7625.745,12.555,-33566.94,-11715.3,-8941.59,-27708.66,1153.26,9473.67
1764768073.548271,7623.315,10.62,-33569.325,-11719.215,-8944.875,-27714.195,1151.37,9470.835
1764768073.5953147,7628.355,13.905,-33567.48,-11716.515,-8941.275,-27713.16,1155.51,9475.92
1764768073.5953147,7629.12,13.32,-33567.435,-11715.57,-8940.779999999999,-27713.115,1158.345,9476.91
1764768073.5953147,7642.889999999999,28.305,-33553.305,-11702.115,-8927.595,-27697.77,1171.395,9491.13
1764768073.5953147,7641.315,27.18,-33554.43,-11704.725,-8932.095,-27699.165,1169.1,9488.16
1764768073.5953147,7642.53,29.16,-33551.505,-11704.185,-8935.56,-27698.355,1168.335,9488.07
1764768073.5953147,7644.42,34.875,-33544.89,-11700.99,-8936.19,-27695.07,1166.985,9487.485
1764768073.5953147,7643.295,34.11,-33544.44,-11701.575,-8934.57,-27693.675,1167.03,9487.53
1764768073.5953147,7640.009999999999,28.17,-33553.17,-11708.01,-8936.279999999999,-27696.915,1167.345,9485.73
1764768073.5953147,7654.545,46.08,-33534.945,-11686.14,-8916.074999999999,-27679.725,1181.7,9501.39
1764768073.5953147,7655.759999999999,42.165,-33537.825,-11679.615,-8902.08,-27665.82,1189.305,9506.295
1764768073.5953147,7653.15,34.065,-33547.095,-11682.18,-8897.265,-27661.905,1191.195,9506.34
1764768073.5953147,7650.719999999999,35.684999999999995,-33545.115,-11685.645,-8904.914999999999,-27673.155,1185.48,9501.705
1764768073.5953147,7662.87,50.85,-33530.31,-11674.485,-8897.625,-27669.465,1193.22,9512.1
1764768073.5953147,7650.9,37.44,-33544.035,-11688.435,-8911.529999999999,-27679.995,1181.97,9499.23
1764768073.5953147,7653.285,39.06,-33542.73,-11686.995,-8909.505,-27671.985,1183.5449999999998,9501.03
1764768073.5953147,7654.23,40.68,-33540.93,-11686.815,-8911.08,-27672.795,1183.95,9501.39
1764768073.5953147,7653.014999999999,40.095,-33541.2,-11686.68,-8911.35,-27675.0,1181.07,9499.635
1764768073.5953147,7649.054999999999,36.045,-33543.675,-11689.785,-8913.015,-27678.105,1178.595,9496.98
1764768073.5953147,7639.785,27.045,-33553.71,-11699.595,-8923.365,-27690.03,1170.27,9487.26
1764768073.5953147,7645.41,34.695,-33546.33,-11692.44,-8918.955,-27685.53,1174.995,9493.56
1764768073.5953147,7648.875,38.16,-33542.955,-11688.345,-8916.48,-27680.58,1176.885,9496.395
1764768073.5953147,7648.92,38.61,-33543.405,-11688.705,-8914.59,-27678.915,1177.515,9496.08
1764768073.5953147,7645.5,34.605,-33547.68,-11694.24,-8920.08,-27684.63,1172.7,9491.895
1764768073.5953147,7637.355,27.225,-33553.98,-11702.97,-8930.475,-27694.62,1162.935,9483.66
1764768073.6413562,7632.36,21.555,-33559.02,-11707.785,-8936.1,-27701.415,1158.7949999999998,9478.755
1764768073.6413562,7638.57,25.695,-33555.6,-11701.755,-8927.64,-27693.675,1165.23,9485.145
1764768073.6413562,7632.179999999999,18.405,-33562.71,-11706.975,-8931.869999999999,-27696.42,1161.54,9479.565
1764768073.6413562,7630.83,17.775,-33563.07,-11706.345,-8930.565,-27694.665,1161.54,9479.16
1764768073.6413562,7634.61,22.41,-33558.3,-11701.395,-8927.01,-27693.36,1164.105,9483.705
1764768073.6413562,7643.88,31.995,-33549.255,-11693.34,-8920.215,-27687.645,1173.375,9494.145
1764768073.6413562,7641.09,29.7,-33552.18,-11696.67,-8923.545,-27690.075,1173.6,9492.03
1764768073.6413562,7642.035,31.95,-33548.58,-11693.745,-8920.035,-27683.415,1174.95,9493.065
1764768073.6413562,7656.299999999999,45.0,-33535.53,-11679.48,-8905.77,-27668.61,1187.73,9507.69
1764768073.6413562,7646.535,35.73,-33545.25,-11689.29,-8916.705,-27681.93,1176.3,9496.935
1764768073.6413562,7645.455,34.47,-33545.88,-11690.955,-8916.57,-27679.68,1173.825,9495.135
1764768073.6413562,7639.38,28.44,-33552.99,-11700.855,-8927.865,-27690.12,1165.5449999999998,9486.54
1764768073.6413562,7638.03,27.855,-33554.295,-11699.955,-8926.244999999999,-27690.435,1164.87,9485.91
1764768073.6413562,7643.924999999999,31.59,-33548.445,-11689.83,-8912.654999999999,-27677.475,1174.365,9495.045
1764768073.6413562,7646.985,33.705,-33547.005,-11688.57,-8912.205,-27677.565,1177.38,9498.69
1764768073.6413562,7643.7,31.77,-33549.21,-11693.205,-8920.305,-27684.855,1173.375,9494.55
1764768073.6413562,7653.105,42.435,-33538.095,-11681.28,-8908.065,-27671.13,1183.725,9504.54
1764768073.6413562,7657.695,49.455,-33530.535,-11674.215,-8899.289999999999,-27661.59,1188.945,9509.535
1764768073.6413562,7665.21,57.06,-33524.055,-11668.59,-8893.08,-27655.695,1194.57,9515.7
1764768073.6413562,7654.365,43.785,-33536.744999999995,-11678.85,-8901.0,-27665.19,1184.535,9504.45
1764768073.6413562,7659.134999999999,46.98,-33533.73,-11672.955,-8892.494999999999,-27659.25,1189.755,9510.435
1764768073.6413562,7659.63,48.51,-33532.155,-11672.235,-8892.9,-27659.565,1189.44,9510.255
1764768073.6876943,7649.91,38.52,-33542.145,-11683.035,-8904.645,-27670.05,1179.945,9499.995
1764768073.6876943,7643.79,33.57,-33546.555,-11688.12,-8912.565,-27680.445,1171.665,9492.795
1764768073.6876943,7640.91,31.995,-33548.535,-11692.575,-8919.449999999999,-27687.6,1168.47,9489.87
1764768073.6876943,7644.195,35.145,-33546.105,-11690.19,-8917.65,-27682.065,1174.905,9495.585
1764768073.6882253,7651.17,41.805,-33537.915,-11682.855,-8910.18,-27667.305,1183.86,9502.83
1764768073.6882253,7651.394999999999,42.66,-33535.665,-11685.015,-8914.859999999999,-27669.735,1182.6,9501.03
1764768073.6882253,7659.045,50.67,-33528.375,-11678.67,-8908.335,-27665.325,1186.425,9506.52
1764768073.6882253,7651.71,38.655,-33540.255,-11682.315,-8907.885,-27669.24,1178.595,9499.275
1764768073.6882253,7641.99,24.075,-33553.53,-11686.77,-8908.065,-27671.94,1172.16,9491.13
1764768073.6882253,7635.33,17.28,-33559.965,-11690.64,-8912.52,-27676.89,1167.93,9485.595
1764768073.6882253,7644.644999999999,28.8,-33550.02,-11685.78,-8908.605,-27672.57,1173.465,9494.55
1764768073.6882253,7641.45,26.73,-33552.405,-11691.675,-8913.869999999999,-27679.23,1169.91,9491.13
1764768073.6882253,7649.594999999999,36.495,-33541.335,-11682.225,-8906.22,-27674.01,1176.615,9499.32
1764768073.6882253,7652.835,39.06,-33538.545,-11678.22,-8903.52,-27675.675,1178.595,9501.48
1764768073.6882253,7652.429999999999,37.53,-33540.435,-11679.48,-8905.095,-27676.8,1178.685,9501.57
1764768073.6882253,7648.65,33.705,-33543.72,-11683.215,-8909.279999999999,-27676.17,1178.19,9498.33
1764768073.6882253,7652.474999999999,36.27,-33540.66,-11680.83,-8906.445,-27672.795,1180.8,9501.03
1764768073.6882253,7647.974999999999,32.129999999999995,-33544.8,-11685.645,-8911.35,-27676.35,1174.5449999999998,9494.46
1764768073.6882253,7643.969999999999,28.485,-33547.23,-11689.425,-8916.39,-27681.795,1169.19,9488.745
1764768073.6882253,7641.855,25.155,-33550.47,-11691.045,-8917.74,-27682.515,1167.435,9486.855
1764768073.7341964,7635.509999999999,17.91,-33558.119999999995,-11695.59,-8919.945,-27685.71,1163.115,9481.68
1764768073.7341964,7634.969999999999,18.045,-33557.265,-11696.04,-8919.449999999999,-27685.62,1163.97,9482.67
1764768073.7341964,7643.655,28.71,-33546.825,-11686.77,-8910.539999999999,-27678.915,1171.845,9492.03
1764768073.7341964,7638.884999999999,23.805,-33550.74,-11691.315,-8918.234999999999,-27689.895,1165.005,9484.92
1764768073.7341964,7634.61,18.405,-33556.994999999995,-11697.75,-8927.01,-27698.985,1160.415,9479.835
1764768073.7347002,7631.505,14.22,-33560.64,-11701.53,-8930.835,-27699.48,1158.525,9477.135
1764768073.7347002,7625.835,7.694999999999999,-33566.175,-11707.92,-8937.045,-27703.575,1151.685,9469.53
1764768073.7347002,7613.684999999999,-4.455,-33578.145,-11720.34,-8950.23,-27714.645,1139.58,9456.165
1764768073.7347002,7620.255,2.385,-33571.215,-11712.78,-8942.58,-27706.815,1146.24,9463.095
1764768073.7347002,7615.53,-2.43,-33575.535,-11715.3,-8945.279999999999,-27709.38,1141.605,9458.19
1764768073.7347002,7620.344999999999,1.62,-33572.88,-11710.62,-8938.26,-27704.07,1145.385,9462.735
1764768073.7347002,7628.49,10.395,-33563.295,-11702.745,-8930.295,-27697.68,1152.405,9471.87
1764768073.7347002,7624.71,6.12,-33567.84,-11707.875,-8935.92,-27703.215,1149.075,9468.315
1764768073.7347002,7626.735,9.045,-33564.285,-11703.24,-8928.135,-27697.185,1152.27,9470.925
1764768073.7347002,7619.535,2.43,-33571.125,-11709.765,-8933.715,-27703.89,1145.655,9463.41
1764768073.7347002,7622.594999999999,4.77,-33569.685,-11709.675,-8935.154999999999,-27704.88,1146.33,9465.12
1764768073.7347002,7626.42,8.82,-33566.31,-11706.03,-8929.619999999999,-27698.58,1150.335,9470.115
1764768073.7347002,7616.88,-1.08,-33575.49,-11715.525,-8940.24,-27709.065,1140.93,9459.585
1764768073.7347002,7610.894999999999,-7.02,-33582.195,-11723.4,-8951.805,-27720.315,1135.26,9452.565
1764768073.7347002,7610.04,-6.569999999999999,-33581.16,-11723.895,-8955.135,-27721.26,1135.08,9452.34
1764768073.7347002,7613.235,-3.33,-33576.75,-11719.845,-8951.22,-27713.835,1138.905,9455.58
1764768073.7347002,7618.005,1.35,-33572.34,-11716.65,-8945.775,-27707.895,1140.7949999999998,9459.99
1764768073.7347002,7620.389999999999,3.735,-33569.19,-11711.07,-8939.565,-27706.23,1141.245,9461.61
1764768073.7347002,7621.335,3.78,-33568.875,-11706.345,-8932.904999999999,-27703.62,1143.63,9463.455
1764768073.7347002,7620.525,3.735,-33570.765,-11710.89,-8936.55,-27706.23,1143.18,9462.465
1764768073.7347002,7609.724999999999,-7.065,-33581.565,-11723.625,-8948.43,-27712.89,1135.035,9452.025
1764768073.780297,7609.5,-9.135,-33583.77,-11725.695,-8949.465,-27711.81,1135.485,9452.61
1764768073.780297,7597.485,-21.825,-33596.505,-11739.06,-8965.44,-27729.315,1121.22,9438.075
1764768073.780297,7598.88,-20.25,-33594.84,-11735.955,-8964.27,-27729.36,1122.7949999999998,9439.74
1764768073.780297,7592.174999999999,-27.81,-33602.31,-11742.075,-8971.02,-27736.65,1116.585,9432.18
1764768073.780297,7599.014999999999,-20.79,-33594.93,-11735.1,-8961.029999999999,-27726.12,1122.255,9439.02
1764768073.780297,7595.82,-25.65,-33598.98,-11736.54,-8961.48,-27727.965,1119.105,9437.175
1764768073.780297,7593.165,-27.99,-33601.455,-11737.305,-8963.91,-27731.475,1117.35,9435.645
1764768073.780297,7586.235,-33.3,-33605.865,-11741.895,-8965.529999999999,-27734.265,1112.6699999999998,9428.85
1764768073.780297,7589.969999999999,-30.285,-33601.994999999995,-11736.18,-8958.555,-27729.0,1115.595,9432.0
1764768073.781336,7605.719999999999,-13.59,-33585.66,-11720.97,-8943.48,-27712.845,1130.085,9448.2
1764768073.781336,7609.184999999999,-9.54,-33582.6,-11719.53,-8941.275,-27709.56,1133.19,9451.62
1764768073.781336,7603.92,-14.04,-33587.28,-11725.38,-8948.205,-27716.76,1126.125,9445.005
1764768073.781336,7603.11,-15.705,-33589.575,-11726.37,-8950.14,-27718.245,1125.63,9443.925
1764768073.781336,7596.63,-23.22,-33597.09,-11733.57,-8957.97,-27727.38,1120.995,9438.435
1764768073.781336,7599.509999999999,-18.135,-33592.095,-11730.15,-8955.855,-27726.255,1123.875,9442.17
1764768073.781336,7601.355,-15.345,-33588.18,-11726.19,-8953.65,-27722.925,1125.9,9444.69
1764768073.781336,7606.485,-11.115,-33583.14,-11718.54,-8946.18,-27711.945,1131.705,9451.62
1764768073.781336,7606.755,-10.845,-33583.365,-11716.74,-8941.904999999999,-27706.455,1132.965,9452.835
1764768073.781336,7604.28,-13.455,-33585.795,-11719.305,-8943.615,-27708.885,1130.355,9449.37
1764768073.781336,7596.719999999999,-22.455,-33594.885,-11727.945,-8952.164999999999,-27718.245,1123.38,9441.27
1764768073.781336,7606.62,-13.68,-33586.244999999995,-11718.495,-8941.635,-27708.75,1129.905,9450.135
1764768073.781336,7603.424999999999,-17.235,-33588.765,-11722.365,-8946.72,-27714.195,1124.73,9445.41
1764768073.781336,7594.74,-27.495,-33598.44,-11731.59,-8954.64,-27723.42,1116.99,9436.365
1764768073.781336,7595.955,-25.83,-33596.955,-11729.475,-8950.41,-27718.74,1119.645,9438.84
1764768073.829367,7588.394999999999,-33.975,-33604.515,-11737.485,-8957.34,-27727.515,1112.76,9431.235
1764768073.829367,7590.24,-30.465,-33601.59,-11735.505,-8957.295,-27728.01,1112.6699999999998,9432.63
1764768073.829367,7583.4,-37.44,-33608.43,-11742.39,-8965.845,-27731.97,1106.865,9425.655
1764768073.829367,7587.45,-34.56,-33607.08,-11741.715,-8963.055,-27724.815,1110.195,9430.56
1764768073.829367,7584.165,-37.215,-33609.78,-11743.425,-8964.99,-27729.0,1107.855,9428.355
1764768073.829367,7594.74,-25.965,-33597.99,-11732.49,-8955.855,-27719.415,1118.25,9439.02
1764768073.829367,7600.995,-19.035,-33590.16,-11725.155,-8949.779999999999,-27713.565,1123.47,9444.105
1764768073.829367,7595.235,-24.84,-33596.145,-11730.105,-8953.92,-27717.525,1118.61,9437.985
1764768073.829367,7588.62,-31.86,-33604.74,-11736.09,-8958.15,-27724.005,1113.165,9432.0
1764768073.829367,7590.285,-29.835,-33602.49,-11733.795,-8955.63,-27722.565,1114.695,9433.53
1764768073.829367,7605.585,-14.22,-33586.11,-11718.09,-8938.755,-27704.745,1129.455,9449.46
1764768073.829367,7616.205,-1.98,-33573.915,-11707.29,-8930.205,-27697.635,1139.985,9460.215
1764768073.829367,7622.73,6.705,-33565.365,-11700.09,-8928.404999999999,-27697.59,1145.61,9466.515
1764768073.829367,7615.844999999999,0.045,-33571.08,-11704.725,-8934.57,-27700.965,1140.525,9459.45
1764768073.829367,7612.335,-6.93,-33578.369999999995,-11709.855,-8933.94,-27692.415,1140.705,9457.875
1764768073.829367,7620.12,1.35,-33569.73,-11701.71,-8921.699999999999,-27679.77,1149.03,9467.055
1764768073.829367,7623.9,7.065,-33563.97,-11698.335,-8921.07,-27682.695,1151.55,9470.655
1764768073.829367,7612.65,-5.76,-33577.83,-11710.215,-8933.895,-27697.095,1139.22,9457.335
1764768073.829367,7604.865,-14.04,-33585.39,-11716.92,-8940.555,-27703.845,1130.22,9447.66
1764768073.829367,7606.035,-10.44,-33581.07,-11716.425,-8939.295,-27700.65,1130.31,9449.055
1764768073.829367,7617.915,-2.205,-33574.5,-11706.84,-8926.154999999999,-27687.105,1144.26,9463.5
1764768073.829367,7617.195,-2.475,-33575.04,-11704.275,-8923.59,-27687.42,1145.34,9463.77
1764768073.8722565,7627.365,7.83,-33564.869999999995,-11692.44,-8912.295,-27677.745,1153.53,9474.615
1764768073.8722565,7629.255,9.225,-33563.97,-11693.7,-8913.015,-27678.15,1154.835,9476.145
1764768073.8722565,7625.61,7.56,-33565.68,-11698.74,-8921.115,-27686.97,1150.335,9470.61
1764768073.8722565,7632.045,14.76,-33558.57,-11692.215,-8916.615,-27684.27,1156.005,9477.495
1764768073.8722565,7639.785,20.655,-33551.82,-11683.755,-8906.535,-27671.76,1163.97,9484.83
1764768073.8722565,7628.849999999999,7.02,-33564.69,-11694.87,-8913.105,-27676.62,1155.105,9473.985
1764768073.8722565,7636.005,15.885,-33555.24,-11683.575,-8901.539999999999,-27664.785,1162.08,9481.095
1764768073.8722565,7632.674999999999,13.365,-33558.93,-11688.57,-8905.005,-27668.7,1160.685,9477.585
1764768073.8722565,7634.429999999999,13.185,-33559.38,-11688.03,-8903.07,-27669.87,1161.63,9479.025
1764768073.8722565,7638.884999999999,18.72,-33553.17,-11681.55,-8897.625,-27666.315,1165.275,9484.38
1764768073.8722565,7643.07,23.535,-33548.445,-11676.105,-8893.484999999999,-27661.815,1170.315,9489.87
1764768073.8722565,7652.295,35.235,-33537.42,-11666.25,-8886.375,-27655.335,1178.685,9500.085
1764768073.8722565,7654.815,37.26,-33535.755,-11665.395,-8886.42,-27654.615,1180.485,9501.93
1764768073.8722565,7647.884999999999,30.285,-33541.605,-11671.065,-8891.055,-27656.775,1174.23,9494.235
1764768073.8722565,7652.205,34.92,-33536.744999999995,-11665.125,-8882.82,-27647.055,1178.73,9499.41
1764768073.8722565,7642.304999999999,23.265,-33547.365,-11676.24,-8892.855,-27657.81,1169.955,9488.88
1764768073.8722565,7650.09,31.5,-33539.445,-11669.22,-8887.994999999999,-27655.875,1175.4,9495.765
1764768073.8722565,7652.565,35.504999999999995,-33536.61,-11666.745,-8886.6,-27654.075,1177.245,9498.78
1764768073.8722565,7650.855,33.48,-33538.77,-11669.13,-8887.59,-27654.615,1177.335,9497.925
1764768073.8722565,7656.299999999999,40.185,-33533.055,-11666.97,-8887.904999999999,-27654.57,1179.945,9502.83
1764768073.8722565,7652.969999999999,37.215,-33535.125,-11669.355,-8891.73,-27658.35,1177.56,9499.77
1764768073.8729606,7661.61,46.17,-33526.305,-11656.89,-8878.815,-27645.48,1186.9199999999998,9509.58
1764768073.9188714,7667.775,50.805,-33521.49,-11647.665,-8866.17,-27634.905,1195.56,9516.42
1764768073.9188714,7668.945,50.49,-33522.119999999995,-11645.1,-8860.68,-27628.56,1198.89,9519.255
1764768073.9188714,7669.71,52.245,-33520.994999999995,-11645.595,-8861.535,-27629.19,1198.845,9519.03
1764768073.9188714,7658.235,41.13,-33531.705,-11658.24,-8876.115,-27643.455,1187.055,9506.43
1764768073.9188714,7666.92,50.4,-33521.67,-11648.655,-8868.51,-27634.005,1194.93,9515.745
1764768073.9188714,7667.505,52.83,-33519.015,-11646.72,-8867.34,-27632.475,1194.12,9515.97
1764768073.9188714,7657.83,40.905,-33531.3,-11659.23,-8876.97,-27642.555,1186.38,9506.385
1764768073.9188714,7660.62,43.155,-33529.59,-11657.52,-8874.27,-27642.465,1188.27,9508.905
1764768073.9188714,7656.84,40.635,-33531.48,-11660.805,-8879.535,-27649.98,1181.835,9503.91
1764768073.9188714,7658.325,43.245,-33527.52,-11658.42,-8877.465,-27650.655,1181.385,9505.26
1764768073.9188714,7662.87,47.295,-33522.57,-11653.155,-8869.77,-27641.295,1187.1,9510.03
1764768073.9188714,7661.205,44.91,-33525.945,-11656.305,-8870.49,-27636.75,1189.8,9510.075
1764768073.9188714,7669.755,52.425,-33521.085,-11653.245,-8869.455,-27634.815,1198.395,9518.76
1764768073.9188714,7660.934999999999,43.155,-33531.119999999995,-11663.325,-8882.82,-27651.69,1189.305,9509.445
1764768073.9188714,7667.73,50.535,-33522.345,-11652.435,-8872.65,-27641.7,1195.38,9516.555
1764768073.9188714,7659.945,42.255,-33529.95,-11658.15,-8876.744999999999,-27642.33,1189.305,9508.995
1764768073.9188714,7655.264999999999,38.7,-33533.1,-11661.975,-8877.69,-27645.165,1185.255,9504.18
1764768073.9188714,7658.865,42.75,-33528.825,-11660.67,-8874.359999999999,-27642.24,1188.36,9507.825
1764768073.9188714,7668.45,54.855,-33516.27,-11651.085,-8866.529999999999,-27633.645,1196.235,9517.41
1764768073.9188714,7666.29,51.93,-33519.735,-11652.795,-8869.185,-27637.74,1194.705,9516.105
1764768073.9188714,7673.13,55.71,-33515.91,-11645.82,-8859.645,-27629.505,1202.445,9524.07
1764768073.9188714,7671.24,53.685,-33517.619999999995,-11648.025,-8862.074999999999,-27633.285,1200.87,9521.28
1764768073.9188714,7680.375,65.475,-33506.369999999995,-11639.205,-8856.315,-27627.525,1206.495,9529.47
1764768073.9188714,7686.045,71.82,-33500.655,-11634.48,-8853.3,-27622.845,1210.23,9534.33
1764768073.963527,7686.719999999999,72.89999999999999,-33498.72,-11632.23,-8849.295,-27618.21,1211.985,9535.545
1764768073.963527,7686.179999999999,69.92999999999999,-33502.14,-11629.305,-8843.175,-27613.755,1215.81,9537.345
1764768073.963527,7680.87,65.925,-33505.965,-11633.625,-8847.494999999999,-27619.02,1212.03,9532.44
1764768073.963527,7683.795,70.38,-33501.33,-11632.455,-8847.494999999999,-27619.56,1213.335,9534.33
1764768073.963527,7694.46,81.63,-33490.755,-11620.98,-8835.795,-27609.39,1224.36,9547.785
1764768073.963527,7695.764999999999,81.81,-33489.675,-11619.63,-8835.074999999999,-27607.905,1227.06,9549.27
1764768073.963527,7691.4,77.75999999999999,-33493.545,-11624.535,-8840.16,-27611.82,1222.65,9543.42
1764768073.963527,7701.795,88.92,-33482.205,-11614.095,-8829.09,-27599.94,1232.37,9553.815
1764768073.963527,7701.929999999999,88.785,-33482.295,-11614.725,-8827.875,-27599.535,1231.56,9552.645
1764768073.963527,7689.915,76.32,-33494.94,-11627.325,-8840.115,-27612.63,1219.005,9538.605
1764768073.963527,7688.474999999999,74.52,-33496.74,-11628.945,-8841.15,-27613.89,1217.655,9537.435
1764768073.963527,7689.195,74.835,-33497.64,-11628.405,-8838.045,-27611.55,1221.03,9539.955
1764768073.963527,7690.005,75.91499999999999,-33497.369999999995,-11627.685,-8839.17,-27613.17,1221.39,9540.765
1764768073.963527,7690.32,76.905,-33495.93,-11627.955,-8841.42,-27613.62,1221.12,9540.81
1764768073.963527,7690.905,78.075,-33493.59,-11627.055,-8843.13,-27612.72,1221.39,9542.205
1764768073.963527,7697.88,85.22999999999999,-33486.165,-11619.045,-8835.48,-27606.15,1229.085,9550.305
1764768073.963527,7692.57,79.92,-33492.285,-11623.77,-8838.494999999999,-27608.85,1224.72,9544.905
1764768073.963527,7690.545,79.065,-33493.455,-11626.245,-8841.06,-27612.495,1220.6699999999998,9541.305
1764768073.963527,7695.495,81.585,-33489.54,-11622.87,-8835.435,-27606.42,1224.855,9546.12
1764768073.963527,7686.855,72.53999999999999,-33498.72,-11632.815,-8847.539999999999,-27618.075,1214.955,9536.04
1764768073.963527,7691.894999999999,78.57,-33493.05,-11626.155,-8841.6,-27614.565,1218.6,9541.71
1764768073.963527,7695.36,81.765,-33489.36,-11620.44,-8836.605,-27610.155,1223.01,9546.03
1764768073.963527,7699.005,85.455,-33486.255,-11617.83,-8834.625,-27609.165,1226.61,9550.17
1764768073.963527,7698.195,85.905,-33485.535,-11618.37,-8834.535,-27610.02,1226.88,9549.765
1764768074.01014,7693.335,80.55,-33491.34,-11623.68,-8838.404999999999,-27613.665,1222.83,9544.635
1764768074.01014,7683.57,69.84,-33500.655,-11632.365,-8846.324999999999,-27620.37,1215.27,9535.23
1764768074.01014,7681.094999999999,68.085,-33501.915,-11634.345,-8848.935,-27623.025,1212.12,9532.665
1764768074.01014,7683.75,70.74,-33499.395,-11632.095,-8846.82,-27622.305,1211.175,9533.97
1764768074.01014,7684.83,72.13499999999999,-33498.63,-11632.05,-8846.865,-27623.97,1209.78,9534.195
1764768074.01014,7679.745,67.32,-33503.805,-11637.585,-8851.095,-27626.085,1205.91,9528.48
1764768074.01014,7671.42,57.15,-33514.92,-11648.205,-8859.33,-27631.485,1201.5449999999998,9522.225
1764768074.01014,7676.28,61.02,-33511.005,-11644.11,-8855.505,-27626.58,1206.99,9528.345
1764768074.01014,7671.87,57.6,-33514.965,-11648.925,-8862.84,-27633.96,1203.075,9522.855
1764768074.01014,7672.41,57.51,-33515.01,-11648.52,-8866.574999999999,-27637.83,1202.58,9522.495
1764768074.0106592,7673.94,58.005,-33515.865,-11646.81,-8865.855,-27634.5,1205.955,9525.6
1764768074.0106592,7676.054999999999,59.445,-33513.57,-11642.715,-8855.505,-27627.48,1209.285,9529.335
1764768074.0106592,7682.13,68.265,-33504.39,-11632.59,-8845.92,-27620.685,1212.48,9534.645
1764768074.0106592,7679.745,64.98,-33508.575,-11634.615,-8847.81,-27622.755,1212.165,9533.025
1764768074.0106592,7692.525,77.895,-33496.29,-11623.185,-8837.279999999999,-27612.0,1222.965,9545.13
1764768074.0106592,7689.24,74.78999999999999,-33500.79,-11629.17,-8845.154999999999,-27618.21,1218.51,9540.225
1764768074.0106592,7698.42,84.42,-33492.6,-11621.835,-8835.84,-27607.86,1227.375,9550.125
1764768074.0106592,7693.245,79.965,-33496.695,-11624.49,-8839.35,-27613.845,1223.37,9544.86
1764768074.0106592,7695.405,81.765,-33494.715,-11620.89,-8836.065,-27610.65,1225.1699999999998,9546.93
1764768074.0106592,7704.674999999999,89.72999999999999,-33486.615,-11609.055,-8823.465,-27598.095,1235.205,9557.685
1764768074.0106592,7707.78,94.05,-33482.61,-11606.175,-8821.215,-27595.665,1237.815,9561.285
1764768074.0106592,7699.634999999999,88.335,-33487.515,-11612.97,-8828.595,-27602.415,1232.145,9554.67
1764768074.057244,7697.969999999999,85.365,-33490.845,-11615.67,-8828.369999999999,-27600.57,1232.01,9553.635
1764768074.057244,7707.375,95.31,-33480.405,-11604.69,-8817.705,-27590.895,1239.03,9561.735
1764768074.057244,7708.995,96.03,-33479.505,-11602.305,-8816.445,-27589.995,1239.93,9562.815
1764768074.057244,7693.695,78.21,-33497.775,-11619.045,-8833.185,-27607.995,1223.73,9546.21
1764768074.057244,7693.335,78.84,-33497.19,-11621.7,-8836.965,-27610.74,1221.705,9545.49
1764768074.057244,7701.929999999999,85.95,-33490.26,-11613.555,-8827.244999999999,-27598.905,1231.785,9555.345
1764768074.057244,7702.335,86.80499999999999,-33489.54,-11612.25,-8827.83,-27598.32,1231.47,9555.57
1764768074.057244,7693.559999999999,80.46,-33495.975,-11620.89,-8838.72,-27607.365,1222.47,9545.895
1764768074.057244,7701.929999999999,90.63,-33485.355,-11610.81,-8828.82,-27597.285,1230.12,9554.355
1764768074.057244,7695.0,80.28,-33495.255,-11617.02,-8833.455,-27603.45,1226.7,9548.415
1764768074.057244,7691.085,73.25999999999999,-33503.49,-11618.91,-8832.735,-27603.99,1225.89,9545.985
1764768074.057244,7695.269999999999,79.785,-33496.83,-11613.915,-8828.46,-27599.715,1228.05,9549.495
1764768074.057244,7707.78,93.78,-33483.33,-11602.305,-8818.065,-27588.51,1238.535,9561.105
1764768074.057244,7699.41,86.085,-33491.655,-11610.9,-8828.46,-27598.815,1230.03,9551.43
1764768074.057244,7701.21,89.72999999999999,-33488.505,-11609.64,-8828.73,-27599.49,1229.49,9552.33
1764768074.057244,7711.245,100.53,-33477.119999999995,-11599.695,-8819.055,-27589.815,1238.13,9561.735
1764768074.057244,7709.309999999999,96.66,-33480.81,-11600.595,-8816.22,-27588.78,1238.4,9560.835
1764768074.057244,7701.03,87.975,-33490.08,-11608.65,-8825.85,-27600.885,1230.93,9552.78
1764768074.057244,7699.005,86.31,-33492.15,-11610.855,-8829.18,-27602.28,1228.905,9551.16
1764768074.057244,7703.955,89.41499999999999,-33487.335,-11604.42,-8821.08,-27592.695,1234.485,9557.19
1764768074.057244,7701.21,84.825,-33491.205,-11608.515,-8822.925,-27592.83,1232.19,9554.31
1764768074.057244,7703.594999999999,90.045,-33486.165,-11604.42,-8820.539999999999,-27592.83,1233.0449999999998,9555.12
1764768074.057244,7703.37,91.395,-33484.994999999995,-11602.575,-8818.74,-27593.19,1232.28,9554.76
1764768074.057244,7697.16,83.16,-33493.725,-11609.955,-8824.365,-27598.68,1224.72,9547.785
1764768074.1038773,7695.179999999999,80.1,-33496.29,-11612.43,-8824.14,-27594.99,1225.35,9547.11
1764768074.1038773,7686.134999999999,70.605,-33505.335,-11620.845,-8833.14,-27603.855,1217.025,9537.615
1764768074.1038773,7690.815,77.265,-33499.17,-11617.47,-8832.015,-27603.855,1219.905,9541.62
1764768074.1038773,7681.995,70.56,-33506.19,-11627.595,-8845.56,-27618.525,1211.895,9532.44
1764768074.1038773,7684.2,70.605,-33505.74,-11625.03,-8846.235,-27621.18,1214.145,9535.905
1764768074.1038773,7680.915,62.775,-33512.895,-11627.595,-8850.195,-27624.105,1211.985,9533.61
1764768074.1038773,7671.644999999999,52.56,-33522.885,-11638.08,-8860.994999999999,-27628.29,1202.625,9523.53
1764768074.1038773,7676.46,60.57,-33513.03,-11631.96,-8852.805,-27615.645,1205.685,9527.13
1764768074.1038773,7677.224999999999,62.865,-33509.07,-11630.025,-8850.105,-27614.52,1206.18,9527.04
1764768074.1038773,7673.13,58.23,-33514.515,-11635.56,-8854.965,-27622.845,1200.15,9521.82
1764768074.1038773,7668.809999999999,52.605,-33519.6,-11638.035,-8856.315,-27627.75,1196.145,9518.355
1764768074.1038773,7661.88,45.135,-33526.755,-11645.145,-8863.605,-27635.85,1188.72,9511.65
1764768074.1038773,7648.83,30.915,-33540.705,-11657.565,-8877.465,-27651.105,1176.705,9498.105
1764768074.1038773,7651.53,33.03,-33539.355,-11654.64,-8874.0,-27646.965,1180.1699999999998,9502.2
1764768074.1038773,7647.66,31.23,-33541.605,-11659.095,-8877.645,-27650.295,1176.345,9498.645
1764768074.1048975,7650.54,34.92,-33537.015,-11654.82,-8872.74,-27646.83,1178.46,9501.705
1764768074.1048975,7641.809999999999,26.055,-33545.25,-11663.325,-8881.83,-27655.875,1169.775,9491.445
1764768074.1048975,7645.679999999999,28.8,-33543.18,-11661.525,-8880.164999999999,-27653.04,1173.96,9495.36
1764768074.1048975,7654.32,37.35,-33535.71,-11653.47,-8871.615,-27644.04,1181.52,9504.405
1764768074.1048975,7653.644999999999,38.16,-33534.855,-11654.595,-8874.99,-27645.705,1179.225,9502.695
1764768074.1048975,7648.514999999999,33.525,-33539.805,-11660.805,-8884.664999999999,-27654.12,1174.455,9496.98
1764768074.1048975,7645.86,29.115,-33543.54,-11661.165,-8885.654999999999,-27655.2,1173.51,9495.09
1764768074.150951,7650.719999999999,34.02,-33538.545,-11656.215,-8881.38,-27650.295,1177.155,9500.265
1764768074.150951,7647.884999999999,33.165,-33538.905,-11659.455,-8885.43,-27654.345,1173.96,9496.89
1764768074.150951,7634.745,22.185,-33549.66,-11673.135,-8901.18,-27671.355,1160.325,9482.85
1764768074.1514544,7638.075,24.255,-33546.555,-11669.85,-8895.015,-27663.615,1164.645,9487.485
1764768074.1514544,7639.559999999999,22.905,-33548.85,-11667.24,-8887.095,-27656.775,1170.135,9491.4
1764768074.1514544,7632.405,14.985,-33556.41,-11671.695,-8892.765,-27664.74,1163.385,9483.3
1764768074.1514544,7643.429999999999,27.585,-33544.53,-11660.805,-8884.619999999999,-27658.305,1170.99,9493.245
1764768074.1514544,7640.775,25.695,-33546.015,-11664.045,-8887.725,-27660.015,1167.93,9489.645
1764768074.1514544,7629.929999999999,14.13,-33558.03,-11674.89,-8897.039999999999,-27668.97,1157.895,9477.855
1764768074.1514544,7624.71,8.594999999999999,-33563.744999999995,-11682.09,-8903.744999999999,-27675.54,1151.865,9471.51
1764768074.1514544,7626.554999999999,10.845,-33561.18,-11680.965,-8904.914999999999,-27677.205,1151.82,9473.985
1764768074.1514544,7627.455,11.43,-33560.235,-11679.345,-8904.555,-27678.645,1151.505,9475.56
1764768074.1514544,7619.219999999999,3.645,-33567.525,-11685.87,-8910.494999999999,-27685.62,1146.33,9468.675
1764768074.1514544,7620.66,8.055,-33562.845,-11682.855,-8907.93,-27681.39,1148.49,9470.565
1764768074.1514544,7612.29,-0.8099999999999999,-33571.215,-11690.595,-8914.455,-27685.89,1142.505,9462.24
1764768074.1514544,7611.705,-2.88,-33573.555,-11692.305,-8913.645,-27685.44,1141.38,9462.06
1764768074.1514544,7626.105,11.16,-33559.965,-11678.895,-8898.57,-27673.92,1153.395,9475.92
1764768074.1514544,7628.355,12.915,-33558.525,-11675.07,-8895.465,-27674.955,1153.98,9476.91
1764768074.1514544,7630.605,15.615,-33556.68,-11674.395,-8897.805,-27678.78,1154.97,9479.025
1764768074.1514544,7627.995,12.915,-33559.515,-11676.69,-8900.055,-27679.365,1157.22,9479.745
1764768074.1514544,7619.58,5.13,-33566.445,-11684.34,-8909.82,-27686.43,1150.74,9470.88
1764768074.1514544,7624.259999999999,10.305,-33561.54,-11680.605,-8909.19,-27682.29,1154.88,9475.065
1764768074.1514544,7635.33,22.41,-33549.84,-11667.87,-8894.565,-27665.595,1166.4,9487.305
1764768074.1514544,7628.58,16.919999999999998,-33554.744999999995,-11672.37,-8897.355,-27670.005,1161.72,9480.735
1764768074.1514544,7626.195,15.12,-33555.69,-11674.53,-8900.369999999999,-27672.795,1160.055,9477.9
1764768074.1514544,7630.695,20.07,-33550.47,-11670.39,-8894.925,-27667.17,1165.185,9483.21
1764768074.1975908,7654.634999999999,43.785,-33527.79,-11648.385,-8872.965,-27644.805,1187.595,9508.545
1764768074.1975908,7657.65,47.655,-33523.965,-11643.615,-8869.14,-27641.655,1190.385,9511.065
1764768074.1975908,7647.344999999999,36.27,-33536.07,-11655.225,-8879.22,-27652.86,1182.15,9500.805
1764768074.1975908,7644.15,33.21,-33539.085,-11657.655,-8880.93,-27656.145,1178.685,9497.835
1764768074.1975908,7649.415,38.88,-33534.045,-11650.995,-8875.08,-27649.26,1183.635,9503.145
1764768074.1975908,7651.575,41.13,-33530.94,-11648.88,-8873.279999999999,-27648.675,1185.435,9505.755
1764768074.1975908,7649.505,39.105,-33534.045,-11652.3,-8876.52,-27652.545,1183.32,9503.865
1764768074.1975908,7644.825,35.055,-33538.095,-11657.925,-8882.279999999999,-27658.62,1177.47,9499.14
1764768074.1975908,7643.295,33.705,-33539.355,-11660.58,-8885.654999999999,-27662.355,1174.5,9496.395
1764768074.1975908,7649.235,39.735,-33533.415,-11655.09,-8881.109999999999,-27656.235,1179.585,9501.795
1764768074.1975908,7646.625,33.705,-33538.77,-11658.465,-8883.945,-27657.405,1178.505,9499.23
1764768074.1975908,7631.46,19.26,-33552.18,-11673.495,-8897.805,-27670.5,1163.2949999999998,9483.03
1764768074.1975908,7633.259999999999,21.555,-33550.065,-11670.84,-8894.744999999999,-27667.44,1162.485,9483.705
1764768074.1975908,7629.165,16.695,-33554.565,-11673.135,-8896.275,-27669.555,1159.11,9480.555
1764768074.1975908,7620.165,6.93,-33564.375,-11680.83,-8903.205,-27678.015,1152.81,9471.555
1764768074.1975908,7617.105,4.05,-33567.48,-11684.205,-8906.984999999999,-27682.56,1149.84,9468.945
1764768074.1975908,7618.86,7.154999999999999,-33564.69,-11683.305,-8907.795,-27682.335,1151.955,9471.825
1764768074.1975908,7626.24,16.335,-33555.78,-11675.385,-8900.279999999999,-27674.46,1161.495,9480.78
1764768074.1975908,7632.585,24.66,-33547.545,-11670.165,-8894.88,-27668.79,1165.41,9486.18
1764768074.1975908,7645.95,38.16,-33533.73,-11656.08,-8878.365,-27651.555,1177.515,9500.13
1764768074.2468038,7652.924999999999,41.265,-33530.355,-11647.8,-8866.845,-27639.945,1188.45,9510.21
1764768074.2468038,7652.7,42.435,-33529.14,-11648.115,-8869.32,-27641.88,1187.775,9508.545
1764768074.2468038,7650.495,40.995,-33531.165,-11653.74,-8876.97,-27649.89,1181.925,9503.73
1764768074.2468038,7641.315,32.4,-33539.445,-11662.56,-8888.13,-27662.76,1171.1699999999998,9492.93
1764768074.2468038,7642.035,31.77,-33538.635,-11658.645,-8882.414999999999,-27658.755,1171.395,9494.01
1764768074.2468038,7642.53,29.52,-33542.595,-11657.115,-8877.15,-27655.74,1175.445,9497.385
1764768074.2468038,7641.224999999999,29.745,-33542.775,-11656.62,-8876.88,-27657.765,1176.48,9497.475
1764768074.2468038,7631.054999999999,17.595,-33554.07,-11667.78,-8886.6,-27669.06,1169.505,9487.8
1764768074.2468038,7630.559999999999,17.865,-33554.88,-11671.02,-8893.17,-27676.17,1165.86,9486.27
1764768074.2468038,7644.69,34.47,-33537.825,-11655.855,-8881.154999999999,-27663.84,1176.66,9500.31
1764768074.2468038,7653.42,44.1,-33528.555,-11646.945,-8875.305,-27653.58,1184.175,9507.645
1764768074.2468038,7648.155,39.645,-33533.91,-11653.92,-8879.445,-27652.32,1179.0449999999998,9502.38
1764768074.2468038,7648.245,39.105,-33533.28,-11651.625,-8873.865,-27648.585,1181.16,9501.795
1764768074.2468038,7656.929999999999,46.53,-33525.765,-11643.21,-8863.74,-27639.315,1190.385,9511.02
1764768074.2468038,7651.755,42.57,-33530.175,-11649.105,-8868.779999999999,-27643.995,1186.38,9506.88
1764768074.2468038,7652.88,42.48,-33530.985,-11647.98,-8864.91,-27642.15,1186.74,9509.085
1764768074.2468038,7647.795,35.46,-33538.77,-11652.21,-8868.69,-27647.64,1181.88,9504.855
1764768074.2468038,7638.66,26.955,-33547.365,-11662.29,-8880.57,-27659.745,1173.87,9495.135
1764768074.2468038,7638.21,26.685,-33546.69,-11663.325,-8884.395,-27664.065,1172.88,9494.37
1764768074.2468038,7639.065,27.135,-33544.935,-11663.325,-8885.97,-27666.18,1172.52,9494.055
1764768074.2468038,7638.615,25.785,-33546.6,-11665.215,-8888.265,-27669.735,1168.065,9491.805
1764768074.2468038,7623.224999999999,9.495,-33562.26,-11679.57,-8901.359999999999,-27684.045,1153.1699999999998,9475.65
1764768074.2468038,7625.205,13.185,-33558.255,-11675.745,-8897.445,-27679.005,1156.905,9478.395
1764768074.2468038,7632.674999999999,20.835,-33551.28,-11668.905,-8890.965,-27671.985,1164.06,9486.315
1764768074.2468038,7624.934999999999,14.31,-33557.895,-11676.42,-8899.065,-27678.555,1157.85,9478.8
1764768074.2468038,7621.38,11.925,-33560.82,-11679.075,-8901.72,-27677.745,1154.52,9476.235
1764768074.2927957,7627.679999999999,18.855,-33553.665,-11671.38,-8893.395,-27669.465,1161.27,9484.47
1764768074.2927957,7622.144999999999,12.15,-33560.46,-11677.59,-8899.965,-27679.05,1155.915,9478.62
1764768074.2927957,7629.434999999999,20.835,-33551.73,-11667.42,-8890.289999999999,-27672.75,1161.81,9485.82
1764768074.2927957,7632.36,23.67,-33548.67,-11664.72,-8887.095,-27669.06,1163.88,9488.34
1764768074.2927957,7632.495,22.905,-33548.67,-11664.945,-8887.275,-27669.105,1163.97,9488.88
1764768074.2927957,7626.42,15.255,-33556.41,-11672.37,-8894.25,-27673.695,1158.345,9482.85
1764768074.2927957,7626.059999999999,15.57,-33554.7,-11671.425,-8893.71,-27670.41,1157.535,9482.085
1764768074.2927957,7625.16,16.155,-33554.565,-11672.64,-8896.68,-27672.615,1157.6699999999998,9481.86
1764768074.2927957,7616.115,5.625,-33565.185,-11682.0,-8904.15,-27681.12,1151.91,9474.21
1764768074.2927957,7618.769999999999,6.39,-33565.905,-11679.255,-8900.775,-27677.745,1154.655,9477.945
1764768074.2927957,7616.745,5.31,-33566.535,-11677.77,-8899.244999999999,-27676.62,1153.53,9475.38
1764768074.2927957,7609.005,-1.35,-33571.665,-11684.79,-8906.94,-27685.935,1145.385,9467.37
1764768074.2927957,7616.88,8.145,-33561.765,-11677.815,-8900.19,-27680.535,1153.08,9476.55
1764768074.2927957,7622.549999999999,13.59,-33556.994999999995,-11675.295,-8900.19,-27677.295,1156.41,9481.86
1764768074.2927957,7626.42,16.919999999999998,-33553.8,-11666.88,-8890.109999999999,-27667.125,1162.305,9486.18
1764768074.2927957,7624.485,15.57,-33555.915,-11669.49,-8893.305,-27668.97,1160.82,9484.245
1764768074.2927957,7625.25,17.235,-33554.79,-11671.965,-8897.58,-27672.12,1159.65,9483.255
1764768074.2927957,7616.16,5.76,-33565.275,-11680.47,-8905.859999999999,-27680.805,1151.46,9473.985
1764768074.2927957,7615.98,5.715,-33565.32,-11677.905,-8903.52,-27681.21,1151.505,9474.84
1764768074.2927957,7618.59,9.27,-33561.45,-11673.765,-8898.48,-27677.88,1155.24,9479.07
1764768074.2927957,7630.875,21.465,-33549.885,-11662.515,-8886.195,-27664.695,1166.445,9491.355
1764768074.2927957,7627.634999999999,18.495,-33551.19,-11663.46,-8885.115,-27663.93,1165.05,9489.42
1764768074.336256,7620.12,13.365,-33556.32,-11670.48,-8892.945,-27673.65,1155.375,9479.97
1764768074.336256,7633.17,28.845,-33542.1,-11659.815,-8884.395,-27664.02,1165.23,9490.995
1764768074.336256,7642.259999999999,37.395,-33534.045,-11649.645,-8874.045,-27653.22,1176.3,9501.03
1764768074.336256,7633.934999999999,28.755,-33543.09,-11658.555,-8883.18,-27665.055,1168.74,9492.66
1764768074.336256,7640.37,33.66,-33538.32,-11651.13,-8879.039999999999,-27662.58,1174.32,9499.77
1764768074.336256,7638.929999999999,29.835,-33543.045,-11655.36,-8886.42,-27665.28,1173.555,9498.78
1764768074.336256,7632.224999999999,23.985,-33547.275,-11664.54,-8895.51,-27664.785,1170.135,9492.705
1764768074.336256,7624.53,15.03,-33554.565,-11668.14,-8892.945,-27664.785,1163.7,9485.505
1764768074.336256,7615.934999999999,4.5,-33566.85,-11675.88,-8897.13,-27675.63,1155.465,9476.145
1764768074.336256,7613.955,3.15,-33566.355,-11674.98,-8896.994999999999,-27677.16,1154.16,9475.245
1764768074.336256,7621.155,12.645,-33556.68,-11669.13,-8892.765,-27671.13,1159.965,9482.715
1764768074.3367648,7622.82,14.13,-33556.14,-11668.275,-8890.425,-27667.89,1161.945,9485.055
1764768074.3367648,7630.92,22.455,-33548.49,-11660.715,-8882.279999999999,-27660.465,1167.93,9492.795
1764768074.3367648,7619.309999999999,8.73,-33560.64,-11672.91,-8894.789999999999,-27672.795,1157.04,9480.06
1764768074.3367648,7622.28,12.555,-33557.49,-11670.525,-8895.195,-27674.865,1158.885,9482.535
1764768074.3367648,7629.48,21.195,-33549.3,-11663.865,-8891.595,-27673.605,1164.4199999999998,9490.23
1764768074.3367648,7621.38,12.78,-33557.715,-11673.315,-8899.47,-27679.275,1158.03,9481.41
1764768074.3367648,7625.295,17.73,-33552.405,-11666.79,-8891.73,-27669.555,1162.935,9486.585
1764768074.3367648,7629.57,22.635,-33547.32,-11661.12,-8885.475,-27663.03,1167.885,9491.445
1764768074.3367648,7621.38,13.41,-33555.51,-11670.75,-8895.465,-27675.045,1159.29,9481.995
1764768074.3367648,7618.905,10.215,-33559.065,-11675.43,-8901.225,-27681.3,1155.825,9479.655
1764768074.3367648,7619.625,12.51,-33556.095,-11672.415,-8898.3,-27678.645,1156.635,9480.51
1764768074.3832767,7629.884999999999,22.545,-33545.385,-11661.12,-8885.25,-27665.19,1165.905,9490.86
1764768074.3832767,7630.605,23.85,-33544.35,-11660.265,-8883.72,-27661.815,1167.12,9491.535
1764768074.3832767,7633.53,27.18,-33541.785,-11657.565,-8881.289999999999,-27658.125,1170.495,9494.955
1764768074.3832767,7628.264999999999,21.735,-33546.78,-11661.795,-8886.869999999999,-27665.055,1167.48,9490.365
1764768074.3832767,7624.62,18.135,-33550.065,-11666.475,-8892.135,-27671.49,1163.565,9486.675
1764768074.3832767,7627.184999999999,21.51,-33546.33,-11663.415,-8889.795,-27668.25,1166.085,9489.555
1764768074.3832767,7629.434999999999,24.03,-33543.855,-11661.255,-8887.365,-27665.46,1168.83,9492.21
1764768074.3832767,7632.36,26.775,-33541.74,-11659.005,-8885.654999999999,-27664.695,1170.945,9494.82
1764768074.3832767,7643.384999999999,38.205,-33531.255,-11648.79,-8875.89,-27654.39,1181.43,9506.745
1764768074.3832767,7642.394999999999,37.485,-33531.57,-11648.565,-8874.449999999999,-27653.13,1180.1699999999998,9505.89
1764768074.3832767,7639.245,33.075,-33534.675,-11650.455,-8875.17,-27654.795,1175.49,9501.48
1764768074.3832767,7637.085,30.915,-33536.52,-11654.055,-8880.345,-27657.27,1173.285,9499.545
1764768074.3832767,7640.46,36.495,-33531.705,-11652.57,-8880.48,-27655.56,1176.3,9502.155
1764768074.3832767,7632.045,29.025,-33538.905,-11660.76,-8891.145,-27667.755,1166.6699999999998,9492.345
1764768074.3832767,7630.335,24.12,-33544.305,-11660.13,-8887.994999999999,-27665.64,1169.055,9494.28
1764768074.3832767,7634.969999999999,28.665,-33539.58,-11654.37,-8881.695,-27658.845,1175.4,9500.355
1764768074.3832767,7647.57,44.055,-33524.46,-11641.635,-8869.904999999999,-27647.19,1186.425,9512.73
1764768074.3832767,7644.059999999999,42.975,-33525.72,-11644.605,-8872.02,-27649.215,1185.525,9510.255
1764768074.3832767,7651.53,51.66,-33516.315,-11637.09,-8864.414999999999,-27641.97,1191.555,9517.545
1764768074.3832767,7651.71,50.985,-33516.855,-11639.34,-8866.845,-27643.545,1191.195,9516.375
1764768074.3832767,7657.92,57.105,-33510.78,-11632.185,-8858.295,-27636.39,1196.46,9522.27
1764768074.3832767,7648.74,45.18,-33522.255,-11639.97,-8864.369999999999,-27645.48,1188.27,9512.685
1764768074.3832767,7658.325,53.82,-33513.345,-11629.35,-8854.965,-27635.67,1198.71,9524.115
1764768074.3832767,7656.84,52.245,-33517.26,-11632.545,-8859.105,-27640.485,1199.07,9523.26
1764768074.3832767,7661.07,58.5,-33512.13,-11628.63,-8858.744999999999,-27640.755,1200.15,9526.905
1764768074.3832767,7669.08,66.6,-33502.905,-11619.315,-8850.645,-27629.82,1209.555,9536.265
1764768074.430742,7664.804999999999,61.785,-33508.755,-11624.13,-8854.425,-27628.92,1210.905,9533.88
1764768074.43125,7661.924999999999,58.905,-33509.97,-11625.66,-8854.65,-27625.815,1208.88,9531.225
1764768074.43125,7670.474999999999,67.27499999999999,-33500.97,-11618.055,-8845.695,-27617.4,1215.54,9539.235
1764768074.43125,7664.715,61.56,-33506.955,-11625.345,-8852.4,-27626.31,1210.77,9534.105
1764768074.43125,7669.665,66.33,-33503.94,-11619.9,-8845.695,-27622.44,1214.955,9539.145
1764768074.43125,7656.12,52.65,-33516.135,-11632.14,-8859.33,-27635.67,1199.745,9523.755
1764768074.43125,7654.005,53.91,-33514.335,-11634.48,-8864.64,-27637.425,1196.145,9521.685
1764768074.43125,7651.665,51.48,-33515.865,-11636.64,-8865.404999999999,-27637.965,1194.66,9519.21
1764768074.43125,7650.045,45.045,-33523.29,-11636.955,-8860.455,-27634.32,1197.585,9520.02
1764768074.43125,7661.115,57.195,-33511.86,-11623.77,-8845.92,-27621.675,1207.8,9532.44
1764768074.43125,7662.42,60.03,-33508.44,-11620.845,-8844.705,-27620.19,1208.16,9533.745
1764768074.43125,7658.684999999999,55.755,-33512.22,-11626.155,-8851.725,-27627.795,1203.84,9529.56
1764768074.43125,7654.995,52.2,-33516.27,-11630.565,-8856.539999999999,-27633.69,1202.22,9526.86
1764768074.43125,7663.455,63.135,-33506.505,-11621.115,-8849.744999999999,-27627.03,1209.15,9535.23
1764768074.43125,7665.344999999999,64.935,-33505.335,-11620.305,-8848.71,-27625.545,1210.77,9536.085
1764768074.43125,7657.74,55.035,-33515.369999999995,-11629.62,-8857.845,-27632.88,1202.535,9527.04
1764768074.43125,7648.695,45.54,-33523.92,-11638.935,-8866.71,-27640.44,1194.57,9518.535
1764768074.43125,7649.19,47.07,-33521.76,-11636.865,-8863.335,-27639.54,1193.22,9518.58
1764768074.43125,7643.835,42.12,-33526.71,-11641.905,-8868.734999999999,-27646.11,1188.315,9512.91
1764768074.43125,7648.11,48.06,-33521.04,-11636.505,-8863.695,-27640.35,1193.535,9518.94
1764768074.43125,7650.9,50.985,-33517.845,-11633.985,-8861.31,-27638.73,1195.29,9521.055
1764768074.4317544,7649.235,47.52,-33521.085,-11637.18,-8863.92,-27641.745,1192.59,9517.905
1764768074.477826,7637.085,35.1,-33533.145,-11648.745,-8874.81,-27652.32,1182.78,9506.025
1764768074.477826,7630.514999999999,28.125,-33540.075,-11654.865,-8880.164999999999,-27656.955,1176.885,9500.31
1764768074.477826,7641.315,38.655,-33529.725,-11644.47,-8870.76,-27647.865,1186.11,9510.615
1764768074.477826,7643.384999999999,40.95,-33527.07,-11643.075,-8869.949999999999,-27647.505,1187.505,9511.785
1764768074.477826,7637.67,35.37,-33533.685,-11649.69,-8877.105,-27655.515,1183.23,9506.115
1764768074.477826,7637.4,36.36,-33533.505,-11649.24,-8877.555,-27657.18,1184.085,9505.935
1764768074.477826,7640.054999999999,40.77,-33528.6,-11645.64,-8872.515,-27650.835,1186.47,9507.96
1764768074.477826,7643.25,45.495,-33523.83,-11642.67,-8869.32,-27649.08,1188.0449999999998,9511.02
1764768074.477826,7652.429999999999,53.685,-33515.91,-11632.32,-8858.565,-27639.675,1197.99,9521.82
1764768074.477826,7655.715,55.53,-33513.03,-11627.955,-8853.57,-27634.365,1202.76,9526.275
1764768074.477826,7653.465,52.245,-33516.27,-11630.565,-8856.18,-27638.28,1201.275,9524.61
1764768074.477826,7646.49,45.225,-33523.065,-11639.07,-8868.465,-27650.61,1194.57,9516.375
1764768074.4789336,7653.78,53.01,-33515.28,-11632.275,-8865.315,-27644.445,1200.6,9524.07
1764768074.4789336,7641.99,41.985,-33527.79,-11647.125,-8880.93,-27654.795,1187.28,9511.83
1764768074.4789336,7642.575,45.09,-33523.56,-11643.57,-8874.494999999999,-27648.405,1185.66,9512.325
1764768074.4789336,7641.585,42.525,-33525.63,-11643.885,-8873.685,-27649.305,1184.175,9510.345
1764768074.4789336,7631.684999999999,30.96,-33537.69,-11651.49,-8878.815,-27656.01,1177.785,9501.885
1764768074.4789336,7626.915,27.405,-33541.47,-11657.88,-8883.63,-27660.825,1172.97,9497.385
1764768074.4789336,7624.035,23.895,-33545.205,-11662.47,-8887.635,-27662.22,1171.71,9495.9
1764768074.4789336,7625.835,25.74,-33542.145,-11658.69,-8886.645,-27663.885,1172.2949999999998,9497.43
1764768074.4789336,7634.16,35.235,-33532.515,-11650.23,-8879.039999999999,-27658.845,1178.775,9504.81
1764768074.4789336,7635.96,35.055,-33535.17,-11651.355,-8878.815,-27659.16,1181.07,9508.005
1764768074.4789336,7633.53,30.24,-33539.67,-11653.11,-8880.39,-27659.115,1180.53,9506.61
1764768074.4789336,7621.74,18.09,-33551.28,-11664.765,-8893.529999999999,-27670.995,1168.695,9493.155
1764768074.5255651,7625.384999999999,24.03,-33545.744999999995,-11660.94,-8890.515,-27665.82,1169.865,9495.945
1764768074.5255651,7619.715,18.54,-33550.244999999995,-11667.06,-8897.22,-27672.03,1164.285,9489.105
1764768074.5255651,7618.634999999999,18.495,-33551.01,-11669.265,-8900.685,-27675.855,1165.275,9489.105
1764768074.5255651,7615.53,15.84,-33552.945,-11670.75,-8900.64,-27677.7,1162.935,9486.36
1764768074.5255651,7616.88,19.26,-33548.4,-11666.34,-8897.22,-27677.115,1162.935,9487.53
1764768074.5255651,7623.224999999999,25.02,-33542.82,-11660.67,-8892.855,-27672.3,1167.93,9494.37
1764768074.5255651,7622.639999999999,21.69,-33547.68,-11663.91,-8893.17,-27670.185,1170.18,9494.55
1764768074.5255651,7622.82,23.445,-33545.34,-11664.225,-8893.845,-27670.365,1169.415,9493.785
1764768074.5255651,7621.335,21.96,-33545.79,-11662.74,-8891.685,-27670.41,1169.28,9492.84
1764768074.5255651,7613.009999999999,11.475,-33556.95,-11670.255,-8898.48,-27677.34,1162.215,9485.145
1764768074.5255651,7618.139999999999,17.009999999999998,-33550.695,-11665.125,-8894.744999999999,-27672.975,1164.96,9489.87
1764768074.5255651,7614.0,12.915,-33554.565,-11670.12,-8899.605,-27677.79,1161.9,9485.01
1764768074.5255651,7622.235,23.535,-33544.619999999995,-11661.57,-8891.82,-27670.14,1169.91,9494.325
1764768074.5255651,7619.219999999999,20.88,-33546.915,-11664.765,-8895.42,-27673.83,1166.445,9491.715
1764768074.5255651,7609.094999999999,9.945,-33557.805,-11675.925,-8904.914999999999,-27684.45,1158.3,9481.455
1764768074.5255651,7610.309999999999,12.105,-33556.14,-11674.62,-8905.815,-27687.015,1158.525,9483.21
1764768074.5255651,7616.61,19.62,-33548.85,-11666.7,-8898.57,-27680.49,1164.15,9489.285
1764768074.5255651,7629.21,32.715,-33535.305,-11652.165,-8882.955,-27663.21,1175.94,9502.425
1764768074.5255651,7633.844999999999,37.575,-33530.445,-11646.54,-8876.25,-27654.84,1182.285,9508.455
1764768074.5255651,7621.245,23.355,-33544.305,-11658.915,-8886.869999999999,-27664.47,1172.61,9495.27
1764768074.5255651,7621.2,22.86,-33545.205,-11659.77,-8887.859999999999,-27664.92,1172.16,9494.91
1764768074.5255651,7625.205,27.585,-33541.155,-11655.54,-8884.395,-27661.455,1174.41,9498.465
1764768074.5684228,7622.009999999999,24.705,-33543.945,-11659.185,-8889.93,-27667.89,1169.685,9494.46
1764768074.5689378,7612.469999999999,16.919999999999998,-33551.865,-11668.005,-8901.63,-27682.605,1160.055,9484.74
1764768074.5689378,7617.15,21.87,-33545.744999999995,-11663.37,-8897.22,-27679.545,1164.4199999999998,9490.005
1764768074.5689378,7614.09,18.765,-33548.85,-11667.24,-8900.414999999999,-27682.83,1161.63,9487.44
1764768074.5689378,7603.785,4.365,-33563.295,-11676.6,-8907.57,-27688.32,1155.285,9479.025
1764768074.5689378,7609.005,9.45,-33556.815,-11668.725,-8898.255,-27675.765,1161.225,9484.65
1764768074.5689378,7613.099999999999,15.03,-33551.325,-11664.54,-8893.619999999999,-27671.4,1164.645,9488.61
1764768074.5689378,7612.155,14.22,-33552.135,-11666.565,-8897.49,-27675.99,1161.36,9486.225
1764768074.5689378,7614.405,17.91,-33549.84,-11666.115,-8900.414999999999,-27678.825,1162.1699999999998,9488.295
1764768074.5689378,7607.745,12.465,-33554.385,-11673.27,-8910.449999999999,-27689.085,1154.745,9480.195
1764768074.5689378,7607.61,14.265,-33552.18,-11675.385,-8914.05,-27692.73,1152.405,9478.53
1764768074.5689378,7606.71,11.52,-33555.15,-11674.395,-8908.244999999999,-27688.275,1154.7,9479.97
1764768074.5689378,7614.945,18.27,-33548.445,-11663.595,-8896.23,-27677.79,1165.185,9490.86
1764768074.5689378,7616.835,18.135,-33548.715,-11660.085,-8891.865,-27671.67,1169.37,9494.775
1764768074.5689378,7614.315,16.425,-33551.235,-11662.38,-8893.664999999999,-27670.77,1168.695,9494.1
1764768074.5689378,7609.95,13.23,-33554.115,-11667.735,-8901.225,-27677.43,1165.185,9488.88
1764768074.5689378,7621.065,24.57,-33542.595,-11657.25,-8891.414999999999,-27668.025,1175.6699999999998,9499.725
1764768074.5689378,7621.019999999999,25.11,-33542.775,-11658.24,-8892.765,-27669.78,1173.645,9498.96
1764768074.5689378,7614.719999999999,19.53,-33547.185,-11662.245,-8894.699999999999,-27671.49,1167.66,9492.12
1764768074.5689378,7622.37,28.53,-33538.41,-11655.225,-8887.545,-27663.345,1174.5449999999998,9498.87
1764768074.5689378,7627.634999999999,34.515,-33532.83,-11652.03,-8883.404999999999,-27658.98,1179.675,9504.495
1764768074.5689378,7624.665,33.075,-33534.045,-11653.875,-8886.645,-27661.905,1176.48,9502.335
1764768074.5689378,7613.505,20.205,-33546.105,-11663.055,-8893.619999999999,-27669.87,1169.28,9492.885
1764768074.5689378,7610.309999999999,13.95,-33553.53,-11667.33,-8894.295,-27673.065,1167.66,9489.96
1764768074.619393,7611.075,15.435,-33552.225,-11665.35,-8893.845,-27673.38,1166.31,9490.095
1764768074.6199048,7618.995,24.3,-33542.955,-11657.745,-8887.455,-27664.965,1173.33,9498.42
1764768074.6199048,7623.36,29.16,-33538.994999999995,-11654.82,-8885.295,-27662.175,1177.335,9502.155
1764768074.6199048,7615.394999999999,20.52,-33548.04,-11665.305,-8896.32,-27674.64,1166.535,9491.76
1764768074.6199048,7605.36,11.025,-33556.77,-11673.36,-8905.05,-27685.71,1156.5449999999998,9480.555
1764768074.6199048,7611.12,16.695,-33551.55,-11667.15,-8898.75,-27678.24,1163.835,9488.835
1764768074.6199048,7605.45,8.594999999999999,-33560.235,-11671.83,-8902.619999999999,-27681.93,1162.26,9485.37
1764768074.6199048,7603.514999999999,8.235,-33560.505,-11672.865,-8905.904999999999,-27685.89,1160.325,9483.435
1764768074.6199048,7610.894999999999,18.27,-33550.47,-11664.27,-8897.625,-27675.99,1166.445,9491.67
1764768074.6199048,7610.445,19.395,-33549.119999999995,-11664.99,-8898.66,-27676.17,1166.175,9491.22
1764768074.6199048,7618.769999999999,27.63,-33540.48,-11656.395,-8889.885,-27666.405,1175.4,9500.895
1764768074.6199048,7623.224999999999,32.129999999999995,-33536.565,-11650.455,-8884.08,-27660.465,1180.935,9505.62
1764768074.6199048,7627.86,36.045,-33531.93,-11646.63,-8878.904999999999,-27655.965,1185.12,9509.895
1764768074.6199048,7619.759999999999,26.91,-33542.19,-11657.295,-8887.455,-27663.255,1177.065,9501.255
1764768074.6199048,7609.724999999999,17.55,-33550.695,-11665.575,-8896.949999999999,-27672.255,1167.7949999999998,9490.14
1764768074.6199048,7608.509999999999,15.705,-33552.99,-11666.88,-8896.095,-27673.065,1166.805,9489.15
1764768074.6199048,7620.434999999999,29.475,-33539.715,-11654.37,-8884.89,-27661.905,1176.21,9500.4
1764768074.6199048,7624.575,36.45,-33531.615,-11649.195,-8880.75,-27658.485,1181.16,9505.575
1764768074.6199048,7623.585,32.895,-33535.619999999995,-11650.815,-8879.355,-27658.35,1183.14,9506.835
1764768074.6199048,7612.469999999999,19.845,-33549.795,-11662.875,-8891.055,-27670.365,1174.365,9496.485
1764768074.6199048,7610.759999999999,19.98,-33549.66,-11665.62,-8897.67,-27674.685,1170.0449999999998,9493.56
1764768074.6199048,7612.785,22.995,-33546.015,-11663.505,-8898.66,-27675.045,1169.82,9494.595
1764768074.6199048,7617.825,26.775,-33542.145,-11658.15,-8894.34,-27667.17,1174.05,9499.68
1764768074.6199048,7603.83,12.105,-33556.005,-11671.74,-8905.949999999999,-27677.16,1160.865,9485.55
1764768074.6676476,7608.42,18.18,-33550.56,-11666.835,-8899.38,-27674.055,1162.575,9490.41
1764768074.6676476,7607.429999999999,15.93,-33552.0,-11668.86,-8901.585,-27678.195,1160.865,9488.205
1764768074.6676476,7603.11,11.205,-33557.535,-11672.235,-8901.99,-27679.095,1159.65,9484.875
1764768074.6676476,7594.29,3.645,-33565.365,-11680.11,-8908.92,-27686.97,1152.99,9477.45
1764768074.6676476,7595.19,4.859999999999999,-33564.285,-11678.895,-8906.13,-27682.155,1154.43,9479.295
1764768074.6676476,7602.795,12.51,-33557.085,-11672.415,-8900.64,-27677.295,1161.135,9487.215
1764768074.6676476,7596.495,6.255,-33563.16,-11680.695,-8912.07,-27689.895,1155.6,9480.645
1764768074.6676476,7595.19,5.58,-33563.34,-11682.18,-8915.535,-27694.305,1153.89,9479.25
1764768074.6676476,7608.15,19.44,-33550.155,-11669.445,-8903.115,-27680.715,1164.06,9491.67
1764768074.6676476,7605.809999999999,17.91,-33549.84,-11670.345,-8903.16,-27678.915,1162.845,9489.375
1764768074.6676476,7601.759999999999,10.17,-33556.59,-11672.73,-8902.484999999999,-27678.42,1162.08,9486.63
1764768074.6676476,7593.21,0.99,-33567.165,-11683.44,-8913.555,-27691.29,1153.71,9478.08
1764768074.6676476,7600.724999999999,12.735,-33555.735,-11677.32,-8908.425,-27684.72,1158.525,9484.74
1764768074.6676476,7599.825,12.69,-33555.24,-11676.735,-8907.615,-27685.575,1157.625,9484.56
1764768074.6676476,7598.16,10.08,-33557.805,-11676.915,-8907.84,-27688.59,1156.905,9483.615
1764768074.6676476,7591.679999999999,2.25,-33565.365,-11682.675,-8913.15,-27693.18,1152.0449999999998,9477.18
1764768074.6676476,7579.844999999999,-10.98,-33577.875,-11694.69,-8925.57,-27702.63,1142.865,9466.2
1764768074.6676476,7587.179999999999,-3.33,-33571.035,-11689.56,-8920.215,-27696.69,1147.185,9472.725
1764768074.6676476,7587.0,-3.78,-33570.99,-11687.355,-8917.695,-27697.05,1145.205,9470.925
1764768074.6676476,7571.835,-19.44,-33587.055,-11703.42,-8932.545,-27713.16,1131.66,9454.905
1764768074.6676476,7567.155,-24.615,-33592.14,-11708.235,-8937.539999999999,-27719.415,1125.945,9449.55
1764768074.6676476,7566.57,-25.02,-33593.265,-11708.91,-8938.574999999999,-27720.315,1125.675,9449.145
1764768074.6676476,7570.934999999999,-19.98,-33588.494999999995,-11702.97,-8931.645,-27712.17,1133.055,9455.67
1764768074.6676476,7562.969999999999,-28.44,-33596.145,-11710.665,-8939.025,-27718.515,1126.485,9448.02
1764768074.711023,7571.7,-17.595,-33585.39,-11701.575,-8932.23,-27712.44,1133.145,9456.66
1764768074.7135365,7574.535,-13.275,-33581.34,-11699.28,-8931.645,-27711.585,1136.07,9460.395
1764768074.7135365,7575.66,-13.32,-33581.97,-11700.495,-8931.06,-27709.875,1137.555,9461.295
1764768074.7135365,7574.67,-13.815,-33580.8,-11699.55,-8930.295,-27712.08,1136.16,9459.495
1764768074.7135365,7583.49,-4.905,-33572.07,-11691.225,-8921.97,-27702.99,1144.485,9468.405
1764768074.7135365,7579.17,-7.694999999999999,-33576.165,-11697.255,-8929.17,-27708.795,1140.39,9464.355
1764768074.7145436,7582.545,-1.53,-33568.244999999995,-11693.61,-8927.865,-27705.87,1142.775,9467.145
1764768074.7145436,7580.969999999999,-6.3,-33572.115,-11695.14,-8926.965,-27705.285,1141.785,9466.02
1764768074.7145436,7580.924999999999,-9.45,-33575.49,-11693.565,-8921.925,-27702.27,1143.855,9467.73
1764768074.7145436,7588.259999999999,-1.125,-33567.03,-11684.565,-8912.205,-27693.27,1150.335,9475.83
1764768074.7145436,7588.259999999999,1.485,-33564.15,-11684.025,-8913.645,-27694.98,1149.3,9475.785
1764768074.7145436,7588.98,2.025,-33563.88,-11684.88,-8914.365,-27695.61,1149.7949999999998,9475.92
1764768074.7145436,7583.804999999999,-3.78,-33569.19,-11692.26,-8920.845,-27701.28,1144.935,9470.025
1764768074.7145436,7590.059999999999,4.905,-33560.28,-11686.59,-8916.615,-27696.015,1150.155,9476.46
1764768074.7145436,7595.415,10.53,-33555.33,-11683.08,-8914.904999999999,-27696.24,1154.025,9482.355
1764768074.7145436,7587.179999999999,-1.305,-33566.265,-11686.815,-8914.545,-27697.455,1150.38,9476.415
1764768074.7145436,7578.809999999999,-7.694999999999999,-33572.25,-11692.62,-8919.945,-27704.79,1142.73,9467.415
1764768074.7145436,7578.99,-4.365,-33569.82,-11692.71,-8924.039999999999,-27707.49,1141.965,9466.92
1764768074.761501,7582.32,-1.98,-33566.85,-11690.28,-8922.645,-27701.595,1144.305,9470.565
1764768074.761501,7585.83,0.09,-33563.115,-11686.23,-8915.445,-27690.075,1151.37,9476.64
1764768074.761501,7583.535,-1.53,-33565.32,-11689.605,-8917.109999999999,-27694.71,1151.595,9475.38
1764768074.761501,7593.434999999999,9.945,-33554.025,-11680.335,-8910.539999999999,-27689.805,1159.02,9484.92
1764768074.761501,7597.44,14.04,-33549.435,-11675.97,-8906.895,-27685.17,1162.125,9488.745
1764768074.761501,7597.035,13.32,-33550.065,-11674.89,-8905.455,-27684.99,1161.9,9488.43
1764768074.761501,7593.66,9.27,-33554.79,-11679.345,-8908.875,-27689.22,1157.445,9484.515
1764768074.761501,7584.21,-0.855,-33564.465,-11689.38,-8918.595,-27698.445,1147.77,9474.435
1764768074.761501,7573.275,-13.05,-33576.345,-11700.9,-8930.744999999999,-27709.155,1138.635,9463.32
1764768074.761501,7571.61,-14.625,-33578.235,-11702.52,-8933.94,-27713.655,1136.7,9461.16
1764768074.761501,7583.804999999999,-1.215,-33565.77,-11689.245,-8919.675,-27700.965,1147.41,9474.345
1764768074.761501,7585.335,1.26,-33562.935,-11687.22,-8916.345,-27697.995,1150.155,9477.45
1764768074.761501,7580.115,-2.835,-33567.03,-11691.855,-8920.89,-27701.955,1147.185,9472.86
1764768074.76251,7584.03,1.035,-33563.52,-11688.525,-8917.335,-27698.85,1149.255,9476.595
1764768074.76251,7582.094999999999,-1.125,-33564.69,-11689.965,-8918.145,-27702.135,1146.51,9474.21
1764768074.76251,7573.905,-10.62,-33573.915,-11699.82,-8928.539999999999,-27711.0,1140.705,9465.66
1764768074.76251,7579.799999999999,-4.725,-33568.965,-11694.645,-8923.77,-27704.61,1146.51,9470.88
1764768074.76251,7579.304999999999,-4.23,-33569.46,-11696.805,-8927.91,-27706.77,1144.305,9469.71
1764768074.76251,7580.429999999999,0.495,-33564.42,-11697.165,-8931.015,-27706.815,1142.685,9470.205
1764768074.76251,7580.745,2.07,-33561.765,-11692.665,-8924.67,-27700.38,1146.195,9472.725
1764768074.76251,7576.74,-7.02,-33573.195,-11696.175,-8924.31,-27702.675,1146.735,9471.285
1764768074.76251,7580.025,-3.645,-33570.945,-11694.87,-8923.365,-27703.035,1149.93,9475.56
1764768074.76251,7584.884999999999,4.815,-33561.27,-11688.39,-8917.065,-27698.22,1154.205,9480.06
1764768074.76251,7594.514999999999,17.235,-33547.32,-11674.98,-8905.545,-27688.32,1162.53,9489.6
1764768074.76251,7599.825,21.105,-33543.27,-11669.4,-8900.91,-27682.965,1167.7949999999998,9495.495
1764768074.76251,7602.165,24.21,-33540.3,-11665.755,-8896.949999999999,-27677.07,1170.81,9497.835
1764768074.7635038,7602.66,21.735,-33544.215,-11666.115,-8892.404999999999,-27671.31,1173.51,9499.185
1764768074.7635038,7586.46,3.51,-33562.17,-11679.885,-8904.645,-27686.115,1158.435,9482.265
1764768074.8066225,7583.535,0.855,-33564.105,-11683.8,-8910.404999999999,-27691.74,1153.98,9478.17
1764768074.8066225,7584.21,4.185,-33560.73,-11684.295,-8913.06,-27693.54,1152.81,9478.71
1764768074.8066225,7590.644999999999,12.42,-33553.98,-11679.3,-8910.63,-27691.29,1157.445,9485.685
1764768074.8066225,7588.71,8.685,-33559.38,-11682.54,-8913.33,-27695.295,1157.625,9485.775
1764768074.8066225,7578.54,-1.125,-33568.244999999995,-11689.605,-8920.845,-27701.955,1148.76,9475.425
1764768074.8066225,7575.12,-3.42,-33569.685,-11692.53,-8925.029999999999,-27706.095,1143.72,9470.25
1764768074.8066225,7577.684999999999,-0.945,-33567.48,-11690.73,-8922.869999999999,-27703.98,1145.34,9472.185
1764768074.8066225,7585.335,6.75,-33559.875,-11682.765,-8913.869999999999,-27695.925,1154.115,9481.23
1764768074.8066225,7582.005,1.26,-33565.5,-11688.255,-8918.279999999999,-27700.38,1150.155,9477.135
1764768074.8066225,7570.485,-9.63,-33576.03,-11698.65,-8927.73,-27708.39,1136.97,9464.4
1764768074.8066225,7562.295,-16.65,-33582.645,-11705.4,-8935.74,-27716.58,1128.195,9454.68
1764768074.8066225,7568.144999999999,-10.845,-33576.21,-11698.92,-8928.18,-27709.065,1135.035,9462.285
1764768074.8066225,7572.78,-6.93,-33573.96,-11696.445,-8923.77,-27705.375,1140.705,9468.045
1764768074.8066225,7563.644999999999,-16.38,-33583.365,-11706.93,-8935.92,-27718.38,1132.425,9458.46
1764768074.8066225,7561.71,-17.46,-33583.725,-11706.885,-8938.71,-27720.63,1131.705,9458.1
1764768074.8066225,7571.25,-7.785,-33574.23,-11696.58,-8928.135,-27711.765,1140.7949999999998,9469.035
1764768074.8066225,7574.985,-3.285,-33570.225,-11691.855,-8923.68,-27707.985,1143.0449999999998,9472.365
1764768074.807125,7569.99,-8.325,-33574.59,-11696.805,-8927.73,-27711.18,1138.635,9466.965
1764768074.807125,7577.91,-0.4049999999999999,-33566.895,-11689.74,-8918.505,-27699.84,1147.77,9475.56
1764768074.807125,7572.644999999999,-5.22,-33572.925,-11696.76,-8926.47,-27708.66,1141.56,9469.215
1764768074.807125,7577.37,-2.025,-33568.605,-11691.27,-8923.185,-27704.115,1145.34,9474.21
1764768074.807125,7568.099999999999,-12.195,-33578.055,-11698.2,-8930.475,-27708.84,1138.23,9465.345
1764768074.807125,7572.059999999999,-7.154999999999999,-33573.195,-11694.915,-8927.64,-27703.62,1141.605,9469.845
1764768074.807125,7562.429999999999,-16.875,-33583.32,-11705.04,-8935.199999999999,-27713.205,1132.335,9459.54
1764768074.8573997,7560.809999999999,-17.325,-33584.445,-11705.265,-8935.289999999999,-27716.94,1130.985,9458.37
1764768074.8573997,7566.21,-10.665,-33578.415,-11699.46,-8930.205,-27714.51,1133.82,9463.05
1764768074.8573997,7565.355,-11.565,-33579.54,-11703.465,-8935.289999999999,-27717.795,1131.525,9462.195
1764768074.8573997,7566.434999999999,-9.315,-33577.11,-11701.71,-8933.4,-27713.79,1134.135,9463.59
1764768074.8573997,7568.91,-8.1,-33575.625,-11697.75,-8927.73,-27707.805,1138.5,9466.425
1764768074.8573997,7565.309999999999,-13.59,-33581.52,-11699.595,-8929.125,-27708.165,1136.205,9463.68
1764768074.8573997,7558.38,-21.78,-33588.765,-11706.345,-8935.244999999999,-27714.015,1131.345,9456.975
1764768074.8573997,7565.174999999999,-13.275,-33580.619999999995,-11700.855,-8931.285,-27712.08,1135.89,9464.445
1764768074.8573997,7561.98,-14.94,-33581.835,-11703.24,-8933.445,-27716.31,1135.035,9462.06
1764768074.8573997,7562.384999999999,-12.87,-33578.325,-11699.505,-8930.16,-27713.52,1135.935,9461.745
1764768074.8573997,7571.519999999999,-3.465,-33568.965,-11690.595,-8923.005,-27704.79,1144.62,9471.735
1764768074.8573997,7562.835,-13.275,-33580.08,-11701.215,-8932.32,-27712.62,1138.86,9463.815
1764768074.8573997,7559.37,-16.74,-33583.23,-11702.79,-8935.38,-27715.32,1134.18,9459.36
1764768074.8573997,7562.025,-13.995,-33580.17,-11699.145,-8932.32,-27711.63,1135.845,9462.06
1764768074.8573997,7572.69,-2.115,-33568.83,-11688.93,-8920.574999999999,-27700.02,1145.745,9473.175
1764768074.8573997,7567.335,-7.83,-33574.5,-11694.645,-8925.795,-27706.59,1140.3,9467.28
1764768074.8573997,7560.54,-14.58,-33581.744999999995,-11701.98,-8934.164999999999,-27717.345,1134.0449999999998,9460.575
1764768074.8573997,7564.5,-7.965,-33575.535,-11698.29,-8931.914999999999,-27715.14,1135.8,9463.995
1764768074.8573997,7558.785,-13.86,-33580.485,-11702.88,-8935.199999999999,-27716.85,1132.56,9458.775
1764768074.8573997,7560.495,-12.645,-33579.225,-11699.1,-8929.395,-27710.415,1138.5,9463.185
1764768074.8573997,7564.32,-5.895,-33572.744999999995,-11695.59,-8927.91,-27707.94,1142.46,9466.83
1764768074.8573997,7565.894999999999,-4.005,-33571.44,-11694.69,-8927.865,-27709.335,1144.26,9469.125
1764768074.8573997,7573.905,4.77,-33562.44,-11685.42,-8920.44,-27703.305,1149.57,9476.19
1764768074.8573997,7574.355,6.12,-33560.19,-11683.485,-8918.414999999999,-27699.705,1151.28,9476.145
1764768074.9006803,7584.12,14.13,-33552.405,-11671.335,-8902.89,-27684.81,1162.035,9486.585
1764768074.9006803,7573.86,1.035,-33565.455,-11680.38,-8909.145,-27690.705,1155.78,9477.945
1764768074.9006803,7570.934999999999,-1.845,-33569.19,-11684.295,-8913.33,-27694.08,1152.45,9475.29
1764768074.9006803,7570.349999999999,-0.99,-33569.369999999995,-11685.51,-8918.595,-27700.065,1149.57,9474.21
1764768074.9006803,7577.865,7.425,-33560.369999999995,-11678.895,-8914.41,-27696.195,1155.06,9481.185
1764768074.9006803,7574.625,4.095,-33562.53,-11681.73,-8914.904999999999,-27694.53,1152.585,9477.81
1764768074.9006803,7564.545,-6.614999999999999,-33573.825,-11690.19,-8920.98,-27701.19,1144.1699999999998,9468.495
1764768074.9006803,7572.96,3.15,-33563.744999999995,-11679.57,-8911.619999999999,-27696.465,1150.65,9476.955
1764768074.9006803,7568.235,-1.89,-33567.975,-11686.77,-8919.27,-27704.205,1146.51,9472.995
1764768074.9006803,7562.745,-9.765,-33575.58,-11694.51,-8925.074999999999,-27707.445,1141.47,9466.83
1764768074.9006803,7569.674999999999,-1.755,-33567.165,-11686.23,-8915.67,-27697.545,1147.23,9474.12
1764768074.9006803,7571.519999999999,2.79,-33563.115,-11686.14,-8917.02,-27698.895,1147.41,9476.37
1764768074.9006803,7572.33,4.095,-33562.8,-11687.58,-8919.675,-27701.415,1147.32,9476.37
1764768074.9006803,7567.695,-3.42,-33571.71,-11693.07,-8925.795,-27708.39,1143.63,9472.095
1764768074.9006803,7562.16,-10.305,-33577.695,-11694.015,-8925.615,-27709.065,1140.66,9468.27
1764768074.9006803,7554.33,-16.785,-33582.285,-11698.65,-8929.574999999999,-27713.16,1136.25,9461.16
1764768074.9006803,7560.179999999999,-9.045,-33574.815,-11694.33,-8928.18,-27708.93,1140.345,9466.965
1764768074.9006803,7556.849999999999,-10.08,-33575.625,-11698.785,-8933.805,-27711.99,1136.835,9463.32
1764768074.9006803,7549.83,-18.45,-33583.365,-11704.725,-8935.109999999999,-27713.43,1132.785,9456.84
1764768074.9006803,7559.37,-11.205,-33576.57,-11694.69,-8924.31,-27703.62,1141.695,9467.145
1764768074.9006803,7563.285,-6.39,-33571.98,-11691.495,-8924.265,-27703.845,1145.205,9470.88
1764768074.9006803,7552.799999999999,-15.885,-33580.89,-11701.62,-8934.84,-27715.77,1134.72,9459.9
1764768074.9006803,7560.719999999999,-7.065,-33573.015,-11693.835,-8927.19,-27708.75,1141.02,9467.595
1764768074.9006803,7559.549999999999,-8.73,-33575.265,-11695.59,-8928.539999999999,-27709.605,1141.335,9467.415
1764768074.947781,7550.37,-17.145,-33583.23,-11703.195,-8935.83,-27718.02,1134.27,9458.91
1764768074.947781,7551.9,-14.04,-33580.26,-11701.62,-8936.055,-27718.02,1135.1699999999998,9459.855
1764768074.947781,7559.054999999999,-6.12,-33572.295,-11693.475,-8928.585,-27710.595,1141.65,9467.775
1764768074.947781,7554.825,-11.52,-33578.64,-11698.605,-8932.365,-27713.43,1139.31,9463.905
1764768074.947781,7554.195,-11.88,-33577.74,-11698.29,-8931.734999999999,-27713.97,1139.355,9462.87
1764768074.947781,7561.349999999999,-2.88,-33568.695,-11690.055,-8923.904999999999,-27706.455,1146.645,9470.16
1764768074.947781,7574.759999999999,10.935,-33556.095,-11678.58,-8912.565,-27695.07,1157.715,9483.885
1764768074.947781,7568.775,5.085,-33562.395,-11684.97,-8919.315,-27701.865,1150.83,9477.63
1764768074.947781,7560.945,-4.32,-33570.9,-11691.315,-8924.535,-27707.4,1145.16,9470.61
1764768074.947781,7568.73,3.735,-33561.72,-11680.965,-8913.645,-27695.565,1153.665,9479.745
1764768074.947781,7572.87,9.54,-33556.185,-11677.185,-8910.765,-27691.245,1156.365,9484.02
1764768074.947781,7564.23,0.63,-33565.14,-11686.725,-8918.505,-27697.995,1148.985,9475.515
1764768074.947781,7568.37,6.12,-33559.83,-11682.135,-8914.32,-27695.115,1152.225,9479.205
1764768074.948638,7561.17,-2.745,-33568.875,-11691.135,-8922.51,-27704.295,1146.015,9470.835
1764768074.948638,7558.469999999999,-6.21,-33572.205,-11693.43,-8923.994999999999,-27707.625,1144.98,9470.115
1764768074.948638,7557.929999999999,-5.805,-33572.115,-11694.78,-8928.045,-27711.54,1143.0449999999998,9469.71
1764768074.948638,7560.134999999999,-3.33,-33568.47,-11691.63,-8925.57,-27709.47,1143.72,9471.195
1764768074.948638,7552.844999999999,-10.665,-33575.49,-11698.02,-8932.815,-27714.78,1136.2949999999998,9463.095
1764768074.948638,7541.37,-23.175,-33588.675,-11710.62,-8943.93,-27723.105,1125.63,9451.17
1764768074.948638,7539.57,-24.885,-33590.34,-11711.745,-8943.57,-27723.42,1122.75,9449.01
1764768074.948638,7546.769999999999,-15.03,-33581.43,-11703.78,-8937.81,-27720.315,1128.015,9456.795
1764768074.948638,7546.634999999999,-15.39,-33582.735,-11707.245,-8942.805,-27726.525,1127.655,9456.975
1764768074.998382,7536.78,-24.84,-33592.095,-11717.505,-8952.164999999999,-27733.5,1120.59,9447.66
1764768074.998382,7536.285,-24.975,-33590.88,-11716.875,-8950.68,-27731.79,1120.995,9448.335
1764768074.998382,7547.174999999999,-14.175,-33581.655,-11705.49,-8939.07,-27720.765,1130.49,9460.26
1764768074.998382,7546.769999999999,-14.94,-33582.51,-11704.455,-8938.98,-27720.72,1130.31,9459.765
1764768074.998382,7554.059999999999,-5.715,-33570.855,-11691.675,-8925.48,-27709.065,1137.105,9465.93
1764768074.998382,7546.455,-16.064999999999998,-33581.565,-11700.135,-8930.565,-27714.69,1132.56,9459.225
1764768074.998382,7554.285,-9.99,-33576.84,-11695.635,-8925.435,-27709.38,1142.28,9469.665
1764768074.998382,7548.66,-15.57,-33583.095,-11701.17,-8933.58,-27717.795,1137.645,9464.445
1764768074.998382,7546.32,-17.595,-33584.355,-11703.51,-8935.92,-27717.615,1134.81,9461.7
1764768074.998382,7548.12,-13.455,-33579.81,-11700.18,-8933.355,-27713.655,1134.945,9463.635
1764768074.998382,7557.389999999999,-1.62,-33566.67,-11689.2,-8922.285,-27702.765,1142.28,9472.86
1764768074.998382,7552.575,-8.775,-33574.14,-11695.545,-8927.64,-27707.49,1140.615,9468.855
1764768074.998382,7554.599999999999,-8.1,-33575.13,-11696.4,-8927.505,-27707.4,1141.605,9469.575
1764768074.998382,7545.644999999999,-17.415,-33584.265,-11704.41,-8937.18,-27719.415,1132.155,9459.135
1764768074.998382,7547.174999999999,-16.47,-33582.555,-11701.89,-8933.625,-27717.03,1132.245,9460.935
1764768074.998382,7531.469999999999,-32.85,-33598.26,-11718.945,-8951.13,-27735.12,1116.63,9443.97
1764768074.998382,7531.92,-30.285,-33596.415,-11722.365,-8955.72,-27735.795,1116.18,9444.33
1764768074.998382,7541.505,-18.945,-33584.49,-11713.005,-8946.72,-27724.59,1123.38,9453.78
1764768074.998382,7540.83,-21.87,-33586.244999999995,-11708.145,-8940.015,-27720.495,1125.36,9455.22
1764768074.998382,7537.995,-27.585,-33591.825,-11707.29,-8938.8,-27720.945,1125.495,9454.23
1764768074.998382,7537.41,-26.685,-33591.24,-11708.82,-8942.715,-27723.96,1125.315,9454.455
