Timestamp,Channel1,Channel2,Channel3,Channel4,Channel5,Channel6,Channel7,Channel8
1764766980.7219677,10040.445,-6461.145,-40889.16,-20686.32,-15697.89,-32754.42,-3446.28,5677.02
1764766980.7219677,10040.355,-6458.895,-40887.09,-20684.52,-15696.36,-32753.205,-3446.505,5676.929999999999
1764766980.7219677,10049.085,-6449.04,-40878.585,-20676.24,-15687.315,-32743.98,-3438.315,5687.55
1764766980.7219677,10049.085,-6449.67,-40878.495,-20675.07,-15685.38,-32741.505,-3437.055,5689.304999999999
1764766980.7219677,10046.16,-6452.639999999999,-40879.98,-20677.995,-15688.755,-32744.7,-3439.62,5685.84
1764766980.7219677,10034.595,-6466.905,-40895.595,-20694.78,-15704.235,-32758.38,-3450.69,5673.285
1764766980.7219677,10037.115,-6464.205,-40893.03,-20689.83,-15698.655,-32752.845,-3448.395,5676.255
1764766980.7219677,10027.485,-6472.08,-40897.935,-20694.15,-15705.54,-32763.51,-3458.295,5664.195
1764766980.7219677,10029.51,-6468.255,-40894.2,-20691.045,-15703.47,-32761.395,-3455.325,5667.344999999999
1764766980.7219677,10048.545,-6448.545,-40875.435,-20672.595,-15683.85,-32740.38,-3434.805,5688.045
1764766980.7219677,10040.4,-6456.69,-40883.67,-20680.695,-15691.545,-32747.895,-3440.61,5680.53
1764766980.7219677,10043.055,-6454.395,-40881.915,-20678.58,-15689.745,-32746.905,-3438.27,5683.365
1764766980.7219677,10050.615,-6446.115,-40873.77,-20670.525,-15681.87,-32740.2,-3431.52,5692.005
1764766980.7219677,10042.38,-6454.395,-40881.645,-20677.14,-15688.305,-32746.545,-3438.18,5683.995
1764766980.7219677,10037.7,-6459.66,-40887.63,-20683.17,-15694.29,-32751.81,-3443.715,5677.425
1764766980.7219677,10035.36,-6463.53,-40891.14,-20686.275,-15698.07,-32754.87,-3446.505,5674.41
1764766980.7219677,10040.85,-6457.32,-40886.28,-20682.0,-15694.245,-32751.045,-3441.78,5680.53
1764766980.7219677,10054.035,-6442.29,-40870.755,-20666.88,-15678.72,-32735.79,-3430.755,5693.58
1764766980.7219677,10056.6,-6439.365,-40867.785,-20663.19,-15675.975,-32732.685,-3429.09,5695.74
1764766980.7219677,10058.31,-6438.87,-40866.795,-20661.615,-15673.14,-32728.95,-3424.59,5698.395
1764766980.7219677,10057.5,-6440.715,-40869.495,-20665.125,-15676.56,-32731.695,-3423.87,5698.844999999999
1764766980.7708523,10051.515,-6445.8,-40874.22,-20669.445,-15680.7,-32736.915,-3428.19,5692.094999999999
1764766980.7708523,10050.66,-6443.55,-40871.205,-20666.385,-15676.83,-32734.395,-3426.795,5692.77
1764766980.7708523,10053.81,-6440.219999999999,-40868.28,-20663.28,-15675.435,-32731.425,-3425.13,5695.695
1764766980.7708523,10063.89,-6429.42,-40857.165,-20651.715,-15664.05,-32719.905,-3416.355,5706.045
1764766980.7708523,10057.005,-6435.045,-40863.24,-20658.96,-15671.565,-32727.105,-3421.53,5699.474999999999
1764766980.7708523,10059.66,-6433.514999999999,-40862.52,-20658.015,-15669.54,-32724.855,-3417.885,5701.32
1764766980.7708523,10070.145,-6425.099999999999,-40853.7,-20646.675,-15657.12,-32711.805,-3406.995,5712.66
1764766980.7708523,10084.5,-6406.065,-40834.08,-20628.27,-15641.505,-32696.505,-3395.205,5727.285
1764766980.7708523,10092.96,-6395.715,-40825.305,-20620.17,-15633.945,-32688.63,-3386.115,5736.195
1764766980.7708523,10076.175,-6416.82,-40846.14,-20640.78,-15651.54,-32706.585,-3400.965,5720.13
1764766980.7708523,10067.58,-6428.16,-40854.555,-20648.205,-15658.29,-32713.695,-3409.38,5712.255
1764766980.7708523,10071.63,-6422.219999999999,-40847.175,-20641.275,-15652.53,-32708.52,-3407.31,5716.08
1764766980.7708523,10064.07,-6428.34,-40854.42,-20647.44,-15658.47,-32714.55,-3412.035,5709.285
1764766980.7708523,10068.84,-6424.514999999999,-40851.315,-20644.74,-15656.04,-32711.22,-3407.355,5713.514999999999
1764766980.7708523,10060.11,-6434.46,-40862.745,-20657.115,-15667.65,-32722.515,-3416.67,5703.435
1764766980.7708523,10053.99,-6441.48,-40868.73,-20664.63,-15674.85,-32729.4,-3424.14,5696.865
1764766980.7708523,10049.76,-6447.24,-40874.04,-20669.22,-15679.89,-32733.72,-3429.99,5691.195
1764766980.7708523,10048.23,-6449.759999999999,-40876.155,-20671.2,-15682.005,-32735.925,-3432.15,5689.44
1764766980.7708523,10052.055,-6445.53,-40871.565,-20666.79,-15677.82,-32732.37,-3430.845,5692.724999999999
1764766980.7708523,10046.115,-6450.3,-40876.83,-20671.74,-15682.23,-32737.23,-3435.795,5687.054999999999
1764766980.7708523,10040.265,-6455.88,-40883.67,-20678.355,-15689.16,-32744.025,-3440.025,5681.205
1764766980.7708523,10037.025,-6458.715,-40885.245,-20680.65,-15691.5,-32747.04,-3443.085,5678.55
1764766980.8170998,10038.78,-6456.735,-40883.445,-20679.075,-15689.07,-32744.655,-3441.24,5681.655
1764766980.8170998,10045.35,-6449.219999999999,-40877.145,-20672.28,-15680.97,-32736.825,-3434.355,5688.945
1764766980.8170998,10038.735,-6456.645,-40885.02,-20679.885,-15689.43,-32744.655,-3440.88,5680.98
1764766980.8170998,10041.03,-6452.37,-40880.88,-20676.735,-15686.01,-32741.64,-3438.585,5683.77
1764766980.8170998,10053.81,-6442.29,-40870.305,-20663.46,-15669.045,-32723.685,-3424.815,5698.26
1764766980.8170998,10063.62,-6432.075,-40856.625,-20649.825,-15657.795,-32712.57,-3415.185,5707.71
1764766980.8170998,10069.47,-6421.5,-40847.355,-20644.245,-15655.32,-32710.77,-3410.82,5712.12
1764766980.8170998,10065.195,-6426.81,-40854.285,-20650.365,-15660.09,-32715.54,-3415.095,5708.88
1764766980.8170998,10066.185,-6424.74,-40852.53,-20648.07,-15657.255,-32712.03,-3413.52,5710.32
1764766980.8170998,10068.345,-6422.219999999999,-40849.065,-20644.02,-15652.035,-32707.665,-3410.73,5711.849999999999
1764766980.8170998,10071.63,-6419.295,-40845.375,-20640.285,-15648.57,-32703.705,-3405.51,5716.08
1764766980.8170998,10073.16,-6416.82,-40842.54,-20637.945,-15645.96,-32700.33,-3402.0,5718.105
1764766980.8170998,10072.26,-6418.755,-40844.16,-20639.565,-15647.445,-32702.58,-3403.98,5716.53
1764766980.8170998,10065.465,-6426.81,-40852.35,-20647.665,-15655.41,-32710.365,-3410.19,5709.42
1764766980.8170998,10072.485,-6420.285,-40844.925,-20640.105,-15648.03,-32703.075,-3404.835,5716.485
1764766980.8170998,10076.31,-6416.19,-40840.515,-20635.785,-15643.71,-32699.07,-3401.82,5719.094999999999
1764766980.8170998,10077.075,-6414.57,-40839.03,-20633.625,-15641.82,-32696.865,-3399.345,5720.264999999999
1764766980.8170998,10066.14,-6426.045,-40850.28,-20645.235,-15653.565,-32708.745,-3408.615,5709.285
1764766980.8170998,10063.575,-6427.53,-40852.215,-20647.395,-15655.68,-32710.995,-3410.415,5707.485
1764766980.8170998,10065.735,-6423.435,-40848.615,-20643.795,-15651.99,-32707.395,-3407.04,5710.679999999999
1764766980.8170998,10069.83,-6418.53,-40844.7,-20639.655,-15648.12,-32702.805,-3403.305,5715.495
1764766980.8170998,10081.35,-6406.38,-40832.37,-20627.82,-15636.6,-32690.34,-3393.09,5727.554999999999
1764766980.8170998,10074.24,-6415.245,-40840.695,-20636.01,-15644.745,-32698.125,-3399.66,5719.139999999999
1764766980.8170998,10075.635,-6415.11,-40841.235,-20634.795,-15643.305,-32696.91,-3399.615,5720.085
1764766980.8181074,10082.52,-6407.19,-40831.155,-20625.435,-15635.07,-32689.845,-3394.485,5726.655
1764766980.8181074,10078.92,-6411.645,-40836.06,-20630.655,-15639.3,-32692.59,-3395.34,5723.145
1764766980.8602664,10090.485,-6399.495,-40824.315,-20618.505,-15627.735,-32681.88,-3385.98,5734.349999999999
1764766980.8602664,10080.135,-6410.25,-40834.665,-20629.035,-15638.625,-32693.49,-3396.33,5722.785
1764766980.8602664,10084.14,-6404.67,-40828.995,-20623.32,-15632.955,-32687.325,-3392.865,5727.78
1764766980.8602664,10078.155,-6411.195,-40835.115,-20628.63,-15636.195,-32690.34,-3395.43,5723.46
1764766980.8602664,10085.04,-6405.03,-40830.48,-20624.13,-15632.19,-32685.705,-3389.895,5731.245
1764766980.8602664,10084.86,-6404.715,-40829.895,-20623.725,-15631.92,-32686.335,-3391.155,5730.615
1764766980.8602664,10074.465,-6416.55,-40841.055,-20634.39,-15642.855,-32697.09,-3401.19,5718.375
1764766980.8602664,10072.845,-6418.935,-40842.765,-20636.28,-15645.195,-32699.25,-3403.08,5715.81
1764766980.8602664,10074.375,-6418.349999999999,-40841.865,-20635.83,-15645.105,-32697.99,-3402.945,5716.08
1764766980.8602664,10085.58,-6404.895,-40829.04,-20623.32,-15632.82,-32684.94,-3392.37,5728.094999999999
1764766980.8602664,10089.855,-6400.08,-40825.485,-20619.315,-15628.59,-32681.385,-3387.015,5732.639999999999
1764766980.8602664,10080.0,-6409.889999999999,-40836.51,-20630.385,-15637.32,-32689.44,-3394.215,5723.82
1764766980.8602664,10096.56,-6390.9,-40819.32,-20613.015,-15619.365,-32669.955,-3376.215,5742.81
1764766980.8602664,10101.555,-6386.49,-40815.45,-20608.695,-15615.495,-32664.33,-3369.24,5749.785
1764766980.8602664,10102.32,-6382.71,-40807.575,-20600.865,-15609.87,-32663.205,-3369.15,5749.469999999999
1764766980.8602664,10094.805,-6389.82,-40813.155,-20606.805,-15615.45,-32670.27,-3376.17,5740.695
1764766980.8602664,10107.81,-6376.679999999999,-40801.275,-20595.24,-15602.76,-32655.24,-3362.94,5754.285
1764766980.8602664,10104.885,-6381.719999999999,-40807.17,-20600.955,-15608.88,-32660.19,-3365.955,5749.65
1764766980.8602664,10109.385,-6376.59,-40802.04,-20596.23,-15603.57,-32654.52,-3361.41,5754.96
1764766980.8602664,10122.705,-6362.145,-40788.0,-20582.055,-15589.08,-32639.985,-3349.35,5769.135
1764766980.8602664,10135.215,-6347.25,-40773.15,-20568.015,-15574.365,-32626.26,-3334.995,5783.804999999999
1764766980.8602664,10126.485,-6355.44,-40781.295,-20576.34,-15582.915,-32635.395,-3342.105,5775.21
1764766980.910892,10127.655,-6353.054999999999,-40779.27,-20573.91,-15579.36,-32631.345,-3337.965,5777.685
1764766980.910892,10135.53,-6344.28,-40771.44,-20565.54,-15570.405,-32622.435,-3330.315,5785.92
1764766980.910892,10132.02,-6348.014999999999,-40775.49,-20570.04,-15574.5,-32626.395,-3333.06,5783.13
1764766980.910892,10138.05,-6342.705,-40769.19,-20563.47,-15568.47,-32620.23,-3329.325,5788.575
1764766980.910892,10133.685,-6348.78,-40774.995,-20569.185,-15574.815,-32626.89,-3335.94,5781.87
1764766980.910892,10122.255,-6361.695,-40787.865,-20581.92,-15586.83,-32639.805,-3347.64,5768.55
1764766980.910892,10126.17,-6357.42,-40783.77,-20579.04,-15583.32,-32636.52,-3345.48,5772.96
1764766980.910892,10129.68,-6352.469999999999,-40779.27,-20574.405,-15578.415,-32631.705,-3341.34,5777.145
1764766980.910892,10133.055,-6347.7,-40774.68,-20570.22,-15574.185,-32627.88,-3336.39,5780.52
1764766980.910892,10122.165,-6357.15,-40783.185,-20579.445,-15582.69,-32636.88,-3344.22,5769.945
1764766980.910892,10127.43,-6353.955,-40781.07,-20575.035,-15577.02,-32630.445,-3338.73,5776.965
1764766980.910892,10117.98,-6365.34,-40790.43,-20584.35,-15588.18,-32643.36,-3349.08,5766.435
1764766980.910892,10115.73,-6365.16,-40791.645,-20586.015,-15591.6,-32648.04,-3351.6,5763.735
1764766980.910892,10114.92,-6364.44,-40790.16,-20583.72,-15588.675,-32645.34,-3350.88,5764.005
1764766980.910892,10116.135,-6364.8,-40790.835,-20583.855,-15588.36,-32643.99,-3349.755,5765.445
1764766980.910892,10113.57,-6368.76,-40795.245,-20588.625,-15595.065,-32650.56,-3355.02,5761.26
1764766980.910892,10112.76,-6370.875,-40796.91,-20590.38,-15596.685,-32652.225,-3357.585,5760.719999999999
1764766980.910892,10124.73,-6356.969999999999,-40784.04,-20576.97,-15582.51,-32637.645,-3345.345,5773.32
1764766980.910892,10127.835,-6353.775,-40781.205,-20572.245,-15575.94,-32630.895,-3339.855,5777.46
1764766980.910892,10125.72,-6358.95,-40784.805,-20573.505,-15577.29,-32632.38,-3342.195,5775.435
1764766980.910892,10124.685,-6355.44,-40779.495,-20572.605,-15581.34,-32637.465,-3345.345,5772.285
1764766980.910892,10112.31,-6367.77,-40792.365,-20585.475,-15592.68,-32649.345,-3355.335,5761.395
1764766980.910892,10110.285,-6370.695,-40794.885,-20587.14,-15594.165,-32651.01,-3356.955,5758.74
1764766980.910892,10111.59,-6370.38,-40795.38,-20587.365,-15593.67,-32650.245,-3356.955,5759.054999999999
1764766980.957271,10116.405,-6363.675,-40789.845,-20582.865,-15588.855,-32645.835,-3353.04,5764.32
1764766980.957271,10112.49,-6365.79,-40792.815,-20586.69,-15594.21,-32652.09,-3356.73,5760.495
1764766980.957271,10120.185,-6360.974999999999,-40789.08,-20579.805,-15585.705,-32640.975,-3348.405,5768.01
1764766980.957271,10109.295,-6374.34,-40797.765,-20586.735,-15594.12,-32648.625,-3358.08,5755.95
1764766980.957271,10117.575,-6364.62,-40789.35,-20580.255,-15588.9,-32643.495,-3352.905,5764.32
1764766980.957271,10114.245,-6367.005,-40792.32,-20584.26,-15592.5,-32647.995,-3356.55,5761.304999999999
1764766980.957271,10110.87,-6369.705,-40794.705,-20586.375,-15593.715,-32649.795,-3357.72,5758.74
1764766980.957271,10101.51,-6380.054999999999,-40805.595,-20597.58,-15606.405,-32662.98,-3366.315,5749.29
1764766980.957271,10105.11,-6375.42,-40801.905,-20593.44,-15601.455,-32658.12,-3363.255,5753.745
1764766980.957271,10103.58,-6377.04,-40803.165,-20595.285,-15602.355,-32659.47,-3365.73,5751.99
1764766980.957271,10095.255,-6387.255,-40813.425,-20604.735,-15610.68,-32668.155,-3372.255,5742.405
1764766980.957271,10099.89,-6380.73,-40805.955,-20597.13,-15604.29,-32662.665,-3369.555,5746.86
1764766980.957271,10093.86,-6387.03,-40812.525,-20603.115,-15611.625,-32669.415,-3376.89,5740.11
1764766980.957271,10104.03,-6375.69,-40801.77,-20592.405,-15600.24,-32657.04,-3366.45,5751.36
1764766980.957271,10115.82,-6364.44,-40790.88,-20581.47,-15588.36,-32644.89,-3353.31,5763.825
1764766980.957271,10107.81,-6373.17,-40798.935,-20589.615,-15596.55,-32653.71,-3361.23,5756.804999999999
1764766980.957271,10096.245,-6384.33,-40809.915,-20600.64,-15608.295,-32666.445,-3371.805,5744.969999999999
1764766980.957271,10094.355,-6386.58,-40812.57,-20603.205,-15611.895,-32669.64,-3373.29,5743.26
1764766980.957271,10103.31,-6376.545,-40802.535,-20592.765,-15602.04,-32659.965,-3365.1,5753.07
1764766980.957271,10102.23,-6379.02,-40804.47,-20595.015,-15603.48,-32661.045,-3367.44,5750.82
1764766980.957271,10100.43,-6380.235,-40806.945,-20597.715,-15605.46,-32661.72,-3369.105,5749.65
1764766980.957271,10099.8,-6380.415,-40807.89,-20598.435,-15606.855,-32663.295,-3368.745,5749.469999999999
1764766980.957271,10096.56,-6383.79,-40810.68,-20601.18,-15608.925,-32665.635,-3373.155,5746.185
1764766980.957271,10095.48,-6385.455,-40811.58,-20602.17,-15609.78,-32666.94,-3373.92,5744.655
1764766981.0010974,10097.595,-6382.8,-40809.915,-20600.73,-15607.44,-32665.095,-3370.5,5747.04
1764766981.0010974,10088.64,-6391.485,-40819.185,-20608.785,-15615.45,-32673.69,-3378.33,5737.185
1764766981.0010974,10094.985,-6384.554999999999,-40813.335,-20603.205,-15609.465,-32666.49,-3372.255,5744.925
1764766981.0010974,10085.175,-6395.175,-40824.45,-20615.265,-15620.76,-32676.48,-3380.04,5735.385
1764766981.0010974,10077.66,-6403.545,-40832.865,-20621.52,-15626.7,-32682.42,-3386.655,5728.32
1764766981.0010974,10080.36,-6398.639999999999,-40825.755,-20614.545,-15623.505,-32683.86,-3386.745,5729.895
1764766981.0010974,10090.395,-6387.84,-40814.415,-20603.835,-15613.695,-32673.645,-3378.195,5740.469999999999
1764766981.0010974,10082.025,-6399.36,-40826.52,-20615.4,-15622.92,-32681.835,-3387.195,5730.929999999999
1764766981.0010974,10085.625,-6396.255,-40823.28,-20611.71,-15618.645,-32676.75,-3383.775,5734.575
1764766981.0010974,10089.495,-6391.53,-40819.455,-20608.38,-15616.17,-32673.06,-3380.58,5738.219999999999
1764766981.0010974,10092.195,-6388.245,-40816.08,-20605.005,-15612.93,-32669.28,-3376.89,5742.179999999999
1764766981.0010974,10084.725,-6396.66,-40823.595,-20612.205,-15619.59,-32676.165,-3384.63,5734.755
1764766981.0010974,10079.595,-6401.115,-40828.005,-20616.615,-15623.595,-32680.26,-3387.915,5730.66
1764766981.0010974,10072.485,-6408.0,-40836.645,-20625.75,-15633.045,-32689.98,-3394.755,5723.145
1764766981.0010974,10077.21,-6403.365,-40832.55,-20621.205,-15627.645,-32685.3,-3390.21,5727.42
1764766981.0010974,10070.37,-6410.835,-40839.57,-20628.54,-15635.475,-32692.815,-3396.105,5719.995
1764766981.0024233,10073.43,-6406.695,-40835.655,-20625.21,-15632.415,-32689.935,-3395.88,5722.83
1764766981.0024233,10065.285,-6415.695,-40844.025,-20633.13,-15639.93,-32698.035,-3403.395,5713.785
1764766981.0024233,10067.85,-6414.48,-40842.81,-20632.095,-15637.995,-32695.38,-3400.695,5717.295
1764766981.0024233,10057.545,-6425.594999999999,-40852.395,-20641.905,-15647.85,-32705.505,-3410.235,5705.955
1764766981.0024233,10064.385,-6418.08,-40845.645,-20635.695,-15641.55,-32698.035,-3403.575,5713.92
1764766981.0024233,10054.71,-6427.62,-40855.455,-20645.685,-15650.865,-32708.205,-3411.72,5704.425
1764766981.049574,10059.075,-6422.264999999999,-40849.38,-20640.375,-15645.15,-32703.255,-3407.265,5709.69
1764766981.049574,10052.415,-6429.195,-40857.39,-20648.655,-15655.32,-32712.345,-3413.79,5701.094999999999
1764766981.049574,10056.33,-6424.605,-40852.395,-20642.355,-15649.02,-32705.55,-3410.37,5705.91
1764766981.049574,10051.29,-6429.69,-40856.67,-20646.405,-15651.945,-32709.915,-3413.79,5701.41
1764766981.049574,10064.07,-6415.92,-40842.99,-20632.275,-15637.59,-32696.1,-3401.28,5715.045
1764766981.049574,10064.61,-6415.469999999999,-40842.945,-20632.5,-15637.635,-32696.055,-3401.19,5714.685
1764766981.050603,10053.225,-6427.259999999999,-40854.465,-20644.56,-15650.37,-32709.015,-3412.305,5702.58
1764766981.050603,10055.88,-6424.605,-40852.395,-20641.95,-15647.4,-32705.19,-3410.37,5705.099999999999
1764766981.050603,10071.0,-6407.955,-40836.015,-20627.055,-15631.83,-32688.72,-3395.115,5721.435
1764766981.050603,10065.51,-6413.355,-40842.36,-20633.715,-15637.32,-32693.94,-3400.74,5716.395
1764766981.050603,10053.9,-6430.23,-40857.165,-20644.83,-15646.815,-32703.57,-3410.28,5705.19
1764766981.050603,10051.785,-6427.62,-40852.62,-20643.48,-15650.55,-32709.465,-3415.05,5700.554999999999
1764766981.050603,10058.985,-6418.349999999999,-40845.69,-20637.405,-15643.89,-32702.67,-3408.165,5708.61
1764766981.050603,10053.135,-6425.37,-40853.43,-20644.695,-15650.865,-32708.52,-3412.935,5702.355
1764766981.050603,10057.05,-6421.275,-40850.64,-20640.87,-15647.895,-32705.46,-3411.18,5705.955
1764766981.050603,10048.05,-6433.11,-40861.395,-20649.285,-15656.13,-32712.975,-3418.515,5697.09
1764766981.051636,10050.795,-6429.42,-40856.805,-20645.055,-15652.305,-32708.655,-3414.96,5700.645
1764766981.051636,10064.205,-6413.219999999999,-40841.28,-20630.79,-15638.58,-32695.29,-3402.405,5714.505
1764766981.051636,10068.12,-6408.945,-40836.96,-20627.19,-15634.395,-32691.24,-3398.94,5718.465
1764766981.051636,10054.62,-6422.49,-40851.765,-20641.095,-15647.85,-32705.055,-3409.785,5705.685
1764766981.051636,10054.215,-6423.705,-40852.125,-20642.085,-15646.905,-32703.39,-3409.11,5705.685
1764766981.0521855,10055.25,-6422.49,-40850.19,-20640.375,-15645.69,-32702.895,-3409.245,5706.81
1764766981.0521855,10057.725,-6421.005,-40849.29,-20638.485,-15643.08,-32700.915,-3407.22,5709.285
1764766981.0521855,10065.375,-6413.04,-40839.975,-20629.17,-15635.295,-32694.03,-3401.37,5716.485
1764766981.0947938,10059.255,-6419.16,-40845.78,-20635.605,-15642.855,-32700.735,-3406.815,5709.465
1764766981.0947938,10059.795,-6418.53,-40845.87,-20635.29,-15641.28,-32698.395,-3404.79,5710.995
1764766981.0947938,10063.755,-6413.67,-40842.18,-20631.06,-15637.77,-32694.615,-3401.415,5714.235
1764766981.0947938,10068.975,-6407.46,-40836.735,-20625.3,-15632.235,-32688.495,-3395.835,5719.365
1764766981.0947938,10079.595,-6396.12,-40825.89,-20614.275,-15620.535,-32676.345,-3384.675,5731.65
1764766981.0947938,10072.89,-6402.599999999999,-40832.955,-20621.295,-15627.87,-32684.355,-3391.11,5724.81
1764766981.0947938,10081.575,-6392.34,-40822.74,-20611.17,-15617.565,-32673.69,-3382.83,5734.08
1764766981.0947938,10084.815,-6387.615,-40818.96,-20607.84,-15612.48,-32668.56,-3376.89,5739.12
1764766981.0947938,10085.805,-6387.57,-40820.04,-20610.36,-15612.345,-32668.065,-3375.315,5741.145
1764766981.0947938,10079.145,-6397.065,-40827.06,-20615.715,-15618.195,-32673.555,-3380.895,5734.844999999999
1764766981.0947938,10069.56,-6406.155,-40834.485,-20622.915,-15629.67,-32688.72,-3393.135,5721.929999999999
1764766981.0947938,10066.995,-6407.55,-40836.96,-20625.615,-15632.55,-32691.555,-3396.87,5718.014999999999
1764766981.0947938,10075.365,-6400.035,-40830.12,-20619.315,-15624.18,-32681.205,-3389.04,5727.645
1764766981.0947938,10071.72,-6403.545,-40833.045,-20622.195,-15626.475,-32685.165,-3392.415,5723.865
1764766981.0947938,10081.035,-6390.99,-40822.155,-20612.835,-15618.195,-32676.84,-3384.18,5732.91
1764766981.0947938,10071.675,-6401.429999999999,-40834.17,-20623.86,-15628.365,-32685.84,-3390.48,5724.764999999999
1764766981.095978,10076.625,-6399.675,-40830.75,-20618.055,-15621.03,-32677.47,-3383.73,5732.054999999999
1764766981.095978,10068.975,-6406.11,-40833.225,-20621.16,-15626.52,-32685.705,-3389.49,5724.63
1764766981.0969949,10068.48,-6406.29,-40834.845,-20623.32,-15628.005,-32687.19,-3390.255,5724.179999999999
1764766981.0969949,10078.02,-6396.974999999999,-40826.655,-20614.545,-15619.41,-32677.965,-3382.38,5734.035
1764766981.0969949,10075.995,-6399.315,-40829.535,-20618.82,-15624.72,-32682.915,-3384.855,5731.785
1764766981.0969949,10061.595,-6414.48,-40844.655,-20633.265,-15637.365,-32695.38,-3398.715,5715.405
1764766981.0969949,10056.06,-6420.15,-40848.57,-20636.19,-15639.795,-32697.945,-3404.34,5708.61
1764766981.0969949,10060.11,-6415.469999999999,-40843.98,-20632.59,-15636.555,-32693.715,-3400.515,5713.335
1764766981.1448205,10071.135,-6404.219999999999,-40833.27,-20621.43,-15626.25,-32683.365,-3391.02,5724.81
1764766981.1448205,10062.135,-6413.355,-40841.73,-20629.935,-15635.295,-32693.13,-3399.39,5716.304999999999
1764766981.1448205,10068.705,-6405.57,-40834.395,-20622.825,-15628.59,-32685.975,-3392.73,5723.775
1764766981.145342,10063.08,-6411.24,-40839.48,-20627.955,-15633.765,-32691.735,-3395.205,5718.645
1764766981.145342,10062.18,-6411.15,-40839.705,-20628.09,-15633.495,-32692.455,-3395.07,5718.195
1764766981.145342,10060.785,-6412.275,-40842.945,-20630.295,-15635.565,-32695.245,-3397.77,5715.719999999999
1764766981.145342,10062.135,-6411.69,-40842.27,-20629.62,-15635.205,-32693.85,-3397.41,5716.485
1764766981.145342,10069.245,-6404.264999999999,-40834.89,-20622.24,-15627.915,-32686.11,-3391.875,5723.685
1764766981.145342,10064.25,-6410.025,-40840.065,-20627.505,-15633.36,-32691.24,-3395.655,5718.105
1764766981.145342,10066.455,-6406.605,-40836.735,-20624.31,-15630.705,-32688.72,-3392.325,5721.929999999999
1764766981.145342,10077.48,-6395.355,-40824.99,-20612.88,-15618.015,-32676.165,-3381.93,5734.035
1764766981.145342,10072.755,-6399.495,-40828.005,-20615.31,-15620.4,-32679.945,-3386.52,5728.724999999999
1764766981.145342,10063.035,-6409.17,-40838.175,-20625.705,-15630.615,-32689.89,-3394.215,5719.455
1764766981.145342,10061.01,-6410.88,-40839.39,-20628.765,-15633.945,-32693.58,-3397.095,5717.07
1764766981.145342,10063.08,-6409.259999999999,-40837.995,-20627.19,-15632.46,-32692.275,-3396.78,5718.69
1764766981.145342,10073.385,-6398.775,-40828.32,-20617.47,-15622.245,-32681.97,-3387.51,5729.58
1764766981.145342,10076.13,-6396.884999999999,-40825.89,-20614.815,-15619.995,-32679.9,-3384.225,5731.29
1764766981.145342,10075.41,-6397.469999999999,-40825.485,-20614.59,-15620.67,-32679.54,-3384.585,5731.335
1764766981.145342,10070.91,-6401.34,-40829.4,-20617.83,-15623.415,-32681.475,-3388.635,5727.105
1764766981.145342,10064.835,-6408.045,-40836.105,-20623.95,-15629.355,-32686.74,-3393.855,5720.67
1764766981.145342,10078.02,-6393.87,-40822.965,-20612.115,-15617.25,-32673.15,-3380.355,5735.205
1764766981.145342,10074.78,-6398.37,-40829.31,-20618.865,-15622.56,-32678.685,-3382.695,5732.054999999999
1764766981.145342,10062.315,-6413.58,-40842.045,-20628.18,-15628.635,-32685.705,-3393.63,5719.41
1764766981.145342,10062.72,-6408.855,-40833.72,-20623.95,-15630.12,-32689.26,-3396.78,5718.06
1764766981.192548,10074.51,-6393.33,-40821.03,-20611.98,-15619.725,-32678.37,-3386.745,5730.344999999999
1764766981.192548,10073.88,-6395.445,-40824.0,-20613.87,-15619.185,-32677.38,-3385.26,5730.885
1764766981.192548,10062.45,-6411.105,-40838.67,-20626.65,-15630.255,-32688.315,-3394.44,5719.455
1764766981.192548,10061.91,-6409.53,-40835.61,-20623.905,-15629.715,-32688.18,-3395.07,5718.87
1764766981.192548,10066.095,-6404.49,-40831.875,-20620.62,-15626.34,-32684.355,-3391.155,5723.505
1764766981.192548,10074.195,-6396.389999999999,-40823.505,-20612.295,-15617.205,-32674.095,-3383.73,5732.145
1764766981.192548,10074.555,-6395.31,-40822.515,-20611.575,-15616.305,-32672.52,-3383.28,5732.505
1764766981.192548,10058.76,-6411.105,-40839.345,-20629.035,-15634.665,-32691.105,-3397.905,5716.71
1764766981.192548,10058.13,-6412.41,-40841.82,-20631.195,-15636.33,-32693.625,-3397.14,5716.98
1764766981.192548,10064.88,-6405.165,-40833.045,-20622.24,-15628.77,-32686.245,-3391.02,5723.55
1764766981.192548,10066.725,-6402.509999999999,-40829.04,-20618.82,-15625.44,-32684.355,-3391.29,5723.415
1764766981.192548,10063.8,-6405.84,-40831.605,-20621.52,-15627.285,-32685.705,-3393.405,5721.165
1764766981.192548,10056.105,-6414.12,-40840.695,-20630.97,-15636.69,-32694.165,-3400.155,5712.929999999999
1764766981.192548,10051.92,-6419.34,-40846.68,-20637.27,-15642.36,-32699.565,-3404.97,5708.52
1764766981.192548,10059.48,-6411.195,-40838.715,-20629.395,-15633.855,-32690.43,-3398.175,5716.304999999999
1764766981.192548,10064.655,-6406.065,-40833.945,-20624.445,-15628.455,-32683.995,-3392.55,5721.929999999999
1764766981.192548,10066.455,-6403.455,-40831.515,-20621.25,-15626.43,-32681.565,-3390.84,5724.135
1764766981.192548,10058.445,-6413.175,-40840.92,-20631.465,-15636.24,-32692.995,-3400.605,5714.37
1764766981.192548,10048.77,-6422.94,-40850.19,-20641.995,-15646.185,-32703.255,-3409.245,5704.02
1764766981.192548,10053.9,-6417.0,-40846.275,-20638.08,-15641.37,-32697.225,-3403.215,5711.264999999999
1764766981.192548,10049.67,-6422.445,-40850.415,-20639.88,-15642.765,-32699.34,-3405.465,5708.025
1764766981.192548,10034.91,-6435.179999999999,-40860.81,-20651.13,-15659.01,-32719.05,-3422.115,5690.385
1764766981.192548,10032.525,-6438.42,-40864.545,-20655.495,-15663.285,-32721.705,-3425.94,5687.415
1764766981.192548,10033.335,-6439.05,-40864.14,-20654.865,-15661.53,-32718.6,-3424.14,5688.719999999999
1764766981.238565,10035.225,-6437.16,-40863.105,-20653.425,-15660.495,-32717.25,-3423.465,5689.304999999999
1764766981.238565,10043.235,-6428.295,-40854.105,-20644.47,-15650.1,-32707.395,-3416.355,5697.81
1764766981.238565,10040.13,-6432.795,-40858.965,-20649.915,-15654.87,-32712.165,-3420.405,5694.075
1764766981.238565,10030.455,-6443.73,-40869.09,-20660.22,-15666.435,-32724.63,-3430.575,5683.455
1764766981.238565,10022.265,-6451.56,-40876.47,-20666.97,-15673.455,-32731.2,-3435.705,5676.03
1764766981.238565,10020.33,-6452.505,-40878.27,-20668.815,-15676.02,-32733.675,-3437.73,5674.094999999999
1764766981.238565,10024.02,-6449.49,-40874.4,-20665.215,-15671.655,-32729.355,-3434.895,5677.74
1764766981.238565,10018.935,-6454.395,-40878.18,-20669.085,-15675.39,-32731.65,-3437.28,5673.15
1764766981.238565,10026.99,-6445.215,-40869.855,-20660.76,-15667.2,-32723.865,-3430.845,5680.98
1764766981.238565,10026.765,-6445.844999999999,-40870.53,-20662.02,-15667.425,-32724.18,-3431.745,5680.26
1764766981.238565,10027.44,-6443.865,-40868.64,-20660.265,-15665.4,-32722.74,-3430.53,5681.16
1764766981.238565,10032.39,-6437.565,-40862.43,-20653.065,-15658.695,-32716.395,-3424.14,5687.28
1764766981.238565,10035.81,-6434.19,-40858.065,-20648.115,-15654.195,-32712.345,-3420.09,5691.51
1764766981.238565,10032.165,-6438.509999999999,-40862.565,-20653.02,-15658.38,-32717.43,-3423.555,5687.054999999999
1764766981.238565,10029.105,-6441.705,-40866.93,-20656.53,-15661.215,-32720.49,-3426.165,5683.41
1764766981.238565,10017.9,-6452.775,-40876.965,-20668.095,-15674.04,-32733.54,-3436.785,5673.195
1764766981.238565,10021.41,-6449.445,-40874.265,-20666.385,-15672.78,-32732.64,-3433.455,5677.605
1764766981.238565,10008.45,-6464.969999999999,-40888.08,-20678.265,-15683.94,-32744.565,-3446.01,5662.125
1764766981.238565,10005.03,-6468.3,-40891.23,-20681.37,-15685.83,-32747.085,-3449.745,5658.344999999999
1764766981.238565,10005.345,-6467.94,-40892.31,-20683.125,-15688.305,-32748.795,-3449.655,5658.12
1764766981.238565,10008.495,-6464.25,-40888.89,-20679.615,-15685.29,-32744.88,-3445.965,5662.26
1764766981.238565,10020.24,-6451.065,-40875.84,-20666.205,-15671.745,-32731.29,-3435.255,5675.4
1764766981.238565,10024.155,-6446.16,-40870.53,-20660.895,-15666.705,-32726.07,-3432.105,5679.0
1764766981.2402604,10017.45,-6452.505,-40877.415,-20667.24,-15673.59,-32733.315,-3438.09,5673.195
1764766981.2861474,10014.21,-6455.7,-40880.16,-20669.805,-15677.505,-32737.68,-3441.195,5669.955
1764766981.2861474,10002.825,-6467.13,-40892.535,-20682.585,-15690.87,-32750.28,-3451.455,5657.895
1764766981.2861474,10000.8,-6468.165,-40893.795,-20684.745,-15693.165,-32752.17,-3452.445,5656.59
1764766981.2861474,10002.645,-6464.115,-40890.735,-20682.63,-15691.455,-32751.405,-3452.13,5657.849999999999
1764766981.2861474,10013.265,-6454.44,-40882.005,-20672.19,-15679.215,-32738.985,-3442.86,5668.92
1764766981.2861474,10014.975,-6457.77,-40882.86,-20671.515,-15678.495,-32737.455,-3440.655,5671.349999999999
1764766981.2871602,10012.005,-6460.38,-40883.895,-20673.27,-15681.375,-32741.28,-3444.57,5667.03
1764766981.2871602,10010.97,-6458.804999999999,-40883.67,-20673.045,-15680.61,-32740.02,-3444.345,5666.264999999999
1764766981.2871602,10003.545,-6467.04,-40891.545,-20680.785,-15688.44,-32747.67,-3450.285,5657.985
1764766981.2871602,9983.97,-6487.29,-40912.155,-20702.34,-15709.95,-32768.595,-3467.88,5639.175
1764766981.2871602,9981.36,-6488.955,-40914.675,-20704.545,-15712.515,-32771.565,-3470.49,5636.969999999999
1764766981.2871602,9987.705,-6481.304999999999,-40906.8,-20697.39,-15705.09,-32764.77,-3464.325,5644.8
1764766981.2871602,10001.475,-6466.139999999999,-40892.49,-20683.62,-15691.365,-32751.585,-3451.23,5658.705
1764766981.2871602,10000.62,-6467.355,-40894.965,-20686.095,-15693.39,-32751.99,-3451.545,5657.895
1764766981.2871602,9989.28,-6483.554999999999,-40910.715,-20698.29,-15703.605,-32761.44,-3460.635,5645.835
1764766981.2871602,9989.235,-6482.88,-40905.405,-20694.51,-15701.85,-32760.945,-3460.995,5644.62
1764766981.2871602,9995.13,-6472.125,-40896.63,-20689.2,-15698.565,-32758.92,-3457.71,5649.57
1764766981.2871602,10004.67,-6462.179999999999,-40888.89,-20680.38,-15688.935,-32748.615,-3449.34,5660.054999999999
1764766981.2871602,10006.335,-6461.009999999999,-40887.495,-20679.03,-15686.505,-32745.375,-3448.44,5661.315
1764766981.2871602,9993.69,-6473.52,-40900.59,-20692.395,-15700.005,-32758.515,-3458.88,5649.03
1764766981.2871602,9994.905,-6472.304999999999,-40899.015,-20690.19,-15697.935,-32756.535,-3457.44,5651.145
1764766981.2871602,10001.925,-6463.349999999999,-40889.16,-20681.055,-15687.765,-32747.355,-3450.735,5659.335
1764766981.332478,9995.76,-6469.965,-40896.405,-20688.48,-15696.405,-32756.985,-3455.145,5653.215
1764766981.332478,9994.455,-6471.764999999999,-40898.115,-20689.605,-15696.99,-32757.12,-3455.145,5652.405
1764766981.332478,9995.445,-6472.304999999999,-40897.89,-20687.85,-15694.47,-32754.24,-3452.535,5653.53
1764766981.332478,9994.77,-6473.295,-40897.395,-20688.48,-15697.485,-32758.155,-3456.54,5650.56
1764766981.332478,10004.895,-6463.259999999999,-40888.62,-20680.29,-15689.295,-32749.02,-3449.97,5659.965
1764766981.332478,10009.62,-6456.825,-40884.39,-20675.7,-15683.22,-32742.315,-3443.535,5666.355
1764766981.332478,10011.6,-6453.764999999999,-40882.815,-20675.7,-15682.905,-32739.12,-3439.98,5668.605
1764766981.332478,9997.245,-6468.57,-40896.54,-20686.95,-15694.245,-32751.315,-3451.14,5654.16
1764766981.332478,9996.435,-6469.38,-40895.325,-20683.62,-15690.915,-32751.315,-3451.905,5654.07
1764766981.332478,10005.21,-6460.29,-40885.965,-20675.79,-15683.67,-32744.34,-3444.255,5664.15
1764766981.332478,10007.82,-6455.7,-40882.365,-20671.965,-15679.44,-32740.83,-3441.195,5666.445
1764766981.332478,10006.515,-6457.41,-40884.39,-20673.72,-15680.52,-32741.415,-3442.32,5664.96
1764766981.332478,10001.07,-6463.53,-40891.365,-20681.64,-15689.79,-32750.73,-3448.305,5657.985
1764766981.332478,10005.21,-6460.065,-40888.485,-20677.68,-15685.47,-32746.14,-3445.47,5661.45
1764766981.332478,9997.47,-6467.31,-40894.92,-20684.43,-15692.4,-32753.79,-3452.985,5654.025
1764766981.332478,10004.4,-6460.38,-40887.855,-20678.355,-15685.92,-32747.04,-3447.18,5661.63
1764766981.332478,10009.17,-6455.7,-40884.48,-20675.115,-15682.68,-32744.385,-3443.265,5666.4
1764766981.332478,10005.03,-6459.12,-40887.81,-20678.76,-15686.73,-32747.805,-3446.865,5662.71
1764766981.332478,10005.615,-6458.67,-40887.72,-20677.635,-15685.515,-32744.655,-3444.795,5664.014999999999
1764766981.332478,10000.35,-6464.115,-40893.3,-20682.315,-15691.005,-32749.875,-3449.745,5657.625
1764766981.332478,9988.335,-6475.455,-40905.18,-20693.34,-15702.795,-32761.89,-3459.465,5645.925
1764766981.332478,9989.235,-6474.014999999999,-40903.425,-20692.17,-15700.68,-32761.035,-3457.62,5647.455
1764766981.3753598,9992.655,-6471.9,-40900.815,-20691.27,-15699.78,-32759.82,-3456.405,5649.57
1764766981.3753598,9991.17,-6473.025,-40902.57,-20693.52,-15700.815,-32760.405,-3458.385,5647.905
1764766981.3753598,9998.595,-6465.24,-40894.695,-20684.16,-15692.13,-32751.18,-3452.895,5654.969999999999
1764766981.3753598,9994.275,-6469.605,-40899.195,-20688.03,-15696.855,-32755.545,-3455.64,5650.92
1764766981.3753598,10005.255,-6458.04,-40888.665,-20677.14,-15685.74,-32743.98,-3444.345,5663.969999999999
1764766981.3753598,10003.41,-6459.435,-40889.745,-20677.545,-15686.055,-32744.88,-3445.695,5662.71
1764766981.3753598,10003.365,-6458.67,-40889.115,-20676.735,-15685.29,-32744.565,-3445.02,5663.25
1764766981.3753598,10006.2,-6456.24,-40887.225,-20673.765,-15682.23,-32742.585,-3441.555,5665.77
1764766981.3753598,10007.91,-6454.395,-40886.325,-20673.405,-15682.095,-32741.46,-3439.665,5667.705
1764766981.3753598,10004.985,-6457.275,-40889.97,-20678.355,-15688.845,-32748.165,-3444.93,5663.115
1764766981.3753598,9993.645,-6471.045,-40903.02,-20691.09,-15700.32,-32759.055,-3454.515,5651.46
1764766981.3753598,9992.25,-6472.98,-40903.83,-20690.415,-15698.52,-32757.21,-3456.135,5649.389999999999
1764766981.3753598,10003.77,-6460.38,-40891.32,-20678.355,-15685.92,-32744.655,-3445.92,5661.045
1764766981.3753598,10008.0,-6455.16,-40887.405,-20674.62,-15682.95,-32741.37,-3441.69,5665.23
1764766981.3753598,10009.485,-6453.27,-40884.66,-20672.28,-15680.655,-32739.84,-3440.25,5667.389999999999
1764766981.3753598,10008.585,-6454.08,-40885.11,-20673.27,-15680.07,-32739.21,-3439.62,5667.12
1764766981.3763733,10011.195,-6450.84,-40881.555,-20669.895,-15675.795,-32735.115,-3435.615,5670.36
1764766981.3763733,10013.355,-6448.005,-40878.9,-20667.105,-15673.365,-32732.775,-3433.725,5673.51
1764766981.3763733,10013.49,-6448.139999999999,-40880.34,-20668.185,-15674.715,-32734.305,-3434.265,5673.645
1764766981.3763733,10008.81,-6452.415,-40882.68,-20670.57,-15677.55,-32737.815,-3438.405,5668.785
1764766981.3763733,9999.45,-6464.16,-40895.19,-20683.89,-15689.79,-32749.335,-3446.1,5659.2
1764766981.3763733,9996.3,-6468.255,-40900.68,-20690.145,-15696.9,-32756.085,-3451.275,5653.98
1764766981.3763733,10001.835,-6461.37,-40893.795,-20683.08,-15689.835,-32749.065,-3448.26,5658.795
1764766981.3763733,10003.32,-6459.075,-40891.77,-20681.01,-15688.035,-32746.77,-3446.775,5660.37
1764766981.4254403,10005.885,-6456.014999999999,-40890.96,-20680.245,-15687.0,-32744.205,-3442.455,5664.195
1764766981.4254403,9995.805,-6468.84,-40903.74,-20690.19,-15695.01,-32750.955,-3450.015,5654.969999999999
1764766981.4254403,9983.475,-6483.42,-40914.405,-20700.315,-15706.575,-32764.14,-3460.95,5642.37
1764766981.4254403,9992.16,-6470.145,-40900.41,-20689.965,-15700.995,-32759.82,-3456.72,5650.155
1764766981.4254403,9993.87,-6469.469999999999,-40900.68,-20691.0,-15700.905,-32757.885,-3453.795,5652.63
1764766981.4254403,9982.17,-6482.655,-40913.28,-20702.43,-15711.255,-32768.64,-3463.965,5641.11
1764766981.4254403,9989.55,-6474.42,-40907.34,-20696.22,-15705.27,-32762.205,-3457.98,5648.04
1764766981.4254403,9990.855,-6472.259999999999,-40906.395,-20694.555,-15703.245,-32760.405,-3457.8,5648.804999999999
1764766981.4254403,9988.605,-6475.545,-40909.545,-20697.48,-15705.405,-32762.925,-3460.275,5647.185
1764766981.4254403,9980.82,-6483.825,-40916.79,-20705.175,-15712.65,-32771.07,-3467.07,5638.77
1764766981.4254403,9992.925,-6470.73,-40903.74,-20691.54,-15698.79,-32758.065,-3455.055,5652.719999999999
1764766981.4254403,9992.835,-6469.245,-40903.47,-20690.865,-15699.105,-32758.83,-3455.415,5652.719999999999
1764766981.4262352,9992.655,-6467.175,-40902.975,-20691.09,-15700.005,-32760.27,-3456.36,5651.145
1764766981.4262352,9987.3,-6474.33,-40912.47,-20698.29,-15705.675,-32764.95,-3460.275,5646.06
1764766981.4262352,9976.68,-6488.37,-40922.955,-20707.965,-15714.765,-32773.59,-3467.43,5636.925
1764766981.4262352,9983.34,-6479.91,-40913.595,-20699.1,-15706.755,-32764.95,-3461.13,5643.855
1764766981.4262352,9976.95,-6487.065,-40922.1,-20707.83,-15716.7,-32774.895,-3467.835,5635.935
1764766981.4262352,9969.705,-6496.29,-40931.595,-20718.135,-15727.275,-32786.145,-3477.24,5626.71
1764766981.4262352,9969.66,-6496.92,-40933.71,-20718.765,-15727.59,-32785.965,-3477.96,5626.349999999999
1764766981.4262352,9982.665,-6482.25,-40917.51,-20702.115,-15711.705,-32771.565,-3465.585,5640.929999999999
1764766981.4262352,9987.57,-6475.455,-40909.725,-20694.735,-15705.495,-32766.885,-3460.905,5645.16
1764766981.4262352,9977.76,-6485.085,-40919.13,-20702.97,-15712.155,-32772.78,-3468.195,5636.745
1764766981.4262352,9970.245,-6492.195,-40928.13,-20714.265,-15723.675,-32784.615,-3476.34,5629.275
1764766981.4262352,9962.325,-6499.844999999999,-40935.42,-20722.275,-15732.405,-32793.165,-3482.37,5621.67
1764766981.4741366,9964.71,-6497.594999999999,-40934.205,-20720.88,-15730.47,-32790.465,-3479.13,5625.135
1764766981.4741366,9969.345,-6492.78,-40929.525,-20716.605,-15723.765,-32782.905,-3474.99,5630.445
1764766981.4741366,9960.66,-6501.87,-40939.605,-20727.045,-15732.045,-32789.52,-3481.56,5620.635
1764766981.4741366,9960.795,-6502.86,-40940.64,-20726.82,-15732.18,-32789.115,-3482.145,5620.23
1764766981.4741366,9964.26,-6498.0,-40933.395,-20718.72,-15726.87,-32787.18,-3480.39,5623.245
1764766981.4741366,9974.655,-6484.86,-40920.03,-20706.885,-15716.835,-32778.315,-3470.67,5634.09
1764766981.4741366,9980.955,-6478.514999999999,-40914.945,-20701.44,-15710.715,-32769.99,-3462.615,5641.605
1764766981.4741366,9975.87,-6483.87,-40920.705,-20706.57,-15715.485,-32774.31,-3467.79,5637.105
1764766981.4741366,9965.97,-6494.04,-40929.84,-20716.245,-15724.53,-32783.13,-3475.17,5627.115
1764766981.4741366,9966.735,-6492.33,-40928.4,-20715.525,-15723.225,-32781.15,-3472.65,5629.41
1764766981.4741366,9969.93,-6487.65,-40923.54,-20711.43,-15718.815,-32776.785,-3469.365,5633.685
1764766981.4741366,9976.32,-6482.295,-40918.185,-20706.03,-15714.045,-32771.79,-3465.72,5639.445
1764766981.4741366,9966.69,-6493.05,-40930.245,-20719.44,-15727.77,-32784.39,-3475.35,5628.78
1764766981.4741366,9960.93,-6496.92,-40934.565,-20723.625,-15731.82,-32788.215,-3481.335,5621.895
1764766981.4751637,9967.905,-6492.195,-40930.47,-20717.64,-15723.99,-32779.755,-3477.105,5627.969999999999
1764766981.4751637,9966.51,-6495.615,-40931.64,-20717.865,-15725.07,-32780.744999999995,-3477.915,5626.395
1764766981.4751637,9976.095,-6483.42,-40921.47,-20709.0,-15718.455,-32773.185,-3469.095,5636.835
1764766981.4751637,9965.79,-6494.445,-40932.18,-20720.295,-15729.255,-32783.76,-3477.24,5626.17
1764766981.4751637,9966.285,-6493.455,-40929.57,-20719.08,-15726.465,-32782.005,-3475.395,5628.15
1764766981.4751637,9977.58,-6479.82,-40917.51,-20707.245,-15713.64,-32769.54,-3463.38,5641.38
1764766981.5185828,9979.515,-6476.715,-40916.43,-20705.67,-15712.11,-32766.975,-3461.13,5644.349999999999
1764766981.5185828,9977.31,-6480.134999999999,-40919.85,-20709.18,-15715.08,-32769.54,-3463.965,5641.335
1764766981.5185828,9976.68,-6481.62,-40921.245,-20710.035,-15716.385,-32771.25,-3465.315,5638.724999999999
1764766981.5185828,9967.635,-6491.429999999999,-40932.045,-20720.61,-15727.32,-32782.005,-3473.955,5628.915
1764766981.5185828,9965.61,-6494.13,-40935.06,-20723.04,-15729.525,-32784.165,-3477.195,5626.035
1764766981.5185828,9963.18,-6496.785,-40937.265,-20725.38,-15732.945,-32787.18,-3480.255,5623.245
1764766981.5185828,9967.455,-6492.195,-40932.315,-20719.935,-15727.59,-32783.175,-3477.555,5627.745
1764766981.5185828,9956.88,-6503.175,-40944.015,-20733.3,-15740.865,-32796.18,-3487.095,5616.9
1764766981.5185828,9959.175,-6500.295,-40940.28,-20729.7,-15736.68,-32791.994999999995,-3483.765,5619.645
1764766981.5185828,9966.51,-6491.7,-40931.37,-20720.925,-15728.085,-32784.03,-3476.88,5628.51
1764766981.5185828,9963.585,-6493.005,-40933.485,-20723.04,-15730.335,-32786.325,-3477.6,5627.61
1764766981.5185828,9969.345,-6486.57,-40926.33,-20715.345,-15722.01,-32778.494999999995,-3472.245,5633.46
1764766981.5185828,9973.17,-6484.5,-40923.945,-20713.545,-15720.345,-32775.48,-3468.555,5636.969999999999
1764766981.5185828,9973.035,-6485.355,-40925.52,-20715.255,-15722.37,-32777.235,-3469.995,5635.485
1764766981.5185828,9969.345,-6490.349999999999,-40930.515,-20721.195,-15727.995,-32782.994999999995,-3474.72,5630.715
1764766981.5185828,9961.965,-6497.73,-40938.57,-20730.06,-15738.165,-32792.715,-3482.55,5623.335
1764766981.5185828,9968.985,-6489.09,-40929.975,-20721.015,-15728.895,-32783.13,-3474.405,5632.155
1764766981.5185828,9957.105,-6501.195,-40941.945,-20732.445,-15739.11,-32794.335,-3485.205,5619.285
1764766981.5185828,9953.82,-6503.58,-40945.32,-20735.46,-15742.17,-32798.07,-3488.445,5616.764999999999
1764766981.5185828,9948.96,-6508.665,-40949.82,-20740.815,-15748.155,-32805.18,-3494.475,5611.815
1764766981.5185828,9945.45,-6512.264999999999,-40953.195,-20745.09,-15751.305,-32808.555,-3496.23,5608.62
1764766981.5185828,9946.845,-6511.094999999999,-40953.555,-20745.09,-15749.955,-32805.45,-3493.755,5610.825
1764766981.5185828,9953.82,-6508.259999999999,-40948.47,-20736.495,-15741.225,-32796.405,-3488.085,5617.844999999999
1764766981.5185828,9942.12,-6517.304999999999,-40954.365,-20747.07,-15756.93,-32813.595,-3503.565,5601.554999999999
1764766981.5185828,9935.37,-6523.83,-40962.78,-20754.495,-15763.05,-32819.94,-3509.595,5594.985
1764766981.5185828,9936.675,-6522.795,-40962.555,-20752.965,-15760.53,-32817.195,-3507.48,5596.695
1764766981.5658717,9949.05,-6509.61,-40949.235,-20739.555,-15746.805,-32803.605,-3495.6,5610.105
1764766981.5658717,9941.895,-6516.63,-40956.03,-20746.08,-15752.835,-32811.48,-3500.505,5603.67
1764766981.5658717,9945.54,-6512.804999999999,-40952.25,-20742.165,-15748.2,-32807.744999999995,-3497.265,5607.45
1764766981.5658717,9953.505,-6504.344999999999,-40943.61,-20733.795,-15740.19,-32799.869999999995,-3490.74,5615.505
1764766981.5658717,9953.685,-6504.03,-40943.61,-20733.48,-15741.045,-32800.095,-3489.75,5615.639999999999
1764766981.5658717,9950.355,-6505.695,-40945.68,-20735.46,-15742.44,-32801.985,-3490.02,5613.66
1764766981.5668828,9960.48,-6495.165,-40934.745,-20724.93,-15730.65,-32790.555,-3480.885,5623.83
1764766981.5668828,9960.255,-6496.605,-40935.825,-20725.2,-15731.415,-32790.645,-3480.975,5623.605
1764766981.5668828,9957.15,-6499.844999999999,-40939.38,-20728.665,-15734.565,-32793.57,-3483.675,5620.094999999999
1764766981.5668828,9951.03,-6505.695,-40945.23,-20735.1,-15741.09,-32800.455,-3489.39,5613.3
1764766981.5668828,9958.995,-6496.74,-40936.95,-20727.18,-15734.115,-32791.545,-3482.685,5621.895
1764766981.5668828,9953.28,-6503.219999999999,-40943.79,-20732.4,-15739.74,-32796.494999999995,-3487.23,5616.9
1764766981.5668828,9945.495,-6508.62,-40947.165,-20735.685,-15743.79,-32803.11,-3493.305,5609.205
1764766981.5668828,9953.055,-6499.53,-40938.84,-20728.98,-15737.265,-32795.955,-3484.935,5619.285
1764766981.5668828,9946.62,-6506.415,-40946.76,-20736.855,-15743.115,-32802.075,-3489.165,5613.66
1764766981.5668828,9945.765,-6507.81,-40948.245,-20738.655,-15745.365,-32805.99,-3491.19,5612.219999999999
1764766981.5668828,9953.82,-6499.259999999999,-40940.235,-20729.97,-15736.86,-32796.135,-3483.54,5621.219999999999
1764766981.5668828,9956.97,-6495.344999999999,-40936.14,-20725.83,-15732.945,-32790.96,-3481.335,5623.38
1764766981.5668828,9960.57,-6491.384999999999,-40931.01,-20721.78,-15729.12,-32785.515,-3476.97,5627.61
1764766981.5668828,9965.205,-6485.804999999999,-40925.25,-20715.795,-15722.865,-32779.665,-3471.39,5633.054999999999
1764766981.5668828,9968.175,-6482.295,-40922.55,-20713.455,-15721.065,-32778.09,-3468.15,5635.755
1764766981.5668828,9952.785,-6497.955,-40937.265,-20728.35,-15736.185,-32792.85,-3481.83,5620.5
1764766981.5668828,9959.535,-6491.474999999999,-40931.595,-20722.23,-15728.535,-32783.67,-3473.91,5628.105
1764766981.5668828,9966.6,-6483.96,-40925.88,-20717.595,-15722.01,-32775.39,-3467.205,5636.52
1764766981.6131675,9958.455,-6493.59,-40934.295,-20723.625,-15727.635,-32782.32,-3475.665,5626.844999999999
1764766981.6131675,9964.935,-6485.219999999999,-40925.115,-20716.2,-15724.53,-32782.59,-3472.11,5633.685
1764766981.6131675,9958.14,-6493.365,-40933.935,-20727.0,-15736.365,-32793.119999999995,-3479.085,5625.719999999999
1764766981.6131675,9954.855,-6497.235,-40936.41,-20727.72,-15734.07,-32790.33,-3479.985,5622.435
1764766981.6131675,9966.645,-6484.41,-40924.125,-20714.265,-15721.38,-32778.045,-3469.32,5634.045
1764766981.6131675,9967.365,-6483.509999999999,-40923.18,-20713.905,-15721.245,-32777.865,-3467.295,5634.99
1764766981.6131675,9980.01,-6470.054999999999,-40909.455,-20700.72,-15708.105,-32764.86,-3455.28,5648.535
1764766981.6131675,9974.88,-6475.275,-40915.395,-20706.165,-15712.515,-32770.17,-3460.05,5643.405
1764766981.6131675,9963.585,-6487.38,-40927.185,-20717.955,-15724.125,-32781.195,-3469.59,5632.56
1764766981.6131675,9963.27,-6487.245,-40927.32,-20719.755,-15725.79,-32782.95,-3469.905,5632.56
1764766981.6131675,9973.53,-6475.094999999999,-40916.79,-20709.54,-15715.53,-32773.32,-3460.275,5644.215
1764766981.6131675,9970.155,-6479.73,-40920.075,-20711.79,-15717.915,-32775.615,-3463.155,5640.3
1764766981.6131675,9962.37,-6488.82,-40928.715,-20719.89,-15725.88,-32783.04,-3470.67,5631.21
1764766981.6131675,9970.605,-6480.134999999999,-40920.165,-20709.99,-15716.43,-32773.59,-3463.47,5639.13
1764766981.6131675,9972.36,-6477.84,-40918.275,-20707.965,-15715.575,-32772.51,-3462.435,5640.48
1764766981.6131675,9971.01,-6477.705,-40918.14,-20709.495,-15717.33,-32774.805,-3463.965,5638.995
1764766981.6131675,9970.56,-6478.695,-40920.345,-20710.305,-15716.565,-32773.23,-3460.995,5640.389999999999
1764766981.6131675,9956.16,-6495.435,-40934.79,-20724.39,-15730.605,-32788.44,-3474.405,5625.495
1764766981.6131675,9958.095,-6491.115,-40929.75,-20719.935,-15726.645,-32784.57,-3473.46,5627.969999999999
1764766981.6131675,9955.71,-6492.87,-40932.945,-20723.895,-15730.65,-32788.215,-3474.315,5626.485
1764766981.6131675,9961.02,-6486.389999999999,-40926.24,-20717.145,-15723.315,-32781.375,-3469.59,5631.525
1764766981.6131675,9953.37,-6495.705,-40935.375,-20726.19,-15731.91,-32789.16,-3475.845,5623.56
1764766981.6131675,9952.335,-6497.865,-40936.77,-20728.395,-15733.755,-32791.005,-3478.905,5620.86
1764766981.6131675,9957.645,-6492.42,-40932.09,-20723.805,-15729.84,-32786.82,-3475.35,5626.62
1764766981.6636162,9959.4,-6490.844999999999,-40930.695,-20722.41,-15728.49,-32784.795,-3474.81,5627.79
1764766981.6636162,9962.145,-6487.605,-40927.005,-20718.855,-15725.025,-32780.655,-3471.93,5629.635
1764766981.6636162,9961.155,-6488.594999999999,-40928.13,-20720.52,-15726.51,-32781.42,-3472.92,5629.635
1764766981.6636162,9946.26,-6504.03,-40942.62,-20735.055,-15741.54,-32796.494999999995,-3486.105,5614.785
1764766981.6636162,9940.905,-6509.025,-40947.885,-20740.995,-15747.57,-32802.3,-3491.145,5609.835
1764766981.6636162,9941.355,-6507.855,-40946.085,-20740.23,-15746.13,-32800.905,-3490.29,5611.32
1764766981.6636162,9945.36,-6504.03,-40942.71,-20736.99,-15742.665,-32797.395,-3486.42,5615.37
1764766981.6636162,9953.325,-6495.48,-40934.34,-20728.125,-15733.44,-32788.305,-3479.085,5623.605
1764766981.6636162,9954.135,-6494.985,-40934.34,-20728.215,-15733.71,-32788.125,-3478.68,5624.55
1764766981.6636162,9949.68,-6499.53,-40936.95,-20732.04,-15737.895,-32793.075,-3482.685,5619.645
1764766981.6636162,9961.065,-6486.705,-40923.45,-20718.945,-15724.755,-32780.205,-3471.75,5632.11
1764766981.6636162,9959.31,-6486.884999999999,-40925.295,-20721.69,-15728.715,-32784.119999999995,-3473.955,5628.825
1764766981.6636162,9967.77,-6479.145,-40919.13,-20714.67,-15719.76,-32774.805,-3465.9,5637.33
1764766981.6636162,9958.815,-6491.34,-40930.47,-20724.39,-15727.995,-32783.445,-3472.245,5629.455
1764766981.6636162,9961.605,-6487.245,-40923.18,-20717.19,-15721.47,-32776.965,-3468.6,5634.045
1764766981.6636162,9956.835,-6490.53,-40927.68,-20722.005,-15726.24,-32780.97,-3470.985,5629.005
1764766981.6636162,9957.645,-6488.19,-40924.08,-20719.215,-15722.28,-32778.45,-3468.42,5630.49
1764766981.6636162,9963.72,-6481.935,-40919.265,-20715.48,-15717.87,-32773.455,-3462.75,5637.014999999999
1764766981.6636162,9980.37,-6464.79,-40901.31,-20697.48,-15698.565,-32754.465,-3447.18,5653.8
1764766981.6636162,9975.285,-6470.505,-40907.025,-20704.005,-15704.19,-32759.19,-3451.005,5647.905
1764766981.6636162,9980.28,-6465.509999999999,-40902.84,-20700.54,-15700.365,-32754.195,-3448.125,5652.45
1764766981.6636162,9975.105,-6470.145,-40909.005,-20706.525,-15705.27,-32758.38,-3451.005,5648.04
1764766981.6636162,9988.155,-6459.615,-40897.8,-20691.765,-15689.115,-32741.46,-3436.83,5663.429999999999
1764766981.6636162,9987.975,-6456.69,-40890.78,-20689.02,-15690.735,-32745.87,-3440.205,5661.54
1764766981.7071178,9989.37,-6452.145,-40888.665,-20688.885,-15691.05,-32746.23,-3439.665,5662.8
1764766981.7071178,9988.92,-6453.764999999999,-40891.23,-20689.74,-15690.555,-32744.43,-3437.91,5664.24
1764766981.7071178,9983.97,-6458.219999999999,-40894.74,-20692.395,-15693.21,-32748.435,-3442.05,5660.55
1764766981.7071178,9980.64,-6461.415,-40897.44,-20696.04,-15697.08,-32752.755,-3447.405,5655.78
1764766981.7071178,9978.525,-6464.7,-40902.03,-20701.44,-15701.175,-32755.68,-3449.295,5653.98
1764766981.7071178,9977.85,-6464.835,-40902.435,-20700.855,-15701.355,-32755.23,-3448.665,5654.07
1764766981.7071178,9976.275,-6466.634999999999,-40903.02,-20700.81,-15700.905,-32754.33,-3451.635,5651.46
1764766981.7071178,9975.42,-6467.31,-40903.155,-20701.575,-15702.12,-32755.68,-3452.67,5650.155
1764766981.7071178,9977.85,-6465.915,-40901.94,-20700.405,-15699.51,-32752.53,-3447.54,5653.44
1764766981.7071178,9964.44,-6479.685,-40915.125,-20713.095,-15712.965,-32766.705,-3460.815,5638.86
1764766981.7071178,9974.61,-6468.165,-40903.515,-20701.755,-15701.49,-32755.32,-3451.905,5649.974999999999
1764766981.7071178,9977.355,-6465.285,-40899.69,-20697.345,-15695.955,-32750.145,-3446.73,5653.665
1764766981.7071178,9967.995,-6474.645,-40909.635,-20706.795,-15705.855,-32759.235,-3454.02,5643.855
1764766981.7071178,9964.755,-6478.92,-40915.53,-20712.465,-15711.975,-32764.545,-3458.565,5640.48
1764766981.7071178,9964.935,-6479.505,-40914.945,-20711.745,-15710.67,-32763.735,-3459.6,5640.84
1764766981.7071178,9974.295,-6469.695,-40905.315,-20702.745,-15700.095,-32753.295,-3451.005,5650.38
1764766981.7071178,9977.625,-6466.59,-40902.255,-20699.46,-15696.9,-32750.46,-3448.305,5652.63
1764766981.7071178,9978.93,-6463.889999999999,-40898.385,-20695.275,-15694.065,-32747.13,-3445.74,5654.969999999999
1764766981.7071178,9980.01,-6463.215,-40897.755,-20694.825,-15692.265,-32744.34,-3443.67,5656.41
1764766981.7071178,9976.095,-6465.78,-40900.995,-20698.245,-15695.1,-32747.49,-3447.27,5653.53
1764766981.7071178,9976.86,-6463.935,-40899.69,-20696.58,-15693.705,-32746.995,-3446.235,5655.33
1764766981.7071178,9977.895,-6462.45,-40899.015,-20695.545,-15692.49,-32744.97,-3444.3,5657.085
1764766981.7530088,9977.085,-6464.7,-40901.76,-20698.92,-15694.515,-32745.24,-3444.03,5656.679999999999
1764766981.7530088,9965.385,-6479.28,-40915.215,-20711.205,-15707.07,-32758.515,-3455.865,5643.945
1764766981.7530088,9967.095,-6475.5,-40909.095,-20704.905,-15703.965,-32759.955,-3457.755,5643.9
1764766981.7530088,9961.335,-6481.62,-40913.73,-20709.9,-15708.285,-32764.14,-3463.65,5636.025
1764766981.7541876,9970.11,-6473.79,-40906.665,-20702.25,-15699.555,-32753.88,-3455.145,5645.295
1764766981.7541876,9969.075,-6475.365,-40907.835,-20703.015,-15700.545,-32754.96,-3455.1,5644.665
1764766981.7541876,9979.29,-6463.665,-40896.585,-20691.81,-15689.295,-32743.71,-3444.48,5656.094999999999
1764766981.7541876,9968.76,-6474.42,-40907.79,-20703.06,-15700.545,-32756.13,-3454.02,5645.88
1764766981.7541876,9970.605,-6470.91,-40904.595,-20700.405,-15698.565,-32754.825,-3453.705,5647.41
1764766981.7541876,9979.38,-6460.83,-40894.47,-20690.325,-15687.405,-32743.62,-3444.705,5657.4
1764766981.7541876,9980.955,-6459.48,-40893.03,-20689.245,-15685.155,-32740.695,-3442.545,5659.02
1764766981.7541876,9982.755,-6457.724999999999,-40891.005,-20686.815,-15682.545,-32738.13,-3440.835,5660.325
1764766981.7541876,9980.46,-6460.155,-40894.155,-20691.045,-15687.045,-32743.665,-3444.165,5657.355
1764766981.7541876,9967.905,-6473.7,-40907.115,-20703.915,-15699.645,-32756.985,-3455.28,5644.17
1764766981.7541876,9966.735,-6473.969999999999,-40907.115,-20703.195,-15698.88,-32755.005,-3456.405,5643.855
1764766981.7541876,9976.86,-6463.17,-40896.27,-20691.495,-15687.135,-32743.53,-3445.965,5654.7
1764766981.7541876,9983.34,-6455.565,-40889.205,-20684.565,-15680.52,-32737.365,-3439.08,5661.99
1764766981.7541876,9984.285,-6454.485,-40888.845,-20684.88,-15680.88,-32737.905,-3438.045,5663.25
1764766981.7541876,9984.645,-6454.17,-40887.72,-20683.26,-15678.675,-32736.51,-3437.055,5662.844999999999
1764766981.7550404,9981.135,-6457.32,-40890.015,-20685.645,-15681.24,-32739.57,-3440.385,5659.695
1764766981.7550404,9973.305,-6467.219999999999,-40899.915,-20695.815,-15691.455,-32747.94,-3445.065,5653.485
1764766981.7550404,9969.57,-6471.179999999999,-40903.695,-20699.145,-15695.055,-32752.845,-3449.295,5649.435
1764766981.7550404,9969.03,-6472.08,-40903.875,-20699.595,-15695.73,-32754.825,-3451.32,5648.31
1764766981.7550404,9972.045,-6468.974999999999,-40900.14,-20696.22,-15692.445,-32751.045,-3449.295,5650.155
1764766981.8011096,9980.64,-6460.965,-40891.95,-20688.57,-15683.67,-32741.64,-3441.645,5658.75
1764766981.8011096,9974.745,-6467.355,-40897.935,-20694.825,-15689.745,-32747.445,-3446.73,5652.495
1764766981.8011096,9981.765,-6457.995,-40889.34,-20685.24,-15680.97,-32740.065,-3438.945,5660.91
1764766981.8011096,9973.755,-6466.05,-40897.35,-20692.935,-15688.98,-32747.985,-3445.965,5653.304999999999
1764766981.8011096,9978.255,-6460.605,-40892.04,-20687.445,-15682.68,-32741.955,-3441.33,5658.974999999999
1764766981.8011096,9971.64,-6467.264999999999,-40899.105,-20694.105,-15688.935,-32748.66,-3446.235,5652.63
1764766981.8011096,9971.64,-6467.355,-40898.52,-20693.88,-15689.205,-32747.67,-3445.56,5652.855
1764766981.8011096,9980.775,-6457.23,-40888.125,-20683.575,-15678.675,-32737.23,-3437.82,5662.53
1764766981.8011096,9976.5,-6462.585,-40893.57,-20688.48,-15683.22,-32741.19,-3441.33,5657.13
1764766981.8011096,9981.72,-6458.355,-40889.295,-20683.89,-15679.89,-32737.815,-3438.36,5662.125
1764766981.8011096,9979.2,-6460.83,-40891.68,-20686.77,-15682.995,-32741.235,-3442.68,5658.435
1764766981.8011096,9969.84,-6469.245,-40900.815,-20697.705,-15694.065,-32751.675,-3450.915,5647.724999999999
1764766981.8011096,9978.435,-6459.165,-40891.545,-20688.615,-15685.245,-32741.865,-3441.645,5657.58
1764766981.8011096,9966.42,-6473.115,-40905.81,-20700.495,-15695.46,-32751.9,-3451.23,5646.825
1764766981.8011096,9970.11,-6468.795,-40899.105,-20694.24,-15689.61,-32747.94,-3448.08,5651.37
1764766981.8011096,9963.855,-6473.88,-40903.695,-20699.415,-15695.64,-32755.05,-3453.03,5644.395
1764766981.8011096,9969.165,-6468.75,-40898.835,-20695.59,-15692.04,-32751.18,-3449.115,5649.66
1764766981.8011096,9962.505,-6476.445,-40907.16,-20704.59,-15701.67,-32760.72,-3457.08,5641.469999999999
1764766981.8011096,9968.805,-6469.425,-40901.985,-20699.37,-15697.62,-32756.355,-3452.355,5648.76
1764766981.8011096,9967.815,-6470.28,-40901.4,-20697.435,-15694.29,-32752.98,-3450.645,5649.255
1764766981.8021154,9964.35,-6474.375,-40905.72,-20700.99,-15696.99,-32756.535,-3455.37,5643.764999999999
1764766981.8021154,9961.11,-6477.389999999999,-40909.59,-20705.31,-15700.59,-32760.18,-3457.98,5639.58
1764766981.8021154,9973.845,-6463.755,-40896.315,-20691.225,-15686.775,-32746.14,-3445.965,5653.62
1764766981.8021154,9974.07,-6463.304999999999,-40895.28,-20690.865,-15685.605,-32745.105,-3445.245,5654.16
1764766981.8467753,9973.89,-6462.315,-40894.965,-20690.145,-15684.165,-32742.945,-3443.49,5655.735
1764766981.8467753,9973.575,-6462.764999999999,-40895.73,-20689.92,-15684.21,-32743.395,-3442.41,5656.724999999999
1764766981.8467753,9963.81,-6472.44,-40903.83,-20698.875,-15694.2,-32756.13,-3452.445,5645.474999999999
1764766981.8467753,9958.725,-6478.245,-40909.14,-20704.545,-15699.78,-32761.44,-3458.61,5639.535
1764766981.8467753,9958.185,-6479.865,-40910.985,-20706.93,-15701.895,-32763.6,-3460.68,5637.645
1764766981.8467753,9954.18,-6484.365,-40915.98,-20711.61,-15706.215,-32767.29,-3465.09,5633.594999999999
1764766981.8467753,9952.29,-6485.625,-40917.33,-20712.78,-15708.78,-32768.369999999995,-3467.25,5631.66
1764766981.8467753,9959.805,-6477.12,-40908.465,-20703.87,-15700.095,-32759.28,-3458.97,5639.49
1764766981.8467753,9974.97,-6460.92,-40892.31,-20687.58,-15683.445,-32742.045,-3443.625,5656.86
1764766981.8467753,9973.035,-6463.53,-40896.495,-20692.755,-15687.225,-32746.095,-3445.965,5655.195
1764766981.8483596,9969.03,-6465.42,-40898.07,-20694.69,-15686.82,-32746.905,-3448.305,5652.585
1764766981.8483596,9960.885,-6477.389999999999,-40909.815,-20702.61,-15693.39,-32752.755,-3454.29,5644.935
1764766981.8483596,9960.705,-6475.41,-40905.315,-20701.53,-15697.44,-32758.38,-3458.295,5642.37
1764766981.8483596,9964.62,-6468.705,-40899.465,-20697.525,-15694.11,-32755.275,-3455.19,5645.88
1764766981.8483596,9975.915,-6457.95,-40889.97,-20686.095,-15680.835,-32741.46,-3444.345,5658.344999999999
1764766981.8483596,9976.77,-6457.455,-40889.88,-20685.51,-15679.08,-32739.39,-3442.365,5659.38
1764766981.8483596,9968.715,-6465.69,-40897.305,-20692.98,-15687.27,-32747.94,-3450.555,5649.929999999999
1764766981.8483596,9979.245,-6454.71,-40885.56,-20680.605,-15675.075,-32734.575,-3438.855,5662.26
1764766981.8483596,9979.02,-6455.52,-40885.74,-20679.93,-15673.185,-32732.595,-3438.27,5662.304999999999
1764766981.8483596,9968.985,-6464.88,-40895.19,-20689.695,-15682.32,-32741.955,-3448.44,5651.955
1764766981.8483596,9959.94,-6474.06,-40903.74,-20697.345,-15690.645,-32750.55,-3455.82,5643.0
1764766981.8483596,9960.165,-6473.969999999999,-40903.47,-20696.265,-15688.98,-32749.47,-3455.415,5642.775
1764766981.8483596,9969.3,-6465.105,-40893.93,-20687.22,-15679.395,-32739.705,-3448.53,5651.01
1764766981.8483596,9963.405,-6471.045,-40899.465,-20692.125,-15683.625,-32744.655,-3452.85,5645.655
1764766981.895099,9968.355,-6465.96,-40895.055,-20688.48,-15679.665,-32738.805,-3447.9,5651.054999999999
1764766981.895099,9962.46,-6473.07,-40903.695,-20697.48,-15687.585,-32744.205,-3452.58,5644.665
1764766981.895099,9959.355,-6477.525,-40906.44,-20698.02,-15687.18,-32744.43,-3455.28,5642.01
1764766981.895099,9961.875,-6472.304999999999,-40899.42,-20691.495,-15684.615,-32747.355,-3456.09,5642.55
1764766981.895099,9975.195,-6457.455,-40886.1,-20678.67,-15672.96,-32734.98,-3444.48,5656.545
1764766981.895099,9974.79,-6457.995,-40885.29,-20675.925,-15668.28,-32728.68,-3442.275,5656.41
1764766981.895099,9966.78,-6465.735,-40891.545,-20681.37,-15673.275,-32734.08,-3447.945,5648.625
1764766981.895099,9972.405,-6459.705,-40886.415,-20675.79,-15668.775,-32728.68,-3441.555,5655.735
1764766981.895099,9964.53,-6467.67,-40894.38,-20684.025,-15677.595,-32737.365,-3449.025,5646.87
1764766981.895099,9962.505,-6468.48,-40894.83,-20684.295,-15677.37,-32737.905,-3450.465,5645.52
1764766981.895099,9971.955,-6460.2,-40887.09,-20676.465,-15669.225,-32729.985,-3444.48,5654.7
1764766981.895099,9970.83,-6463.53,-40889.745,-20679.525,-15672.33,-32732.415,-3447.99,5651.37
1764766981.895099,9970.875,-6461.865,-40888.305,-20678.985,-15673.185,-32732.505,-3448.485,5650.065
1764766981.895099,9971.055,-6459.075,-40887.18,-20678.805,-15673.005,-32732.46,-3447.54,5651.054999999999
1764766981.895099,9973.08,-6459.795,-40888.575,-20676.915,-15669.45,-32728.905,-3442.905,5655.465
1764766981.895099,9960.435,-6474.33,-40897.62,-20686.005,-15679.215,-32739.795,-3453.21,5642.775
1764766981.895099,9959.715,-6473.79,-40897.755,-20686.23,-15680.07,-32740.83,-3453.795,5641.83
1764766981.895099,9962.91,-6469.245,-40894.425,-20683.125,-15677.46,-32737.455,-3450.42,5645.295
1764766981.895099,9971.865,-6459.165,-40884.84,-20673.765,-15667.47,-32728.32,-3441.645,5655.24
1764766981.895099,9965.61,-6464.7,-40890.33,-20679.75,-15673.905,-32734.98,-3447.72,5648.895
1764766981.895099,9968.4,-6461.91,-40887.81,-20676.42,-15671.205,-32732.1,-3446.19,5651.28
1764766981.895099,9962.865,-6468.389999999999,-40893.795,-20683.08,-15678.225,-32738.085,-3449.88,5644.575
1764766981.9424045,9969.66,-6461.054999999999,-40885.83,-20675.16,-15669.855,-32729.58,-3442.815,5652.36
1764766981.9424045,9962.955,-6468.165,-40894.695,-20684.655,-15679.395,-32738.85,-3449.745,5645.655
1764766981.9424045,9969.975,-6460.065,-40887.54,-20677.455,-15672.825,-32732.505,-3444.12,5652.81
1764766981.9424045,9958.5,-6471.675,-40898.025,-20687.76,-15682.14,-32742.495,-3453.075,5641.695
1764766981.9424045,9962.685,-6466.23,-40890.6,-20679.795,-15672.24,-32732.505,-3447.09,5647.275
1764766981.9424045,9960.21,-6469.92,-40895.28,-20686.14,-15679.395,-32739.12,-3448.53,5644.889999999999
1764766981.9424045,9961.92,-6468.21,-40893.12,-20683.35,-15677.055,-32736.645,-3447.18,5646.87
1764766981.9424045,9970.56,-6458.445,-40882.59,-20673.495,-15666.03,-32726.565,-3439.98,5655.78
1764766981.9424045,9973.755,-6455.52,-40880.52,-20671.38,-15664.32,-32724.36,-3437.28,5658.344999999999
1764766981.9424045,9971.28,-6458.94,-40884.12,-20674.575,-15668.1,-32728.77,-3440.07,5655.554999999999
1764766981.9424045,9961.245,-6469.965,-40895.415,-20686.365,-15680.205,-32740.92,-3451.095,5643.54
1764766981.9424045,9961.605,-6468.03,-40892.265,-20683.17,-15675.93,-32737.23,-3448.845,5644.395
1764766981.9424045,9974.34,-6454.62,-40879.215,-20669.445,-15661.305,-32722.515,-3434.355,5659.92
1764766981.9424045,9967.185,-6461.955,-40885.92,-20676.465,-15669.405,-32730.66,-3442.14,5652.63
1764766981.9424045,9977.31,-6450.615,-40874.715,-20665.08,-15658.245,-32720.265,-3433.365,5663.16
1764766981.9424045,9979.605,-6447.195,-40870.53,-20661.345,-15655.005,-32718.555,-3430.53,5666.085
1764766981.9424045,9976.455,-6451.74,-40874.715,-20665.98,-15659.145,-32722.875,-3432.465,5662.755
1764766981.9424045,9964.44,-6464.07,-40887.27,-20678.085,-15671.25,-32734.71,-3443.355,5650.38
1764766981.9424045,9964.44,-6463.8,-40887.36,-20678.445,-15670.485,-32733.765,-3444.615,5649.165
1764766981.9434135,9970.695,-6456.87,-40881.015,-20672.865,-15665.67,-32727.33,-3439.845,5655.78
1764766981.9434135,9964.53,-6463.215,-40887.18,-20679.165,-15671.565,-32733.675,-3444.57,5649.929999999999
1764766981.9434135,9971.46,-6456.96,-40879.845,-20671.605,-15662.79,-32724.855,-3439.17,5655.645
1764766981.9434135,9974.565,-6452.91,-40875.84,-20668.23,-15658.74,-32720.49,-3434.94,5659.02
1764766981.9434135,9962.1,-6466.32,-40889.52,-20679.795,-15670.62,-32732.145,-3443.94,5647.905
1764766981.988462,9966.87,-6459.48,-40881.555,-20671.92,-15665.265,-32728.365,-3440.88,5652.945
1764766981.988462,9961.65,-6465.69,-40887.855,-20678.355,-15671.565,-32734.8,-3445.155,5647.094999999999
1764766981.988462,9959.22,-6468.389999999999,-40890.87,-20681.145,-15673.095,-32737.185,-3447.045,5645.205
1764766981.988462,9958.545,-6469.2,-40891.05,-20680.47,-15671.97,-32736.24,-3447.315,5644.485
1764766981.988462,9962.55,-6466.139999999999,-40888.98,-20678.58,-15671.115,-32736.24,-3445.38,5647.59
1764766981.988462,9960.93,-6465.599999999999,-40888.035,-20678.355,-15672.15,-32736.78,-3447.27,5645.79
1764766981.988462,9966.42,-6459.525,-40882.455,-20670.48,-15664.05,-32727.69,-3442.545,5651.955
1764766981.988462,9975.105,-6454.304999999999,-40875.48,-20661.165,-15653.835,-32716.98,-3432.735,5661.675
1764766981.988462,9976.995,-6451.469999999999,-40871.16,-20658.24,-15652.17,-32716.395,-3431.745,5663.295
1764766981.988462,9962.82,-6464.205,-40884.705,-20672.055,-15666.3,-32730.84,-3444.435,5649.12
1764766981.988462,9961.56,-6464.52,-40885.38,-20672.1,-15666.39,-32731.695,-3445.515,5648.49
1764766981.988462,9972.81,-6452.82,-40873.86,-20661.03,-15655.365,-32721.165,-3435.255,5660.685
1764766981.988462,9975.825,-6449.219999999999,-40872.645,-20661.03,-15654.87,-32718.015,-3430.89,5664.06
1764766981.988462,9966.42,-6460.514999999999,-40884.93,-20670.93,-15661.53,-32722.92,-3437.73,5654.429999999999
1764766981.988462,9974.97,-6455.295,-40876.47,-20658.06,-15649.11,-32710.95,-3429.18,5664.645
1764766981.988462,9977.67,-6446.565,-40865.31,-20650.455,-15650.46,-32717.61,-3432.96,5663.07
1764766981.988462,9969.21,-6455.07,-40875.75,-20659.905,-15660.675,-32727.87,-3442.32,5653.44
1764766981.988462,9974.835,-6450.525,-40872.24,-20654.955,-15653.565,-32719.05,-3435.57,5661.36
1764766981.988462,9975.87,-6449.535,-40871.565,-20653.515,-15651.63,-32716.665,-3433.59,5662.935
1764766981.988462,9965.385,-6459.615,-40882.095,-20663.325,-15661.44,-32725.575,-3441.78,5653.844999999999
1764766981.9889102,9953.955,-6470.235,-40892.805,-20673.765,-15672.24,-32736.645,-3450.825,5643.45
1764766981.9889102,9953.595,-6469.425,-40891.365,-20672.28,-15671.025,-32736.375,-3450.87,5643.315
1764766982.032644,9963.36,-6458.58,-40880.745,-20662.11,-15661.305,-32727.465,-3442.275,5652.855
1764766982.032644,9958.005,-6464.429999999999,-40886.955,-20668.32,-15667.695,-32734.08,-3445.965,5647.455
1764766982.032644,9954.045,-6469.56,-40892.04,-20673.0,-15672.195,-32737.815,-3450.15,5642.685
1764766982.032644,9953.505,-6470.19,-40892.13,-20672.01,-15672.06,-32736.78,-3451.815,5641.38
1764766982.032644,9956.34,-6467.13,-40888.98,-20668.59,-15670.485,-32734.26,-3449.79,5643.675
1764766982.032644,9965.025,-6458.355,-40879.89,-20659.23,-15660.495,-32724.63,-3441.015,5653.71
1764766982.032644,9966.645,-6456.24,-40877.415,-20655.405,-15656.49,-32720.76,-3438.27,5656.139999999999
1764766982.032644,9962.91,-6459.255,-40880.295,-20658.78,-15660.99,-32724.765,-3441.33,5652.945
1764766982.032644,9962.55,-6459.03,-40879.305,-20658.555,-15659.91,-32723.865,-3440.34,5653.395
1764766982.032644,9954.72,-6467.355,-40887.27,-20667.015,-15668.595,-32733.495,-3448.305,5645.025
1764766982.033651,9954.585,-6467.67,-40888.44,-20667.15,-15668.865,-32734.485,-3447.765,5645.295
1764766982.033651,9953.865,-6468.075,-40889.205,-20666.655,-15667.965,-32734.53,-3447.765,5644.844999999999
1764766982.033651,9956.07,-6466.094999999999,-40887.09,-20664.36,-15665.985,-32732.145,-3446.19,5645.925
1764766982.033651,9959.985,-6462.27,-40882.5,-20659.995,-15661.98,-32727.825,-3441.735,5649.929999999999
1764766982.033651,9965.295,-6457.23,-40877.64,-20655.99,-15657.39,-32723.91,-3437.73,5654.969999999999
1764766982.033651,9978.435,-6442.92,-40864.005,-20642.04,-15643.665,-32710.77,-3425.535,5668.92
1764766982.033651,9985.995,-6434.955,-40857.345,-20634.12,-15635.115,-32701.905,-3417.12,5677.605
1764766982.033651,9978.3,-6442.514999999999,-40863.51,-20639.79,-15639.615,-32706.63,-3424.365,5669.685
1764766982.033651,9966.96,-6453.764999999999,-40874.04,-20650.095,-15650.415,-32717.43,-3433.68,5658.165
1764766982.033651,9968.805,-6450.165,-40871.43,-20648.025,-15648.795,-32715.765,-3431.43,5660.955
1764766982.033651,9973.26,-6446.07,-40868.28,-20644.155,-15644.61,-32711.85,-3426.12,5666.49
1764766982.033651,9975.96,-6442.469999999999,-40864.77,-20640.69,-15641.145,-32708.475,-3423.195,5670.585
1764766982.033651,9985.995,-6431.895,-40854.42,-20630.565,-15631.47,-32698.035,-3415.05,5679.855
1764766982.033651,9979.92,-6440.13,-40861.98,-20638.71,-15639.525,-32705.865,-3421.08,5672.07
1764766982.080925,9978.66,-6441.21,-40862.07,-20638.125,-15638.805,-32704.74,-3422.88,5670.81
1764766982.080925,9988.65,-6430.185,-40851.54,-20627.055,-15627.645,-32693.445,-3413.565,5681.474999999999
1764766982.080925,9984.915,-6435.405,-40856.49,-20631.87,-15632.145,-32698.44,-3418.245,5677.335
1764766982.080925,9967.455,-6452.639999999999,-40874.535,-20649.24,-15649.83,-32715.315,-3433.365,5660.55
1764766982.080925,9966.96,-6452.325,-40874.085,-20648.7,-15649.2,-32715.27,-3433.5,5661.585
1764766982.080925,9974.07,-6444.495,-40865.805,-20640.15,-15642.27,-32709.285,-3427.11,5669.46
1764766982.0814629,9973.89,-6444.36,-40865.85,-20639.97,-15642.72,-32710.005,-3426.975,5669.099999999999
1764766982.0814629,9977.94,-6440.58,-40861.485,-20636.37,-15637.635,-32704.29,-3424.23,5672.429999999999
1764766982.0814629,9977.76,-6441.12,-40863.195,-20637.945,-15638.895,-32704.605,-3424.905,5672.16
1764766982.0814629,9979.695,-6438.33,-40860.63,-20634.84,-15637.68,-32702.67,-3422.7,5674.995
1764766982.0814629,9975.285,-6442.29,-40862.385,-20634.885,-15635.97,-32701.77,-3424.095,5671.935
1764766982.0814629,9969.705,-6448.455,-40869.63,-20643.12,-15643.755,-32708.88,-3429.495,5664.78
1764766982.0814629,9976.32,-6441.795,-40863.42,-20637.495,-15639.165,-32703.48,-3425.31,5671.395
1764766982.0814629,9969.3,-6448.86,-40868.505,-20642.355,-15645.195,-32710.23,-3432.195,5664.014999999999
1764766982.0814629,9961.2,-6456.285,-40877.01,-20650.095,-15653.52,-32718.195,-3437.73,5656.86
1764766982.0814629,9960.21,-6457.77,-40878.63,-20650.32,-15652.485,-32717.205,-3436.605,5656.679999999999
1764766982.0814629,9971.235,-6444.855,-40864.545,-20636.415,-15639.795,-32706.0,-3428.505,5668.155
1764766982.0814629,9970.83,-6444.945,-40865.67,-20638.08,-15642.36,-32708.79,-3430.17,5666.31
1764766982.0814629,9962.865,-6455.205,-40876.2,-20648.34,-15652.53,-32719.365,-3437.595,5656.86
1764766982.0814629,9971.325,-6445.844999999999,-40866.93,-20638.08,-15643.44,-32710.5,-3430.8,5665.23
1764766982.0814629,9974.52,-6442.335,-40863.465,-20634.39,-15639.66,-32706.045,-3426.705,5669.505
1764766982.0814629,9979.92,-6436.304999999999,-40856.67,-20627.055,-15630.705,-32696.64,-3419.325,5676.255
1764766982.0814629,9984.33,-6430.455,-40852.89,-20622.69,-15626.565,-32692.32,-3413.385,5680.844999999999
1764766982.0814629,9972.225,-6441.48,-40865.445,-20636.01,-15640.965,-32706.405,-3424.14,5668.38
1764766982.1267853,9970.335,-6442.56,-40865.76,-20636.595,-15642.09,-32708.385,-3426.435,5666.67
1764766982.1267853,9975.825,-6438.554999999999,-40860.72,-20629.17,-15631.74,-32698.44,-3420.99,5673.014999999999
1764766982.1267853,9973.98,-6442.245,-40862.52,-20631.195,-15634.575,-32701.455,-3423.915,5670.179999999999
1764766982.1267853,9964.71,-6451.245,-40874.085,-20645.01,-15648.39,-32713.29,-3432.105,5660.37
1764766982.1267853,9969.795,-6446.655,-40869.855,-20639.52,-15642.09,-32706.045,-3426.75,5666.04
1764766982.1267853,9969.57,-6445.755,-40866.39,-20634.75,-15640.425,-32707.44,-3428.505,5664.87
1764766982.1267853,9971.01,-6442.74,-40862.205,-20632.32,-15640.65,-32709.645,-3429.63,5664.645
1764766982.1267853,9970.65,-6443.82,-40865.31,-20634.345,-15639.93,-32707.395,-3427.38,5665.41
1764766982.1267853,9970.515,-6441.57,-40864.635,-20635.29,-15641.82,-32708.43,-3428.82,5665.23
1764766982.1267853,9965.52,-6447.06,-40871.475,-20640.555,-15646.185,-32712.66,-3434.04,5660.594999999999
1764766982.1267853,9962.01,-6453.719999999999,-40877.55,-20644.245,-15648.12,-32713.515,-3435.795,5658.885
1764766982.1267853,9947.97,-6466.995,-40888.215,-20654.73,-15659.955,-32725.89,-3446.505,5645.61
1764766982.1267853,9944.955,-6472.8,-40894.29,-20658.465,-15661.71,-32727.06,-3447.81,5644.125
1764766982.1267853,9952.425,-6462.495,-40881.24,-20648.61,-15656.445,-32724.09,-3446.37,5648.895
1764766982.1267853,9947.475,-6466.005,-40886.55,-20654.73,-15663.915,-32731.605,-3451.815,5641.74
1764766982.1267853,9948.465,-6465.915,-40886.415,-20653.92,-15661.305,-32727.645,-3448.35,5644.08
1764766982.1267853,9955.395,-6458.49,-40878.72,-20646.27,-15652.8,-32718.465,-3442.32,5652.179999999999
1764766982.1267853,9958.68,-6455.52,-40875.84,-20643.48,-15650.055,-32715.495,-3439.44,5655.69
1764766982.1267853,9967.365,-6445.889999999999,-40866.525,-20634.03,-15640.245,-32705.55,-3429.315,5663.969999999999
1764766982.1267853,9964.98,-6447.915,-40868.19,-20635.92,-15641.595,-32706.405,-3431.385,5661.99
1764766982.1267853,9965.25,-6447.645,-40868.73,-20635.92,-15642.585,-32707.53,-3432.375,5662.349999999999
1764766982.1267853,9965.52,-6447.014999999999,-40867.515,-20633.85,-15640.11,-32706.0,-3431.295,5663.295
1764766982.1755817,9964.26,-6448.59,-40869.18,-20635.74,-15642.045,-32708.025,-3431.295,5663.025
1764766982.1755817,9955.215,-6458.58,-40879.755,-20646.99,-15653.295,-32719.41,-3440.835,5652.405
1764766982.1755817,9954.585,-6459.389999999999,-40881.105,-20647.71,-15653.43,-32719.995,-3442.14,5651.235
1764766982.1755817,9956.88,-6456.105,-40878.18,-20644.515,-15650.37,-32716.62,-3438.765,5654.385
1764766982.1755817,9956.16,-6457.23,-40877.955,-20643.615,-15649.38,-32715.405,-3439.215,5653.575
1764766982.1755817,9958.86,-6455.07,-40876.245,-20641.32,-15645.915,-32712.12,-3436.965,5656.59
1764766982.1755817,9975.465,-6437.07,-40858.83,-20623.365,-15627.015,-32693.13,-3420.99,5673.87
1764766982.1755817,9976.545,-6433.74,-40855.185,-20618.775,-15622.92,-32689.62,-3418.92,5675.67
1764766982.1755817,9977.31,-6433.695,-40855.005,-20619.765,-15623.595,-32689.44,-3417.435,5677.11
1764766982.1755817,9975.645,-6436.53,-40857.345,-20622.24,-15625.98,-32692.275,-3418.38,5675.985
1764766982.1755817,9973.17,-6439.455,-40860.585,-20625.435,-15630.39,-32696.64,-3421.215,5673.105
1764766982.1755817,9964.665,-6447.465,-40868.64,-20633.22,-15637.365,-32704.92,-3429.405,5663.565
1764766982.1755817,9965.25,-6447.24,-40868.19,-20633.22,-15637.32,-32703.795,-3427.965,5664.105
1764766982.1755817,9966.24,-6445.349999999999,-40866.345,-20630.25,-15634.665,-32701.095,-3425.94,5665.679999999999
1764766982.1755817,9968.67,-6442.469999999999,-40863.645,-20627.73,-15632.82,-32698.755,-3426.48,5665.95
1764766982.1755817,9978.705,-6432.929999999999,-40854.78,-20618.415,-15622.695,-32688.495,-3416.805,5677.11
1764766982.1755817,9984.195,-6427.53,-40850.37,-20614.005,-15617.925,-32683.995,-3411.495,5682.825
1764766982.1755817,9980.55,-6430.59,-40854.105,-20617.92,-15621.84,-32688.18,-3413.97,5679.495
1764766982.1755817,9969.885,-6441.165,-40862.115,-20624.715,-15626.925,-32693.625,-3421.215,5669.37
1764766982.1755817,9970.65,-6438.78,-40859.415,-20621.745,-15625.44,-32693.67,-3421.395,5669.955
1764766982.1755817,9980.46,-6429.78,-40851.225,-20612.7,-15616.53,-32685.345,-3412.08,5680.665
1764766982.1755817,9974.88,-6436.08,-40856.625,-20617.47,-15620.49,-32689.035,-3416.355,5674.05
1764766982.2182584,9975.195,-6434.55,-40854.825,-20616.705,-15621.84,-32689.44,-3417.705,5673.87
1764766982.2182584,9981.585,-6428.655,-40849.02,-20610.63,-15617.07,-32683.68,-3414.24,5679.0
1764766982.2182584,9983.205,-6428.52,-40847.895,-20609.595,-15616.215,-32682.87,-3413.97,5679.315
1764766982.2182584,9980.1,-6432.525,-40850.685,-20611.845,-15618.375,-32684.49,-3417.165,5676.21
1764766982.2182584,9975.96,-6435.9,-40854.555,-20616.03,-15622.02,-32688.945,-3420.855,5673.24
1764766982.2182584,9973.575,-6438.105,-40857.435,-20618.685,-15624.45,-32690.61,-3422.295,5671.53
1764766982.2187638,9975.375,-6435.719999999999,-40855.23,-20615.49,-15621.39,-32686.875,-3418.695,5674.59
1764766982.2187638,9973.26,-6437.655,-40856.94,-20618.37,-15624.135,-32689.845,-3420.315,5672.474999999999
1764766982.2187638,9970.02,-6441.84,-40862.565,-20625.39,-15630.3,-32693.49,-3423.87,5670.09
1764766982.2187638,9962.865,-6449.94,-40870.305,-20632.095,-15635.565,-32698.755,-3429.09,5662.17
1764766982.2187638,9970.83,-6440.759999999999,-40858.605,-20619.045,-15624.54,-32690.745,-3422.295,5669.82
1764766982.2187638,9977.895,-6430.815,-40848.165,-20610.315,-15618.51,-32687.505,-3417.03,5675.58
1764766982.2187638,9981.405,-6427.44,-40846.185,-20608.74,-15614.73,-32682.555,-3413.205,5679.675
1764766982.2187638,9982.485,-6426.315,-40844.7,-20606.535,-15612.21,-32680.395,-3411.81,5680.71
1764766982.2187638,9987.57,-6419.925,-40837.545,-20599.02,-15604.245,-32672.79,-3404.07,5687.91
1764766982.2187638,9988.74,-6419.115,-40836.06,-20598.12,-15602.22,-32670.27,-3400.83,5690.429999999999
1764766982.2187638,9993.645,-6414.344999999999,-40830.615,-20592.81,-15597.18,-32665.365,-3396.015,5694.66
1764766982.2187638,9997.245,-6409.98,-40825.215,-20588.805,-15592.32,-32661.045,-3392.19,5698.215
1764766982.2202816,9995.04,-6411.69,-40826.925,-20591.19,-15594.03,-32662.44,-3393.765,5696.955
1764766982.2202816,9985.635,-6421.815,-40836.915,-20602.89,-15605.19,-32672.745,-3402.855,5687.325
1764766982.2202816,9981.135,-6427.215,-40841.055,-20606.67,-15608.565,-32676.345,-3407.985,5681.295
1764766982.2211084,9981.945,-6428.115,-40841.955,-20607.48,-15608.25,-32674.815,-3407.49,5682.06
1764766982.2211084,9985.635,-6423.21,-40837.185,-20602.755,-15603.975,-32670.54,-3404.655,5686.38
1764766982.2211084,9997.56,-6410.115,-40824.315,-20590.02,-15590.745,-32657.4,-3394.26,5699.205
1764766982.2670462,9991.035,-6416.82,-40831.065,-20597.85,-15598.935,-32665.68,-3401.1,5691.96
1764766982.2670462,9971.1,-6434.865,-40848.21,-20615.445,-15617.655,-32685.165,-3419.1,5671.26
1764766982.2670462,9977.535,-6428.79,-40842.18,-20607.795,-15608.565,-32676.03,-3411.765,5679.36
1764766982.2670462,9983.745,-6423.615,-40836.42,-20602.035,-15602.76,-32669.64,-3403.44,5688.315
1764766982.2670462,9987.21,-6417.719999999999,-40830.525,-20598.39,-15600.06,-32667.885,-3400.605,5691.06
1764766982.2670462,9981.405,-6427.08,-40840.83,-20604.735,-15603.795,-32671.035,-3404.385,5684.76
1764766982.2670462,9989.145,-6419.295,-40829.715,-20594.475,-15597.72,-32665.5,-3399.93,5690.88
1764766982.2670462,9991.08,-6413.355,-40825.305,-20592.945,-15598.215,-32665.905,-3399.48,5692.185
1764766982.2670462,9990.135,-6416.28,-40829.76,-20596.14,-15600.375,-32666.49,-3399.255,5691.375
1764766982.2670462,9981.45,-6425.009999999999,-40836.51,-20602.71,-15604.92,-32672.115,-3406.995,5682.51
1764766982.2670462,9990.495,-6414.974999999999,-40826.475,-20591.505,-15592.905,-32660.82,-3397.365,5693.4
1764766982.2670462,9987.615,-6417.495,-40829.805,-20594.79,-15596.46,-32664.42,-3399.885,5691.87
1764766982.2670462,9987.12,-6418.08,-40831.065,-20596.68,-15597.765,-32666.58,-3400.875,5692.41
1764766982.2670462,9988.875,-6415.335,-40828.455,-20593.845,-15594.03,-32664.6,-3398.04,5694.48
1764766982.2670462,9989.73,-6414.705,-40827.195,-20593.44,-15593.355,-32663.61,-3397.545,5694.929999999999
1764766982.2670462,9986.175,-6418.575,-40831.74,-20598.165,-15597.945,-32667.93,-3401.64,5690.565
1764766982.2670462,9981.18,-6423.525,-40837.32,-20604.015,-15604.605,-32673.78,-3407.67,5684.31
1764766982.2670462,9974.07,-6431.715,-40844.07,-20611.89,-15613.695,-32682.69,-3415.41,5674.995
1764766982.2670462,9980.415,-6424.469999999999,-40837.635,-20606.58,-15607.89,-32676.435,-3411.495,5681.07
1764766982.2670462,9976.815,-6431.67,-40844.565,-20611.845,-15611.265,-32678.955,-3413.52,5677.92
1764766982.2670462,9979.785,-6430.23,-40837.14,-20605.545,-15606.315,-32674.77,-3411.855,5680.935
1764766982.2670462,9972.63,-6435.81,-40843.44,-20612.34,-15612.345,-32681.43,-3418.605,5673.645
1764766982.2670462,9962.055,-6445.485,-40853.115,-20622.24,-15621.39,-32690.88,-3426.66,5663.295
1764766982.2670462,9962.505,-6444.405,-40852.53,-20621.79,-15621.345,-32690.655,-3424.275,5665.185
1764766982.3108664,9964.395,-6442.83,-40850.595,-20620.215,-15620.58,-32689.98,-3423.06,5667.12
1764766982.3108664,9964.26,-6443.415,-40851.045,-20621.115,-15620.805,-32691.42,-3425.76,5665.365
1764766982.3108664,9970.74,-6436.44,-40845.105,-20615.445,-15614.505,-32684.13,-3420.315,5672.52
1764766982.3108664,9963.63,-6444.99,-40855.995,-20626.695,-15624.18,-32690.88,-3426.12,5665.41
1764766982.3108664,9968.355,-6440.67,-40849.83,-20618.055,-15613.875,-32681.115,-3420.945,5671.575
1764766982.3108664,9974.52,-6430.365,-40836.06,-20605.59,-15606.495,-32678.955,-3419.1,5675.535
1764766982.3108664,9973.62,-6429.735,-40837.005,-20607.435,-15608.7,-32680.845,-3418.11,5675.58
1764766982.3108664,9965.25,-6438.15,-40846.095,-20616.21,-15615.9,-32686.38,-3422.52,5668.92
1764766982.3108664,9973.44,-6429.195,-40836.555,-20607.165,-15605.145,-32674.815,-3413.7,5679.224999999999
1764766982.3108664,9972.99,-6430.679999999999,-40837.77,-20607.975,-15606.09,-32676.165,-3414.645,5677.785
1764766982.3108664,9964.62,-6439.86,-40846.725,-20616.975,-15614.955,-32686.02,-3421.305,5669.46
1764766982.3108664,9969.435,-6433.74,-40841.01,-20611.755,-15609.51,-32680.755,-3415.68,5675.625
1764766982.3108664,9980.37,-6421.679999999999,-40829.13,-20600.145,-15598.305,-32669.955,-3405.87,5687.235
1764766982.3108664,9974.07,-6430.005,-40836.555,-20608.155,-15606.765,-32677.92,-3412.215,5678.775
1764766982.3108664,9967.455,-6436.17,-40842.315,-20614.59,-15613.425,-32685.93,-3419.82,5671.304999999999
1764766982.3108664,9968.625,-6434.28,-40840.425,-20612.205,-15610.095,-32681.97,-3418.875,5673.33
1764766982.3108664,9982.395,-6420.78,-40827.69,-20599.02,-15597.765,-32668.695,-3406.005,5688.179999999999
1764766982.3108664,9980.055,-6423.165,-40829.49,-20599.74,-15597.765,-32669.595,-3407.85,5684.895
1764766982.3108664,9982.8,-6418.71,-40826.97,-20596.995,-15594.57,-32666.895,-3402.945,5688.81
1764766982.3108664,9973.935,-6428.025,-40834.98,-20605.68,-15602.67,-32675.58,-3409.605,5679.945
1764766982.3108664,9978.12,-6423.929999999999,-40830.165,-20601.855,-15598.845,-32671.755,-3406.095,5685.525
1764766982.3108664,9971.955,-6428.79,-40834.53,-20606.445,-15603.93,-32677.065,-3410.865,5680.26
1764766982.3108664,9973.395,-6428.745,-40836.375,-20608.2,-15606.765,-32678.64,-3409.65,5681.07
1764766982.3108664,9983.88,-6418.844999999999,-40826.25,-20597.715,-15594.705,-32666.49,-3400.74,5690.7
1764766982.3575451,9986.13,-6415.514999999999,-40821.165,-20592.135,-15588.135,-32661.27,-3398.58,5691.554999999999
1764766982.3575451,9987.12,-6414.66,-40820.535,-20592.135,-15588.495,-32662.395,-3399.255,5691.78
1764766982.3575451,9989.28,-6411.825,-40818.15,-20589.615,-15585.795,-32659.2,-3394.44,5695.605
1764766982.3575451,9984.645,-6415.74,-40822.425,-20593.98,-15590.88,-32662.89,-3398.715,5691.195
1764766982.3575451,9973.53,-6428.205,-40834.44,-20605.995,-15603.615,-32674.68,-3408.21,5679.27
1764766982.3575451,9969.93,-6431.355,-40837.23,-20608.29,-15605.865,-32677.56,-3409.47,5677.425
1764766982.3575451,9976.41,-6424.469999999999,-40830.03,-20601.18,-15599.835,-32672.43,-3405.915,5683.23
1764766982.3575451,9970.695,-6432.165,-40836.87,-20608.515,-15606.855,-32679.945,-3413.295,5676.03
1764766982.3575451,9983.16,-6418.665,-40823.595,-20595.645,-15592.95,-32664.78,-3400.065,5690.429999999999
1764766982.3575451,9983.97,-6417.764999999999,-40822.155,-20593.665,-15591.375,-32663.295,-3399.03,5691.69
1764766982.3575451,9982.395,-6420.42,-40824.675,-20596.005,-15594.075,-32665.41,-3402.09,5689.935
1764766982.3575451,9985.05,-6416.099999999999,-40820.355,-20591.415,-15590.16,-32661.315,-3398.805,5693.715
1764766982.3575451,9987.3,-6414.48,-40819.32,-20589.795,-15587.91,-32659.83,-3394.305,5696.415
1764766982.3575451,9970.83,-6430.139999999999,-40833.72,-20604.105,-15601.815,-32674.005,-3409.065,5679.495
1764766982.3575451,9967.68,-6431.58,-40836.105,-20607.615,-15606.63,-32679.405,-3413.43,5676.66
1764766982.3575451,9973.125,-6425.145,-40830.975,-20601.54,-15599.88,-32672.745,-3405.96,5684.219999999999
1764766982.3575451,9982.98,-6415.83,-40821.165,-20591.82,-15590.61,-32662.98,-3398.715,5694.435
1764766982.3575451,9981.675,-6417.405,-40822.38,-20593.845,-15593.355,-32664.735,-3400.515,5693.085
1764766982.3575451,9972.99,-6425.46,-40830.93,-20603.745,-15603.03,-32675.355,-3408.48,5682.735
1764766982.3575451,9972.0,-6427.71,-40833.72,-20604.645,-15601.59,-32673.915,-3408.93,5681.61
1764766982.3575451,9976.455,-6425.235,-40831.47,-20601.27,-15598.305,-32669.865,-3405.87,5685.795
1764766982.3575451,9985.68,-6414.12,-40820.58,-20590.02,-15588.63,-32659.11,-3396.78,5696.685
1764766982.4070666,9983.61,-6419.205,-40823.865,-20589.66,-15586.515,-32657.85,-3396.24,5695.74
1764766982.4070666,9971.595,-6426.495,-40829.67,-20599.875,-15600.96,-32674.23,-3408.93,5681.385
1764766982.4070666,9977.985,-6419.61,-40825.53,-20595.195,-15596.55,-32669.145,-3403.44,5688.945
1764766982.4070666,9968.985,-6429.645,-40835.25,-20602.89,-15604.47,-32677.47,-3409.92,5680.8
1764766982.4070666,9968.715,-6429.87,-40835.52,-20603.52,-15604.695,-32677.74,-3409.92,5680.62
1764766982.4070666,9980.145,-6418.485,-40823.955,-20591.325,-15591.15,-32664.51,-3400.2,5690.79
1764766982.4070666,9982.485,-6416.505,-40822.47,-20590.02,-15590.34,-32663.025,-3398.67,5692.995
1764766982.4070666,9979.605,-6419.429999999999,-40825.8,-20593.935,-15594.21,-32667.345,-3401.865,5689.71
1764766982.4070666,9972.63,-6426.764999999999,-40832.82,-20600.19,-15601.905,-32674.68,-3408.255,5681.61
1764766982.4070666,9981.945,-6415.74,-40821.75,-20588.94,-15590.655,-32663.025,-3398.67,5692.679999999999
1764766982.4070666,9988.695,-6408.405,-40814.955,-20582.91,-15584.76,-32656.59,-3392.145,5699.969999999999
1764766982.4070666,9984.645,-6413.849999999999,-40821.345,-20589.75,-15591.195,-32662.35,-3396.465,5695.469999999999
1764766982.4070666,9982.26,-6415.56,-40821.66,-20588.76,-15588.45,-32660.73,-3397.455,5692.905
1764766982.4070666,9981.81,-6415.155,-40820.715,-20587.275,-15587.505,-32659.245,-3396.915,5692.905
1764766982.4070666,9974.385,-6423.255,-40829.58,-20595.96,-15597.315,-32668.56,-3402.27,5686.02
1764766982.4070666,9974.88,-6422.804999999999,-40830.255,-20596.32,-15598.71,-32671.845,-3403.44,5685.795
1764766982.4070666,9981.585,-6416.19,-40823.505,-20589.705,-15593.085,-32665.32,-3399.75,5691.78
1764766982.4070666,9975.105,-6423.165,-40830.075,-20596.77,-15600.51,-32672.205,-3406.05,5684.985
1764766982.4070666,9977.895,-6419.745,-40827.645,-20593.935,-15597.18,-32668.335,-3403.125,5688.855
1764766982.4070666,9968.985,-6429.78,-40838.67,-20605.005,-15607.62,-32679.405,-3412.08,5678.685
1764766982.4070666,9971.415,-6428.205,-40838.49,-20603.925,-15604.83,-32676.345,-3410.145,5681.745
1764766982.4070666,9960.705,-6438.915,-40849.11,-20617.02,-15617.385,-32687.64,-3419.775,5669.73
1764766982.4070666,9962.37,-6436.755,-40846.59,-20613.24,-15613.245,-32683.455,-3415.905,5672.7
1764766982.4070666,9971.91,-6425.37,-40833.63,-20598.75,-15601.365,-32674.455,-3407.58,5683.995
1764766982.4544947,9972.585,-6422.67,-40831.02,-20597.265,-15602.445,-32676.705,-3408.435,5683.23
1764766982.4553962,9961.515,-6435.134999999999,-40843.89,-20610.09,-15614.145,-32686.875,-3418.11,5671.71
1764766982.4553962,9962.595,-6434.865,-40844.97,-20610.855,-15614.955,-32686.92,-3419.82,5671.8
1764766982.4553962,9960.705,-6434.639999999999,-40845.465,-20611.395,-15615.945,-32687.55,-3422.295,5669.19
1764766982.4553962,9957.96,-6436.98,-40849.155,-20615.805,-15621.615,-32692.905,-3426.03,5664.87
1764766982.4553962,9957.645,-6438.465,-40853.115,-20620.395,-15624.27,-32694.93,-3424.995,5665.59
1764766982.4553962,9963.045,-6435.179999999999,-40847.445,-20612.025,-15614.28,-32685.705,-3418.245,5672.925
1764766982.4553962,9959.355,-6436.53,-40845.06,-20609.46,-15613.74,-32685.48,-3420.225,5670.81
1764766982.4553962,9954.045,-6440.58,-40851.09,-20616.03,-15620.85,-32691.375,-3423.105,5666.04
1764766982.4553962,9964.485,-6429.78,-40840.38,-20606.085,-15610.14,-32681.07,-3413.43,5676.525
1764766982.4553962,9964.845,-6429.96,-40842.0,-20607.3,-15610.32,-32681.385,-3411.675,5677.2
1764766982.4553962,9956.43,-6439.094999999999,-40851.27,-20615.535,-15619.365,-32690.205,-3419.28,5668.155
1764766982.4553962,9960.03,-6435.99,-40847.535,-20611.845,-15616.215,-32687.415,-3418.29,5671.62
1764766982.4553962,9953.82,-6443.28,-40854.645,-20618.685,-15622.83,-32693.94,-3424.05,5663.429999999999
1764766982.4553962,9960.165,-6437.52,-40849.065,-20613.33,-15617.07,-32687.55,-3419.19,5670.27
1764766982.4553962,9962.37,-6434.505,-40846.32,-20610.0,-15613.83,-32684.31,-3416.49,5672.655
1764766982.4553962,9959.805,-6435.45,-40848.345,-20610.675,-15615.045,-32685.84,-3417.165,5670.495
1764766982.4553962,9947.97,-6447.285,-40860.045,-20622.24,-15627.195,-32698.44,-3428.325,5658.12
1764766982.4553962,9950.58,-6444.719999999999,-40856.94,-20619.45,-15624.495,-32696.685,-3426.705,5661.315
1764766982.4553962,9960.03,-6433.065,-40845.69,-20608.155,-15612.975,-32684.94,-3416.13,5673.554999999999
1764766982.4553962,9955.62,-6437.295,-40851.99,-20614.86,-15619.23,-32690.16,-3419.145,5668.785
1764766982.4553962,9954.405,-6438.24,-40852.08,-20614.95,-15618.87,-32689.8,-3419.865,5666.13
1764766982.4985845,9959.175,-6434.37,-40846.86,-20609.865,-15614.55,-32685.21,-3416.355,5670.585
1764766982.4985845,9966.285,-6427.44,-40839.57,-20602.35,-15607.17,-32678.28,-3410.73,5677.514999999999
1764766982.4985845,9954.405,-6440.985,-40853.07,-20615.76,-15620.805,-32691.915,-3422.835,5664.915
1764766982.4985845,9956.43,-6438.24,-40850.415,-20613.555,-15618.78,-32690.52,-3421.08,5667.03
1764766982.4985845,9972.495,-6419.295,-40832.55,-20595.015,-15600.42,-32673.33,-3405.375,5684.895
1764766982.4985845,9969.66,-6421.05,-40834.755,-20596.905,-15601.95,-32675.22,-3407.31,5683.41
1764766982.4985845,9959.895,-6433.065,-40847.175,-20609.37,-15614.37,-32686.065,-3415.14,5673.42
1764766982.4985845,9961.65,-6431.31,-40845.555,-20607.975,-15613.695,-32685.705,-3414.375,5675.804999999999
1764766982.4985845,9956.745,-6436.035,-40849.38,-20611.215,-15615.765,-32687.64,-3418.74,5670.9
1764766982.4985845,9950.445,-6442.02,-40857.48,-20620.08,-15623.19,-32694.48,-3423.33,5665.455
1764766982.4985845,9957.06,-6436.62,-40851.81,-20612.745,-15614.37,-32685.21,-3417.165,5672.429999999999
1764766982.4985845,9952.695,-6441.48,-40853.34,-20613.87,-15619.365,-32690.52,-3423.195,5666.219999999999
1764766982.4985845,9964.305,-6429.87,-40842.54,-20603.88,-15610.275,-32681.565,-3415.68,5676.48
1764766982.4985845,9966.645,-6428.34,-40839.525,-20601.135,-15607.305,-32679.765,-3413.565,5678.594999999999
1764766982.4985845,9958.635,-6437.565,-40849.335,-20610.855,-15616.8,-32689.215,-3421.08,5670.0
1764766982.4985845,9946.755,-6447.735,-40859.64,-20621.025,-15627.015,-32699.61,-3431.34,5657.985
1764766982.4985845,9954.36,-6438.87,-40851.18,-20613.555,-15618.645,-32690.295,-3423.015,5666.804999999999
1764766982.4985845,9947.52,-6446.295,-40859.415,-20622.285,-15627.645,-32698.215,-3428.145,5660.82
1764766982.4985845,9947.25,-6446.115,-40859.73,-20622.24,-15628.68,-32699.295,-3429.27,5660.865
1764766982.4985845,9954.855,-6439.275,-40851.72,-20613.555,-15620.76,-32690.655,-3422.475,5667.75
1764766982.4985845,9951.345,-6442.695,-40855.095,-20617.92,-15625.125,-32696.19,-3425.04,5663.295
1764766982.4985845,9957.915,-6433.965,-40848.03,-20610.18,-15616.755,-32688.405,-3419.145,5670.0
1764766982.4985845,9950.85,-6441.795,-40855.86,-20618.145,-15624.54,-32695.83,-3426.03,5661.675
1764766982.4985845,9955.62,-6435.315,-40849.11,-20612.295,-15618.285,-32690.16,-3421.845,5667.12
1764766982.5468788,9952.155,-6439.32,-40853.61,-20616.75,-15621.84,-32694.345,-3424.32,5664.33
1764766982.5468788,9945.675,-6445.98,-40859.325,-20623.545,-15628.41,-32701.14,-3430.395,5658.12
1764766982.5468788,9946.26,-6445.125,-40859.235,-20623.635,-15628.14,-32700.78,-3429.72,5659.02
1764766982.5468788,9946.71,-6445.17,-40858.515,-20623.095,-15627.33,-32699.07,-3428.28,5659.56
1764766982.5468788,9942.075,-6451.02,-40864.815,-20629.035,-15633.225,-32704.65,-3434.04,5653.08
1764766982.5468788,9935.685,-6458.94,-40872.24,-20634.84,-15638.175,-32709.105,-3440.565,5645.925
1764766982.5468788,9938.16,-6455.115,-40869.99,-20633.04,-15637.905,-32707.08,-3438.135,5648.535
1764766982.5468788,9932.085,-6462.54,-40879.215,-20640.69,-15645.69,-32712.705,-3441.87,5642.594999999999
1764766982.5468788,9929.7,-6465.014999999999,-40879.485,-20639.25,-15645.015,-32714.505,-3444.66,5640.344999999999
1764766982.5468788,9931.905,-6458.49,-40872.195,-20633.49,-15641.91,-32714.82,-3444.435,5641.695
1764766982.5468788,9941.22,-6449.04,-40864.725,-20625.93,-15632.415,-32703.705,-3434.67,5652.63
1764766982.5468788,9931.815,-6459.75,-40874.85,-20636.55,-15641.865,-32713.245,-3442.68,5643.405
1764766982.5468788,9933.795,-6456.33,-40871.745,-20634.03,-15639.345,-32709.96,-3441.195,5646.195
1764766982.5468788,9922.41,-6468.344999999999,-40884.03,-20645.46,-15652.035,-32721.39,-3451.68,5634.315
1764766982.5468788,9918.81,-6472.17,-40887.18,-20648.7,-15656.31,-32726.205,-3455.145,5631.57
1764766982.5468788,9922.005,-6468.255,-40882.32,-20644.695,-15651.495,-32721.48,-3452.22,5634.945
1764766982.5468788,9930.375,-6461.145,-40877.055,-20639.475,-15647.13,-32715.315,-3445.785,5642.73
1764766982.5468788,9921.15,-6472.889999999999,-40889.34,-20651.4,-15660.945,-32728.23,-3455.64,5631.075
1764766982.5468788,9925.695,-6467.219999999999,-40881.825,-20643.165,-15651.36,-32718.915,-3451.14,5635.665
1764766982.5468788,9925.965,-6466.32,-40881.24,-20642.85,-15651.045,-32718.015,-3449.97,5635.844999999999
1764766982.5468788,9932.4,-6458.58,-40874.805,-20636.37,-15645.285,-32710.995,-3444.57,5642.82
1764766982.5468788,9917.145,-6472.575,-40888.485,-20651.13,-15659.685,-32727.06,-3458.565,5627.7
1764766982.5468788,9923.85,-6465.105,-40881.69,-20645.415,-15652.53,-32720.355,-3451.095,5635.8
1764766982.5468788,9930.105,-6458.849999999999,-40875.39,-20639.205,-15646.23,-32713.92,-3444.255,5642.91
1764766982.5949464,9932.49,-6455.969999999999,-40871.115,-20633.895,-15640.83,-32709.42,-3440.295,5646.51
1764766982.5949464,9931.23,-6458.13,-40874.625,-20637.27,-15643.845,-32710.86,-3440.88,5646.285
1764766982.5949464,9931.185,-6457.995,-40875.345,-20637.495,-15644.43,-32710.905,-3441.105,5646.105
1764766982.5949464,9922.32,-6466.5,-40882.995,-20644.335,-15653.07,-32720.13,-3449.52,5635.8
1764766982.5949464,9921.645,-6468.344999999999,-40884.615,-20646.0,-15654.33,-32721.705,-3451.185,5635.125
1764766982.5949464,9931.41,-6457.95,-40873.95,-20635.695,-15643.53,-32711.04,-3441.465,5646.33
1764766982.5949464,9933.165,-6455.34,-40871.205,-20632.95,-15641.325,-32709.24,-3439.575,5648.58
1764766982.5949464,9931.905,-6455.655,-40870.71,-20633.58,-15642.135,-32709.285,-3440.34,5647.365
1764766982.5949464,9933.885,-6452.145,-40867.785,-20630.835,-15639.12,-32706.495,-3437.055,5649.929999999999
1764766982.5949464,9927.315,-6458.895,-40874.805,-20637.27,-15646.95,-32714.865,-3442.77,5643.855
1764766982.5949464,9931.68,-6454.215,-40870.62,-20633.265,-15642.99,-32710.95,-3438.225,5649.66
1764766982.5949464,9928.845,-6457.905,-40874.445,-20636.145,-15645.6,-32712.705,-3439.755,5646.105
1764766982.5949464,9935.28,-6450.03,-40867.065,-20628.72,-15638.535,-32705.73,-3434.715,5652.585
1764766982.5949464,9928.26,-6458.264999999999,-40874.22,-20636.055,-15645.96,-32712.795,-3440.25,5644.889999999999
1764766982.5949464,9929.97,-6456.87,-40872.105,-20633.13,-15642.315,-32709.465,-3438.045,5646.33
1764766982.5949464,9936.99,-6448.545,-40864.455,-20627.235,-15636.555,-32704.29,-3434.625,5652.45
1764766982.5949464,9942.345,-6441.344999999999,-40857.165,-20621.79,-15632.1,-32700.195,-3429.9,5658.165
1764766982.5953407,9934.605,-6450.03,-40867.515,-20632.32,-15641.91,-32708.565,-3436.47,5651.415
1764766982.5953407,9918.495,-6470.415,-40886.595,-20649.645,-15656.895,-32722.2,-3449.205,5635.98
1764766982.5953407,9914.67,-6472.485,-40885.605,-20648.205,-15656.4,-32722.74,-3452.355,5632.469999999999
1764766982.5953407,9926.685,-6461.955,-40876.155,-20636.19,-15643.305,-32709.285,-3441.06,5646.285
1764766982.5953407,9931.185,-6453.764999999999,-40864.68,-20630.07,-15641.415,-32708.745,-3439.62,5647.679999999999
1764766982.5953407,9927.27,-6456.285,-40869.045,-20635.965,-15647.535,-32714.64,-3443.445,5642.28
1764766982.5953407,9934.695,-6452.685,-40865.04,-20628.765,-15637.725,-32703.93,-3435.12,5651.46
1764766982.6379604,9935.73,-6450.795,-40861.62,-20626.245,-15635.925,-32703.12,-3435.93,5652.045
1764766982.6379604,9936.945,-6448.679999999999,-40861.215,-20625.39,-15635.07,-32700.825,-3433.815,5652.81
1764766982.6379604,9938.835,-6447.33,-40861.35,-20625.705,-15635.16,-32699.88,-3431.115,5655.06
1764766982.6379604,9934.47,-6450.48,-40864.14,-20628.63,-15639.615,-32705.595,-3434.85,5651.73
1764766982.6389778,9940.05,-6441.974999999999,-40856.13,-20620.89,-15633.855,-32699.835,-3427.38,5659.425
1764766982.6389778,9939.87,-6440.715,-40853.43,-20618.955,-15630.165,-32696.55,-3425.715,5659.92
1764766982.6389778,9934.065,-6447.87,-40861.89,-20628.135,-15638.49,-32702.4,-3429.495,5653.395
1764766982.6389778,9942.12,-6440.804999999999,-40855.725,-20620.89,-15630.03,-32692.05,-3421.665,5662.349999999999
1764766982.6389778,9941.49,-6440.355,-40852.53,-20618.055,-15630.705,-32696.145,-3423.42,5661.045
1764766982.6389778,9949.14,-6431.445,-40843.53,-20609.505,-15622.47,-32688.27,-3417.075,5669.01
1764766982.6389778,9941.985,-6440.58,-40853.475,-20617.47,-15628.14,-32692.14,-3422.25,5661.675
1764766982.6389778,9947.88,-6433.56,-40845.96,-20610.63,-15622.02,-32686.38,-3418.56,5667.57
1764766982.6399746,9953.46,-6427.17,-40839.39,-20605.14,-15616.62,-32680.44,-3411.765,5675.49
1764766982.6399746,9950.445,-6428.34,-40840.83,-20605.995,-15616.89,-32681.52,-3413.34,5673.735
1764766982.6399746,9946.035,-6432.84,-40845.24,-20611.395,-15622.245,-32686.515,-3417.795,5670.09
1764766982.6399746,9941.445,-6437.384999999999,-40848.795,-20615.715,-15626.16,-32692.365,-3421.71,5664.554999999999
1764766982.6399746,9947.16,-6431.895,-40843.53,-20610.99,-15621.03,-32686.38,-3416.22,5670.135
1764766982.6399746,9939.33,-6441.795,-40853.025,-20619.945,-15630.39,-32693.67,-3421.575,5662.304999999999
1764766982.6399746,9941.31,-6438.645,-40851.765,-20617.38,-15628.41,-32692.005,-3418.74,5664.375
1764766982.6399746,9944.235,-6434.594999999999,-40847.355,-20612.655,-15623.1,-32687.865,-3414.285,5668.83
1764766982.6404817,9950.76,-6428.565,-40842.09,-20607.975,-15618.645,-32683.32,-3408.615,5675.445
1764766982.6404817,9963.72,-6414.974999999999,-40829.04,-20595.78,-15607.26,-32671.8,-3397.905,5688.045
1764766982.6875713,9967.23,-6412.679999999999,-40826.97,-20593.62,-15605.055,-32669.82,-3395.655,5690.7
1764766982.6875713,9952.2,-6428.25,-40842.765,-20608.47,-15619.815,-32684.94,-3410.28,5674.86
1764766982.6875713,9957.6,-6420.915,-40836.645,-20601.09,-15613.29,-32677.515,-3405.42,5680.935
1764766982.6875713,9959.13,-6418.215,-40832.865,-20597.31,-15611.4,-32675.58,-3403.08,5683.41
1764766982.6875713,9955.755,-6422.085,-40836.015,-20600.73,-15613.83,-32678.145,-3405.195,5680.17
1764766982.68827,9966.78,-6410.34,-40824.315,-20589.165,-15601.545,-32665.14,-3394.125,5692.41
1764766982.68827,9970.245,-6407.009999999999,-40821.075,-20585.205,-15598.98,-32662.44,-3391.02,5695.29
1764766982.68827,9970.605,-6407.325,-40822.695,-20586.96,-15601.41,-32664.195,-3392.28,5694.84
1764766982.68827,9968.94,-6410.79,-40825.26,-20589.03,-15602.805,-32665.68,-3395.385,5691.69
1764766982.68827,9968.85,-6410.295,-40824.675,-20588.445,-15601.905,-32665.275,-3395.565,5691.645
1764766982.68827,9966.6,-6411.735,-40826.52,-20590.065,-15604.02,-32666.715,-3396.42,5690.205
1764766982.68827,9952.425,-6426.36,-40840.02,-20603.115,-15617.16,-32680.665,-3407.04,5676.03
1764766982.68827,9957.06,-6420.87,-40835.115,-20597.985,-15612.795,-32675.67,-3402.18,5681.474999999999
1764766982.68827,9967.095,-6409.035,-40824.09,-20586.33,-15601.14,-32664.24,-3391.695,5693.085
1764766982.68827,9960.75,-6415.965,-40831.56,-20594.79,-15609.105,-32672.61,-3397.635,5686.469999999999
1764766982.68827,9956.88,-6419.969999999999,-40835.97,-20598.345,-15612.12,-32675.85,-3402.63,5681.385
1764766982.68827,9963.63,-6414.795,-40830.615,-20593.215,-15607.215,-32669.64,-3397.185,5688.27
1764766982.68827,9959.49,-6419.969999999999,-40835.34,-20598.255,-15612.75,-32675.4,-3400.245,5684.085
1764766982.68827,9969.39,-6407.009999999999,-40821.57,-20583.945,-15597.72,-32660.955,-3391.245,5694.974999999999
1764766982.68827,9968.58,-6406.92,-40820.85,-20583.54,-15596.955,-32659.785,-3390.255,5695.514999999999
1764766982.68827,9993.645,-6379.38,-40793.76,-20556.36,-15568.56,-32632.245,-3363.93,5722.29
1764766982.68827,9991.71,-6380.415,-40795.47,-20559.015,-15570.81,-32634.45,-3364.515,5720.895
1764766982.68827,10005.255,-6363.9,-40780.125,-20542.95,-15553.395,-32616.72,-3348.855,5737.139999999999
1764766982.68927,10004.31,-6369.165,-40785.165,-20544.84,-15553.305,-32615.685,-3346.155,5737.77
1764766982.7322516,10019.205,-6351.48,-40764.78,-20526.615,-15538.77,-32602.905,-3335.22,5750.37
1764766982.7322516,10021.545,-6344.639999999999,-40760.955,-20525.67,-15538.995,-32604.12,-3335.58,5751.045
1764766982.7322516,10020.87,-6348.51,-40766.085,-20528.865,-15540.615,-32604.255,-3335.04,5750.82
1764766982.7322516,10013.58,-6356.205,-40771.71,-20534.985,-15547.41,-32611.095,-3342.42,5742.045
1764766982.7322516,10019.88,-6351.525,-40767.84,-20530.395,-15540.84,-32602.545,-3335.49,5749.514999999999
1764766982.7322516,10012.23,-6360.3,-40772.52,-20533.455,-15544.935,-32607.405,-3341.205,5742.405
1764766982.7322516,10015.83,-6356.16,-40768.965,-20531.16,-15543.495,-32606.19,-3340.53,5745.105
1764766982.7322516,10005.57,-6365.52,-40780.665,-20545.155,-15554.97,-32615.865,-3347.685,5736.645
1764766982.7322516,10003.59,-6368.49,-40783.68,-20548.845,-15557.4,-32616.765,-3348.315,5734.935
1764766982.7322516,10002.42,-6370.155,-40782.465,-20546.55,-15554.205,-32616.99,-3348.945,5733.36
1764766982.7322516,10007.82,-6362.28,-40773.42,-20537.595,-15549.165,-32615.505,-3345.705,5737.23
1764766982.7322516,10019.43,-6349.77,-40762.8,-20527.2,-15538.005,-32603.49,-3336.075,5749.02
1764766982.7322516,10021.545,-6348.105,-40761.945,-20526.39,-15536.295,-32599.62,-3333.285,5752.304999999999
1764766982.7322516,10022.04,-6347.07,-40761.495,-20525.985,-15536.205,-32598.63,-3333.015,5752.62
1764766982.7337832,10014.12,-6356.16,-40771.665,-20535.75,-15544.89,-32606.46,-3340.08,5743.71
1764766982.7337832,10018.845,-6352.605,-40767.39,-20530.44,-15538.905,-32600.07,-3336.165,5749.514999999999
1764766982.7337832,10020.195,-6350.085,-40764.105,-20527.83,-15537.375,-32600.205,-3335.94,5749.92
1764766982.7337832,10007.955,-6361.38,-40775.625,-20540.43,-15550.155,-32612.49,-3346.605,5737.86
1764766982.7337832,10013.535,-6355.08,-40769.055,-20534.22,-15542.37,-32604.345,-3340.035,5745.96
1764766982.7337832,10009.935,-6360.344999999999,-40774.905,-20539.215,-15545.745,-32606.46,-3343.23,5742.495
1764766982.7337832,10004.535,-6366.014999999999,-40780.035,-20545.065,-15551.145,-32611.815,-3348.315,5735.429999999999
1764766982.7337832,9999.09,-6371.235,-40784.985,-20551.545,-15557.805,-32619.285,-3352.725,5729.58
1764766982.7337832,10009.17,-6361.425,-40775.355,-20541.465,-15549.3,-32611.59,-3344.895,5740.335
1764766982.735197,10008.18,-6363.179999999999,-40778.28,-20543.22,-15551.145,-32613.165,-3345.21,5740.245
1764766982.7798858,9995.31,-6376.32,-40790.43,-20556.63,-15564.105,-32626.395,-3358.305,5725.485
1764766982.7798858,10000.395,-6371.054999999999,-40785.615,-20551.86,-15559.965,-32622.48,-3353.445,5730.435
1764766982.7798858,10012.365,-6358.995,-40772.835,-20539.53,-15546.96,-32608.215,-3340.575,5743.53
1764766982.7798858,10003.86,-6367.455,-40782.465,-20549.835,-15558.795,-32619.645,-3349.17,5734.17
1764766982.7798858,10010.43,-6360.344999999999,-40774.32,-20540.745,-15547.77,-32609.52,-3342.96,5741.685
1764766982.7804058,10012.5,-6357.014999999999,-40770.045,-20535.705,-15542.955,-32605.155,-3339.225,5744.835
1764766982.7804058,10006.515,-6361.514999999999,-40777.2,-20542.815,-15549.93,-32612.67,-3343.455,5738.58
1764766982.7804058,10005.885,-6363.179999999999,-40777.56,-20543.49,-15550.29,-32613.57,-3344.31,5737.95
1764766982.7804058,10013.805,-6355.395,-40768.92,-20535.66,-15541.965,-32605.965,-3339.045,5746.23
1764766982.7804058,10016.235,-6352.425,-40765.995,-20533.32,-15540.165,-32603.58,-3336.615,5748.255
1764766982.7804058,10014.255,-6355.71,-40769.235,-20537.145,-15543.855,-32606.82,-3339.405,5744.565
1764766982.7804058,10005.615,-6366.105,-40779.36,-20546.82,-15554.25,-32617.305,-3347.37,5735.61
1764766982.7804058,10013.355,-6355.8,-40769.1,-20536.065,-15544.08,-32608.71,-3340.665,5744.7
1764766982.7804058,10009.98,-6358.139999999999,-40770.945,-20537.775,-15546.195,-32610.87,-3344.625,5741.054999999999
1764766982.7804058,10009.035,-6358.094999999999,-40770.945,-20539.08,-15546.825,-32612.13,-3344.13,5741.37
1764766982.7804058,10000.08,-6367.905,-40780.17,-20548.17,-15554.88,-32620.23,-3350.16,5734.62
1764766982.7804058,10006.425,-6362.145,-40774.32,-20542.14,-15549.345,-32614.335,-3345.84,5739.66
1764766982.7804058,10008.495,-6358.995,-40771.26,-20538.945,-15546.33,-32612.13,-3343.68,5741.46
1764766982.7804058,10010.34,-6355.395,-40767.615,-20535.255,-15542.19,-32607.675,-3341.565,5743.8
1764766982.7804058,10013.085,-6353.505,-40766.085,-20532.87,-15540.03,-32603.985,-3338.55,5746.545
1764766982.7804058,10011.33,-6357.06,-40769.415,-20535.57,-15542.91,-32606.91,-3339.81,5744.429999999999
1764766982.7804058,10001.88,-6365.7,-40778.82,-20545.83,-15552.945,-32617.08,-3347.64,5734.889999999999
1764766982.82586,10012.23,-6352.245,-40766.805,-20535.57,-15542.91,-32606.64,-3337.605,5746.86
1764766982.82586,10009.62,-6358.635,-40770.225,-20534.805,-15539.67,-32604.12,-3337.29,5745.06
1764766982.82586,10013.805,-6355.395,-40764.465,-20531.205,-15537.15,-32601.195,-3334.95,5748.21
1764766982.82586,10016.505,-6349.86,-40761.27,-20530.485,-15537.645,-32601.96,-3334.59,5750.91
1764766982.82586,10016.235,-6350.76,-40761.99,-20528.73,-15536.115,-32601.87,-3333.915,5751.27
1764766982.82586,10016.145,-6348.285,-40758.165,-20525.49,-15535.26,-32604.12,-3335.94,5749.56
1764766982.82586,10015.515,-6349.724999999999,-40760.595,-20528.1,-15536.43,-32603.085,-3336.12,5749.335
1764766982.82586,10011.105,-6355.665,-40767.345,-20533.545,-15540.435,-32606.37,-3339.405,5744.205
1764766982.82586,10000.215,-6367.094999999999,-40777.785,-20543.49,-15550.02,-32616.09,-3349.35,5732.01
1764766982.82586,9996.66,-6370.605,-40782.24,-20547.855,-15555.285,-32620.59,-3353.985,5728.77
1764766982.82586,10005.345,-6360.66,-40772.475,-20538.765,-15545.52,-32610.87,-3347.28,5737.094999999999
1764766982.82586,10000.26,-6364.8,-40777.11,-20544.345,-15550.695,-32616.09,-3352.14,5732.01
1764766982.82586,9994.095,-6370.065,-40782.33,-20550.645,-15557.58,-32623.74,-3356.595,5725.935
1764766982.82586,9998.73,-6365.655,-40779.495,-20546.325,-15551.82,-32617.35,-3351.015,5733.135
1764766982.830204,9988.92,-6379.2,-40790.475,-20555.415,-15560.505,-32625.45,-3358.44,5723.865
1764766982.830204,9985.59,-6381.0,-40789.755,-20556.945,-15564.015,-32629.32,-3363.075,5719.094999999999
1764766982.8312545,9987.93,-6378.21,-40788.765,-20556.27,-15563.295,-32627.115,-3360.78,5721.66
1764766982.8312545,9990.585,-6377.13,-40788.54,-20555.055,-15561.9,-32625.45,-3358.53,5724.27
1764766982.8312545,9999.135,-6366.24,-40778.505,-20546.235,-15556.32,-32620.14,-3352.68,5732.73
1764766982.8312545,10001.52,-6364.8,-40776.255,-20541.915,-15549.75,-32612.445,-3348.99,5735.61
1764766982.8312545,10001.61,-6363.81,-40774.095,-20540.205,-15547.32,-32610.015,-3346.56,5735.969999999999
1764766982.8322718,9998.505,-6365.969999999999,-40776.705,-20544.345,-15551.505,-32614.875,-3349.44,5734.17
1764766982.8322718,9997.335,-6366.465,-40777.83,-20545.875,-15551.865,-32615.595,-3349.17,5734.53
1764766982.8322718,9993.015,-6370.785,-40781.205,-20550.87,-15558.615,-32622.705,-3355.92,5728.094999999999
1764766982.8715749,9988.56,-6375.465,-40786.29,-20554.785,-15562.125,-32625.945,-3359.7,5723.685
1764766982.8715749,9978.345,-6387.389999999999,-40798.17,-20566.53,-15573.78,-32636.475,-3367.755,5713.11
1764766982.8715749,9978.66,-6387.165,-40798.845,-20567.79,-15574.545,-32637.285,-3368.07,5713.2
1764766982.8715749,9985.5,-6379.965,-40791.015,-20560.455,-15566.445,-32629.545,-3362.58,5720.31
1764766982.8715749,9987.93,-6378.165,-40789.53,-20559.33,-15566.175,-32628.555,-3360.645,5723.505
1764766982.8715749,9990.405,-6375.42,-40786.56,-20556.0,-15562.98,-32625.36,-3357.72,5726.07
1764766982.8715749,9995.4,-6369.705,-40781.745,-20552.49,-15559.56,-32621.58,-3352.185,5732.19
1764766982.8715749,9994.5,-6369.03,-40780.215,-20551.86,-15558.525,-32621.625,-3353.265,5732.235
1764766982.8715749,9993.735,-6371.19,-40782.42,-20554.29,-15560.865,-32623.38,-3354.39,5731.335
1764766982.8715749,9982.305,-6383.565,-40794.84,-20566.215,-15573.645,-32635.71,-3364.2,5719.185
1764766982.87209,9975.51,-6389.145,-40800.105,-20571.345,-15579.135,-32642.865,-3369.015,5712.75
1764766982.87209,9972.72,-6392.79,-40803.75,-20575.845,-15584.04,-32648.22,-3374.415,5708.835
1764766982.87209,9976.365,-6390.045,-40802.085,-20573.595,-15581.295,-32644.395,-3373.245,5711.985
1764766982.87209,9966.06,-6400.71,-40812.12,-20583.945,-15590.745,-32653.395,-3382.695,5700.51
1764766982.87209,9963.63,-6402.509999999999,-40814.055,-20586.195,-15593.715,-32656.995,-3386.16,5696.505
1764766982.87209,9972.045,-6393.06,-40803.84,-20576.43,-15584.625,-32648.04,-3378.555,5706.45
1764766982.87209,9975.87,-6388.965,-40799.43,-20571.75,-15579.405,-32641.74,-3374.055,5711.49
1764766982.87209,9974.07,-6390.764999999999,-40801.32,-20573.01,-15581.34,-32643.36,-3375.63,5709.51
1764766982.87209,9975.6,-6388.695,-40800.105,-20572.335,-15580.98,-32643.9,-3374.19,5711.535
1764766982.87209,9971.595,-6393.014999999999,-40802.67,-20574.18,-15582.6,-32645.88,-3376.665,5707.395
1764766982.87209,9959.58,-6406.469999999999,-40815.855,-20587.815,-15595.335,-32658.39,-3387.465,5694.929999999999
1764766982.8734646,9956.025,-6409.8,-40819.365,-20591.55,-15598.62,-32661.0,-3390.165,5692.545
1764766982.8734646,9963.63,-6400.98,-40811.175,-20582.775,-15589.755,-32651.28,-3383.235,5701.32
1764766982.8734646,9959.31,-6404.715,-40814.82,-20585.115,-15591.78,-32654.205,-3387.015,5695.56
1764766982.9195957,9967.995,-6395.715,-40806.315,-20576.34,-15584.4,-32646.96,-3381.3,5704.02
1764766982.9195957,9973.26,-6390.224999999999,-40800.42,-20570.58,-15578.91,-32641.2,-3375.045,5709.42
1764766982.9195957,9972.855,-6390.764999999999,-40799.835,-20569.68,-15576.48,-32639.985,-3372.885,5710.094999999999
1764766982.9195957,9964.125,-6399.315,-40808.745,-20579.04,-15585.12,-32649.48,-3381.93,5701.905
1764766982.9195957,9952.65,-6410.969999999999,-40820.265,-20591.28,-15597.225,-32661.495,-3392.82,5690.745
1764766982.9195957,9949.68,-6413.49,-40823.19,-20593.44,-15599.565,-32664.555,-3394.62,5687.594999999999
1764766982.9201117,9950.22,-6412.139999999999,-40823.055,-20592.72,-15598.44,-32663.205,-3393.405,5687.594999999999
1764766982.9201117,9946.89,-6416.009999999999,-40826.565,-20596.95,-15603.12,-32667.66,-3398.13,5682.96
1764766982.9201117,9946.08,-6417.045,-40827.375,-20596.905,-15603.3,-32668.38,-3399.12,5682.42
1764766982.9201117,9953.64,-6409.08,-40819.14,-20587.095,-15592.365,-32658.885,-3393.315,5689.844999999999
1764766982.9201117,9952.875,-6411.24,-40819.455,-20587.995,-15592.95,-32659.83,-3395.43,5688.81
1764766982.9201117,9945.36,-6419.115,-40827.87,-20597.04,-15602.715,-32668.38,-3401.145,5682.285
1764766982.9201117,9953.415,-6406.469999999999,-40815.09,-20584.53,-15589.8,-32656.77,-3392.28,5691.33
1764766982.9201117,9947.835,-6412.41,-40823.73,-20592.405,-15596.19,-32661.18,-3395.34,5686.92
1764766982.9201117,9958.185,-6405.48,-40815.315,-20578.68,-15579.0,-32643.27,-3381.795,5700.15
1764766982.9201117,9959.4,-6403.365,-40810.23,-20576.295,-15579.72,-32644.665,-3383.055,5699.969999999999
1764766982.9201117,9957.105,-6403.185,-40811.895,-20581.065,-15586.83,-32649.93,-3387.105,5697.0
1764766982.9201117,9953.685,-6407.415,-40814.415,-20580.57,-15586.47,-32651.73,-3390.345,5694.389999999999
1764766982.9201117,9954.72,-6405.795,-40810.995,-20577.915,-15586.245,-32655.465,-3392.37,5693.849999999999
1764766982.9201117,9954.585,-6407.594999999999,-40813.065,-20580.39,-15586.65,-32654.34,-3392.235,5692.679999999999
1764766982.9201117,9953.28,-6409.44,-40815.72,-20582.82,-15588.09,-32654.25,-3393.405,5690.969999999999
1764766982.9201117,9948.87,-6412.95,-40819.68,-20586.735,-15592.32,-32657.04,-3397.77,5686.469999999999
1764766982.9671874,9948.96,-6412.679999999999,-40818.87,-20587.41,-15592.995,-32657.715,-3397.635,5686.83
1764766982.9671874,9943.83,-6416.955,-40822.695,-20591.055,-15595.47,-32660.505,-3399.705,5683.635
1764766982.9671874,9942.795,-6416.82,-40822.02,-20590.29,-15594.57,-32660.235,-3398.49,5683.86
1764766982.9671874,9939.915,-6419.025,-40824.27,-20593.935,-15597.945,-32663.655,-3399.93,5680.755
1764766982.9671874,9947.97,-6411.15,-40817.43,-20586.51,-15589.485,-32654.205,-3392.73,5689.395
1764766982.9671874,9937.71,-6423.884999999999,-40830.03,-20598.885,-15600.6,-32664.6,-3403.17,5677.425
1764766982.9671874,9937.62,-6423.435,-40829.265,-20599.785,-15603.885,-32668.515,-3406.23,5675.31
1764766982.9671874,9938.34,-6422.94,-40827.87,-20598.21,-15601.455,-32665.455,-3404.52,5676.57
1764766982.9671874,9947.61,-6413.895,-40819.365,-20590.065,-15592.86,-32656.905,-3396.105,5686.335
1764766982.9671874,9948.96,-6411.78,-40818.06,-20589.885,-15593.58,-32657.895,-3396.915,5687.054999999999
1764766982.9671874,9945.765,-6414.3,-40820.4,-20591.82,-15594.21,-32659.875,-3398.355,5684.175
1764766982.9671874,9930.015,-6430.32,-40835.61,-20607.345,-15608.43,-32675.715,-3412.71,5667.389999999999
1764766982.9671874,9930.51,-6429.014999999999,-40834.845,-20607.165,-15608.205,-32675.085,-3412.125,5668.695
1764766982.9671874,9934.2,-6423.66,-40831.29,-20603.115,-15606.09,-32672.88,-3410.28,5672.52
1764766982.9671874,9925.83,-6431.49,-40839.615,-20612.34,-15614.64,-32680.305,-3416.76,5663.88
1764766982.9671874,9935.01,-6424.695,-40833.54,-20604.42,-15604.875,-32669.1,-3407.94,5673.51
1764766982.9671874,9939.51,-6421.545,-40826.79,-20596.995,-15598.62,-32663.565,-3403.44,5678.955
1764766982.9671874,9939.33,-6421.77,-40827.465,-20598.705,-15601.005,-32666.355,-3404.565,5677.605
1764766982.9671874,9929.16,-6431.445,-40838.175,-20609.28,-15610.59,-32675.535,-3413.475,5665.86
1764766982.9671874,9930.78,-6429.014999999999,-40835.52,-20608.245,-15608.115,-32673.375,-3411.27,5668.425
1764766982.9671874,9941.31,-6417.945,-40824.495,-20597.49,-15597.36,-32662.305,-3401.55,5679.719999999999
1764766982.9671874,9932.76,-6425.685,-40832.145,-20605.365,-15605.505,-32671.395,-3409.29,5671.71
1764766982.9671874,9940.59,-6417.09,-40822.83,-20595.78,-15595.965,-32660.865,-3400.74,5681.88
1764766982.9671874,9943.83,-6413.94,-40819.635,-20591.955,-15591.42,-32655.645,-3395.61,5685.525
1764766983.0149138,9942.3,-6415.38,-40821.255,-20593.755,-15592.815,-32657.58,-3398.04,5683.455
1764766983.0149138,9932.805,-6425.37,-40832.325,-20605.23,-15604.155,-32668.335,-3406.905,5673.42
1764766983.0149138,9932.805,-6425.639999999999,-40832.19,-20605.68,-15605.64,-32669.595,-3408.66,5672.429999999999
1764766983.0149138,9941.895,-6415.605,-40821.075,-20594.565,-15593.67,-32658.795,-3401.325,5681.835
1764766983.0149138,9943.02,-6414.344999999999,-40820.895,-20593.8,-15592.635,-32657.535,-3399.255,5683.635
1764766983.0159068,9932.22,-6427.035,-40833.09,-20605.86,-15604.695,-32669.595,-3409.83,5670.54
1764766983.0159068,9938.61,-6419.969999999999,-40826.16,-20598.48,-15597.27,-32661.945,-3404.07,5677.065
1764766983.0159068,9933.57,-6424.29,-40831.155,-20604.915,-15602.985,-32667.525,-3406.995,5674.005
1764766983.0159068,9921.285,-6436.125,-40842.45,-20615.58,-15613.83,-32679.045,-3417.705,5661.63
1764766983.0159068,9919.89,-6436.665,-40842.63,-20615.22,-15614.46,-32680.485,-3420.225,5658.795
1764766983.0159068,9927.0,-6428.384999999999,-40834.71,-20607.66,-15606.27,-32671.89,-3412.8,5667.255
1764766983.0159068,9917.865,-6437.925,-40844.52,-20618.325,-15617.52,-32682.915,-3422.115,5657.175
1764766983.0159068,9912.645,-6443.325,-40850.055,-20623.59,-15623.055,-32687.37,-3427.515,5652.36
1764766983.0159068,9908.64,-6450.3,-40856.67,-20628.855,-15624.99,-32688.63,-3429.945,5649.974999999999
1764766983.0159068,9915.3,-6442.469999999999,-40850.145,-20623.365,-15619.68,-32682.195,-3423.78,5657.085
1764766983.0159068,9914.445,-6445.62,-40856.04,-20625.075,-15619.14,-32679.135,-3422.43,5656.995
1764766983.0159068,9924.525,-6433.469999999999,-40839.255,-20609.19,-15608.16,-32671.53,-3416.49,5665.635
1764766983.0159068,9914.04,-6440.175,-40844.7,-20617.425,-15621.345,-32689.53,-3430.125,5652.99
1764766983.01691,9914.175,-6439.995,-40844.79,-20616.39,-15618.195,-32685.165,-3426.21,5655.599999999999
1764766983.01691,9923.895,-6431.13,-40835.88,-20607.48,-15607.755,-32673.915,-3416.265,5666.4
1764766983.01691,9925.38,-6430.77,-40835.43,-20607.165,-15608.295,-32673.69,-3415.455,5668.245
1764766983.01691,9918.855,-6439.23,-40844.295,-20617.02,-15619.005,-32683.995,-3423.645,5660.28
1764766983.060111,9902.25,-6455.429999999999,-40859.01,-20629.665,-15630.615,-32697.09,-3439.215,5642.46
1764766983.060111,9906.255,-6451.335,-40854.465,-20623.905,-15624.18,-32690.43,-3435.525,5647.41
1764766983.060111,9908.685,-6449.31,-40853.025,-20623.095,-15623.505,-32688.765,-3433.59,5649.03
1764766983.060111,9908.37,-6449.58,-40852.98,-20623.41,-15624.405,-32689.215,-3434.715,5648.895
1764766983.060111,9907.785,-6450.12,-40852.755,-20622.555,-15624.45,-32689.62,-3434.895,5648.67
1764766983.060111,9895.905,-6461.865,-40864.59,-20633.895,-15636.24,-32702.13,-3444.84,5637.105
1764766983.060111,9900.315,-6456.69,-40859.865,-20630.52,-15630.795,-32696.91,-3440.385,5643.36
1764766983.060111,9890.91,-6466.724999999999,-40868.82,-20639.88,-15639.075,-32705.955,-3450.195,5632.38
1764766983.060111,9899.46,-6457.545,-40860.045,-20631.105,-15629.49,-32697.45,-3442.005,5640.885
1764766983.060111,9898.74,-6458.625,-40861.26,-20631.15,-15629.715,-32696.685,-3441.825,5640.525
1764766983.060111,9888.975,-6469.065,-40871.79,-20642.22,-15641.775,-32707.845,-3450.42,5629.365
1764766983.060111,9889.74,-6467.715,-40869.495,-20641.23,-15641.28,-32707.215,-3450.195,5629.59
1764766983.060111,9893.835,-6464.205,-40866.885,-20636.82,-15637.095,-32702.49,-3447.36,5633.505
1764766983.060111,9903.87,-6453.405,-40855.14,-20625.525,-15624.495,-32690.115,-3437.01,5644.665
1764766983.0611272,9907.92,-6447.69,-40849.92,-20621.745,-15622.65,-32688.09,-3432.285,5648.535
1764766983.0611272,9896.04,-6459.57,-40861.98,-20633.85,-15634.8,-32699.205,-3441.87,5637.06
1764766983.0611272,9896.04,-6458.849999999999,-40860.315,-20633.76,-15634.8,-32702.4,-3443.445,5637.24
1764766983.0611272,9901.35,-6453.045,-40854.645,-20628.135,-15629.94,-32697.99,-3439.17,5642.82
1764766983.0611272,9900.405,-6453.855,-40854.6,-20628.18,-15630.48,-32696.91,-3439.35,5643.224999999999
1764766983.0611272,9894.735,-6460.155,-40860.495,-20634.21,-15636.51,-32702.625,-3445.74,5636.385
1764766983.0611272,9883.89,-6471.855,-40873.095,-20646.225,-15648.39,-32714.415,-3455.325,5624.639999999999
1764766983.0611272,9884.475,-6470.594999999999,-40872.555,-20645.055,-15647.58,-32713.74,-3454.515,5624.91
1764766983.0611272,9895.905,-6458.49,-40860.855,-20632.68,-15636.15,-32702.4,-3444.795,5636.25
1764766983.0611272,9899.505,-6454.844999999999,-40856.715,-20629.215,-15632.28,-32698.755,-3440.745,5641.11
1764766983.1036644,9903.555,-6449.49,-40851.54,-20625.12,-15628.275,-32694.255,-3434.985,5646.42
1764766983.1036644,9901.26,-6452.325,-40856.355,-20630.115,-15634.62,-32700.33,-3438.81,5643.45
1764766983.1036644,9899.415,-6454.575,-40858.29,-20631.465,-15634.44,-32700.105,-3439.935,5642.37
1764766983.1036644,9895.905,-6457.365,-40859.505,-20631.96,-15632.865,-32699.115,-3441.15,5639.76
1764766983.1036644,9898.02,-6454.17,-40857.255,-20630.43,-15632.19,-32697.54,-3439.215,5641.785
1764766983.1036644,9900.72,-6448.95,-40854.735,-20627.28,-15629.31,-32695.155,-3435.84,5644.17
1764766983.1036644,9893.97,-6459.795,-40866.84,-20637.63,-15637.5,-32702.985,-3442.14,5636.655
1764766983.1036644,9893.205,-6463.44,-40864.905,-20635.47,-15636.78,-32701.815,-3444.57,5635.844999999999
