Timestamp,Channel1,Channel2,Channel3,Channel4,Channel5,Channel6,Channel7,Channel8
1764769164.6327095,6112.395,2632.905,-30562.38,-8210.699999999999,-8420.175,-28754.82,3160.44,10287.855
1764769164.6327095,6102.179999999999,2622.24,-30573.945,-8222.355,-8433.09,-28767.69,3150.18,10277.01
1764769164.6327095,6100.56,2621.745,-30573.99,-8222.445,-8433.675,-28768.455,3149.46,10276.515
1764769164.6327095,6105.285,2625.435,-30570.12,-8217.99,-8430.029999999999,-28765.62,3151.8,10280.295
1764769164.6327095,6098.04,2617.56,-30577.995,-8225.82,-8437.14,-28773.0,3145.5,10273.23
1764769164.6327095,6096.645,2615.13,-30579.66,-8227.664999999999,-8438.58,-28773.945,3143.925,10271.43
1764769164.6327095,6105.24,2621.97,-30572.325,-8220.105,-8431.605,-28766.34,3149.55,10278.405
1764769164.6327095,6099.12,2615.13,-30579.12,-8226.81,-8438.445,-28773.495,3141.81,10270.665
1764769164.6327095,6092.054999999999,2607.48,-30585.87,-8233.83,-8445.375,-28779.93,3134.385,10262.835
1764769164.6327095,6087.15,2601.81,-30592.305,-8239.32,-8451.449999999999,-28785.78,3128.535,10257.57
1764769164.6327095,6087.195,2601.495,-30592.98,-8239.68,-8453.25,-28786.77,3128.535,10258.065
1764769164.6327095,6097.5,2614.23,-30580.65,-8227.485,-8440.47,-28774.665,3140.01,10270.26
1764769164.6327095,6100.695,2618.91,-30575.565,-8222.985,-8435.88,-28770.39,3145.05,10274.76
1764769164.6327095,6107.715,2625.66,-30568.185,-8216.324999999999,-8428.32,-28763.055,3150.09,10281.42
1764769164.6327095,6108.255,2625.345,-30568.14,-8215.92,-8427.51,-28762.83,3150.27,10281.33
1764769164.6327095,6107.895,2624.445,-30570.03,-8218.08,-8429.895,-28764.81,3148.83,10280.52
1764769164.6327095,6109.155,2624.805,-30569.715,-8217.315,-8429.355,-28763.595,3149.055,10281.06
1764769164.6327095,6108.03,2623.995,-30570.705,-8218.215,-8430.21,-28764.36,3148.245,10279.26
1764769164.6327095,6109.92,2625.12,-30569.4,-8216.91,-8429.22,-28763.28,3149.595,10281.06
1764769164.6327095,6113.925,2628.225,-30564.81,-8212.77,-8425.08,-28759.14,3153.195,10283.895
1764769164.668918,6113.655,2627.91,-30565.215,-8213.265,-8425.664999999999,-28759.635,3153.105,10283.4
1764769164.668918,6106.185,2621.115,-30572.19,-8220.195,-8432.279999999999,-28766.385,3147.39,10276.785
1764769164.668918,6113.565,2629.935,-30563.595,-8211.33,-8422.289999999999,-28757.745,3155.625,10285.965
1764769164.668918,6110.099999999999,2627.415,-30566.205,-8213.895,-8424.539999999999,-28760.49,3153.6,10284.03
1764769164.668918,6111.135,2628.315,-30565.62,-8212.994999999999,-8423.955,-28759.095,3154.455,10284.975
1764769164.668918,6121.53,2638.485,-30555.225,-8203.005,-8413.92,-28748.745,3163.86,10294.47
1764769164.668918,6126.344999999999,2642.13,-30552.12,-8199.99,-8410.005,-28744.56,3167.55,10298.16
1764769164.668918,6124.455,2639.745,-30554.1,-8201.295,-8410.904999999999,-28745.01,3164.895,10295.145
1764769164.668918,6121.349999999999,2635.695,-30557.79,-8205.615,-8416.755,-28750.095,3162.105,10292.13
1764769164.668918,6113.79,2627.01,-30566.79,-8215.154999999999,-8427.869999999999,-28760.715,3154.185,10283.355
1764769164.668918,6117.12,2630.655,-30561.615,-8209.529999999999,-8420.94,-28754.82,3157.02,10286.325
1764769164.668918,6109.695,2623.77,-30568.545,-8216.955,-8427.96,-28762.02,3151.44,10279.755
1764769164.668918,6109.29,2623.725,-30568.77,-8217.539999999999,-8427.69,-28762.695,3151.62,10280.16
1764769164.668918,6113.7,2628.585,-30563.955,-8212.365,-8422.83,-28758.285,3156.03,10284.705
1764769164.668918,6120.63,2635.695,-30557.07,-8205.029999999999,-8415.63,-28750.995,3161.745,10291.635
1764769164.668918,6115.59,2629.44,-30563.82,-8210.654999999999,-8421.525,-28757.115,3156.075,10284.885
1764769164.668918,6122.655,2636.235,-30557.385,-8204.715,-8414.235,-28749.78,3161.835,10290.645
1764769164.668918,6112.62,2624.58,-30568.32,-8216.46,-8426.115,-28760.625,3151.17,10279.17
1764769164.668918,6111.315,2622.6,-30568.995,-8218.215,-8427.645,-28761.795,3149.505,10277.91
1764769164.668918,6119.099999999999,2630.52,-30561.03,-8210.07,-8419.32,-28753.29,3156.255,10285.38
1764769164.668918,6122.16,2633.985,-30558.015,-8206.785,-8415.539999999999,-28749.78,3159.27,10288.62
1764769164.668918,6125.895,2638.62,-30553.605,-8203.14,-8411.625,-28745.64,3164.22,10293.57
1764769164.6699266,6126.66,2639.88,-30552.21,-8201.654999999999,-8409.914999999999,-28744.92,3165.57,10296.135
1764769164.6699266,6125.804999999999,2638.845,-30553.155,-8202.105,-8410.994999999999,-28745.91,3165.03,10295.28
1764769164.715536,6122.429999999999,2635.56,-30557.34,-8206.154999999999,-8414.955,-28749.555,3162.285,10291.68
1764769164.715536,6131.34,2644.695,-30547.89,-8197.244999999999,-8404.965,-28740.33,3170.385,10300.365
1764769164.715536,6134.31,2647.71,-30545.055,-8194.815,-8401.68,-28736.685,3173.805,10303.155
1764769164.715536,6123.554999999999,2635.83,-30556.665,-8206.56,-8413.74,-28748.745,3163.05,10290.42
1764769164.715536,6124.86,2636.37,-30556.485,-8205.795,-8413.92,-28748.34,3162.645,10290.06
1764769164.715536,6129.99,2642.13,-30550.185,-8199.315,-8406.945,-28741.23,3166.56,10295.1
1764769164.715536,6126.929999999999,2638.98,-30554.235,-8203.5,-8410.635,-28745.145,3163.5,10292.535
1764769164.715536,6120.63,2632.59,-30560.4,-8209.664999999999,-8416.8,-28751.4,3158.01,10286.82
1764769164.715536,6112.395,2623.995,-30569.175,-8217.945,-8425.619999999999,-28760.94,3150.405,10277.595
1764769164.715536,6119.82,2632.725,-30560.76,-8209.44,-8416.98,-28752.075,3158.01,10286.235
1764769164.715536,6114.554999999999,2627.1,-30567.06,-8215.605,-8423.369999999999,-28758.06,3153.87,10281.33
1764769164.715536,6114.735,2626.47,-30567.78,-8216.505,-8424.045,-28758.285,3153.87,10280.745
1764769164.715536,6125.849999999999,2637.99,-30556.305,-8204.58,-8412.795,-28747.17,3163.41,10291.545
1764769164.715536,6117.615,2628.45,-30565.89,-8214.255,-8421.885,-28756.035,3154.995,10281.105
1764769164.715536,6115.545,2625.66,-30567.555,-8216.595,-8424.404999999999,-28758.735,3151.89,10277.91
1764769164.715536,6117.12,2627.235,-30566.205,-8214.3,-8422.38,-28757.25,3153.06,10279.755
1764769164.715536,6127.92,2639.565,-30553.965,-8202.015,-8410.365,-28745.1,3164.355,10291.635
1764769164.715536,6124.23,2636.415,-30556.575,-8205.119999999999,-8413.56,-28747.8,3163.005,10289.205
1764769164.715536,6121.395,2634.39,-30559.095,-8207.279999999999,-8415.675,-28749.78,3160.485,10286.685
1764769164.715536,6119.37,2631.735,-30561.39,-8209.8,-8417.52,-28752.345,3158.145,10284.795
1764769164.715536,6113.385,2625.84,-30567.555,-8217.045,-8424.72,-28759.455,3152.385,10278.765
1764769164.715536,6110.91,2623.275,-30570.57,-8219.52,-8427.555,-28762.11,3149.055,10275.975
1764769164.715536,6115.365,2626.74,-30567.24,-8215.065,-8423.82,-28758.69,3151.845,10279.17
1764769164.715536,6107.445,2617.785,-30575.475,-8223.975,-8433.045,-28767.24,3143.34,10269.315
1764769164.762091,6110.775,2620.08,-30572.775,-8221.904999999999,-8430.75,-28765.035,3144.42,10271.835
1764769164.762091,6105.96,2614.77,-30578.04,-8226.72,-8434.8,-28769.13,3140.235,10266.705
1764769164.762091,6106.185,2615.895,-30576.15,-8224.199999999999,-8432.505,-28766.565,3141.855,10268.01
1764769164.762091,6110.91,2621.835,-30571.065,-8218.98,-8428.095,-28762.02,3146.625,10273.545
1764769164.762091,6121.26,2633.04,-30560.4,-8209.485,-8417.61,-28752.615,3156.345,10283.805
1764769164.762091,6110.55,2621.61,-30571.38,-8220.779999999999,-8429.039999999999,-28764.675,3146.31,10272.87
1764769164.762091,6109.155,2620.26,-30572.595,-8222.445,-8430.119999999999,-28766.205,3144.06,10271.7
1764769164.762091,6121.395,2633.355,-30559.32,-8209.17,-8417.115,-28752.345,3155.445,10284.435
1764769164.762091,6128.054999999999,2638.71,-30554.1,-8202.555,-8411.265,-28745.64,3161.835,10289.43
1764769164.762091,6119.37,2628.225,-30564.495,-8212.32,-8420.445,-28754.55,3153.015,10279.35
1764769164.762091,6128.325,2637.18,-30554.955,-8203.095,-8411.31,-28745.415,3160.755,10288.125
1764769164.762091,6129.585,2638.98,-30554.145,-8202.6,-8412.345,-28745.82,3161.61,10290.24
1764769164.762091,6121.844999999999,2631.105,-30562.74,-8209.529999999999,-8418.779999999999,-28752.345,3155.445,10282.185
1764769164.7626336,6127.74,2637.72,-30555.855,-8202.015,-8410.23,-28743.84,3161.925,10289.16
1764769164.7626336,6126.705,2636.64,-30557.295,-8203.14,-8412.255,-28746.405,3161.97,10289.25
1764769164.7626336,6132.735,2643.255,-30551.13,-8196.57,-8405.82,-28740.645,3166.29,10295.37
1764769164.7626336,6134.804999999999,2644.92,-30549.015,-8194.545,-8404.02,-28739.07,3168.135,10296.945
1764769164.7626336,6137.594999999999,2647.305,-30545.865,-8191.53,-8401.86,-28736.145,3171.015,10299.195
1764769164.7626336,6143.535,2653.38,-30540.015,-8185.32,-8395.92,-28730.115,3177.675,10305.315
1764769164.7626336,6135.75,2645.415,-30547.71,-8192.34,-8403.3,-28736.82,3170.79,10296.675
1764769164.7626336,6133.185,2640.87,-30551.94,-8196.345,-8407.485,-28740.24,3166.785,10293.435
1764769164.7626336,6133.365,2640.825,-30552.615,-8196.84,-8407.35,-28740.195,3165.885,10292.94
1764769164.808474,6137.955,2646.855,-30546.765,-8191.035,-8401.23,-28734.525,3171.42,10297.845
1764769164.808474,6145.245,2655.27,-30538.62,-8182.53,-8393.22,-28726.155,3178.575,10306.125
1764769164.808474,6139.53,2649.42,-30544.515,-8188.785,-8398.98,-28732.185,3173.76,10300.68
1764769164.808474,6141.915,2653.155,-30540.78,-8185.23,-8395.74,-28729.035,3177.585,10304.955
1764769164.808474,6151.86,2663.28,-30529.935,-8174.745,-8386.244999999999,-28719.72,3186.045,10314.945
1764769164.808474,6146.82,2656.485,-30536.595,-8181.045,-8391.779999999999,-28725.12,3180.645,10307.925
1764769164.808474,6147.945,2656.755,-30536.595,-8180.955,-8392.5,-28724.535,3180.375,10307.7
1764769164.808474,6134.985,2642.67,-30552.255,-8195.58,-8408.205,-28739.97,3165.795,10292.58
1764769164.808474,6139.844999999999,2646.945,-30547.485,-8190.495,-8402.805,-28734.39,3169.485,10296.945
1764769164.808474,6140.745,2647.62,-30546.45,-8188.29,-8400.914999999999,-28732.32,3170.205,10297.485
1764769164.808474,6135.165,2642.355,-30551.085,-8194.185,-8406.225,-28737.9,3166.02,10291.86
1764769164.808474,6139.125,2647.62,-30545.91,-8189.415,-8401.32,-28733.58,3171.105,10297.755
1764769164.808474,6145.514999999999,2654.775,-30538.98,-8181.809999999999,-8394.345,-28725.885,3177.495,10305.27
1764769164.808474,6142.005,2652.12,-30541.5,-8183.655,-8396.64,-28728.27,3176.55,10301.76
1764769164.808474,6153.389999999999,2664.495,-30529.125,-8171.955,-8385.75,-28717.155,3186.855,10313.82
1764769164.808474,6159.195,2670.435,-30522.735,-8166.375,-8379.855,-28711.125,3192.885,10320.525
1764769164.808474,6154.02,2663.145,-30528.99,-8172.764999999999,-8386.515,-28717.515,3187.35,10314.675
1764769164.808474,6141.014999999999,2649.105,-30542.04,-8185.724999999999,-8399.88,-28731.51,3174.885,10300.275
1764769164.808474,6143.4,2651.67,-30539.7,-8183.655,-8398.619999999999,-28729.44,3176.145,10302.66
1764769164.808474,6147.0,2655.0,-30536.82,-8180.325,-8395.965,-28726.02,3178.845,10306.305
1764769164.808474,6156.405,2664.72,-30526.605,-8170.559999999999,-8385.48,-28716.3,3187.71,10316.07
1764769164.808474,6154.514999999999,2663.55,-30527.19,-8171.549999999999,-8386.02,-28717.92,3187.98,10314.09
1764769164.85593,6161.804999999999,2671.29,-30519.9,-8163.45,-8378.595,-28710.765,3194.64,10321.83
1764769164.85593,6165.45,2675.925,-30515.13,-8159.174999999999,-8374.23,-28706.355,3199.05,10326.195
1764769164.85593,6166.17,2677.185,-30514.005,-8158.455,-8373.105,-28705.59,3200.22,10327.455
1764769164.85644,6162.974999999999,2672.955,-30517.515,-8161.38,-8375.985,-28708.155,3197.43,10323.315
1764769164.85644,6162.929999999999,2670.66,-30519.09,-8162.639999999999,-8376.39,-28708.425,3195.18,10321.425
1764769164.85644,6150.735,2657.025,-30533.265,-8177.894999999999,-8392.005,-28722.6,3182.04,10307.52
1764769164.85644,6151.455,2657.88,-30531.555,-8175.33,-8390.789999999999,-28720.845,3182.85,10307.52
1764769164.85644,6161.67,2667.825,-30521.52,-8164.485,-8381.295,-28712.205,3190.32,10317.285
1764769164.85644,6162.57,2668.86,-30520.845,-8163.179999999999,-8379.675,-28711.08,3191.985,10318.455
1764769164.85644,6154.74,2662.335,-30527.955,-8170.155,-8385.93,-28717.74,3187.26,10311.795
1764769164.85644,6154.11,2662.785,-30526.29,-8169.525,-8384.985,-28716.93,3188.295,10312.56
1764769164.85644,6156.179999999999,2665.215,-30523.95,-8166.644999999999,-8381.835,-28714.41,3190.545,10314.855
1764769164.85644,6164.01,2672.37,-30516.795,-8159.49,-8373.914999999999,-28706.085,3197.205,10322.46
1764769164.85644,6160.139999999999,2667.825,-30521.475,-8163.224999999999,-8378.055,-28710.225,3193.965,10318.32
1764769164.85644,6166.395,2674.17,-30515.94,-8156.88,-8371.44,-28703.52,3198.375,10323.585
1764769164.85644,6164.325,2671.02,-30518.415,-8160.12,-8374.455,-28705.185,3195.585,10320.75
1764769164.85644,6157.395,2664.27,-30525.435,-8167.049999999999,-8383.32,-28712.88,3188.835,10313.73
1764769164.85644,6163.65,2670.255,-30518.865,-8161.335,-8376.795,-28706.985,3193.74,10320.075
1764769164.85644,6165.585,2672.64,-30516.615,-8158.59,-8374.005,-28704.33,3196.395,10322.28
1764769164.85644,6158.88,2666.295,-30523.32,-8165.384999999999,-8381.43,-28711.215,3190.275,10315.53
1764769164.85644,6165.179999999999,2672.82,-30516.3,-8158.769999999999,-8373.96,-28704.6,3195.72,10322.325
1764769164.85644,6167.835,2676.42,-30513.015,-8154.495,-8370.18,-28700.91,3200.535,10326.78
1764769164.85644,6167.205,2675.565,-30514.68,-8155.844999999999,-8371.44,-28701.765,3200.355,10325.61
1764769164.85644,6173.955,2682.45,-30507.795,-8148.825,-8364.105,-28694.88,3205.485,10331.955
1764769164.8990738,6175.26,2682.135,-30507.795,-8149.094999999999,-8364.465,-28695.375,3205.71,10331.91
1764769164.8990738,6166.98,2672.055,-30517.785,-8160.03,-8374.68,-28705.77,3196.53,10321.2
1764769164.8990738,6174.81,2680.425,-30509.055,-8151.705,-8366.58,-28697.31,3203.685,10329.795
1764769164.8990738,6174.135,2679.795,-30509.685,-8152.155,-8368.065,-28697.895,3202.875,10328.895
1764769164.8990738,6164.865,2669.58,-30518.685,-8161.695,-8376.48,-28707.705,3194.46,10318.86
1764769164.8990738,6161.67,2667.465,-30521.43,-8164.394999999999,-8379.18,-28710.72,3192.075,10316.745
1764769164.8995855,6169.5,2675.97,-30513.42,-8157.195,-8372.16,-28703.745,3199.365,10325.16
1764769164.8995855,6165.36,2671.11,-30517.605,-8162.235,-8377.47,-28709.055,3195.9,10319.715
1764769164.8995855,6165.63,2670.3,-30517.605,-8160.48,-8373.69,-28705.815,3194.91,10319.31
1764769164.8995855,6165.45,2669.895,-30519.18,-8160.795,-8374.545,-28706.22,3194.595,10318.86
1764769164.8995855,6175.035,2679.705,-30509.685,-8151.255,-8365.635,-28697.265,3202.38,10327.32
1764769164.8995855,6172.92,2677.41,-30511.62,-8153.505,-8368.244999999999,-28699.38,3199.815,10324.755
1764769164.8995855,6172.245,2677.095,-30513.195,-8154.63,-8369.055,-28699.605,3199.545,10323.945
1764769164.8995855,6163.38,2667.51,-30522.42,-8164.304999999999,-8378.279999999999,-28708.83,3191.535,10314.585
1764769164.8995855,6160.635,2664.855,-30524.58,-8166.78,-8381.07,-28711.845,3189.195,10312.56
1764769164.8995855,6164.145,2669.355,-30519.045,-8161.38,-8376.345,-28707.3,3194.01,10317.285
1764769164.8995855,6168.285,2674.485,-30513.465,-8155.62,-8370.18,-28701.9,3198.195,10322.145
1764769164.8995855,6161.264999999999,2666.745,-30522.33,-8164.799999999999,-8378.955,-28710.045,3191.895,10315.35
1764769164.8995855,6161.67,2666.97,-30522.87,-8164.304999999999,-8379.63,-28709.955,3191.445,10316.205
1764769164.8995855,6169.185,2674.53,-30515.355,-8156.429999999999,-8371.845,-28702.62,3196.845,10324.215
1764769164.8995855,6172.29,2676.33,-30513.195,-8154.09,-8369.1,-28699.83,3198.645,10325.79
1764769164.8995855,6165.945,2669.4,-30520.35,-8160.03,-8375.22,-28705.635,3192.885,10318.77
1764769164.8995855,6179.445,2683.665,-30506.31,-8146.215,-8361.27,-28691.28,3205.575,10333.305
1764769164.8995855,6179.715,2683.305,-30506.265,-8145.99,-8361.404999999999,-28690.29,3205.98,10333.17
1764769164.9468043,6172.56,2675.475,-30512.79,-8152.424999999999,-8367.48,-28696.32,3200.085,10325.385
1764769164.9468043,6178.77,2682.36,-30506.265,-8146.17,-8361.494999999999,-28690.605,3204.63,10331.955
1764769164.9468043,6171.84,2675.88,-30512.88,-8152.785,-8367.525,-28696.68,3199.41,10325.52
1764769164.9468043,6167.745,2671.38,-30517.065,-8157.195,-8372.52,-28701.54,3195.81,10321.29
1764769164.9468043,6177.645,2680.11,-30508.02,-8148.24,-8363.52,-28692.99,3203.46,10331.235
1764769164.9468043,6177.375,2679.165,-30508.11,-8148.735,-8364.285,-28694.43,3202.515,10330.38
1764769164.9468043,6165.719999999999,2665.71,-30522.42,-8161.875,-8378.865,-28708.605,3188.565,10316.475
1764769164.9468043,6159.554999999999,2659.005,-30528.765,-8167.905,-8384.4,-28713.105,3181.545,10308.78
1764769164.9468043,6157.26,2655.855,-30531.375,-8171.054999999999,-8387.73,-28714.905,3180.78,10306.845
1764769164.9468043,6163.965,2664.18,-30523.32,-8162.235,-8379.72,-28706.805,3187.395,10315.08
1764769164.9468043,6163.74,2664.72,-30523.095,-8162.28,-8379.09,-28707.165,3188.205,10315.485
1764769164.9468043,6167.88,2669.49,-30517.92,-8157.69,-8373.735,-28702.485,3192.57,10320.12
1764769164.9468043,6168.014999999999,2669.94,-30517.65,-8157.375,-8374.095,-28702.395,3193.605,10320.435
1764769164.9468043,6176.61,2679.345,-30508.29,-8147.474999999999,-8364.33,-28693.08,3202.335,10330.245
1764769164.9468043,6168.51,2670.66,-30516.795,-8155.98,-8373.24,-28702.08,3194.235,10321.74
1764769164.9468043,6166.17,2667.735,-30519.45,-8158.59,-8375.895,-28704.96,3191.22,10318.86
1764769164.9468043,6170.535,2671.065,-30516.165,-8154.495,-8372.025,-28700.73,3193.47,10322.235
1764769164.9468043,6165.179999999999,2663.82,-30523.455,-8160.795,-8379.27,-28707.48,3187.8,10315.035
1764769164.9468043,6158.295,2656.305,-30530.97,-8167.679999999999,-8386.695,-28714.365,3180.735,10306.62
1764769164.9468043,6155.325,2653.83,-30533.355,-8169.84,-8389.08,-28716.615,3177.315,10303.605
1764769164.9478097,6161.94,2660.94,-30526.38,-8163.855,-8383.005,-28710.495,3182.58,10310.22
1764769164.9478097,6159.195,2659.14,-30528.315,-8165.655,-8383.545,-28711.17,3182.31,10308.42
1764769164.9478097,6167.835,2668.59,-30519.315,-8156.61,-8374.904999999999,-28703.43,3190.185,10318.365
1764769164.9478097,6167.925,2668.635,-30518.865,-8156.519999999999,-8374.455,-28703.205,3190.68,10318.68
1764769164.9937432,6162.795,2662.515,-30525.21,-8163.224999999999,-8380.619999999999,-28710.405,3185.685,10312.65
1764769164.9937432,6170.445,2670.435,-30518.19,-8155.44,-8374.005,-28702.575,3191.67,10320.03
1764769164.9937432,6174.495,2673.765,-30514.095,-8151.03,-8369.82,-28698.39,3195.27,10324.305
1764769164.9937432,6166.98,2665.845,-30521.295,-8158.005,-8378.19,-28707.165,3187.485,10316.16
1764769164.9937432,6160.545,2659.545,-30527.82,-8163.855,-8384.13,-28713.285,3182.13,10308.825
1764769164.9937432,6164.775,2663.82,-30524.13,-8160.389999999999,-8381.43,-28709.145,3186.18,10312.92
1764769164.9937432,6158.52,2657.43,-30530.88,-8166.375,-8388.225,-28715.58,3180.96,10306.89
1764769164.9937432,6165.675,2665.71,-30522.6,-8157.33,-8379.449999999999,-28707.795,3187.98,10315.53
1764769164.9937432,6167.429999999999,2668.275,-30519.315,-8154.0,-8376.48,-28704.465,3191.535,10318.545
1764769164.9937432,6162.525,2662.38,-30524.76,-8159.67,-8382.33,-28710.99,3186.54,10312.92
1764769164.9937432,6151.77,2650.68,-30536.145,-8171.46,-8394.164999999999,-28723.365,3175.74,10301.355
1764769164.9937432,6159.645,2658.465,-30529.44,-8163.945,-8386.965,-28715.715,3181.77,10309.23
1764769164.9937432,6160.995,2658.87,-30529.215,-8163.179999999999,-8387.414999999999,-28715.94,3181.41,10309.05
1764769164.9937432,6154.92,2651.22,-30535.47,-8169.389999999999,-8394.029999999999,-28722.69,3174.84,10301.265
1764769164.9937432,6154.02,2649.87,-30536.415,-8170.29,-8396.324999999999,-28724.58,3173.13,10299.735
1764769164.9937432,6146.415,2642.085,-30543.57,-8178.165,-8404.199999999999,-28732.275,3166.515,10291.23
1764769164.9937432,6143.895,2640.195,-30546.315,-8180.73,-8405.235,-28733.85,3164.58,10288.575
1764769164.9937432,6148.035,2644.11,-30542.085,-8176.86,-8401.815,-28730.835,3167.955,10293.03
1764769164.9937432,6140.07,2636.1,-30549.825,-8185.139999999999,-8410.365,-28739.79,3160.71,10285.245
1764769164.994753,6143.355,2640.195,-30545.325,-8180.235,-8405.324999999999,-28735.065,3164.625,10289.205
1764769164.994753,6135.84,2631.195,-30554.37,-8188.695,-8414.145,-28743.165,3157.2,10280.52
1764769164.994753,6134.31,2628.405,-30556.845,-8191.799999999999,-8417.52,-28746.18,3153.69,10277.64
1764769165.041045,6143.31,2637.495,-30547.89,-8182.62,-8408.52,-28736.73,3161.43,10286.19
1764769165.041045,6140.474999999999,2634.795,-30551.49,-8185.679999999999,-8412.39,-28740.285,3157.47,10281.87
1764769165.041045,6140.655,2633.58,-30553.38,-8187.12,-8415.72,-28742.895,3156.525,10281.42
1764769165.041045,6138.585,2630.025,-30555.99,-8189.28,-8417.07,-28744.74,3153.6,10278.135
1764769165.041045,6136.65,2627.505,-30557.925,-8190.54,-8417.88,-28746.54,3150.54,10273.905
1764769165.041045,6129.36,2621.79,-30563.865,-8196.93,-8423.865,-28753.065,3146.715,10267.56
1764769165.041045,6129.495,2622.87,-30563.775,-8197.154999999999,-8424.315,-28753.2,3147.93,10269.405
1764769165.041045,6131.969999999999,2625.345,-30561.615,-8195.175,-8423.055,-28751.085,3149.64,10271.835
1764769165.041045,6122.745,2614.635,-30571.92,-8205.795,-8433.855,-28762.425,3139.83,10261.485
1764769165.041045,6124.635,2616.93,-30569.94,-8204.355,-8432.865,-28761.12,3141.135,10262.97
1764769165.041566,6133.455,2625.165,-30561.255,-8195.85,-8424.36,-28751.94,3147.75,10272.015
1764769165.041566,6128.054999999999,2619.315,-30566.7,-8201.475,-8429.76,-28757.565,3142.305,10265.58
1764769165.041566,6121.62,2611.98,-30574.215,-8209.35,-8437.095,-28764.72,3135.825,10257.57
1764769165.041566,6126.705,2616.66,-30569.625,-8204.715,-8433.404999999999,-28760.76,3138.795,10262.7
1764769165.041566,6124.5,2614.905,-30572.19,-8205.345,-8434.935,-28762.65,3136.77,10260.09
1764769165.041566,6121.485,2612.205,-30574.53,-8207.055,-8435.654999999999,-28764.405,3134.52,10257.48
1764769165.041566,6119.91,2611.305,-30574.62,-8208.045,-8436.015,-28764.855,3134.88,10257.66
1764769165.041566,6119.639999999999,2612.52,-30574.215,-8208.36,-8437.005,-28766.79,3134.88,10258.29
1764769165.041566,6117.705,2609.685,-30577.455,-8211.51,-8440.425,-28770.615,3131.37,10254.87
1764769165.041566,6119.82,2611.035,-30575.88,-8209.755,-8437.904999999999,-28768.14,3133.62,10256.715
1764769165.041566,6120.179999999999,2610.63,-30577.23,-8210.789999999999,-8438.895,-28769.085,3132.495,10256.535
1764769165.041566,6109.335,2599.425,-30588.525,-8222.085,-8450.279999999999,-28779.705,3122.1,10244.88
1764769165.041566,6109.74,2599.155,-30588.93,-8222.13,-8450.64,-28779.435,3122.28,10245.33
1764769165.041566,6116.13,2605.86,-30582.315,-8215.965,-8443.44,-28772.55,3127.095,10251.495
1764769165.087877,6111.719999999999,2600.82,-30586.59,-8220.465,-8448.93,-28777.275,3121.965,10246.635
1764769165.087877,6102.179999999999,2590.92,-30596.04,-8230.095,-8458.065,-28786.77,3113.595,10237.815
1764769165.087877,6100.695,2590.785,-30597.12,-8231.22,-8458.83,-28788.255,3113.01,10237.095
1764769165.087877,6099.974999999999,2591.055,-30597.795,-8231.94,-8459.46,-28789.605,3112.65,10237.095
1764769165.087877,6103.844999999999,2594.655,-30594.78,-8227.98,-8455.815,-28786.365,3115.98,10240.74
1764769165.087877,6110.054999999999,2600.415,-30588.075,-8220.51,-8448.93,-28779.345,3121.83,10246.455
1764769165.087877,6119.28,2609.1,-30579.435,-8211.6,-8439.84,-28770.345,3129.93,10255.275
1764769165.087877,6107.175,2595.195,-30593.7,-8225.955,-8454.015,-28785.06,3117.96,10241.73
1764769165.087877,6105.735,2593.665,-30594.645,-8227.619999999999,-8454.645,-28786.68,3115.35,10239.525
1764769165.087877,6116.625,2604.825,-30584.52,-8216.505,-8443.26,-28774.845,3125.7,10250.73
1764769165.087877,6111.135,2598.975,-30590.235,-8222.715,-8449.11,-28780.695,3120.75,10245.285
1764769165.087877,6112.889999999999,2601.45,-30587.355,-8220.285,-8446.5,-28779.21,3122.415,10248.12
1764769165.087877,6108.255,2597.13,-30592.35,-8225.19,-8451.63,-28785.06,3119.22,10243.935
1764769165.087877,6112.26,2601.855,-30587.04,-8220.33,-8446.185,-28780.38,3124.26,10248.255
1764769165.087877,6104.07,2594.52,-30593.88,-8227.529999999999,-8453.07,-28786.86,3118.5,10241.19
1764769165.088897,6105.33,2594.97,-30594.24,-8227.44,-8453.654999999999,-28787.265,3118.545,10241.91
1764769165.088897,6116.264999999999,2604.645,-30584.205,-8217.315,-8443.71,-28777.23,3127.095,10252.17
1764769165.088897,6115.86,2603.745,-30585.33,-8218.35,-8444.295,-28777.86,3126.15,10251.405
1764769165.088897,6116.175,2603.565,-30587.22,-8220.015,-8446.949999999999,-28779.48,3124.89,10251.135
1764769165.088897,6106.995,2594.655,-30595.365,-8226.81,-8453.475,-28786.41,3117.87,10242.18
1764769165.088897,6107.76,2595.555,-30593.34,-8224.154999999999,-8450.865,-28783.98,3118.905,10243.08
1764769165.088897,6115.679999999999,2604.33,-30584.07,-8215.875,-8442.539999999999,-28775.52,3126.285,10251.72
1764769165.135373,6118.38,2606.985,-30580.92,-8213.49,-8439.57,-28773.495,3130.425,10255.095
1764769165.135373,6118.02,2606.625,-30582.09,-8214.48,-8440.02,-28774.26,3130.695,10255.05
1764769165.135373,6109.02,2597.22,-30592.08,-8225.279999999999,-8451.315,-28785.51,3121.56,10244.88
1764769165.136394,6114.375,2602.845,-30586.095,-8218.755,-8445.645,-28779.3,3126.78,10250.145
1764769165.136394,6114.06,2601.45,-30586.725,-8219.385,-8446.635,-28780.74,3125.025,10248.255
1764769165.136394,6100.65,2586.51,-30600.99,-8233.289999999999,-8461.17,-28794.285,3111.12,10232.82
1764769165.136394,6100.605,2585.16,-30603.42,-8236.664999999999,-8464.275,-28796.265,3110.445,10232.235
1764769165.136394,6107.445,2592.495,-30596.625,-8229.375,-8456.355,-28789.02,3115.98,10238.895
1764769165.136394,6103.71,2588.985,-30599.91,-8232.84,-8458.965,-28792.665,3113.37,10235.07
1764769165.136394,6106.679999999999,2592.135,-30596.535,-8229.914999999999,-8455.77,-28789.785,3116.07,10238.445
1764769165.136394,6116.67,2603.745,-30585.465,-8218.98,-8444.205,-28778.715,3125.925,10249.605
1764769165.136394,6113.34,2599.695,-30589.155,-8222.895,-8447.58,-28783.17,3123.63,10246.32
1764769165.136394,6114.735,2600.595,-30588.48,-8221.725,-8446.949999999999,-28781.145,3124.485,10247.355
1764769165.136394,6123.105,2609.325,-30579.93,-8213.175,-8439.615,-28772.55,3131.46,10255.32
1764769165.136394,6126.435,2611.755,-30577.41,-8210.744999999999,-8436.869999999999,-28769.895,3133.35,10258.11
1764769165.136394,6123.014999999999,2607.345,-30580.2,-8213.76,-8440.154999999999,-28772.955,3130.155,10254.06
1764769165.136394,6124.995,2609.55,-30578.265,-8211.914999999999,-8439.3,-28772.28,3131.685,10254.96
1764769165.136394,6122.565,2606.85,-30581.595,-8214.39,-8441.82,-28774.845,3129.12,10252.395
1764769165.1373923,6119.01,2603.79,-30584.25,-8218.305,-8445.6,-28778.985,3126.105,10250.055
1764769165.1373923,6108.75,2594.52,-30594.015,-8228.52,-8455.23,-28788.975,3117.69,10239.885
1764769165.1373923,6105.195,2591.865,-30597.255,-8231.22,-8458.47,-28792.575,3115.44,10236.96
1764769165.1373923,6110.099999999999,2596.77,-30592.08,-8226.27,-8453.34,-28788.345,3119.85,10241.82
1764769165.1373923,6123.735,2610.315,-30577.95,-8212.545,-8439.57,-28774.17,3132.36,10255.095
1764769165.1373923,6126.885,2612.565,-30575.745,-8210.925,-8437.5,-28771.47,3134.07,10257.345
1764769165.1796768,6122.835,2606.985,-30581.595,-8215.65,-8442.585,-28776.69,3128.895,10252.35
1764769165.1796768,6108.48,2591.415,-30597.12,-8231.445,-8457.885,-28792.17,3114.495,10236.555
1764769165.1796768,6110.82,2594.295,-30593.97,-8228.115,-8454.24,-28788.795,3116.52,10239.66
1764769165.1796768,6106.094999999999,2588.94,-30599.19,-8233.335,-8460.18,-28794.24,3112.785,10234.215
1764769165.1796768,6104.88,2587.905,-30599.865,-8233.965,-8460.855,-28794.825,3111.57,10232.82
1764769165.1796768,6098.13,2582.46,-30606.03,-8240.49,-8467.605,-28800.9,3106.755,10226.295
1764769165.1796768,6108.255,2593.215,-30595.14,-8229.555,-8456.58,-28790.325,3117.285,10238.625
1764769165.1796768,6102.585,2587.32,-30601.98,-8236.98,-8464.23,-28798.065,3111.885,10232.235
1764769165.1796768,6100.605,2584.53,-30605.58,-8240.895,-8468.19,-28801.845,3109.005,10230.435
1764769165.1796768,6105.15,2589.21,-30599.73,-8234.055,-8459.865,-28794.015,3112.83,10233.945
1764769165.1796768,6115.635,2599.245,-30589.83,-8224.065,-8450.055,-28783.935,3121.605,10243.44
1764769165.1796768,6108.48,2591.91,-30597.75,-8232.164999999999,-8458.38,-28791.99,3114.54,10236.06
1764769165.1796768,6113.205,2596.005,-30593.52,-8228.25,-8453.88,-28786.77,3118.185,10240.47
1764769165.1801865,6112.844999999999,2595.285,-30593.385,-8229.06,-8454.869999999999,-28788.03,3117.69,10240.56
1764769165.1801865,6109.245,2591.325,-30597.03,-8231.265,-8457.57,-28791.0,3113.82,10237.545
1764769165.1801865,6105.24,2587.86,-30601.125,-8235.09,-8461.035,-28794.645,3110.985,10234.71
1764769165.1801865,6099.929999999999,2583.45,-30605.67,-8240.76,-8467.289999999999,-28801.62,3106.89,10229.22
1764769165.1801865,6106.635,2590.245,-30598.56,-8233.38,-8459.73,-28794.195,3112.515,10235.88
1764769165.1801865,6111.585,2595.06,-30593.97,-8227.845,-8454.105,-28788.03,3117.42,10241.415
1764769165.1801865,6117.435,2600.73,-30588.39,-8222.805,-8449.515,-28782.99,3122.685,10246.275
1764769165.1801865,6120.855,2603.61,-30586.59,-8220.779999999999,-8447.805,-28781.505,3124.935,10248.21
1764769165.1801865,6113.025,2593.935,-30596.58,-8230.365,-8457.57,-28790.775,3116.205,10238.31
1764769165.1801865,6116.76,2596.905,-30593.61,-8227.215,-8454.285,-28787.085,3116.835,10240.605
1764769165.1801865,6112.17,2591.91,-30597.255,-8230.904999999999,-8456.49,-28790.19,3113.595,10235.97
1764769165.2300885,6102.81,2582.73,-30607.29,-8241.57,-8466.84,-28800.405,3105.81,10227.96
1764769165.2300885,6110.46,2592.0,-30598.425,-8231.985,-8457.795,-28791.9,3113.505,10237.185
1764769165.2300885,6114.96,2597.535,-30592.395,-8226.045,-8451.36,-28786.545,3118.455,10242.315
1764769165.2300885,6105.87,2588.805,-30601.215,-8235.494999999999,-8461.44,-28796.04,3110.895,10233.18
1764769165.2300885,6101.01,2583.72,-30606.12,-8240.265,-8466.39,-28800.855,3106.665,10228.5
1764769165.2300885,6111.179999999999,2594.43,-30595.59,-8230.41,-8455.59,-28789.92,3114.405,10238.58
1764769165.2300885,6117.344999999999,2599.47,-30590.685,-8225.46,-8449.92,-28784.52,3119.31,10243.62
1764769165.2300885,6113.25,2595.87,-30594.6,-8228.88,-8453.789999999999,-28788.165,3115.215,10239.21
1764769165.2300885,6115.77,2598.57,-30592.44,-8226.72,-8451.0,-28784.745,3117.195,10241.955
1764769165.231606,6115.86,2598.165,-30593.205,-8227.664999999999,-8451.27,-28785.69,3117.06,10241.595
1764769165.231606,6107.31,2588.535,-30601.98,-8236.035,-8459.955,-28794.51,3110.445,10232.82
1764769165.231606,6106.275,2588.175,-30602.205,-8237.61,-8460.945,-28795.995,3109.365,10232.055
1764769165.231606,6114.96,2598.165,-30592.755,-8228.654999999999,-8451.315,-28786.14,3118.185,10242.045
1764769165.231606,6108.57,2591.01,-30599.82,-8235.09,-8457.48,-28792.98,3113.685,10235.385
1764769165.231606,6106.005,2588.355,-30602.385,-8237.34,-8460.449999999999,-28795.815,3110.175,10232.28
1764769165.2326195,6109.74,2591.685,-30599.595,-8234.1,-8456.265,-28791.315,3113.415,10235.61
1764769165.2326195,6119.55,2600.82,-30591.9,-8225.775,-8448.345,-28783.35,3120.435,10244.61
1764769165.2326195,6116.985,2597.715,-30594.51,-8229.465,-8450.91,-28786.5,3117.195,10241.685
1764769165.2326195,6116.67,2596.455,-30594.87,-8230.005,-8451.585,-28787.265,3116.835,10240.335
1764769165.2326195,6109.605,2589.66,-30601.44,-8236.035,-8458.56,-28794.42,3111.57,10232.775
1764769165.2326195,6110.01,2590.785,-30600.855,-8235.315,-8458.38,-28793.43,3112.605,10234.71
1764769165.2326195,6115.995,2598.345,-30593.43,-8228.025,-8450.145,-28785.645,3119.58,10242.36
1764769165.2751553,6126.705,2608.83,-30581.865,-8217.36,-8438.715,-28774.665,3129.885,10254.33
1764769165.2751553,6125.4,2607.975,-30583.035,-8218.755,-8440.74,-28776.87,3128.58,10253.52
1764769165.2751553,6122.969999999999,2605.275,-30586.725,-8221.904999999999,-8444.654999999999,-28779.885,3125.52,10250.82
1764769165.2751553,6125.219999999999,2607.57,-30584.79,-8219.52,-8442.27,-28777.095,3127.455,10252.935
1764769165.2751553,6124.005,2604.87,-30588.165,-8223.164999999999,-8446.59,-28780.605,3125.52,10250.505
1764769165.2751553,6111.36,2590.785,-30602.025,-8236.395,-8458.875,-28792.845,3112.065,10235.655
1764769165.2751553,6113.429999999999,2593.215,-30598.56,-8233.154999999999,-8455.275,-28789.605,3113.235,10236.42
1764769165.2751553,6118.695,2599.92,-30591.45,-8226.27,-8449.11,-28783.62,3119.76,10243.08
1764769165.2751553,6132.78,2614.455,-30577.455,-8212.23,-8434.17,-28768.59,3133.755,10258.605
1764769165.2751553,6133.635,2616.435,-30575.565,-8210.789999999999,-8431.83,-28767.33,3135.105,10259.91
1764769165.2751553,6129.135,2611.98,-30580.515,-8215.92,-8436.24,-28771.2,3133.125,10255.725
1764769165.2751553,6136.605,2619.63,-30573.63,-8210.43,-8430.525,-28765.305,3140.055,10262.385
1764769165.2751553,6130.035,2612.52,-30580.605,-8217.09,-8437.095,-28772.145,3133.395,10256.715
1764769165.2751553,6129.945,2611.215,-30582.045,-8217.449999999999,-8436.96,-28771.47,3132.945,10255.68
1764769165.2751553,6138.315,2619.405,-30574.53,-8210.16,-8430.345,-28764.045,3138.39,10262.88
1764769165.2751553,6136.065,2616.345,-30576.915,-8212.635,-8433.225,-28767.24,3134.925,10259.685
1764769165.2751553,6134.445,2613.375,-30579.435,-8214.39,-8435.205,-28768.995,3134.16,10256.895
1764769165.2751553,6127.514999999999,2606.535,-30586.365,-8221.904999999999,-8442.81,-28777.23,3127.995,10249.785
1764769165.2751553,6123.915,2602.935,-30590.64,-8225.685,-8446.635,-28781.955,3124.395,10246.455
1764769165.2751553,6122.61,2603.61,-30589.74,-8225.01,-8446.455,-28782.045,3124.71,10246.545
1764769165.2751553,6124.545,2607.3,-30586.77,-8221.994999999999,-8443.574999999999,-28778.715,3128.67,10249.92
1764769165.2751553,6124.95,2606.895,-30587.76,-8222.265,-8443.215,-28778.58,3128.76,10249.56
1764769165.2751553,6129.945,2611.035,-30582.945,-8217.9,-8438.85,-28774.53,3132.135,10254.555
1764769165.2751553,6132.42,2613.555,-30579.615,-8214.84,-8435.744999999999,-28771.155,3134.385,10256.535
1764769165.321891,6134.355,2615.355,-30577.68,-8212.23,-8432.73,-28766.88,3137.67,10258.92
1764769165.321891,6125.76,2605.905,-30587.805,-8221.904999999999,-8444.025,-28777.905,3128.535,10248.93
1764769165.3224018,6129.719999999999,2609.595,-30584.07,-8218.35,-8440.965,-28774.125,3130.335,10251.72
1764769165.3224018,6133.094999999999,2612.07,-30581.1,-8215.289999999999,-8437.23,-28770.57,3132.9,10254.645
1764769165.3224018,6132.24,2610.99,-30581.865,-8216.414999999999,-8437.275,-28771.515,3132.72,10254.24
1764769165.3224018,6124.635,2603.43,-30590.505,-8225.19,-8447.49,-28781.73,3126.6,10247.265
1764769165.3224018,6128.594999999999,2607.66,-30586.365,-8220.779999999999,-8443.125,-28776.78,3129.885,10251.72
1764769165.3224018,6124.679999999999,2603.07,-30589.245,-8224.47,-8446.68,-28781.145,3126.33,10246.86
1764769165.3224018,6131.745,2610.63,-30582.315,-8217.72,-8439.029999999999,-28774.125,3132.81,10253.79
1764769165.3224018,6130.71,2608.92,-30584.88,-8220.375,-8441.55,-28775.565,3131.28,10252.26
1764769165.3224018,6130.935,2608.02,-30586.005,-8221.635,-8441.775,-28775.745,3130.335,10251.72
1764769165.3224018,6131.79,2608.47,-30584.385,-8219.744999999999,-8440.199999999999,-28774.08,3131.145,10251.99
1764769165.3224018,6136.38,2612.295,-30581.01,-8216.865,-8438.13,-28771.155,3135.465,10256.58
1764769165.3224018,6140.61,2616.075,-30577.14,-8213.535,-8434.529999999999,-28767.06,3140.28,10260.72
1764769165.3224018,6141.87,2618.415,-30574.17,-8209.215,-8429.715,-28763.64,3142.08,10261.755
1764769165.3224018,6140.88,2618.01,-30574.53,-8209.215,-8430.21,-28763.865,3141.72,10261.26
1764769165.3224018,6131.025,2608.695,-30584.25,-8219.43,-8439.75,-28773.09,3134.295,10252.035
1764769165.3224018,6132.96,2610.63,-30582.63,-8218.215,-8438.895,-28772.145,3135.06,10253.43
1764769165.3224018,6128.235,2604.735,-30588.3,-8224.92,-8445.33,-28779.705,3129.75,10247.76
1764769165.3224018,6136.56,2612.385,-30580.515,-8217.045,-8437.23,-28771.56,3136.23,10255.32
1764769165.3224018,6135.84,2610.54,-30582.045,-8217.63,-8438.535,-28771.83,3134.115,10254.195
1764769165.3224018,6128.235,2601.585,-30590.865,-8226.404999999999,-8447.58,-28780.605,3125.115,10245.825
1764769165.3224018,6117.705,2589.885,-30602.655,-8237.565,-8459.19,-28792.17,3114.81,10233.225
1764769165.3224018,6114.87,2588.13,-30604.365,-8239.32,-8460.675,-28793.925,3113.19,10230.93
1764769165.368725,6117.57,2591.28,-30601.62,-8236.89,-8457.525,-28791.45,3115.575,10234.53
1764769165.368725,6123.78,2598.03,-30595.05,-8230.59,-8450.595,-28784.7,3121.38,10241.73
1764769165.368725,6126.03,2601.36,-30591.765,-8227.305,-8448.39,-28781.82,3124.26,10244.835
1764769165.368725,6126.255,2602.845,-30590.55,-8226.315,-8448.48,-28781.865,3125.34,10246.005
1764769165.368725,6122.25,2598.03,-30595.095,-8231.175,-8453.16,-28786.995,3121.875,10241.73
1764769165.368725,6124.95,2600.055,-30592.53,-8229.195,-8449.83,-28784.745,3124.485,10243.215
1764769165.368725,6137.955,2611.845,-30580.785,-8216.73,-8437.725,-28771.695,3135.825,10255.725
1764769165.368725,6127.335,2599.2,-30593.52,-8229.914999999999,-8451.315,-28784.7,3123.81,10242.945
1764769165.368725,6120.09,2591.19,-30600.315,-8237.699999999999,-8458.695,-28792.035,3116.385,10235.565
1764769165.368725,6119.46,2591.01,-30600.405,-8237.654999999999,-8459.324999999999,-28792.17,3115.98,10235.07
1764769165.368725,6125.58,2597.58,-30593.295,-8231.039999999999,-8452.215,-28785.105,3122.28,10242.45
1764769165.368725,6133.86,2607.525,-30583.755,-8222.49,-8442.09,-28776.105,3130.965,10252.035
1764769165.368725,6130.98,2604.78,-30586.725,-8225.64,-8445.015,-28779.705,3128.22,10249.695
1764769165.368725,6121.26,2594.565,-30596.31,-8235.675,-8454.645,-28789.965,3119.445,10238.76
1764769165.368725,6121.575,2594.97,-30596.265,-8235.539999999999,-8453.835,-28789.065,3119.13,10238.535
1764769165.368725,6134.085,2605.86,-30584.07,-8223.84,-8442.404999999999,-28776.015,3129.795,10250.505
1764769165.368725,6139.304999999999,2611.17,-30579.57,-8219.34,-8437.77,-28771.29,3133.935,10255.185
1764769165.368725,6130.08,2601.09,-30589.02,-8228.43,-8446.455,-28779.57,3125.655,10245.285
1764769165.368725,6133.005,2603.475,-30588.165,-8226.765,-8445.555,-28778.715,3127.32,10246.545
1764769165.368725,6137.685,2608.29,-30582.855,-8221.32,-8439.255,-28773.315,3132.135,10251.675
1764769165.368725,6135.3,2605.23,-30585.645,-8223.795,-8441.64,-28774.845,3130.11,10250.235
1764769165.368725,6131.429999999999,2602.305,-30588.525,-8227.035,-8444.88,-28777.905,3127.005,10247.085
1764769165.4157517,6132.42,2604.78,-30586.095,-8225.505,-8443.845,-28777.095,3129.03,10248.345
1764769165.4157517,6132.735,2604.51,-30586.59,-8226.315,-8444.654999999999,-28778.4,3128.85,10248.795
1764769165.4157517,6132.195,2603.565,-30587.715,-8227.619999999999,-8445.42,-28778.22,3127.905,10248.345
1764769165.4157517,6137.37,2609.01,-30583.08,-8223.255,-8439.705,-28773.0,3132.45,10252.845
1764769165.4157517,6150.78,2621.655,-30570.975,-8210.475,-8427.375,-28760.355,3143.34,10265.085
1764769165.4157517,6147.945,2618.37,-30574.44,-8213.535,-8431.154999999999,-28763.28,3141.63,10262.025
1764769165.4157517,6148.98,2619.18,-30574.26,-8213.13,-8430.029999999999,-28762.38,3142.17,10262.25
1764769165.4157517,6156.63,2627.235,-30568.095,-8207.505,-8424.045,-28755.72,3150.18,10271.385
1764769165.4157517,6164.46,2634.84,-30559.995,-8199.63,-8415.225,-28747.665,3158.01,10279.485
1764769165.4157517,6155.505,2627.235,-30566.34,-8205.795,-8420.445,-28754.775,3150.45,10270.17
1764769165.4157517,6150.105,2621.79,-30571.965,-8211.555,-8426.385,-28760.22,3145.455,10265.4
1764769165.4162643,6154.469999999999,2625.885,-30568.86,-8208.494999999999,-8423.775,-28757.61,3148.695,10270.575
1764769165.4162643,6151.005,2622.105,-30572.505,-8212.545,-8428.32,-28762.74,3144.51,10266.435
1764769165.4162643,6148.215,2618.46,-30575.115,-8214.48,-8431.335,-28765.53,3141.81,10262.88
1764769165.4162643,6156.179999999999,2626.11,-30568.095,-8206.92,-8424.63,-28757.88,3147.885,10269.855
1764769165.4162643,6154.02,2622.465,-30571.785,-8210.025,-8428.095,-28761.03,3144.465,10266.075
1764769165.4162643,6149.429999999999,2616.795,-30578.04,-8215.38,-8433.045,-28765.935,3139.785,10260.0
1764769165.4162643,6152.67,2620.125,-30574.215,-8212.23,-8428.994999999999,-28761.3,3143.835,10263.51
1764769165.4162643,6159.465,2627.37,-30566.925,-8205.119999999999,-8421.795,-28754.82,3150.495,10270.53
1764769165.4162643,6156.63,2624.535,-30570.12,-8208.72,-8425.485,-28758.465,3147.3,10267.47
1764769165.4162643,6152.445,2620.71,-30573.36,-8212.365,-8428.455,-28762.335,3143.79,10264.185
1764769165.4162643,6147.945,2616.075,-30577.68,-8216.145,-8433.18,-28767.465,3139.155,10259.28
1764769165.4162643,6137.639999999999,2604.645,-30589.425,-8228.34,-8444.744999999999,-28779.03,3128.895,10248.12
1764769165.4162643,6143.715,2610.0,-30583.755,-8223.57,-8439.164999999999,-28773.54,3132.045,10253.385
1764769165.462145,6143.085,2607.435,-30586.095,-8226.539999999999,-8442.63,-28776.06,3130.47,10251.63
1764769165.462145,6131.16,2594.34,-30599.37,-8239.23,-8454.869999999999,-28787.715,3118.635,10238.22
1764769165.462145,6133.679999999999,2596.14,-30596.4,-8235.99,-8452.215,-28785.105,3119.535,10238.76
1764769165.462145,6134.804999999999,2596.68,-30595.68,-8235.27,-8452.755,-28785.33,3119.445,10239.75
1764769165.462145,6134.31,2596.995,-30596.31,-8234.595,-8453.025,-28785.915,3120.075,10240.605
1764769165.462145,6132.735,2595.465,-30597.93,-8236.395,-8455.14,-28788.075,3119.04,10239.75
1764769165.462145,6123.69,2585.7,-30607.29,-8246.789999999999,-8464.904999999999,-28797.345,3110.4,10230.165
1764769165.462145,6127.785,2591.235,-30601.485,-8241.119999999999,-8459.279999999999,-28791.9,3114.81,10235.25
1764769165.462145,6130.62,2593.845,-30598.335,-8238.015,-8456.76,-28789.47,3118.455,10238.535
1764769165.462145,6140.34,2603.61,-30588.57,-8227.44,-8446.23,-28778.49,3127.275,10247.67
1764769165.462145,6143.58,2606.085,-30586.905,-8225.595,-8445.375,-28776.195,3129.345,10249.785
1764769165.462145,6137.145,2599.155,-30592.935,-8231.805,-8451.045,-28782.18,3122.955,10242.63
1764769165.462145,6129.045,2590.965,-30601.665,-8239.455,-8458.74,-28790.55,3115.575,10233.585
1764769165.462145,6132.735,2595.195,-30597.615,-8236.44,-8455.904999999999,-28788.3,3117.69,10237.635
1764769165.462145,6129.27,2591.775,-30601.125,-8239.77,-8458.605,-28791.36,3116.025,10234.845
1764769165.462145,6130.17,2593.485,-30599.19,-8237.789999999999,-8456.22,-28789.2,3118.365,10236.33
1764769165.462145,6134.67,2599.2,-30593.61,-8232.255,-8450.595,-28782.81,3124.485,10242.45
1764769165.462145,6144.344999999999,2609.73,-30582.81,-8222.13,-8440.425,-28772.505,3134.205,10253.34
1764769165.462145,6144.929999999999,2610.27,-30582.72,-8222.895,-8440.92,-28772.37,3134.52,10252.935
1764769165.462145,6144.705,2610.18,-30583.17,-8223.75,-8441.235,-28773.135,3133.35,10251.675
1764769165.462145,6145.02,2609.865,-30583.53,-8223.705,-8440.92,-28773.09,3133.305,10251.27
1764769165.462145,6132.87,2596.14,-30597.615,-8237.07,-8454.69,-28786.095,3120.12,10237.32
1764769165.462145,6135.974999999999,2599.605,-30593.88,-8233.515,-8450.775,-28782.63,3122.46,10241.145
1764769165.462145,6134.13,2597.85,-30596.31,-8236.529999999999,-8454.465,-28786.32,3121.155,10239.795
1764769165.509188,6124.545,2587.77,-30607.29,-8246.295,-8464.455,-28796.175,3113.055,10229.535
1764769165.509188,6119.415,2583.63,-30610.485,-8248.095,-8464.904999999999,-28797.975,3108.51,10224.0
1764769165.509188,6123.195,2588.13,-30605.805,-8243.775,-8461.035,-28794.555,3112.605,10228.95
1764769165.509188,6132.825,2597.805,-30595.905,-8235.315,-8451.99,-28785.51,3121.335,10239.39
1764769165.509188,6133.995,2598.705,-30594.645,-8234.324999999999,-8450.64,-28784.385,3122.46,10240.875
1764769165.509188,6132.735,2597.85,-30596.22,-8235.494999999999,-8452.17,-28785.15,3120.93,10239.345
1764769165.509188,6134.67,2599.695,-30595.23,-8233.965,-8451.494999999999,-28783.08,3122.055,10239.795
1764769165.509188,6123.105,2587.68,-30606.885,-8245.89,-8463.33,-28794.735,3110.76,10226.79
1764769165.509188,6118.065,2582.1,-30613.545,-8252.324999999999,-8469.404999999999,-28802.07,3104.415,10221.435
1764769165.509188,6122.655,2586.42,-30608.955,-8248.185,-8465.49,-28798.92,3108.105,10225.665
1764769165.509188,6120.179999999999,2584.485,-30610.395,-8248.815,-8466.525,-28800.225,3107.43,10223.235
1764769165.509188,6120.63,2584.71,-30609.765,-8248.725,-8465.985,-28800.045,3108.6,10223.46
1764769165.509188,6126.255,2591.01,-30604.005,-8244.63,-8461.71,-28796.58,3114.18,10230.21
1764769165.509188,6132.78,2599.065,-30595.905,-8236.89,-8454.645,-28789.605,3120.075,10237.95
1764769165.509188,6136.56,2602.485,-30591.36,-8232.615,-8450.505,-28786.005,3123.81,10242.81
1764769165.509188,6139.889999999999,2604.33,-30589.245,-8230.86,-8449.244999999999,-28785.015,3124.71,10243.62
1764769165.509188,6142.094999999999,2604.825,-30589.65,-8230.455,-8448.164999999999,-28783.44,3125.07,10243.755
1764769165.509188,6135.615,2597.67,-30596.715,-8236.98,-8454.824999999999,-28789.47,3118.41,10236.825
1764769165.509188,6128.235,2590.155,-30604.59,-8245.485,-8463.555,-28798.29,3112.11,10228.32
1764769165.509188,6128.28,2589.525,-30605.22,-8246.34,-8464.68,-28799.37,3111.525,10227.51
1764769165.509188,6137.235,2598.21,-30596.985,-8237.52,-8455.68,-28790.82,3118.59,10237.05
1764769165.509188,6137.01,2598.165,-30597.615,-8238.51,-8455.904999999999,-28791.9,3117.735,10237.32
1764769165.509188,6135.075,2596.86,-30599.37,-8239.68,-8457.255,-28794.015,3115.665,10236.105
1764769165.509188,6130.98,2592.9,-30603.51,-8243.414999999999,-8461.664999999999,-28797.885,3112.335,10231.785
1764769165.5557735,6121.935,2582.37,-30613.41,-8254.44,-8472.195,-28807.83,3103.65,10221.345
1764769165.5557735,6122.88,2583.225,-30613.545,-8254.08,-8472.015,-28806.84,3104.1,10222.92
1764769165.5557735,6135.435,2596.23,-30600.855,-8240.49,-8458.515,-28793.115,3115.935,10235.745
1764769165.5557735,6133.005,2592.225,-30603.555,-8243.865,-8462.295,-28797.57,3112.245,10230.93
1764769165.5557735,6128.775,2587.815,-30608.37,-8248.725,-8467.425,-28802.07,3108.33,10226.385
1764769165.5557735,6138.135,2596.725,-30599.91,-8240.805,-8458.515,-28793.07,3116.565,10235.385
1764769165.5557735,6134.94,2593.62,-30602.61,-8243.64,-8461.125,-28795.86,3115.26,10232.505
1764769165.5557735,6134.219999999999,2594.16,-30601.98,-8242.289999999999,-8458.83,-28794.24,3116.79,10232.955
1764769165.5557735,6134.31,2594.7,-30601.215,-8241.615,-8458.515,-28794.42,3117.33,10235.115
1764769165.5557735,6131.429999999999,2590.515,-30604.815,-8245.529999999999,-8462.835,-28798.155,3114.135,10232.235
1764769165.5557735,6133.32,2592.0,-30603.195,-8243.64,-8460.27,-28795.185,3115.71,10233.945
1764769165.5557735,6134.219999999999,2592.855,-30601.35,-8242.38,-8458.154999999999,-28793.565,3116.385,10234.215
1764769165.5557735,6141.24,2600.235,-30594.78,-8235.449999999999,-8451.225,-28786.545,3121.965,10241.01
1764769165.5568647,6135.075,2593.26,-30601.665,-8242.065,-8457.39,-28793.34,3116.61,10233.495
1764769165.5568647,6140.52,2598.345,-30596.49,-8236.8,-8451.9,-28786.995,3121.425,10239.165
1764769165.5568647,6132.87,2590.47,-30605.49,-8245.305,-8460.63,-28795.59,3114.585,10230.93
1764769165.5568647,6128.685,2586.375,-30610.44,-8249.895,-8465.445,-28801.305,3109.86,10226.295
1764769165.5568647,6137.505,2596.14,-30599.73,-8240.039999999999,-8454.779999999999,-28790.865,3117.96,10235.835
1764769165.5568647,6134.985,2594.25,-30601.62,-8241.84,-8456.085,-28793.07,3117.42,10234.665
1764769165.5568647,6134.985,2593.98,-30601.62,-8241.885,-8456.67,-28793.34,3118.41,10234.305
1764769165.5568647,6140.565,2599.92,-30596.22,-8236.395,-8451.09,-28786.995,3124.035,10240.29
1764769165.5568647,6145.335,2604.645,-30591.585,-8230.77,-8446.185,-28781.28,3128.76,10245.375
1764769165.5568647,6151.86,2609.595,-30586.32,-8224.965,-8441.775,-28775.97,3133.395,10250.37
1764769165.5568647,6141.195,2598.435,-30597.885,-8236.755,-8454.195,-28787.67,3122.1,10239.03
1764769165.602596,6146.955,2603.7,-30593.52,-8232.39,-8450.235,-28783.395,3126.555,10244.475
1764769165.602596,6143.49,2600.505,-30596.49,-8235.27,-8452.44,-28786.23,3122.91,10241.145
1764769165.602596,6130.71,2587.455,-30608.055,-8247.24,-8463.645,-28799.145,3109.995,10227.33
1764769165.602596,6133.455,2590.335,-30604.455,-8244.494999999999,-8459.955,-28795.815,3113.955,10231.065
1764769165.6031036,6146.685,2604.645,-30590.505,-8230.455,-8445.914999999999,-28782.045,3128.625,10246.185
1764769165.6031036,6140.88,2598.12,-30596.85,-8236.845,-8453.115,-28789.335,3123.81,10240.065
1764769165.6031036,6136.11,2593.17,-30602.07,-8242.065,-8459.91,-28795.005,3117.375,10234.17
1764769165.6031036,6139.53,2596.32,-30598.515,-8238.42,-8456.4,-28791.45,3120.12,10237.5
1764769165.6031036,6153.389999999999,2609.91,-30585.465,-8225.55,-8443.44,-28778.31,3131.46,10251.045
1764769165.6031036,6148.575,2603.925,-30591.045,-8230.815,-8448.84,-28784.295,3124.755,10244.61
1764769165.6031036,6140.52,2594.655,-30599.235,-8238.645,-8457.435,-28792.755,3117.645,10235.205
1764769165.6031036,6145.875,2601.27,-30592.44,-8231.49,-8450.55,-28785.78,3123.855,10241.865
1764769165.6031036,6141.96,2597.76,-30596.715,-8235.449999999999,-8454.42,-28789.47,3121.65,10238.58
1764769165.6031036,6140.205,2596.14,-30597.525,-8236.485,-8455.949999999999,-28791.945,3119.985,10236.645
1764769165.6031036,6143.94,2600.415,-30593.88,-8233.335,-8452.215,-28788.165,3122.955,10241.685
1764769165.6031036,6135.974999999999,2592.405,-30602.205,-8242.065,-8460.945,-28796.22,3115.53,10234.08
1764769165.6031036,6133.41,2589.255,-30604.23,-8244.09,-8463.6,-28799.19,3112.65,10231.245
1764769165.6031036,6141.195,2597.265,-30595.95,-8235.765,-8455.904999999999,-28791.45,3119.265,10238.265
1764769165.6031036,6141.825,2596.995,-30596.94,-8236.89,-8456.4,-28791.36,3118.905,10238.31
1764769165.6031036,6135.12,2589.615,-30604.455,-8245.664999999999,-8465.039999999999,-28799.37,3111.93,10230.03
1764769165.6489823,6142.185,2597.445,-30596.265,-8237.115,-8457.164999999999,-28791.585,3117.87,10237.365
1764769165.6495044,6142.365,2597.04,-30597.795,-8238.015,-8457.615,-28792.935,3117.645,10237.77
1764769165.6495044,6132.87,2588.13,-30606.615,-8247.015,-8466.705,-28803.645,3109.41,10228.23
1764769165.6495044,6139.44,2596.86,-30597.39,-8238.015,-8457.705,-28793.745,3116.88,10237.185
1764769165.6495044,6144.435,2602.395,-30591.36,-8232.345,-8451.72,-28787.85,3122.91,10243.395
1764769165.6495044,6136.785,2593.44,-30600.585,-8242.38,-8462.205,-28798.47,3115.485,10234.53
1764769165.6495044,6131.52,2586.735,-30607.47,-8248.14,-8468.145,-28804.23,3110.355,10228.77
1764769165.6495044,6139.665,2594.565,-30599.415,-8239.815,-8461.08,-28796.22,3116.025,10236.33
1764769165.6495044,6144.615,2598.84,-30594.465,-8235.27,-8457.119999999999,-28791.27,3119.895,10240.56
1764769165.6495044,6138.99,2592.765,-30600.855,-8241.57,-8463.869999999999,-28798.065,3112.785,10233.81
1764769165.6495044,6136.335,2588.895,-30604.455,-8244.81,-8466.3,-28800.405,3108.87,10229.805
1764769165.6495044,6134.219999999999,2587.23,-30606.435,-8246.654999999999,-8468.19,-28801.89,3107.43,10227.96
1764769165.6495044,6128.775,2581.65,-30611.52,-8252.055,-8474.175,-28807.155,3103.155,10222.83
1764769165.6495044,6133.905,2587.545,-30605.04,-8245.305,-8467.154999999999,-28800.27,3108.51,10228.905
1764769165.6495044,6140.565,2595.06,-30599.64,-8240.535,-8462.88,-28796.22,3115.98,10237.095
1764769165.6495044,6137.775,2592.63,-30601.44,-8241.705,-8463.42,-28797.255,3115.125,10234.53
1764769165.6495044,6140.025,2595.285,-30597.705,-8237.52,-8459.19,-28793.295,3117.555,10236.51
1764769165.6495044,6150.195,2604.555,-30588.885,-8228.34,-8450.955,-28784.655,3125.07,10245.51
1764769165.6495044,6154.965,2607.795,-30585.105,-8225.64,-8448.029999999999,-28781.01,3128.04,10249.02
1764769165.6495044,6150.554999999999,2601.945,-30590.1,-8231.58,-8452.17,-28785.69,3122.505,10243.395
1764769165.6495044,6148.62,2599.65,-30592.575,-8233.335,-8454.195,-28787.94,3120.93,10241.055
1764769165.6495044,6140.115,2590.785,-30601.98,-8242.965,-8465.265,-28798.605,3113.595,10232.505
1764769165.6495044,6137.19,2588.13,-30604.995,-8245.8,-8467.695,-28801.395,3110.94,10229.715
1764769165.6495044,6138.36,2590.38,-30603.195,-8244.315,-8464.949999999999,-28800.63,3111.93,10230.93
1764769165.6972146,6141.51,2593.8,-30599.505,-8240.67,-8460.539999999999,-28796.67,3115.71,10234.98
1764769165.6972146,6150.825,2603.565,-30590.505,-8230.904999999999,-8450.279999999999,-28786.68,3124.71,10244.88
1764769165.6972146,6153.57,2606.31,-30587.85,-8228.34,-8446.455,-28782.63,3126.96,10247.715
1764769165.6972146,6157.17,2609.55,-30584.79,-8224.965,-8443.17,-28778.58,3129.03,10250.37
1764769165.6972146,6159.69,2612.52,-30581.73,-8222.58,-8440.47,-28775.79,3131.28,10252.665
1764769165.6972146,6152.31,2604.51,-30590.055,-8230.275,-8448.21,-28783.935,3123.18,10244.16
1764769165.6972146,6142.5,2594.16,-30600.945,-8242.02,-8458.92,-28794.375,3113.1,10233.765
1764769165.6972146,6149.835,2602.035,-30592.395,-8233.875,-8449.92,-28786.23,3120.03,10241.19
1764769165.6972146,6151.41,2604.375,-30590.955,-8232.975,-8447.58,-28783.485,3124.035,10243.935
1764769165.6972146,6156.945,2611.665,-30583.755,-8225.64,-8440.02,-28776.825,3131.01,10250.37
1764769165.6972146,6153.48,2608.335,-30587.58,-8229.195,-8444.07,-28780.56,3128.49,10246.635
1764769165.6972146,6157.304999999999,2612.7,-30583.305,-8225.19,-8440.065,-28777.005,3132.0,10250.955
1764769165.6972146,6148.71,2603.07,-30592.35,-8235.315,-8448.795,-28786.455,3123.225,10241.37
1764769165.6972146,6148.395,2601.135,-30593.79,-8236.529999999999,-8450.055,-28787.67,3121.92,10239.885
1764769165.6972146,6159.554999999999,2612.61,-30583.53,-8226.045,-8439.615,-28776.105,3132.0,10250.775
1764769165.6972146,6149.429999999999,2603.07,-30593.745,-8236.08,-8450.055,-28785.915,3122.55,10240.38
1764769165.6972146,6148.26,2601.135,-30596.04,-8237.835,-8451.045,-28786.68,3120.435,10238.67
1764769165.6972146,6156.719999999999,2609.145,-30587.94,-8229.42,-8442.449999999999,-28778.04,3126.87,10246.365
1764769165.6972146,6158.295,2611.08,-30586.815,-8229.51,-8442.36,-28778.4,3128.985,10248.93
1764769165.6972146,6153.075,2606.445,-30591.36,-8234.685,-8446.949999999999,-28783.305,3125.16,10244.34
1764769165.6972146,6161.355,2615.175,-30582.765,-8226.0,-8438.625,-28774.485,3132.945,10253.61
1764769165.6972146,6163.11,2617.11,-30580.695,-8223.795,-8436.105,-28772.37,3135.15,10255.995
1764769165.6972146,6160.365,2614.05,-30583.53,-8226.765,-8439.48,-28775.79,3131.73,10252.485
1764769165.6972146,6155.82,2609.1,-30589.02,-8232.525,-8444.475,-28780.74,3127.59,10246.32
1764769165.7440631,6162.795,2615.31,-30582.63,-8225.865,-8436.96,-28772.37,3133.8,10253.88
1764769165.744568,6160.724999999999,2612.43,-30586.23,-8230.005,-8441.73,-28776.735,3129.705,10250.91
1764769165.744568,6156.045,2608.155,-30591.0,-8235.36,-8446.904999999999,-28782.945,3123.585,10245.06
1764769165.744568,6153.57,2604.735,-30593.34,-8237.88,-8448.615,-28784.475,3121.515,10242.225
1764769165.744568,6151.41,2603.295,-30595.77,-8240.4,-8452.395,-28787.67,3120.705,10241.1
1764769165.744568,6145.335,2597.085,-30602.43,-8247.96,-8460.945,-28796.895,3115.935,10235.385
1764769165.744568,6144.795,2596.86,-30601.485,-8246.205,-8458.515,-28796.22,3115.17,10235.25
1764769165.744568,6141.78,2595.06,-30602.745,-8248.41,-8459.775,-28798.56,3113.955,10232.82
1764769165.744568,6152.535,2606.445,-30591.09,-8236.26,-8447.265,-28786.815,3124.89,10244.565
1764769165.744568,6157.215,2608.695,-30589.2,-8234.055,-8444.789999999999,-28783.08,3128.265,10248.075
1764769165.744568,6155.505,2605.635,-30592.44,-8238.42,-8449.02,-28786.455,3124.35,10243.935
1764769165.744568,6145.11,2593.665,-30605.085,-8250.84,-8462.115,-28798.965,3113.01,10231.47
1764769165.744568,6148.395,2597.67,-30601.44,-8246.43,-8458.92,-28795.68,3116.655,10235.16
1764769165.744568,6157.935,2608.335,-30590.955,-8236.17,-8448.119999999999,-28785.735,3126.015,10245.15
1764769165.744568,6161.13,2611.665,-30587.31,-8232.93,-8444.07,-28782.09,3129.57,10249.38
1764769165.744568,6161.219999999999,2612.385,-30586.32,-8232.615,-8442.675,-28780.875,3130.425,10250.145
1764769165.744568,6160.005,2610.81,-30587.67,-8234.595,-8444.654999999999,-28783.62,3128.625,10248.66
1764769165.744568,6150.285,2600.1,-30597.3,-8245.529999999999,-8455.095,-28793.88,3119.13,10238.445
1764769165.744568,6150.825,2600.1,-30596.625,-8245.44,-8454.42,-28792.53,3118.95,10238.13
1764769165.744568,6145.83,2595.105,-30601.53,-8250.255,-8459.505,-28797.525,3114.855,10232.46
1764769165.744568,6150.51,2600.055,-30597.48,-8245.215,-8455.365,-28792.98,3117.87,10236.69
1764769165.7450817,6146.37,2595.33,-30602.79,-8250.39,-8460.63,-28797.615,3112.245,10231.155
1764769165.79037,6146.685,2595.51,-30602.52,-8250.39,-8460.18,-28797.3,3113.145,10230.885
1764769165.79037,6139.395,2587.815,-30609.315,-8257.77,-8466.93,-28804.23,3107.475,10223.82
1764769165.79037,6139.935,2589.255,-30607.965,-8256.24,-8465.58,-28803.915,3108.915,10225.44
1764769165.79037,6148.755,2599.92,-30597.345,-8245.664999999999,-8456.039999999999,-28794.555,3118.32,10236.06
1764769165.79037,6152.04,2603.52,-30594.195,-8242.695,-8452.485,-28790.595,3121.245,10240.155
1764769165.79037,6148.62,2599.38,-30597.84,-8246.07,-8455.455,-28794.015,3117.015,10236.51
1764769165.79037,6142.41,2592.09,-30606.075,-8254.305,-8464.14,-28802.97,3110.76,10229.445
1764769165.79037,6155.685,2605.5,-30593.115,-8241.074999999999,-8451.36,-28789.2,3122.46,10242.315
1764769165.79037,6157.935,2606.805,-30590.685,-8239.095,-8448.615,-28784.97,3123.855,10244.16
1764769165.79037,6145.83,2593.26,-30602.835,-8251.65,-8461.529999999999,-28797.48,3111.705,10231.065
1764769165.79037,6148.215,2595.285,-30601.395,-8250.029999999999,-8459.055,-28796.535,3113.145,10232.64
1764769165.79037,6141.78,2590.335,-30607.38,-8255.97,-8466.029999999999,-28803.6,3108.33,10226.835
1764769165.79037,6150.105,2599.92,-30598.515,-8246.52,-8456.445,-28794.06,3117.645,10237.905
1764769165.79037,6148.755,2598.885,-30600.09,-8247.195,-8457.39,-28795.095,3118.005,10237.275
1764769165.79037,6149.205,2600.73,-30597.795,-8245.664999999999,-8455.68,-28793.97,3120.03,10238.445
1764769165.79037,6152.49,2603.97,-30594.195,-8242.695,-8452.08,-28791.315,3123.18,10242.09
1764769165.79037,6157.62,2608.74,-30590.235,-8237.97,-8447.31,-28786.32,3127.14,10246.455
1764769165.79037,6164.46,2615.49,-30583.08,-8231.039999999999,-8440.65,-28779.615,3132.855,10253.565
1764769165.79037,6167.474999999999,2618.91,-30580.065,-8228.61,-8438.175,-28776.24,3135.42,10255.95
1764769165.79037,6157.304999999999,2607.975,-30591.675,-8240.445,-8449.605,-28787.85,3124.44,10243.98
1764769165.79037,6157.395,2605.815,-30593.43,-8242.92,-8451.27,-28789.56,3121.515,10242.405
1764769165.79037,6154.245,2602.17,-30596.49,-8245.71,-8454.555,-28793.655,3117.69,10238.67
1764769165.79037,6148.304999999999,2597.13,-30602.16,-8251.74,-8460.494999999999,-28800.09,3113.955,10233.45
1764769165.79037,6156.36,2606.85,-30593.7,-8242.74,-8451.99,-28791.0,3123.675,10243.53
1764769165.79037,6163.11,2613.33,-30587.265,-8237.295,-8446.41,-28785.645,3131.055,10251.0
1764769165.79037,6164.145,2615.22,-30584.34,-8234.775,-8442.449999999999,-28782.36,3131.46,10251.675
1764769165.8373055,6159.645,2610.09,-30588.75,-8239.23,-8446.23,-28787.265,3127.185,10246.455
1764769165.8373055,6150.599999999999,2598.435,-30600.36,-8250.119999999999,-8457.119999999999,-28797.3,3118.095,10236.33
1764769165.8373055,6153.344999999999,2598.885,-30599.82,-8249.895,-8457.795,-28797.84,3117.915,10237.41
1764769165.8373055,6151.185,2596.635,-30602.115,-8252.64,-8460.09,-28800.495,3114.81,10234.8
1764769165.8373055,6151.139999999999,2596.905,-30602.655,-8253.135,-8460.855,-28800.945,3114.495,10234.17
1764769165.8373055,6147.719999999999,2594.205,-30606.21,-8255.52,-8464.23,-28804.095,3111.615,10230.705
1764769165.8373055,6144.21,2592.18,-30608.145,-8257.545,-8465.805,-28805.58,3109.14,10228.77
1764769165.8373055,6137.415,2584.485,-30615.12,-8264.789999999999,-8472.42,-28812.465,3104.055,10222.695
1764769165.8373055,6147.36,2596.005,-30605.13,-8254.664999999999,-8463.15,-28803.195,3113.82,10233.135
1764769165.8373055,6146.73,2595.42,-30605.94,-8255.52,-8463.645,-28803.915,3114.72,10233.18
1764769165.8373055,6149.429999999999,2598.03,-30603.195,-8252.505,-8460.27,-28799.82,3117.51,10235.295
1764769165.8373055,6157.035,2605.635,-30595.32,-8244.945,-8452.395,-28792.35,3123.045,10242.09
1764769165.8373055,6159.645,2606.895,-30594.285,-8243.235,-8450.64,-28791.09,3124.035,10244.115
1764769165.8373055,6154.56,2601.045,-30600.63,-8249.535,-8456.715,-28796.895,3118.275,10237.41
1764769165.8373055,6144.929999999999,2590.29,-30610.215,-8259.39,-8467.244999999999,-28806.615,3109.41,10227.42
1764769165.8373055,6149.969999999999,2595.42,-30604.23,-8253.675,-8461.305,-28801.44,3114.225,10232.91
1764769165.8373055,6155.775,2601.405,-30598.515,-8248.41,-8455.23,-28795.815,3120.615,10239.345
1764769165.8373055,6155.235,2601.72,-30598.65,-8248.5,-8455.365,-28796.4,3121.245,10240.155
1764769165.8373055,6149.07,2596.365,-30603.555,-8253.494999999999,-8460.27,-28801.89,3117.195,10234.485
1764769165.8373055,6147.27,2594.97,-30605.805,-8255.654999999999,-8461.619999999999,-28803.87,3115.755,10232.595
1764769165.8373055,6150.014999999999,2598.66,-30602.88,-8253.045,-8458.244999999999,-28801.17,3118.545,10235.88
1764769165.8373055,6153.75,2601.63,-30599.64,-8249.76,-8454.779999999999,-28796.67,3121.38,10238.94
1764769165.8373055,6167.025,2613.96,-30586.815,-8236.35,-8441.685,-28782.765,3133.035,10251.27
1764769165.8373055,6167.385,2612.835,-30587.895,-8236.395,-8442.539999999999,-28784.07,3130.47,10249.605
1764769165.8834095,6162.974999999999,2607.885,-30593.79,-8242.289999999999,-8448.75,-28789.245,3125.43,10244.925
1764769165.8834095,6154.92,2599.83,-30602.205,-8250.57,-8456.22,-28797.165,3118.995,10236.42
1764769165.8834095,6155.28,2600.46,-30601.755,-8249.985,-8455.365,-28797.525,3119.31,10237.635
1764769165.8834095,6161.535,2607.12,-30594.24,-8242.875,-8448.795,-28790.955,3125.205,10245.105
1764769165.8834095,6156.045,2602.71,-30598.92,-8248.904999999999,-8454.69,-28795.815,3121.38,10239.795
1764769165.8834095,6157.98,2605.365,-30596.175,-8246.97,-8451.99,-28793.88,3124.53,10242.855
1764769165.8834095,6163.92,2612.295,-30590.505,-8240.67,-8445.015,-28787.13,3131.505,10249.74
1764769165.8834095,6164.145,2611.62,-30591.585,-8241.48,-8444.835,-28787.13,3129.93,10247.94
1764769165.8834095,6165.675,2612.835,-30590.595,-8240.715,-8444.34,-28786.95,3128.58,10248.66
1764769165.8834095,6158.88,2605.095,-30598.47,-8247.735,-8452.44,-28795.14,3120.435,10241.46
1764769165.8834095,6157.62,2603.16,-30600.81,-8250.705,-8454.869999999999,-28797.075,3118.455,10238.76
1764769165.8834095,6157.44,2603.07,-30600.765,-8251.605,-8455.14,-28797.75,3118.005,10238.13
1764769165.8834095,6157.889999999999,2604.645,-30599.19,-8250.255,-8453.789999999999,-28797.255,3118.635,10239.705
1764769165.8834095,6158.429999999999,2605.005,-30599.55,-8251.47,-8455.095,-28797.795,3120.93,10241.775
1764769165.8834095,6152.264999999999,2599.83,-30604.32,-8254.98,-8458.289999999999,-28802.07,3117.195,10235.295
1764769165.8834095,6150.014999999999,2597.985,-30606.075,-8256.15,-8458.83,-28803.195,3115.035,10232.64
1764769165.8834095,6153.12,2600.595,-30604.545,-8255.07,-8457.255,-28800.765,3117.6,10235.52
1764769165.8834095,6166.755,2614.365,-30590.73,-8241.39,-8444.34,-28787.49,3129.435,10249.11
1764769165.8834095,6172.425,2619.45,-30585.42,-8236.755,-8439.164999999999,-28782.945,3134.16,10253.925
1764769165.8834095,6165.63,2612.43,-30592.215,-8244.27,-8446.095,-28789.92,3127.455,10246.77
1764769165.8834095,6160.094999999999,2605.905,-30598.965,-8250.84,-8452.71,-28796.49,3121.11,10239.03
1764769165.8834095,6167.61,2614.455,-30590.055,-8242.56,-8444.565,-28788.39,3128.31,10247.13
1764769165.9296243,6170.085,2617.155,-30587.535,-8240.355,-8441.19,-28785.465,3131.685,10250.775
1764769165.9296243,6167.52,2613.915,-30590.955,-8244.539999999999,-8444.565,-28789.47,3128.715,10247.85
1764769165.9296243,6159.96,2606.76,-30597.21,-8251.38,-8450.955,-28795.905,3123.045,10240.515
1764769165.9296243,6166.755,2614.32,-30589.605,-8244.135,-8443.035,-28788.48,3129.885,10247.535
1764769165.9296243,6164.235,2611.935,-30593.07,-8247.914999999999,-8446.41,-28791.09,3128.175,10244.205
1764769165.9296243,6165.764999999999,2613.06,-30591.72,-8247.15,-8446.23,-28789.695,3128.985,10244.925
1764769165.9296243,6172.335,2619.27,-30585.24,-8240.13,-8439.3,-28782.135,3133.89,10251.45
1764769165.9296243,6161.76,2607.75,-30596.85,-8251.605,-8450.775,-28793.565,3123.045,10239.795
1764769165.9296243,6166.349999999999,2612.475,-30591.765,-8247.15,-8445.96,-28789.065,3126.42,10243.665
1764769165.9296243,6158.52,2604.735,-30599.73,-8255.654999999999,-8454.42,-28798.47,3119.4,10235.97
1764769165.9296243,6155.145,2602.62,-30602.205,-8257.77,-8456.31,-28800.585,3117.33,10234.035
1764769165.9296243,6161.895,2611.035,-30594.285,-8249.805,-8448.435,-28792.62,3124.485,10242.18
1764769165.9757073,6158.295,2607.93,-30597.03,-8253.404999999999,-8451.63,-28796.13,3122.1,10239.12
1764769165.9757073,6163.245,2613.42,-30590.685,-8248.005,-8445.15,-28790.145,3126.915,10245.195
1764769165.9757073,6162.03,2612.385,-30592.845,-8248.949999999999,-8446.23,-28790.775,3125.79,10244.43
1764769165.9757073,6157.98,2606.355,-30598.695,-8254.845,-8453.295,-28796.445,3121.11,10238.085
1764769165.976239,6169.905,2618.37,-30586.86,-8243.145,-8442.449999999999,-28783.98,3131.91,10249.695
1764769165.976239,6161.355,2609.46,-30595.995,-8252.1,-8451.72,-28793.385,3122.865,10239.885
1764769165.976239,6157.71,2605.635,-30598.83,-8254.845,-8455.455,-28797.075,3118.725,10235.52
1764769165.976239,6161.76,2609.775,-30594.555,-8250.75,-8451.539999999999,-28793.205,3122.865,10240.02
1764769165.976239,6170.445,2619.585,-30585.24,-8241.705,-8441.955,-28784.475,3130.83,10249.335
1764769165.976239,6168.42,2617.38,-30586.455,-8243.505,-8442.855,-28785.33,3129.975,10247.58
1764769165.976239,6160.094999999999,2608.605,-30596.445,-8254.035,-8452.755,-28795.545,3122.91,10239.165
1764769165.976239,6165.09,2613.645,-30591.675,-8249.085,-8448.164999999999,-28790.73,3126.42,10243.755
1764769165.976239,6156.945,2603.43,-30601.665,-8259.84,-8459.82,-28802.07,3117.78,10233.585
1764769165.976239,6152.895,2598.975,-30605.805,-8263.305,-8463.42,-28806.255,3112.83,10229.31
1764769165.976239,6160.77,2606.625,-30598.155,-8254.98,-8454.69,-28798.02,3117.96,10236.645
1764769165.976239,6161.76,2607.345,-30597.03,-8253.81,-8454.51,-28797.255,3117.645,10236.51
1764769165.976239,6156.224999999999,2601.45,-30602.16,-8259.029999999999,-8459.73,-28801.26,3113.73,10230.93
1764769165.976239,6159.87,2605.455,-30598.38,-8255.385,-8455.095,-28797.255,3117.555,10235.7
1764769165.976239,6166.889999999999,2613.96,-30590.73,-8247.69,-8447.445,-28791.27,3124.8,10242.45
1764769165.976239,6169.679999999999,2617.155,-30588.3,-8244.81,-8443.71,-28788.165,3128.715,10246.68
1764769165.976239,6169.094999999999,2616.03,-30589.56,-8247.555,-8445.42,-28790.55,3127.455,10245.465
1764769165.976239,6164.46,2611.845,-30593.61,-8250.975,-8448.93,-28793.205,3123.81,10240.92
1764769165.976239,6158.07,2604.87,-30600.675,-8257.994999999999,-8457.39,-28800.63,3117.42,10233.675
1764769165.976239,6167.025,2613.555,-30592.305,-8250.48,-8450.324999999999,-28793.52,3123.855,10241.505
1764769165.976239,6167.474999999999,2612.25,-30592.935,-8251.47,-8450.369999999999,-28793.07,3123.81,10240.785
1764769165.976239,6154.92,2598.66,-30606.525,-8265.24,-8464.545,-28806.975,3110.58,10226.34
1764769165.976239,6152.804999999999,2596.005,-30609.81,-8267.265,-8467.74,-28810.755,3107.16,10223.55
1764769165.976239,6154.65,2597.805,-30608.55,-8265.15,-8465.805,-28809.09,3108.105,10226.16
1764769165.976239,6154.29,2598.345,-30607.425,-8264.43,-8465.13,-28808.325,3108.555,10227.015
1764769165.976239,6155.37,2599.515,-30605.67,-8262.494999999999,-8463.465,-28806.48,3110.535,10228.77
1764769165.976239,6151.005,2595.195,-30610.8,-8266.77,-8468.279999999999,-28811.79,3107.79,10224.72
1764769165.976239,6157.17,2601.765,-30603.87,-8260.02,-8461.485,-28804.77,3113.235,10232.19
1764769165.976239,6159.06,2602.935,-30602.88,-8259.164999999999,-8460.225,-28803.375,3114.315,10234.26
1764769165.976239,6158.565,2602.17,-30603.735,-8260.38,-8461.26,-28804.635,3113.46,10232.505
1764769166.0197911,6150.195,2592.0,-30613.545,-8270.19,-8471.565,-28814.355,3102.93,10221.84
1764769166.0197911,6130.71,2570.985,-30634.065,-8290.619999999999,-8492.715,-28835.19,3082.5,10200.195
1764769166.0197911,6133.32,2573.19,-30632.22,-8288.279999999999,-8489.97,-28832.355,3084.48,10202.625
1764769166.0197911,6128.594999999999,2568.555,-30636.495,-8292.869999999999,-8494.605,-28836.945,3081.33,10198.035
1764769166.0197911,6129.81,2570.49,-30634.875,-8291.07,-8492.355,-28834.65,3084.03,10200.825
1764769166.0197911,6132.33,2574.135,-30631.41,-8287.875,-8488.664999999999,-28830.78,3087.54,10205.325
1764769166.0197911,6136.65,2579.31,-30626.91,-8283.6,-8485.065,-28827.945,3091.455,10210.23
1764769166.0197911,6141.645,2584.755,-30622.455,-8279.279999999999,-8480.97,-28824.12,3095.775,10215.045
1764769166.0197911,6147.45,2590.83,-30616.605,-8273.654999999999,-8474.94,-28817.82,3100.77,10220.49
1764769166.0197911,6142.455,2584.845,-30622.095,-8278.605,-8480.07,-28822.41,3096.27,10214.37
1764769166.0197911,6156.719999999999,2599.155,-30608.28,-8264.97,-8467.154999999999,-28808.415,3109.05,10228.77
1764769166.0197911,6160.41,2603.385,-30604.455,-8261.01,-8463.24,-28804.68,3111.84,10232.145
1764769166.0197911,6160.724999999999,2603.745,-30603.78,-8260.02,-8462.295,-28803.69,3112.245,10232.28
1764769166.0197911,6151.23,2593.395,-30613.275,-8268.795,-8471.295,-28812.78,3104.055,10223.685
1764769166.0197911,6155.685,2598.03,-30609.09,-8265.42,-8467.83,-28810.125,3107.835,10228.86
1764769166.0207996,6149.295,2592.0,-30615.615,-8272.305,-8475.345,-28817.865,3101.67,10221.93
1764769166.0207996,6154.11,2597.625,-30609.495,-8266.005,-8468.865,-28811.43,3106.665,10228.32
1764769166.0207996,6155.415,2599.155,-30607.335,-8264.565,-8466.029999999999,-28810.035,3108.87,10230.345
1764769166.0207996,6154.155,2598.57,-30608.64,-8266.455,-8467.605,-28811.295,3108.285,10228.905
1764769166.0207996,6147.675,2591.91,-30616.38,-8274.824999999999,-8476.47,-28819.89,3101.535,10221.795
1764769166.0207996,6150.78,2594.475,-30613.005,-8270.369999999999,-8471.654999999999,-28815.705,3102.57,10223.685
1764769166.0207996,6143.13,2586.555,-30621.015,-8277.705,-8479.305,-28823.535,3095.46,10215.72
1764769166.0207996,6149.07,2593.26,-30615.165,-8271.81,-8473.77,-28817.82,3102.03,10222.335
1764769166.0207996,6156.405,2600.235,-30607.47,-8265.06,-8466.48,-28811.295,3108.015,10230.12
1764769166.069997,6150.06,2594.565,-30612.96,-8271.27,-8472.735,-28817.055,3103.2,10225.26
1764769166.069997,6154.56,2599.92,-30606.75,-8264.88,-8466.074999999999,-28810.08,3108.78,10230.795
1764769166.069997,6158.295,2604.015,-30602.565,-8259.525,-8460.045,-28804.725,3114.72,10235.835
1764769166.069997,6153.344999999999,2598.705,-30607.65,-8266.14,-8467.154999999999,-28811.97,3110.4,10230.255
1764769166.0705044,6151.815,2597.67,-30608.37,-8266.77,-8468.685,-28814.04,3108.105,10227.69
1764769166.0705044,6156.9,2601.99,-30605.355,-8263.305,-8464.365,-28808.775,3113.19,10232.19
1764769166.0705044,6165.945,2610.405,-30596.805,-8254.44,-8456.085,-28799.775,3120.66,10241.1
1764769166.0705044,6159.51,2602.485,-30604.275,-8261.82,-8463.914999999999,-28808.01,3111.93,10232.505
1764769166.0705044,6155.01,2596.095,-30610.305,-8267.895,-8470.08,-28813.905,3106.26,10226.115
1764769166.0705044,6146.505,2588.535,-30617.775,-8276.085,-8478.18,-28822.005,3099.6,10218.555
1764769166.0705044,6148.125,2592.36,-30614.94,-8272.98,-8475.164999999999,-28819.215,3103.605,10222.11
1764769166.0705044,6149.61,2594.025,-30612.96,-8271.18,-8473.185,-28817.19,3104.64,10224.09
1764769166.0705044,6161.085,2605.995,-30600.9,-8259.21,-8460.99,-28806.12,3116.07,10236.555
1764769166.0705044,6162.21,2607.03,-30599.415,-8257.77,-8458.965,-28804.905,3117.015,10237.68
1764769166.0705044,6157.125,2602.26,-30603.06,-8261.55,-8462.475,-28808.955,3112.92,10232.775
1764769166.0705044,6170.895,2615.355,-30590.685,-8249.22,-8450.595,-28796.22,3124.71,10245.87
1764769166.0705044,6176.205,2621.16,-30585.465,-8244.0,-8446.5,-28791.18,3129.705,10250.82
1764769166.0705044,6170.175,2613.825,-30593.025,-8251.92,-8454.015,-28798.695,3122.19,10242.63
1764769166.0705044,6166.62,2610.18,-30597.075,-8255.565,-8457.57,-28802.34,3117.735,10238.085
1764769166.0705044,6162.66,2606.22,-30601.35,-8258.76,-8461.44,-28806.12,3114.9,10234.44
1764769166.0705044,6154.74,2598.03,-30609.54,-8267.445,-8471.16,-28815.48,3107.295,10226.565
1764769166.0705044,6161.31,2604.555,-30602.655,-8260.289999999999,-8463.6,-28807.875,3113.37,10232.955
1764769166.0705044,6156.675,2600.73,-30606.165,-8263.395,-8466.48,-28811.34,3110.445,10229.22
1764769166.0705044,6157.935,2601.495,-30605.355,-8263.305,-8465.67,-28810.17,3111.48,10230.66
1764769166.116932,6172.02,2615.715,-30592.395,-8251.335,-8454.869999999999,-28798.695,3123.99,10245.24
1764769166.116932,6176.835,2621.385,-30586.005,-8245.08,-8448.164999999999,-28792.26,3128.895,10249.65
1764769166.116932,6181.02,2624.58,-30581.82,-8240.895,-8443.125,-28787.445,3132.135,10252.44
1764769166.116932,6177.105,2619.81,-30587.4,-8246.43,-8448.615,-28792.44,3127.77,10248.255
1764769166.116932,6172.965,2614.905,-30592.035,-8250.795,-8454.465,-28797.93,3123.72,10244.025
1764769166.116932,6167.835,2609.46,-30595.86,-8255.61,-8458.335,-28801.89,3121.2,10239.21
1764769166.116932,6168.51,2611.71,-30594.69,-8254.17,-8457.48,-28801.215,3122.145,10240.155
1764769166.116932,6175.98,2620.665,-30585.735,-8245.395,-8449.47,-28793.115,3128.94,10249.11
1764769166.116932,6169.545,2614.185,-30592.215,-8251.92,-8456.085,-28800.045,3123.945,10242.36
1764769166.116932,6175.71,2621.7,-30585.87,-8245.935,-8449.47,-28793.565,3130.155,10248.885
1764769166.116932,6176.88,2622.6,-30585.42,-8244.855,-8448.345,-28792.125,3131.595,10249.83
1764769166.116932,6174.945,2619.495,-30587.94,-8246.88,-8449.83,-28793.88,3129.93,10246.275
1764769166.116932,6183.224999999999,2626.785,-30580.695,-8239.949999999999,-8442.045,-28786.14,3136.275,10253.88
1764769166.116932,6174.495,2616.57,-30589.965,-8249.94,-8451.449999999999,-28794.78,3127.23,10244.655
1764769166.116932,6178.86,2621.205,-30586.005,-8245.485,-8448.119999999999,-28791.945,3129.66,10248.435
1764769166.116932,6172.695,2613.825,-30592.665,-8252.369999999999,-8455.05,-28798.65,3123.9,10240.965
1764769166.116932,6170.715,2613.15,-30593.565,-8252.595,-8455.455,-28799.82,3123.18,10239.795
1764769166.116932,6173.054999999999,2616.12,-30590.82,-8249.76,-8451.36,-28796.445,3126.195,10242.135
1764769166.116932,6176.115,2619.045,-30589.29,-8248.41,-8449.605,-28793.52,3130.11,10246.095
1764769166.116932,6174.9,2618.595,-30589.605,-8248.23,-8449.56,-28794.105,3129.21,10246.41
1764769166.116932,6173.01,2615.535,-30592.215,-8250.255,-8451.539999999999,-28796.94,3126.51,10243.395
1764769166.116932,6184.08,2626.515,-30581.415,-8239.59,-8440.875,-28784.88,3135.645,10254.06
1764769166.1602943,6186.78,2628.135,-30579.57,-8237.565,-8438.67,-28782.225,3137.085,10255.68
1764769166.1602943,6180.3,2620.26,-30587.67,-8245.529999999999,-8446.14,-28789.2,3129.48,10247.13
1764769166.1602943,6174.495,2613.735,-30595.23,-8253.9,-8454.6,-28797.3,3122.325,10240.02
1764769166.1602943,6174.54,2614.545,-30593.79,-8252.91,-8454.105,-28797.3,3124.08,10241.055
1764769166.1602943,6174.675,2616.12,-30592.17,-8251.199999999999,-8452.574999999999,-28796.355,3125.565,10242.945
1764769166.1602943,6169.32,2611.035,-30596.49,-8254.845,-8455.994999999999,-28800.27,3122.145,10238.085
1764769166.1602943,6172.695,2614.86,-30594.15,-8252.369999999999,-8453.744999999999,-28798.335,3125.79,10240.92
1764769166.1602943,6175.53,2618.28,-30591.27,-8249.805,-8451.18,-28795.995,3127.905,10244.475
1764769166.1602943,6180.929999999999,2623.5,-30585.645,-8244.0,-8444.34,-28788.705,3132.81,10250.1
1764769166.1602943,6175.395,2616.345,-30593.115,-8251.065,-8452.08,-28796.265,3126.015,10243.26
1764769166.1602943,6180.12,2619.855,-30589.155,-8247.24,-8448.164999999999,-28792.53,3128.22,10246.095
1764769166.1602943,6174.945,2613.96,-30596.04,-8253.63,-8453.565,-28797.705,3122.325,10239.84
1764769166.1602943,6168.554999999999,2607.57,-30602.43,-8259.705,-8460.675,-28804.05,3116.52,10233.045
1764769166.1602943,6170.804999999999,2610.18,-30599.46,-8257.59,-8459.055,-28802.565,3119.085,10235.61
1764769166.1602943,6168.825,2608.56,-30602.07,-8261.055,-8463.645,-28806.255,3119.535,10234.485
1764769166.1602943,6170.445,2611.26,-30598.245,-8257.095,-8459.055,-28802.565,3121.425,10237.32
1764769166.1602943,6160.815,2601.945,-30606.84,-8264.654999999999,-8465.94,-28810.8,3112.38,10227.33
1764769166.1602943,6164.099999999999,2604.42,-30604.185,-8261.82,-8463.645,-28808.595,3114.09,10230.885
1764769166.1602943,6165.81,2605.185,-30603.465,-8261.505,-8463.33,-28807.155,3116.115,10232.37
1764769166.1602943,6158.7,2596.995,-30610.755,-8268.84,-8470.98,-28814.67,3109.635,10223.415
1764769166.1602943,6164.01,2602.395,-30606.3,-8264.205,-8466.39,-28809.225,3112.965,10227.33
1764769166.1602943,6158.205,2596.005,-30612.87,-8270.01,-8471.205,-28814.22,3108.51,10221.345
1764769166.207527,6163.245,2601.315,-30608.37,-8265.105,-8466.345,-28809.855,3112.11,10226.655
1764769166.207527,6154.65,2592.945,-30616.83,-8273.744999999999,-8475.57,-28819.35,3103.695,10218.015
1764769166.207527,6154.11,2593.17,-30616.74,-8273.25,-8475.345,-28818.72,3103.65,10218.645
1764769166.207527,6156.81,2595.735,-30613.185,-8269.38,-8470.89,-28814.4,3107.385,10222.02
1764769166.207527,6158.745,2596.995,-30612.105,-8268.84,-8469.765,-28814.085,3108.78,10223.865
1764769166.207527,6163.83,2602.35,-30605.715,-8263.17,-8464.14,-28809.18,3113.37,10228.995
1764769166.207527,6159.554999999999,2597.895,-30610.305,-8267.58,-8468.414999999999,-28813.5,3110.22,10223.955
1764769166.207527,6157.17,2595.285,-30613.68,-8270.82,-8472.555,-28817.37,3106.035,10219.95
1764769166.207527,6166.62,2604.555,-30604.005,-8261.73,-8463.555,-28808.73,3113.595,10229.895
1764769166.207527,6163.695,2601.045,-30606.93,-8264.925,-8466.525,-28812.645,3110.13,10226.655
1764769166.207527,6154.02,2590.56,-30617.775,-8275.185,-8476.515,-28822.635,3101.085,10216.53
1764769166.207527,6148.935,2585.655,-30622.14,-8280.045,-8480.744999999999,-28826.505,3096.405,10211.355
1764769166.207527,6152.219999999999,2590.605,-30617.235,-8274.824999999999,-8475.119999999999,-28821.015,3099.195,10215.945
1764769166.207527,6147.405,2585.745,-30622.815,-8280.63,-8481.51,-28828.35,3094.38,10210.455
1764769166.207527,6144.57,2583.27,-30625.155,-8282.16,-8482.815,-28830.195,3092.58,10208.205
1764769166.207527,6144.165,2583.63,-30625.02,-8282.205,-8483.22,-28829.97,3092.67,10208.205
1764769166.207527,6147.27,2587.14,-30622.545,-8280.0,-8479.664999999999,-28826.91,3095.505,10211.22
1764769166.207527,6152.715,2592.36,-30617.055,-8273.565,-8473.725,-28820.61,3100.23,10216.53
1764769166.207527,6164.145,2603.115,-30605.49,-8261.955,-8462.34,-28809.36,3109.68,10228.32
1764769166.207527,6162.84,2601.135,-30606.93,-8263.305,-8463.105,-28809.99,3107.295,10225.935
1764769166.207527,6160.5,2598.255,-30610.215,-8266.994999999999,-8466.615,-28812.195,3104.82,10223.235
1764769166.207527,6151.86,2589.345,-30620.07,-8276.265,-8477.369999999999,-28822.77,3097.71,10214.46
1764769166.207527,6151.635,2590.695,-30619.08,-8275.095,-8476.47,-28821.87,3098.835,10215.18
1764769166.207527,6160.41,2600.37,-30609.135,-8266.59,-8468.324999999999,-28813.59,3106.935,10225.08
1764769166.2539392,6159.735,2599.335,-30610.8,-8267.715,-8469.539999999999,-28815.345,3106.53,10225.125
1764769166.2539392,6155.594999999999,2595.06,-30614.085,-8269.515,-8471.43,-28817.73,3102.885,10220.355
1764769166.2539392,6147.224999999999,2586.15,-30622.365,-8278.244999999999,-8480.07,-28827.27,3094.875,10210.68
1764769166.2544608,6149.7,2588.445,-30620.16,-8277.119999999999,-8477.685,-28824.39,3098.025,10213.56
1764769166.2544608,6160.635,2598.615,-30610.215,-8267.31,-8467.965,-28813.86,3106.125,10223.325
1764769166.2544608,6157.844999999999,2594.97,-30613.995,-8270.595,-8470.98,-28816.65,3102.885,10219.815
1764769166.2544608,6149.52,2587.14,-30621.42,-8277.3,-8478.18,-28823.625,3096.72,10211.67
1764769166.2544608,6150.105,2588.355,-30619.44,-8276.039999999999,-8477.145,-28822.5,3098.16,10213.11
1764769166.2544608,6159.915,2600.1,-30608.595,-8264.654999999999,-8466.345,-28811.7,3107.97,10224.855
1764769166.2544608,6160.635,2601.09,-30607.38,-8263.44,-8465.715,-28811.43,3109.545,10225.71
1764769166.2544608,6156.179999999999,2596.815,-30612.195,-8268.84,-8470.529999999999,-28817.325,3105.945,10221.48
1764769166.2544608,6165.135,2606.31,-30603.735,-8260.289999999999,-8462.025,-28808.955,3113.595,10230.66
1764769166.2544608,6169.005,2609.145,-30601.17,-8256.42,-8458.695,-28805.67,3116.97,10233.27
1764769166.2544608,6167.565,2607.12,-30602.97,-8258.49,-8461.305,-28808.055,3114.315,10231.695
1764769166.2544608,6168.87,2608.155,-30601.98,-8257.5,-8460.945,-28807.29,3115.17,10232.235
1764769166.2544608,6159.24,2598.57,-30611.43,-8267.445,-8469.99,-28816.56,3105.855,10221.93
1764769166.2544608,6157.62,2597.31,-30611.7,-8267.895,-8470.44,-28817.055,3103.605,10219.32
1764769166.2544608,6165.81,2605.59,-30603.105,-8259.705,-8461.755,-28807.605,3111.03,10228.635
1764769166.2544608,6168.105,2608.47,-30601.08,-8257.68,-8459.73,-28805.67,3114.54,10232.235
1764769166.2544608,6159.51,2599.56,-30610.44,-8266.365,-8469.27,-28816.965,3106.44,10223.055
1764769166.2554722,6154.245,2594.16,-30615.525,-8271.63,-8473.68,-28821.735,3101.76,10218.105
1764769166.2554722,6157.125,2597.31,-30613.68,-8269.965,-8471.925,-28819.305,3104.505,10221.66
1764769166.2554722,6161.04,2600.28,-30610.71,-8266.32,-8469.135,-28815.615,3107.565,10224.72
1764769166.2554722,6171.57,2610.18,-30600.405,-8255.744999999999,-8459.19,-28804.77,3115.305,10234.125
1764769166.305082,6176.474999999999,2615.31,-30595.86,-8251.244999999999,-8454.06,-28800.63,3119.22,10237.905
1764769166.305082,6169.41,2608.47,-30603.375,-8258.76,-8460.63,-28807.155,3113.775,10230.705
1764769166.305082,6170.849999999999,2608.65,-30603.375,-8258.039999999999,-8459.369999999999,-28805.445,3114.495,10232.46
1764769166.305082,6173.054999999999,2610.585,-30601.305,-8255.88,-8458.154999999999,-28804.185,3115.755,10234.62
1764769166.305082,6183.045,2621.52,-30590.145,-8245.08,-8446.545,-28792.35,3126.555,10246.14
1764769166.305082,6182.865,2621.88,-30589.74,-8245.35,-8445.914999999999,-28793.025,3126.87,10246.635
1764769166.305082,6180.615,2620.62,-30591.09,-8247.015,-8447.67,-28795.5,3125.925,10244.88
1764769166.305082,6174.585,2615.22,-30597.03,-8252.369999999999,-8452.71,-28800.405,3121.605,10239.435
1764769166.305082,6181.245,2620.62,-30591.585,-8246.789999999999,-8447.175,-28794.78,3125.835,10244.88
1764769166.305082,6179.175,2617.56,-30594.375,-8250.21,-8450.46,-28797.48,3123.765,10241.595
1764769166.305082,6184.304999999999,2621.7,-30589.965,-8245.485,-8446.455,-28792.935,3127.545,10245.96
1764769166.305082,6174.405,2610.72,-30600.9,-8256.779999999999,-8458.199999999999,-28804.77,3117.915,10234.98
1764769166.305082,6179.4,2616.705,-30595.86,-8252.73,-8454.555,-28800.945,3122.1,10240.785
1764769166.305082,6178.094999999999,2616.48,-30596.895,-8254.035,-8455.86,-28802.025,3121.695,10239.66
1764769166.305082,6168.42,2607.21,-30603.735,-8260.38,-8460.27,-28807.515,3113.955,10230.3
1764769166.305082,6173.865,2615.13,-30595.725,-8252.865,-8452.98,-28801.395,3119.31,10237.455
1764769166.305082,6177.78,2619.0,-30592.26,-8249.355,-8449.425,-28798.515,3123.945,10241.685
1764769166.305082,6167.969999999999,2608.245,-30602.745,-8259.705,-8460.539999999999,-28809.27,3115.665,10231.74
1764769166.305082,6166.08,2605.905,-30604.59,-8262.09,-8463.105,-28811.7,3112.83,10228.995
1764769166.305082,6180.66,2620.98,-30590.505,-8248.59,-8449.11,-28797.345,3125.745,10242.945
1764769166.305082,6188.535,2629.44,-30582.9,-8240.355,-8441.19,-28788.705,3133.845,10250.325
1764769166.305082,6176.429999999999,2616.795,-30595.455,-8251.875,-8453.34,-28800.675,3122.19,10236.96
1764769166.305082,6177.645,2617.83,-30594.105,-8250.705,-8451.855,-28799.415,3122.46,10238.31
1764769166.3060875,6188.49,2629.17,-30582.405,-8238.465,-8439.345,-28787.31,3132.72,10250.325
1764769166.3496008,6189.12,2631.15,-30579.84,-8235.945,-8436.33,-28784.88,3135.33,10252.17
1764769166.3496008,6181.245,2623.095,-30588.615,-8245.89,-8446.185,-28794.42,3128.445,10244.16
1764769166.3496008,6186.554999999999,2627.955,-30583.125,-8241.345,-8442.539999999999,-28790.235,3132.405,10249.74
1764769166.3496008,6188.175,2630.205,-30580.83,-8239.365,-8439.975,-28788.165,3133.755,10252.305
1764769166.3496008,6186.195,2628.135,-30582.54,-8241.39,-8441.955,-28789.695,3132.63,10249.695
1764769166.3496008,6176.25,2617.065,-30593.79,-8251.695,-8453.744999999999,-28801.26,3123.135,10238.175
1764769166.3496008,6183.045,2623.5,-30587.22,-8245.08,-8447.355,-28795.14,3127.815,10244.61
1764769166.3496008,6175.304999999999,2614.995,-30596.355,-8253.945,-8456.039999999999,-28803.78,3119.13,10235.34
1764769166.3496008,6179.895,2619.81,-30591.63,-8248.68,-8449.83,-28797.93,3121.965,10239.66
1764769166.3496008,6178.23,2617.74,-30592.8,-8250.029999999999,-8450.91,-28799.685,3119.445,10238.22
1764769166.3496008,6178.635,2619.36,-30592.08,-8249.13,-8450.73,-28799.055,3120.795,10240.245
1764769166.3496008,6182.594999999999,2624.13,-30586.815,-8243.279999999999,-8445.555,-28793.565,3127.185,10245.15
1764769166.3496008,6178.995,2621.52,-30589.695,-8247.42,-8449.47,-28798.47,3125.205,10241.55
1764769166.3496008,6185.7,2629.08,-30581.91,-8239.77,-8441.01,-28790.73,3131.82,10248.93
1764769166.3496008,6186.51,2628.945,-30582.045,-8240.49,-8440.154999999999,-28789.065,3132.45,10250.235
1764769166.3496008,6186.06,2628.18,-30582.675,-8241.164999999999,-8441.145,-28790.46,3130.965,10248.795
1764769166.3496008,6185.52,2626.245,-30583.89,-8241.48,-8442.539999999999,-28791.72,3129.885,10246.905
1764769166.3496008,6174.81,2614.185,-30596.49,-8254.17,-8455.77,-28803.96,3118.725,10234.305
1764769166.3496008,6176.16,2614.725,-30596.67,-8253.945,-8455.23,-28803.465,3119.625,10235.025
1764769166.3496008,6177.735,2617.155,-30594.015,-8251.515,-8452.17,-28800.63,3122.055,10237.275
1764769166.3496008,6181.11,2621.61,-30589.29,-8246.88,-8447.58,-28796.805,3127.095,10241.73
1764769166.3496008,6184.53,2625.66,-30584.385,-8242.244999999999,-8442.945,-28792.8,3131.595,10246.185
1764769166.3962696,6188.849999999999,2629.845,-30580.83,-8238.779999999999,-8438.85,-28788.795,3134.16,10250.64
1764769166.3962696,6184.98,2626.02,-30585.105,-8243.1,-8443.44,-28793.43,3131.505,10246.905
1764769166.3962696,6191.865,2632.23,-30580.38,-8239.14,-8440.02,-28789.245,3136.77,10252.935
1764769166.3962696,6185.34,2625.3,-30586.77,-8244.81,-8445.105,-28794.69,3130.38,10245.735
1764769166.3962696,6188.67,2627.955,-30582.765,-8240.625,-8440.56,-28790.775,3131.595,10247.445
1764769166.3962696,6176.385,2615.67,-30595.77,-8253.855,-8453.789999999999,-28804.32,3119.355,10234.44
1764769166.3962696,6177.69,2616.21,-30595.095,-8252.955,-8453.88,-28802.97,3119.85,10235.34
1764769166.3962696,6187.094999999999,2626.155,-30585.465,-8243.505,-8444.205,-28793.295,3128.445,10245.6
1764769166.3962696,6190.02,2630.385,-30581.145,-8239.14,-8439.795,-28789.425,3132.36,10249.38
1764769166.3962696,6189.48,2630.16,-30581.505,-8239.41,-8440.38,-28790.415,3132.63,10249.155
1764769166.3962696,6188.849999999999,2630.205,-30582.63,-8240.58,-8441.324999999999,-28791.27,3132.18,10249.695
1764769166.3962696,6183.585,2623.995,-30588.435,-8246.295,-8447.445,-28796.94,3127.5,10243.755
1764769166.3962696,6183.179999999999,2624.04,-30587.94,-8245.44,-8446.68,-28795.68,3128.535,10243.665
1764769166.3962696,6185.925,2627.73,-30583.935,-8242.244999999999,-8442.585,-28790.91,3131.955,10246.86
1764769166.3962696,6194.205,2634.75,-30577.59,-8235.27,-8435.43,-28783.35,3137.4,10253.7
1764769166.3962696,6188.219999999999,2627.595,-30584.34,-8242.244999999999,-8442.945,-28790.82,3129.3,10246.05
1764769166.3962696,6183.45,2623.005,-30588.255,-8245.8,-8446.77,-28795.905,3124.53,10240.65
1764769166.3962696,6183.81,2623.815,-30588.12,-8244.855,-8445.42,-28793.97,3125.835,10242.0
1764769166.3962696,6182.01,2622.195,-30590.19,-8246.97,-8448.66,-28796.49,3123.99,10241.01
1764769166.3962696,6178.86,2619.045,-30593.115,-8250.255,-8451.9,-28799.865,3121.605,10238.67
1764769166.3975215,6177.915,2617.92,-30593.88,-8250.885,-8451.765,-28800.36,3120.66,10237.77
1764769166.3975215,6175.575,2615.985,-30596.31,-8253.99,-8454.555,-28803.42,3117.51,10234.845
1764769166.3975215,6170.535,2609.91,-30602.475,-8260.38,-8461.395,-28811.34,3111.57,10228.77
1764769166.3975215,6163.11,2601.09,-30611.16,-8268.345,-8470.215,-28819.8,3104.055,10219.725
1764769166.4434931,6169.995,2607.705,-30604.005,-8261.235,-8462.654999999999,-28810.755,3110.085,10226.835
1764769166.4434931,6158.745,2595.195,-30616.2,-8273.52,-8475.119999999999,-28822.86,3098.205,10213.965
1764769166.4434931,6156.764999999999,2592.765,-30618.855,-8276.13,-8478.449999999999,-28826.505,3095.055,10211.49
1764769166.4434931,6156.224999999999,2593.62,-30618.045,-8275.815,-8478.27,-28826.955,3094.695,10211.4
1764769166.4434931,6164.82,2603.295,-30609.315,-8266.41,-8467.875,-28816.965,3103.785,10221.57
1764769166.4434931,6165.224999999999,2604.42,-30608.415,-8266.949999999999,-8468.1,-28817.37,3103.92,10222.245
1764769166.4434931,6162.21,2601.585,-30611.16,-8269.74,-8471.115,-28821.24,3101.535,10219.41
1764769166.4434931,6156.495,2596.185,-30617.19,-8276.13,-8477.414999999999,-28827.945,3096.495,10213.56
1764769166.4434931,6165.495,2605.32,-30608.01,-8266.994999999999,-8468.64,-28818.135,3104.37,10222.47
1764769166.4434931,6168.195,2605.995,-30606.84,-8265.51,-8467.425,-28815.885,3106.215,10223.82
1764769166.4434931,6170.445,2607.345,-30605.22,-8263.8,-8465.445,-28813.14,3107.61,10225.395
1764769166.4434931,6164.865,2601.81,-30610.485,-8268.93,-8470.08,-28817.325,3102.57,10219.815
1764769166.4434931,6154.56,2591.235,-30621.375,-8280.045,-8480.654999999999,-28827.72,3092.985,10209.375
1764769166.4434931,6151.815,2589.12,-30624.12,-8283.015,-8483.985,-28831.365,3090.375,10206.495
1764769166.4434931,6156.36,2593.71,-30619.125,-8278.02,-8479.305,-28827.18,3096.045,10212.93
1764769166.4434931,6157.304999999999,2596.5,-30615.75,-8274.42,-8474.355,-28823.445,3098.25,10215.405
1764769166.4434931,6166.17,2605.68,-30606.255,-8264.34,-8462.744999999999,-28812.645,3107.205,10225.08
1764769166.4434931,6165.855,2605.455,-30607.02,-8265.555,-8464.005,-28813.68,3108.51,10225.17
1764769166.4434931,6174.9,2613.42,-30598.785,-8257.815,-8455.994999999999,-28805.31,3115.17,10233.585
1764769166.4434931,6177.06,2615.22,-30596.94,-8256.375,-8454.06,-28803.555,3116.07,10234.44
1764769166.4434931,6179.67,2617.875,-30594.375,-8253.539999999999,-8452.395,-28801.26,3118.005,10236.69
1764769166.4434931,6177.15,2614.905,-30597.75,-8255.789999999999,-8455.275,-28804.365,3114.45,10233.855
1764769166.4434931,6172.965,2610.81,-30602.34,-8260.199999999999,-8459.64,-28809.135,3109.68,10228.59
1764769166.4434931,6167.295,2605.23,-30607.065,-8265.195,-8464.59,-28814.13,3105.63,10223.73
1764769166.4908662,6177.87,2616.3,-30597.03,-8254.485,-8454.15,-28803.825,3115.755,10235.385
1764769166.4908662,6178.545,2617.56,-30596.265,-8253.539999999999,-8453.07,-28803.78,3117.465,10236.69
1764769166.4908662,6172.335,2611.44,-30602.385,-8259.84,-8460.315,-28811.745,3112.47,10230.075
1764769166.4908662,6176.385,2616.255,-30597.795,-8256.105,-8456.58,-28808.73,3115.395,10234.845
1764769166.4908662,6172.11,2612.88,-30600.99,-8258.985,-8459.369999999999,-28811.115,3112.29,10230.48
1764769166.4908662,6174.09,2614.59,-30598.875,-8256.15,-8456.895,-28807.74,3114.18,10232.46
1764769166.4908662,6190.38,2630.925,-30582.63,-8240.265,-8441.324999999999,-28791.225,3129.3,10248.795
1764769166.4908662,6187.23,2627.91,-30586.14,-8243.414999999999,-8445.24,-28795.05,3126.24,10245.6
1764769166.4908662,6176.61,2616.885,-30597.525,-8254.395,-8455.994999999999,-28806.345,3115.935,10233.405
1764769166.4908662,6179.13,2619.09,-30595.005,-8251.244999999999,-8452.26,-28802.655,3118.41,10236.06
1764769166.4908662,6177.33,2617.65,-30597.165,-8253.765,-8456.039999999999,-28805.76,3118.185,10235.52
1764769166.4908662,6184.844999999999,2626.56,-30588.39,-8245.26,-8447.265,-28798.155,3125.475,10244.295
1764769166.4908662,6188.355,2630.295,-30584.655,-8241.57,-8443.395,-28794.69,3130.155,10248.57
1764769166.4908662,6180.03,2621.115,-30592.305,-8249.445,-8451.72,-28803.42,3122.955,10239.93
1764769166.4908662,6182.01,2622.87,-30590.505,-8247.285,-8449.515,-28801.71,3123.36,10241.955
1764769166.4908662,6183.45,2622.555,-30591.54,-8247.6,-8450.055,-28801.935,3122.595,10241.955
1764769166.4908662,6182.325,2621.43,-30592.125,-8248.455,-8450.55,-28802.07,3121.695,10240.83
1764769166.4908662,6169.455,2607.705,-30604.59,-8261.235,-8463.105,-28814.76,3109.68,10227.78
1764769166.4908662,6172.469999999999,2609.91,-30602.88,-8259.164999999999,-8460.99,-28812.06,3110.67,10230.21
1764769166.4908662,6175.575,2613.375,-30599.955,-8256.015,-8458.289999999999,-28809.18,3113.37,10233.045
1764769166.5373676,6175.44,2614.77,-30598.47,-8254.305,-8456.085,-28808.37,3115.26,10234.125
1764769166.5373676,6165.27,2605.05,-30607.92,-8263.845,-8466.3,-28818.99,3106.755,10224.18
1764769166.5373676,6165.495,2605.68,-30607.515,-8262.675,-8464.455,-28817.91,3106.485,10224.495
1764769166.5373676,6172.469999999999,2612.88,-30600.945,-8256.645,-8457.029999999999,-28810.125,3113.055,10232.235
1764769166.5373676,6168.06,2607.525,-30605.985,-8261.279999999999,-8461.574999999999,-28813.905,3108.915,10226.835
1764769166.5373676,6165.81,2604.915,-30607.56,-8263.845,-8465.49,-28818.405,3104.505,10223.46
1764769166.5373676,6176.835,2616.03,-30596.94,-8252.82,-8454.51,-28807.695,3115.35,10235.16
1764769166.5373676,6175.53,2613.87,-30598.74,-8254.574999999999,-8456.805,-28808.82,3114.27,10234.35
1764769166.5373676,6171.885,2610.72,-30601.17,-8256.555,-8458.695,-28811.43,3109.005,10228.68
1764769166.5373676,6168.825,2607.75,-30604.14,-8258.265,-8460.27,-28813.95,3106.575,10225.935
1764769166.5373676,6170.085,2609.055,-30603.33,-8258.085,-8459.19,-28813.41,3109.635,10228.23
1764769166.5373676,6165.36,2604.825,-30608.01,-8262.99,-8464.23,-28818.225,3106.665,10224.135
1764769166.5373676,6171.974999999999,2612.97,-30600.135,-8255.07,-8456.4,-28810.305,3113.865,10232.055
1764769166.5373676,6164.775,2604.42,-30608.775,-8263.755,-8465.039999999999,-28819.395,3106.485,10224.54
1764769166.5373676,6165.045,2605.455,-30607.605,-8262.404999999999,-8464.68,-28819.44,3106.935,10225.215
1764769166.5373676,6173.46,2613.735,-30599.46,-8254.305,-8457.164999999999,-28810.665,3114.225,10233.18
1764769166.5373676,6177.554999999999,2617.02,-30596.355,-8250.57,-8453.744999999999,-28806.39,3117.555,10236.06
1764769166.5373676,6174.405,2613.42,-30600.765,-8254.619999999999,-8457.795,-28809.585,3113.325,10231.74
1764769166.5373676,6170.13,2609.595,-30604.68,-8258.039999999999,-8461.485,-28812.87,3109.32,10227.465
1764769166.5373676,6164.01,2603.295,-30611.07,-8264.34,-8467.875,-28819.44,3103.92,10220.58
1764769166.5373676,6159.285,2598.66,-30616.02,-8269.515,-8472.779999999999,-28824.885,3100.185,10215.81
1764769166.5373676,6167.565,2608.56,-30605.715,-8259.66,-8462.699999999999,-28815.21,3108.87,10226.385
1764769166.5373676,6169.455,2611.935,-30602.43,-8256.645,-8459.46,-28812.87,3111.75,10229.13
1764769166.5373676,6161.76,2602.665,-30610.665,-8264.565,-8468.055,-28821.105,3105.495,10221.48
1764769166.580496,6168.15,2608.335,-30605.13,-8258.715,-8462.34,-28815.255,3109.995,10226.925
1764769166.580496,6171.21,2612.34,-30600.99,-8255.205,-8460.135,-28812.465,3112.02,10229.13
1764769166.580496,6175.485,2615.445,-30598.155,-8252.595,-8457.164999999999,-28808.505,3116.025,10232.73
1764769166.580496,6172.335,2611.17,-30601.53,-8256.779999999999,-8461.71,-28813.23,3111.525,10228.185
1764769166.580496,6170.625,2610.585,-30601.53,-8257.32,-8462.565,-28814.67,3110.49,10226.655
1764769166.580496,6158.88,2599.515,-30612.69,-8268.57,-8473.365,-28826.415,3099.51,10214.37
1764769166.580496,6161.264999999999,2602.305,-30609.495,-8265.555,-8469.449999999999,-28822.905,3102.39,10217.205
1764769166.580496,6170.085,2611.215,-30601.62,-8257.815,-8461.529999999999,-28815.03,3111.255,10227.105
1764769166.580496,6167.34,2608.605,-30604.455,-8261.01,-8464.77,-28818.495,3109.365,10224.585
1764769166.580496,6165.27,2605.95,-30605.895,-8262.09,-8466.705,-28819.98,3107.25,10222.83
1764769166.580496,6167.385,2608.605,-30603.105,-8259.164999999999,-8464.725,-28817.28,3109.41,10225.26
1764769166.580496,6178.23,2619.135,-30593.205,-8248.68,-8453.97,-28806.615,3118.455,10235.475
1764769166.580496,6182.235,2622.24,-30589.965,-8245.529999999999,-8450.369999999999,-28803.195,3122.595,10238.355
1764769166.580496,6170.895,2610.63,-30602.295,-8257.68,-8462.52,-28815.525,3111.21,10226.745
1764769166.580496,6169.094999999999,2607.57,-30604.815,-8260.515,-8465.58,-28817.82,3108.825,10223.955
1764769166.580496,6171.255,2610.405,-30602.565,-8258.22,-8462.97,-28815.255,3110.535,10225.71
1764769166.580496,6175.98,2616.03,-30596.85,-8252.324999999999,-8456.94,-28809.405,3115.665,10231.965
1764769166.580496,6179.58,2620.665,-30591.09,-8245.89,-8450.235,-28803.465,3120.435,10237.32
1764769166.580496,6171.885,2613.105,-30598.695,-8254.619999999999,-8458.515,-28811.43,3115.305,10229.76
1764769166.580496,6174.63,2617.245,-30594.78,-8251.065,-8454.779999999999,-28807.695,3117.33,10232.82
1764769166.580496,6174.9,2616.03,-30596.22,-8252.369999999999,-8457.345,-28809.63,3114.54,10231.47
1764769166.580496,6174.179999999999,2614.815,-30596.94,-8252.91,-8458.289999999999,-28809.72,3114.045,10229.94
1764769166.580496,6175.349999999999,2616.75,-30595.95,-8251.92,-8456.49,-28808.1,3115.26,10230.345
1764769166.580496,6167.655,2607.975,-30604.635,-8260.83,-8465.31,-28816.515,3106.89,10221.345
1764769166.6268651,6158.16,2597.22,-30616.02,-8272.619999999999,-8477.1,-28828.17,3097.71,10211.355
1764769166.6268651,6156.224999999999,2595.33,-30617.145,-8273.475,-8478.135,-28829.07,3096.585,10210.095
1764769166.6268651,6156.405,2596.77,-30614.22,-8270.235,-8473.365,-28825.65,3098.205,10211.94
1764769166.6268651,6158.025,2598.57,-30613.14,-8269.38,-8472.51,-28826.595,3100.095,10213.785
1764769166.6268651,6167.025,2607.705,-30604.95,-8261.82,-8464.994999999999,-28818.405,3107.565,10223.55
1764769166.6268651,6160.5,2601.0,-30611.52,-8268.57,-8472.195,-28824.345,3101.4,10216.305
1764769166.6268651,6165.764999999999,2606.535,-30605.985,-8262.72,-8466.39,-28818.54,3105.945,10221.525
1764769166.6268651,6163.695,2604.24,-30607.02,-8264.699999999999,-8468.235,-28821.105,3104.505,10218.555
1764769166.6268651,6170.219999999999,2609.37,-30602.205,-8259.255,-8462.565,-28815.57,3109.14,10224.18
1764769166.6268651,6160.32,2598.615,-30613.095,-8270.595,-8474.445,-28826.325,3099.15,10213.605
1764769166.6268651,6165.224999999999,2604.96,-30607.11,-8264.565,-8468.145,-28820.7,3104.28,10219.5
1764769166.6268651,6163.469999999999,2603.88,-30608.91,-8266.005,-8469.675,-28822.095,3103.38,10218.285
1764769166.6268651,6171.344999999999,2612.16,-30600.18,-8257.455,-8461.035,-28813.545,3111.48,10227.375
1764769166.6268651,6169.59,2610.855,-30601.665,-8258.535,-8461.935,-28814.895,3111.03,10226.16
1764769166.6268651,6171.12,2612.7,-30600.315,-8256.42,-8460.045,-28813.275,3112.875,10228.14
1764769166.6268651,6175.26,2617.065,-30596.31,-8252.324999999999,-8455.815,-28809.675,3115.035,10231.695
1764769166.6268651,6174.855,2615.85,-30597.57,-8252.82,-8457.074999999999,-28810.98,3114.9,10230.705
1764769166.6268651,6169.5,2609.775,-30604.32,-8260.515,-8465.85,-28818.675,3109.185,10224.495
1764769166.6268651,6175.53,2615.085,-30598.11,-8255.475,-8459.235,-28811.115,3114.045,10230.03
1764769166.6268651,6164.955,2604.645,-30609.0,-8266.275,-8470.305,-28821.915,3104.505,10219.185
1764769166.6268651,6173.01,2612.97,-30600.135,-8257.904999999999,-8461.26,-28813.635,3111.57,10227.33
1764769166.6268651,6169.679999999999,2609.73,-30603.645,-8260.92,-8464.32,-28817.19,3109.005,10223.91
1764769166.6268651,6178.95,2620.53,-30593.25,-8250.255,-8453.97,-28806.705,3118.185,10234.71
1764769166.6268651,6180.03,2622.555,-30589.74,-8247.69,-8450.865,-28805.13,3120.795,10237.005
1764769166.6745584,6178.635,2620.98,-30591.09,-8249.085,-8451.99,-28805.445,3120.345,10235.79
1764769166.6745584,6172.155,2614.635,-30596.94,-8254.44,-8458.065,-28811.43,3114.855,10229.445
1764769166.6745584,6174.405,2617.245,-30594.015,-8251.065,-8454.6,-28808.73,3115.44,10230.21
1764769166.6745584,6170.535,2611.98,-30600.72,-8258.895,-8463.015,-28816.335,3111.66,10225.62
1764769166.6745584,6177.554999999999,2617.695,-30594.915,-8252.82,-8455.815,-28808.82,3116.88,10232.415
1764769166.6745584,6172.785,2612.43,-30599.91,-8257.545,-8460.585,-28813.23,3111.57,10226.205
1764769166.6745584,6158.88,2598.705,-30614.355,-8271.449999999999,-8475.795,-28828.08,3097.755,10211.31
1764769166.6745584,6156.315,2597.13,-30615.57,-8272.8,-8477.1,-28829.115,3096.495,10209.96
1764769166.6745584,6167.385,2608.65,-30603.645,-8261.279999999999,-8464.095,-28817.235,3107.745,10221.885
1764769166.6745584,6172.74,2614.185,-30598.65,-8256.779999999999,-8460.404999999999,-28812.825,3113.28,10228.185
1764769166.6745584,6172.469999999999,2614.23,-30599.73,-8258.445,-8462.52,-28814.715,3114.18,10228.68
1764769166.6745584,6177.42,2621.385,-30591.9,-8249.85,-8451.855,-28804.23,3120.66,10235.43
1764769166.6745584,6189.66,2634.48,-30578.58,-8237.295,-8438.13,-28791.27,3131.73,10247.67
1764769166.6745584,6191.91,2635.515,-30577.41,-8235.99,-8437.59,-28790.415,3133.26,10248.84
1764769166.6745584,6194.07,2636.82,-30576.33,-8234.595,-8435.88,-28787.715,3134.925,10249.56
1764769166.6745584,6190.695,2633.22,-30579.93,-8239.095,-8440.425,-28791.945,3130.605,10245.735
1764769166.6745584,6185.34,2627.46,-30586.77,-8245.664999999999,-8447.355,-28798.38,3124.35,10240.02
1764769166.6745584,6177.87,2619.135,-30594.555,-8252.82,-8454.105,-28805.94,3118.68,10233.0
1764769166.6750617,6182.505,2625.435,-30588.03,-8246.475,-8448.029999999999,-28800.18,3123.72,10239.435
1764769166.6750617,6181.605,2625.21,-30588.705,-8247.555,-8448.525,-28800.81,3123.135,10239.345
1764769166.6750617,6170.67,2614.275,-30599.19,-8259.074999999999,-8459.414999999999,-28811.655,3114.18,10228.23
1764769166.6750617,6170.13,2612.385,-30601.485,-8260.605,-8461.26,-28813.815,3112.785,10226.745
1764769166.6750617,6178.185,2621.385,-30592.89,-8251.38,-8451.9,-28805.445,3119.625,10235.205
1764769166.6750617,6171.389999999999,2613.96,-30601.44,-8260.065,-8460.945,-28813.68,3112.875,10227.825
1764769166.7209575,6175.8,2617.47,-30598.47,-8256.914999999999,-8458.38,-28809.81,3115.935,10231.155
1764769166.721475,6166.575,2607.435,-30607.29,-8266.949999999999,-8468.279999999999,-28820.61,3107.025,10220.445
1764769166.721475,6167.52,2608.47,-30607.92,-8266.635,-8468.055,-28820.79,3107.61,10220.985
1764769166.721475,6165.405,2607.435,-30609.54,-8268.3,-8469.09,-28821.915,3106.035,10219.365
1764769166.721475,6167.745,2609.91,-30606.705,-8265.869999999999,-8465.715,-28818.855,3109.59,10222.155
1764769166.721475,6166.575,2610.045,-30606.93,-8265.6,-8465.49,-28819.89,3109.77,10221.885
1764769166.721475,6166.53,2610.63,-30605.67,-8265.015,-8464.455,-28817.595,3111.21,10222.83
1764769166.721475,6168.33,2611.62,-30603.96,-8263.845,-8463.06,-28816.695,3111.75,10224.495
1764769166.721475,6175.17,2618.37,-30598.47,-8258.535,-8459.279999999999,-28812.465,3116.205,10230.255
1764769166.721475,6171.795,2615.04,-30602.25,-8262.585,-8462.43,-28815.165,3112.695,10226.205
1764769166.721475,6180.57,2622.06,-30594.87,-8254.89,-8454.869999999999,-28807.245,3120.12,10234.395
1764769166.721475,6172.605,2613.105,-30604.14,-8263.935,-8463.465,-28816.29,3112.56,10224.765
1764769166.721475,6170.04,2611.71,-30606.255,-8265.51,-8465.039999999999,-28817.685,3109.545,10222.155
1764769166.721475,6168.014999999999,2610.405,-30607.875,-8267.039999999999,-8467.425,-28820.16,3107.835,10220.94
1764769166.721475,6169.23,2612.655,-30605.895,-8264.565,-8464.59,-28818.225,3110.085,10223.595
1764769166.721475,6179.445,2623.32,-30595.545,-8253.404999999999,-8453.385,-28807.38,3119.985,10234.485
1764769166.721475,6178.86,2622.645,-30596.67,-8256.105,-8455.994999999999,-28809.54,3120.705,10234.44
1764769166.721475,6179.175,2622.33,-30597.03,-8256.914999999999,-8457.84,-28811.745,3119.715,10234.035
1764769166.721475,6184.889999999999,2628.315,-30589.92,-8247.645,-8448.029999999999,-28801.395,3125.61,10239.705
1764769166.721475,6179.31,2622.645,-30594.78,-8251.965,-8452.8,-28806.615,3120.66,10233.63
1764769166.721475,6184.889999999999,2627.55,-30591.0,-8248.185,-8449.515,-28802.61,3123.36,10238.31
1764769166.721475,6183.9,2626.02,-30592.755,-8249.22,-8450.955,-28804.68,3120.75,10236.285
1764769166.7651706,6181.38,2624.175,-30594.87,-8251.74,-8453.07,-28806.66,3119.22,10234.215
1764769166.7651706,6174.09,2616.255,-30603.42,-8259.705,-8460.9,-28815.345,3113.145,10227.105
1764769166.7651706,6170.67,2613.33,-30605.445,-8261.685,-8462.25,-28817.82,3110.805,10224.81
1764769166.7651706,6171.57,2615.13,-30603.915,-8260.515,-8461.574999999999,-28817.55,3112.11,10226.745
1764769166.7651706,6178.59,2623.32,-30595.545,-8252.1,-8453.699999999999,-28809.495,3119.805,10235.61
1764769166.7651706,6173.594999999999,2617.92,-30601.44,-8257.32,-8459.145,-28814.76,3115.17,10229.94
1764769166.7651706,6178.86,2622.87,-30595.995,-8252.73,-8454.735,-28809.765,3119.31,10234.98
1764769166.7651706,6183.27,2626.83,-30592.485,-8249.355,-8451.539999999999,-28806.165,3122.505,10238.535
1764769166.7651706,6180.66,2623.41,-30596.04,-8253.99,-8456.22,-28810.17,3118.545,10234.035
1764769166.7651706,6169.094999999999,2610.945,-30608.685,-8266.14,-8468.505,-28822.365,3107.25,10220.67
1764769166.7651706,6170.31,2612.43,-30606.615,-8264.385,-8465.175,-28819.44,3109.41,10222.47
1764769166.7651706,6182.235,2625.705,-30594.33,-8252.324999999999,-8454.195,-28808.055,3120.705,10236.195
1764769166.7651706,6185.52,2630.745,-30590.145,-8248.095,-8449.74,-28803.555,3125.205,10240.92
1764769166.7651706,6178.005,2623.905,-30596.67,-8254.845,-8455.994999999999,-28810.53,3120.255,10233.855
1764769166.8117533,6179.67,2625.93,-30594.015,-8252.279999999999,-8454.105,-28809.405,3120.885,10236.33
1764769166.8117533,6174.09,2620.17,-30599.19,-8257.095,-8459.46,-28815.84,3116.655,10231.065
1764769166.8117533,6176.025,2622.465,-30597.705,-8255.88,-8457.975,-28814.265,3117.645,10232.595
1764769166.8117533,6171.12,2616.66,-30603.645,-8262.045,-8464.635,-28820.205,3111.75,10225.845
1764769166.815689,6179.58,2624.58,-30594.825,-8253.225,-8456.039999999999,-28810.26,3118.41,10232.91
1764769166.815689,6172.38,2616.345,-30602.34,-8260.965,-8463.824999999999,-28817.1,3111.975,10225.215
1764769166.815689,6175.26,2619.81,-30599.73,-8258.76,-8461.755,-28815.795,3113.73,10228.68
1764769166.815689,6169.41,2613.915,-30605.22,-8264.34,-8467.425,-28822.05,3109.545,10223.055
1764769166.815689,6176.205,2621.925,-30597.075,-8256.105,-8458.83,-28814.22,3116.295,10231.38
1764769166.815689,6171.165,2617.74,-30600.945,-8260.74,-8463.195,-28818.765,3112.56,10226.835
1764769166.815689,6173.594999999999,2620.98,-30598.155,-8258.265,-8460.045,-28816.29,3114.63,10229.76
1764769166.815689,6168.24,2615.22,-30603.825,-8263.44,-8464.994999999999,-28821.555,3109.77,10223.82
1764769166.815689,6174.27,2620.305,-30597.84,-8257.095,-8457.93,-28815.39,3114.135,10229.445
1764769166.815689,6176.88,2622.555,-30596.265,-8256.015,-8457.57,-28814.13,3115.845,10230.21
1764769166.815689,6182.46,2628.18,-30591.18,-8250.164999999999,-8452.08,-28808.64,3121.65,10235.565
1764769166.815689,6175.665,2619.9,-30599.955,-8259.255,-8461.619999999999,-28817.37,3113.55,10227.645
1764769166.815689,6161.13,2605.635,-30614.535,-8274.24,-8476.83,-28831.995,3100.23,10212.615
1764769166.815689,6156.585,2600.955,-30618.18,-8277.93,-8480.43,-28836.045,3096.945,10207.845
1764769166.815689,6157.08,2601.765,-30616.425,-8276.355,-8478.225,-28834.38,3099.105,10209.825
1764769166.815689,6157.035,2603.295,-30614.895,-8274.779999999999,-8477.145,-28833.075,3100.77,10211.4
1764769166.815689,6159.42,2606.175,-30611.745,-8272.664999999999,-8474.535,-28830.465,3103.02,10214.37
1764769166.815689,6167.969999999999,2615.22,-30603.195,-8264.654999999999,-8466.345,-28822.545,3110.085,10223.19
1764769166.815689,6170.175,2618.46,-30601.44,-8262.72,-8464.949999999999,-28820.43,3112.335,10226.16
1764769166.815689,6170.58,2617.695,-30602.295,-8264.565,-8467.244999999999,-28822.815,3112.38,10225.71
1764769166.815689,6171.255,2618.055,-30601.305,-8262.09,-8463.735,-28819.665,3111.705,10225.26
1764769166.815689,6168.554999999999,2615.04,-30604.365,-8264.654999999999,-8465.535,-28822.23,3108.375,10222.02
1764769166.815689,6168.33,2614.23,-30605.535,-8265.645,-8466.84,-28822.455,3108.69,10221.93
1764769166.815689,6167.745,2614.86,-30605.175,-8266.365,-8467.785,-28823.175,3108.915,10222.92
1764769166.815689,6170.895,2619.585,-30600.675,-8262.63,-8462.789999999999,-28818.99,3113.235,10226.745
1764769166.815689,6168.645,2617.11,-30603.015,-8265.33,-8465.039999999999,-28821.87,3110.895,10224.135
1764769166.815689,6162.165,2610.27,-30609.225,-8272.125,-8470.755,-28829.07,3106.26,10218.15
1764769166.815689,6164.594999999999,2613.735,-30606.3,-8269.38,-8468.685,-28827.045,3108.69,10220.67
1764769166.815689,6172.514999999999,2621.7,-30598.56,-8261.55,-8460.449999999999,-28818.315,3115.215,10229.085
1764769166.815689,6174.405,2622.825,-30597.57,-8260.38,-8458.154999999999,-28816.245,3116.295,10230.705
1764769166.8584816,6174.585,2623.545,-30596.85,-8259.885,-8457.164999999999,-28815.03,3116.07,10230.48
1764769166.8584816,6165.63,2612.97,-30606.795,-8270.369999999999,-8467.83,-28824.84,3106.305,10220.76
1764769166.8584816,6170.849999999999,2618.37,-30601.8,-8263.845,-8462.205,-28820.205,3110.58,10225.755
1764769166.8584816,6165.045,2613.825,-30606.075,-8268.795,-8466.3,-28824.795,3106.485,10220.445
1764769166.8584816,6153.344999999999,2601.855,-30617.73,-8281.17,-8478.99,-28836.99,3097.26,10209.42
1764769166.8584816,6152.804999999999,2601.0,-30618.54,-8281.8,-8479.98,-28838.745,3096.495,10208.745
1764769166.8584816,6162.255,2612.205,-30607.83,-8271.27,-8469.765,-28827.855,3105.81,10219.545
1764769166.8584816,6157.26,2607.66,-30612.645,-8276.895,-8475.525,-28833.525,3101.94,10214.415
1764769166.8584816,6155.37,2605.23,-30614.895,-8279.82,-8478.63,-28836.585,3098.7,10211.67
1764769166.8584816,6160.185,2610.0,-30611.565,-8276.49,-8474.67,-28832.265,3102.12,10216.08
1764769166.8584816,6172.335,2622.24,-30600.54,-8264.34,-8463.015,-28819.71,3112.47,10227.825
1764769166.8584816,6167.07,2616.435,-30605.715,-8269.47,-8468.64,-28825.335,3106.935,10220.535
1764769166.8584816,6158.429999999999,2607.66,-30613.815,-8277.57,-8477.1,-28833.21,3099.96,10211.67
1764769166.8584816,6159.42,2608.65,-30612.78,-8276.67,-8474.67,-28831.725,3101.22,10213.56
1764769166.8584816,6170.04,2621.52,-30600.315,-8263.8,-8461.619999999999,-28818.945,3112.605,10226.295
1764769166.8584816,6174.45,2627.55,-30595.05,-8257.815,-8456.49,-28814.085,3118.455,10232.145
1764769166.8584816,6169.23,2621.565,-30600.225,-8263.619999999999,-8462.52,-28820.52,3114.135,10226.745
1764769166.8584816,6167.655,2619.405,-30602.7,-8266.365,-8465.67,-28823.535,3112.515,10224.27
1764769166.8584816,6169.86,2621.475,-30600.72,-8263.935,-8461.89,-28820.07,3113.955,10226.295
1764769166.8584816,6177.51,2628.9,-30593.655,-8256.69,-8454.869999999999,-28812.33,3119.49,10233.18
1764769166.8584816,6176.565,2627.325,-30595.14,-8258.085,-8456.895,-28812.78,3118.455,10231.245
1764769166.8584816,6170.535,2620.845,-30602.565,-8265.42,-8464.095,-28819.395,3111.39,10224.18
1764769166.9080667,6164.955,2614.905,-30608.73,-8272.44,-8471.205,-28826.055,3106.53,10218.33
1764769166.9080667,6173.099999999999,2624.175,-30599.865,-8261.64,-8459.595,-28814.535,3114.18,10227.06
1764769166.9080667,6180.795,2632.5,-30591.495,-8253.09,-8450.235,-28805.715,3121.83,10235.88
1764769166.9080667,6182.145,2633.805,-30589.29,-8251.65,-8449.289999999999,-28805.04,3124.035,10238.22
1764769166.9080667,6184.349999999999,2637.72,-30585.465,-8248.095,-8446.77,-28802.205,3128.535,10241.235
1764769166.9080667,6184.26,2636.64,-30586.995,-8249.715,-8448.255,-28802.655,3127.14,10240.11
1764769166.9080667,6175.17,2626.11,-30598.515,-8260.965,-8459.685,-28814.22,3117.78,10229.985
1764769166.9080667,6179.49,2629.62,-30594.105,-8256.33,-8455.5,-28810.215,3120.525,10233.585
1764769166.9080667,6181.695,2631.555,-30592.17,-8253.99,-8453.385,-28807.92,3123.225,10235.385
1764769166.9080667,6169.905,2620.17,-30603.645,-8265.105,-8463.869999999999,-28819.035,3112.56,10223.37
1764769166.9080667,6170.13,2619.63,-30602.745,-8264.07,-8463.015,-28817.64,3113.055,10223.91
1764769166.9080667,6178.365,2628.27,-30594.33,-8255.789999999999,-8455.32,-28811.025,3119.895,10231.965
1764769166.9080667,6180.165,2630.97,-30591.855,-8253.539999999999,-8452.08,-28808.145,3122.955,10235.025
1764769166.9080667,6171.974999999999,2623.815,-30598.74,-8260.38,-8458.605,-28815.03,3118.185,10229.535
1764769166.9080667,6167.61,2619.36,-30602.52,-8265.195,-8464.949999999999,-28821.33,3112.785,10224.36
1764769166.9080667,6166.08,2617.425,-30604.995,-8267.67,-8467.56,-28823.94,3110.58,10222.47
1764769166.9080667,6173.505,2624.895,-30597.075,-8259.029999999999,-8459.19,-28816.245,3116.97,10230.255
1764769166.9080667,6173.955,2625.525,-30595.32,-8257.59,-8458.154999999999,-28813.95,3117.645,10231.02
1764769166.9080667,6172.245,2623.095,-30597.795,-8259.119999999999,-8460.449999999999,-28815.435,3114.9,10228.995
1764769166.9080667,6165.315,2615.265,-30605.67,-8266.635,-8468.369999999999,-28823.175,3106.665,10221.21
1764769166.9507935,6159.42,2608.785,-30612.105,-8273.205,-8474.94,-28830.06,3101.13,10214.865
1764769166.9507935,6164.235,2615.445,-30605.94,-8267.22,-8469.585,-28824.57,3106.08,10221.255
1764769166.9507935,6157.844999999999,2609.73,-30611.295,-8272.215,-8475.705,-28830.825,3102.48,10215.9
1764769166.9507935,6153.705,2607.03,-30613.32,-8273.565,-8476.47,-28832.625,3099.96,10212.435
1764769166.9507935,6161.264999999999,2615.22,-30605.4,-8266.05,-8467.289999999999,-28823.67,3107.25,10220.985
1764769166.9507935,6155.01,2608.605,-30613.095,-8273.34,-8474.985,-28830.69,3100.86,10213.875
1764769166.9507935,6152.445,2606.355,-30615.615,-8275.095,-8477.685,-28832.67,3099.06,10210.545
1764769166.9507935,6159.014999999999,2613.69,-30607.875,-8267.49,-8470.305,-28825.515,3105.855,10217.385
1764769166.9507935,6172.605,2626.92,-30594.42,-8253.99,-8456.445,-28811.205,3117.96,10230.885
1764769166.9507935,6162.795,2615.805,-30604.77,-8264.43,-8467.47,-28821.555,3107.475,10219.995
1764769166.9507935,6155.955,2608.83,-30612.87,-8272.755,-8476.244999999999,-28830.015,3099.42,10212.705
1764769166.9507935,6156.719999999999,2609.73,-30612.24,-8273.115,-8476.289999999999,-28829.655,3100.77,10212.705
1764769166.9507935,6157.889999999999,2611.755,-30609.81,-8271.63,-8474.355,-28827.9,3102.885,10214.865
1764769166.9507935,6156.63,2612.115,-30609.045,-8270.369999999999,-8473.949999999999,-28827.855,3103.515,10214.55
1764769166.9507935,6159.06,2614.86,-30605.94,-8267.445,-8470.215,-28824.48,3106.935,10218.015
1764769166.9507935,6165.719999999999,2622.195,-30598.695,-8260.154999999999,-8463.015,-28816.875,3113.325,10225.575
1764769166.9507935,6161.67,2617.425,-30604.23,-8265.15,-8468.955,-28822.275,3109.095,10220.355
1764769166.9507935,6163.65,2619.09,-30603.24,-8263.574999999999,-8467.875,-28820.43,3110.22,10221.705
1764769166.9507935,6174.405,2629.305,-30592.845,-8253.18,-8456.22,-28808.91,3119.31,10231.74
1764769166.9507935,6164.505,2619.45,-30601.89,-8262.09,-8464.545,-28817.865,3109.635,10221.66
1764769166.9507935,6168.96,2624.49,-30597.525,-8258.58,-8461.17,-28814.265,3112.965,10227.105
1764769166.9507935,6168.42,2624.535,-30597.615,-8258.67,-8461.98,-28815.345,3112.515,10226.97
1764769166.9507935,6160.59,2616.975,-30604.86,-8265.645,-8467.695,-28822.185,3108.06,10220.895
1764769166.9507935,6164.37,2621.295,-30600.945,-8261.595,-8462.97,-28818.0,3112.47,10225.53
1764769166.9507935,6160.86,2617.83,-30604.545,-8265.869999999999,-8467.154999999999,-28822.68,3109.005,10220.805
1764769166.9507935,6163.38,2620.44,-30601.755,-8262.945,-8464.904999999999,-28820.565,3109.68,10223.73
1764769166.9973853,6159.735,2617.11,-30605.04,-8266.095,-8467.785,-28822.95,3107.52,10220.76
1764769166.9973853,6169.5,2626.65,-30595.23,-8255.88,-8458.02,-28812.6,3116.205,10230.3
1764769166.9973853,6176.429999999999,2632.41,-30589.785,-8249.22,-8451.63,-28806.03,3121.965,10236.465
1764769166.9973853,6168.735,2624.625,-30598.155,-8257.59,-8460.0,-28814.13,3114.18,10228.23
1764769166.9973853,6158.52,2614.095,-30608.955,-8268.48,-8471.295,-28825.38,3104.505,10217.07
1764769166.9973853,6161.715,2617.875,-30604.185,-8264.565,-8466.93,-28821.06,3107.97,10221.615
1764769166.9973853,6160.455,2617.83,-30604.815,-8264.115,-8467.154999999999,-28821.735,3107.205,10220.895
1764769166.9973853,6155.91,2613.195,-30609.27,-8268.84,-8471.88,-28826.595,3104.325,10216.935
1764769166.9973853,6158.115,2615.67,-30606.615,-8267.039999999999,-8469.9,-28825.2,3107.43,10220.31
1764769166.9973853,6161.31,2619.315,-30603.15,-8263.44,-8466.119999999999,-28821.465,3110.4,10223.325
1764769166.9973853,6168.195,2627.145,-30595.545,-8254.35,-8455.455,-28811.025,3118.275,10231.425
1764769166.9973853,6163.92,2622.42,-30600.54,-8260.154999999999,-8461.664999999999,-28816.38,3113.28,10226.385
1764769167.0465949,6168.42,2626.29,-30597.885,-8257.41,-8458.515,-28813.59,3115.305,10229.445
1764769167.0465949,6158.52,2615.58,-30607.965,-8266.994999999999,-8468.955,-28823.22,3105.45,10218.33
1764769167.0465949,6162.974999999999,2619.585,-30602.79,-8261.865,-8463.42,-28818.63,3110.31,10222.875
1764769167.0465949,6169.77,2626.335,-30595.77,-8255.16,-8456.715,-28812.51,3116.565,10230.48
1764769167.0465949,6166.755,2623.455,-30598.695,-8257.5,-8459.82,-28815.705,3114.405,10228.005
1764769167.0465949,6174.99,2633.445,-30589.695,-8248.23,-8450.19,-28806.345,3123.81,10237.68
1764769167.0465949,6173.82,2634.03,-30589.83,-8248.68,-8449.695,-28806.165,3124.935,10237.41
1764769167.0465949,6180.3,2641.365,-30582.945,-8242.289999999999,-8442.09,-28798.605,3131.37,10244.565
1764769167.0465949,6176.115,2635.875,-30587.715,-8247.33,-8447.94,-28803.555,3126.645,10239.57
1764769167.0465949,6171.885,2631.015,-30592.665,-8252.19,-8454.42,-28809.405,3122.235,10233.72
1764769167.0465949,6178.5,2637.855,-30586.005,-8244.765,-8447.22,-28802.205,3127.185,10240.29
1764769167.0465949,6174.27,2632.95,-30590.505,-8248.23,-8451.315,-28806.39,3121.47,10235.205
1764769167.0465949,6173.82,2631.735,-30591.63,-8250.119999999999,-8452.89,-28807.155,3121.83,10234.845
1764769167.0465949,6165.855,2622.915,-30600.27,-8258.67,-8461.485,-28816.02,3115.35,10226.655
1764769167.0465949,6158.205,2616.84,-30605.895,-8264.654999999999,-8466.93,-28822.095,3108.96,10219.5
1764769167.0478354,6159.42,2619.63,-30603.015,-8261.73,-8464.095,-28819.44,3111.03,10222.92
1764769167.0478354,6169.86,2631.96,-30591.27,-8250.164999999999,-8452.98,-28807.965,3121.56,10234.845
1764769167.0478354,6168.33,2629.8,-30592.98,-8252.19,-8454.869999999999,-28810.17,3120.255,10232.82
1764769167.0478354,6158.295,2618.19,-30603.78,-8263.574999999999,-8466.029999999999,-28820.745,3109.77,10220.76
1764769167.0478354,6163.83,2623.545,-30598.74,-8257.994999999999,-8460.045,-28814.355,3113.37,10225.08
1764769167.0478354,6170.175,2629.485,-30595.185,-8254.529999999999,-8457.57,-28811.115,3118.545,10231.425
1764769167.0478354,6165.45,2624.535,-30600.945,-8260.38,-8464.59,-28817.46,3112.83,10225.755
1764769167.0478354,6153.48,2612.835,-30611.655,-8270.414999999999,-8473.904999999999,-28826.73,3102.795,10213.38
