Timestamp,Channel1,Channel2,Channel3,Channel4,Channel5,Channel6,Channel7,Channel8
1764768852.5648766,5452.875,1995.885,-31343.49,-9131.49,-8293.365,-28322.415,2555.91,10003.275
1764768852.5648766,5464.349999999999,2008.485,-31330.17,-9117.72,-8277.795,-28308.105,2567.52,10015.38
1764768852.5648766,5457.69,2002.095,-31335.39,-9123.84,-8285.355,-28315.845,2561.535,10007.91
1764768852.5648766,5465.969999999999,2010.555,-31326.66,-9114.795,-8276.49,-28306.98,2569.635,10017.81
1764768852.5648766,5468.445,2012.13,-31325.445,-9112.545,-8274.33,-28304.46,2571.165,10019.52
1764768852.5648766,5468.085,2011.32,-31326.345,-9113.175,-8275.59,-28305.27,2569.545,10017.54
1764768852.5648766,5467.094999999999,2010.06,-31327.065,-9114.03,-8276.31,-28305.765,2568.105,10015.785
1764768852.5648766,5465.61,2008.08,-31329.54,-9115.65,-8278.244999999999,-28307.52,2565.99,10013.58
1764768852.5648766,5458.5,2000.835,-31336.56,-9122.58,-8285.49,-28315.665,2558.925,10006.245
1764768852.566123,5459.13,2001.87,-31335.3,-9120.555,-8283.645,-28314.675,2560.05,10006.695
1764768852.566123,5456.88,1999.62,-31338.045,-9122.175,-8285.22,-28316.205,2560.14,10005.75
1764768852.566123,5471.01,2015.145,-31322.745,-9107.37,-8270.73,-28302.255,2573.685,10021.545
1764768852.566123,5469.12,2013.255,-31323.78,-9108.765,-8272.08,-28303.47,2572.335,10019.97
1764768852.566123,5459.085,2002.455,-31335.615,-9119.16,-8283.105,-28313.865,2562.705,10008.945
1764768852.566123,5465.205,2008.035,-31330.35,-9113.04,-8277.615,-28308.195,2567.25,10014.165
1764768852.566123,5466.51,2008.125,-31330.125,-9112.995,-8277.84,-28307.115,2568.645,10014.21
1764768852.566123,5467.005,2008.395,-31329.54,-9112.32,-8277.66,-28305.855,2568.96,10014.66
1764768852.566123,5474.565,2015.01,-31322.43,-9105.255,-8270.55,-28298.655,2574.27,10021.095
1764768852.566123,5473.62,2014.605,-31322.16,-9103.68,-8270.1,-28298.16,2573.955,10020.195
1764768852.566123,5463.764999999999,2005.83,-31331.7,-9114.12,-8280.99,-28307.745,2565.945,10011.555
1764768852.566123,5464.98,2007.45,-31330.305,-9113.445,-8279.145,-28306.08,2568.06,10014.255
1764768852.566123,5470.65,2013.3,-31323.285,-9104.85,-8270.414999999999,-28298.61,2572.2,10020.285
1764768852.566123,5456.07,1998.63,-31338.54,-9119.295,-8284.77,-28313.775,2559.105,10006.2
1764768852.566123,5452.469999999999,1994.805,-31342.905,-9124.065,-8289.9,-28318.455,2555.055,10002.645
1764768852.566123,5459.94,2002.86,-31333.905,-9116.055,-8281.935,-28309.815,2561.265,10009.485
1764768852.6118653,5453.865,1995.66,-31340.745,-9122.805,-8288.865,-28315.62,2555.325,10002.33
1764768852.6118653,5453.145,1993.995,-31342.32,-9124.29,-8291.16,-28316.88,2553.885,10000.485
1764768852.6118653,5460.84,2001.51,-31333.68,-9115.83,-8282.52,-28308.555,2560.41,10007.91
1764768852.6118653,5458.32,1998.81,-31336.155,-9118.125,-8284.86,-28310.67,2558.745,10005.705
1764768852.6118653,5460.705,2001.78,-31333.365,-9114.75,-8282.789999999999,-28307.745,2561.31,10009.305
1764768852.6118653,5457.69,2000.295,-31335.255,-9116.1,-8284.68,-28310.58,2559.645,10006.695
1764768852.6118653,5467.23,2009.97,-31325.265,-9107.37,-8275.545,-28301.67,2569.455,10017.36
1764768852.6118653,5458.5,2000.475,-31335.39,-9118.935,-8286.84,-28312.38,2562.3,10010.16
1764768852.6118653,5465.474999999999,2008.035,-31326.435,-9109.17,-8275.365,-28301.31,2569.005,10016.55
1764768852.6118653,5466.87,2008.53,-31325.94,-9107.82,-8274.105,-28300.275,2568.33,10015.155
1764768852.6118653,5458.905,1999.26,-31335.57,-9118.215,-8284.545,-28310.31,2559.33,10005.975
1764768852.612882,5448.195,1988.685,-31346.595,-9129.195,-8295.705,-28321.245,2549.115,9994.815
1764768852.612882,5446.98,1987.02,-31348.665,-9130.77,-8297.73,-28323.09,2547.405,9993.015
1764768852.612882,5448.105,1987.605,-31347.63,-9129.33,-8296.244999999999,-28321.56,2548.125,9993.645
1764768852.612882,5450.219999999999,1989.945,-31345.065,-9126.72,-8293.365,-28318.86,2550.735,9996.795
1764768852.612882,5454.99,1996.11,-31339.305,-9120.87,-8288.505,-28314.18,2556.81,10003.41
1764768852.612882,5467.86,2010.465,-31325.22,-9107.325,-8273.789999999999,-28300.815,2569.725,10018.08
1764768852.612882,5462.415,2004.21,-31330.395,-9112.365,-8279.145,-28306.44,2564.19,10012.32
1764768852.612882,5457.375,1997.685,-31336.74,-9119.025,-8285.805,-28312.155,2558.43,10006.335
1764768852.612882,5459.175,1999.44,-31336.335,-9118.755,-8286.164999999999,-28312.11,2558.88,10007.145
1764768852.612882,5455.26,1994.355,-31341.24,-9123.615,-8291.43,-28316.79,2555.055,10001.745
1764768852.612882,5455.349999999999,1993.41,-31341.825,-9124.02,-8291.654999999999,-28316.655,2554.11,10000.71
1764768852.662491,5462.28,2000.52,-31334.58,-9115.92,-8283.6,-28309.14,2560.815,10007.46
1764768852.662491,5473.08,2012.805,-31321.755,-9103.14,-8270.775,-28296.0,2572.155,10019.16
1764768852.662491,5475.69,2016.09,-31320.27,-9101.655,-8269.38,-28294.92,2575.305,10022.985
1764768852.662491,5475.915,2017.62,-31318.38,-9100.485,-8266.994999999999,-28293.795,2575.305,10023.48
1764768852.662491,5476.77,2018.07,-31318.11,-9099.63,-8265.42,-28292.58,2577.42,10025.055
1764768852.662491,5469.255,2010.87,-31325.85,-9107.325,-8273.789999999999,-28300.32,2570.715,10018.17
1764768852.662491,5458.77,1999.845,-31336.38,-9117.54,-8285.445,-28311.48,2560.455,10006.785
1764768852.662491,5462.775,2003.985,-31331.295,-9111.825,-8279.505,-28305.945,2563.65,10010.79
1764768852.662491,5458.815,1998.36,-31338.315,-9119.97,-8287.425,-28313.145,2559.06,10005.615
1764768852.662491,5462.46,2001.015,-31335.345,-9115.74,-8284.545,-28309.095,2560.455,10008.9
1764768852.662491,5460.75,1997.73,-31337.64,-9118.17,-8286.93,-28310.94,2559.375,10006.785
1764768852.662491,5466.825,2005.335,-31328.865,-9109.575,-8278.065,-28302.615,2564.505,10012.68
1764768852.662491,5466.33,2005.83,-31328.595,-9109.8,-8278.335,-28302.93,2567.205,10014.255
1764768852.662491,5474.655,2014.965,-31320.045,-9101.07,-8269.92,-28294.56,2575.845,10023.48
1764768852.662491,5475.87,2016.495,-31318.74,-9099.045,-8268.93,-28293.345,2576.925,10025.01
1764768852.662491,5470.965,2011.635,-31323.42,-9102.555,-8272.98,-28296.63,2571.93,10020.285
1764768852.662491,5468.535,2008.71,-31326.615,-9105.435,-8276.039999999999,-28299.33,2569.725,10016.955
1764768852.662491,5458.905,1997.37,-31337.415,-9115.56,-8286.705,-28309.68,2559.87,10005.255
1764768852.662491,5454.0,1990.215,-31343.76,-9122.22,-8292.465,-28315.89,2552.22,9997.65
1764768852.6635518,5455.485,1990.8,-31342.77,-9121.365,-8292.24,-28315.08,2551.905,9998.505
1764768852.6635518,5464.17,1999.53,-31334.04,-9112.68,-8284.23,-28307.565,2559.24,10007.865
1764768852.6635518,5457.96,1992.6,-31342.32,-9120.78,-8292.779999999999,-28315.845,2553.705,10002.195
1764768852.7066562,5455.26,1989.945,-31343.445,-9121.14,-8291.789999999999,-28314.945,2553.57,10000.71
1764768852.7066562,5462.685,1999.485,-31332.87,-9110.97,-8282.97,-28308.33,2561.355,10008.36
1764768852.7066562,5474.925,2012.76,-31319.82,-9096.255,-8267.445,-28292.76,2573.55,10020.96
1764768852.7066562,5472.36,2009.385,-31323.78,-9100.575,-8271.18,-28295.28,2571.255,10018.8
1764768852.7066562,5472.135,2008.305,-31324.275,-9100.98,-8272.17,-28295.82,2569.545,10017.81
1764768852.7066562,5472.315,2008.53,-31324.455,-9100.71,-8272.305,-28295.055,2569.32,10017.36
1764768852.7066562,5469.84,2005.335,-31328.19,-9104.355,-8276.715,-28298.79,2565.09,10013.49
1764768852.7066562,5467.005,2001.33,-31331.115,-9107.955,-8280.72,-28301.535,2561.265,10009.62
1764768852.7066562,5463.945,1998.99,-31333.32,-9109.665,-8282.699999999999,-28304.73,2557.98,10006.11
1764768852.7066562,5465.07,1999.575,-31332.915,-9109.395,-8282.52,-28305.27,2559.645,10007.64
1764768852.7066562,5468.535,2002.815,-31329.405,-9105.705,-8278.965,-28301.94,2563.38,10011.42
1764768852.7066562,5471.19,2005.695,-31325.715,-9101.79,-8275.23,-28298.52,2566.845,10014.57
1764768852.7066562,5473.53,2008.26,-31322.97,-9099.855,-8273.025,-28295.955,2569.41,10017.63
1764768852.7066562,5471.865,2006.595,-31323.375,-9100.98,-8274.51,-28297.26,2567.88,10016.46
1764768852.7066562,5473.125,2008.71,-31322.205,-9098.955,-8272.664999999999,-28295.775,2569.59,10018.305
1764768852.7066562,5469.12,2003.49,-31327.92,-9104.085,-8278.154999999999,-28301.04,2564.01,10012.41
1764768852.7066562,5455.62,1988.28,-31342.95,-9119.115,-8293.77,-28315.98,2549.61,9997.2
1764768852.7066562,5460.885,1993.86,-31336.2,-9113.04,-8289.0,-28310.76,2554.335,10002.51
1764768852.7066562,5465.385,1998.405,-31331.565,-9107.685,-8283.914999999999,-28305.945,2558.16,10006.785
1764768852.7066562,5468.085,2001.06,-31329.315,-9106.11,-8280.63,-28302.84,2561.49,10009.665
1764768852.7066562,5460.21,1993.725,-31336.65,-9112.905,-8287.515,-28309.41,2555.955,10002.735
1764768852.7066562,5459.13,1993.77,-31336.965,-9113.04,-8288.369999999999,-28310.04,2556.27,10003.185
1764768852.707911,5470.875,2006.055,-31323.69,-9099.9,-8275.68,-28298.295,2568.555,10015.785
1764768852.707911,5462.235,1997.055,-31331.88,-9107.325,-8283.195,-28306.26,2561.67,10007.595
1764768852.707911,5460.165,1994.67,-31334.355,-9110.07,-8285.94,-28309.14,2558.745,10004.625
1764768852.707911,5460.705,1994.085,-31334.805,-9110.7,-8286.84,-28309.365,2557.485,10003.995
1764768852.753793,5458.41,1990.665,-31337.145,-9112.41,-8288.64,-28311.705,2553.66,9999.765
1764768852.753793,5458.139999999999,1989.045,-31340.295,-9115.02,-8290.619999999999,-28313.055,2552.715,9998.82
1764768852.753793,5460.389999999999,1991.34,-31338.27,-9112.14,-8288.505,-28310.49,2554.02,10000.395
1764768852.753793,5464.755,1996.155,-31333.005,-9107.325,-8283.33,-28306.485,2557.035,10005.21
1764768852.753793,5456.925,1988.1,-31341.645,-9116.235,-8291.34,-28313.955,2550.78,9997.92
1764768852.753793,5464.935,1997.73,-31331.79,-9107.1,-8281.98,-28304.595,2558.61,10006.92
1764768852.753793,5473.889999999999,2007.9,-31322.88,-9098.46,-8273.744999999999,-28296.405,2569.185,10017.405
1764768852.753793,5467.545,2000.745,-31328.775,-9103.95,-8279.145,-28302.12,2562.48,10010.835
1764768852.753793,5451.48,1983.33,-31345.65,-9120.33,-8295.66,-28318.095,2547.045,9993.285
1764768852.753793,5447.88,1978.38,-31350.735,-9125.19,-8302.005,-28323.855,2542.995,9989.01
1764768852.753793,5453.145,1982.7,-31346.37,-9121.095,-8298.494999999999,-28319.31,2547.45,9993.87
1764768852.753793,5463.135,1993.32,-31333.905,-9106.875,-8282.07,-28302.93,2557.305,10003.86
1764768852.753793,5465.25,1996.515,-31330.845,-9102.915,-8279.279999999999,-28300.635,2557.845,10005.435
1764768852.753793,5462.82,1992.285,-31335.48,-9108.27,-8285.31,-28305.63,2555.145,10002.51
1764768852.753793,5454.0,1984.185,-31343.085,-9116.235,-8292.824999999999,-28313.235,2549.61,9995.535
1764768852.753793,5461.965,1995.12,-31333.005,-9106.335,-8283.645,-28304.415,2557.89,10005.435
1764768852.753793,5463.135,1996.38,-31332.015,-9104.535,-8281.845,-28302.93,2559.87,10007.19
1764768852.753793,5453.19,1985.895,-31342.905,-9115.2,-8293.185,-28314.405,2551.095,9996.705
1764768852.753793,5458.86,1991.745,-31336.74,-9108.72,-8287.515,-28308.465,2555.82,10002.42
1764768852.753793,5453.46,1985.22,-31342.77,-9114.255,-8294.085,-28314.405,2550.195,9996.3
1764768852.753793,5457.24,1988.37,-31338.99,-9111.24,-8291.025,-28310.625,2552.13,9999.315
1764768852.753793,5458.905,1989.675,-31336.965,-9109.35,-8288.955,-28308.015,2553.165,10000.485
1764768852.753793,5456.115,1987.515,-31340.295,-9112.68,-8291.43,-28310.445,2551.095,9997.695
1764768852.753793,5457.42,1988.865,-31338.99,-9111.915,-8290.035,-28309.005,2552.895,9999.36
1764768852.8009045,5457.554999999999,1988.685,-31338.675,-9111.6,-8290.215,-28309.32,2552.805,9999.81
1764768852.8009045,5469.795,2002.59,-31324.59,-9097.47,-8276.13,-28295.28,2565.225,10014.255
1764768852.8009045,5474.835,2008.485,-31319.82,-9092.655,-8271.045,-28290.915,2571.255,10020.555
1764768852.8009045,5461.11,1994.085,-31333.635,-9105.93,-8284.275,-28304.775,2558.79,10006.155
1764768852.8009045,5455.08,1987.11,-31339.44,-9112.455,-8290.44,-28311.12,2552.985,10000.08
1764768852.8009045,5460.885,1993.41,-31333.905,-9107.055,-8285.805,-28305.855,2557.845,10006.155
1764768852.8009045,5472.585,2004.93,-31321.845,-9094.635,-8273.744999999999,-28293.345,2568.195,10017.135
1764768852.8009045,5466.554999999999,1996.11,-31329.9,-9102.825,-8281.529999999999,-28301.445,2561.31,10009.26
1764768852.8009045,5462.55,1991.79,-31334.4,-9106.65,-8285.22,-28305.27,2557.125,10005.435
1764768852.8009045,5468.94,1999.035,-31327.74,-9099.405,-8278.47,-28298.205,2562.705,10012.455
1764768852.8009045,5460.885,1991.16,-31335.21,-9107.82,-8287.244999999999,-28307.745,2555.505,10003.59
1764768852.8009045,5462.955,1994.355,-31332.465,-9105.03,-8284.725,-28305.99,2558.07,10006.065
1764768852.8009045,5471.685,2004.21,-31323.195,-9095.94,-8275.095,-28296.72,2566.98,10016.82
1764768852.8009045,5459.985,1991.88,-31334.58,-9107.415,-8286.705,-28308.42,2556.81,10005.795
1764768852.8009045,5462.82,1993.59,-31332.645,-9106.245,-8284.68,-28307.16,2558.385,10007.91
1764768852.8019135,5459.49,1989.54,-31337.73,-9112.14,-8292.42,-28313.55,2555.145,10004.58
1764768852.8019135,5460.57,1990.665,-31335.48,-9108.54,-8287.47,-28309.275,2553.75,10003.995
1764768852.8019135,5456.969999999999,1987.605,-31337.865,-9110.52,-8289.675,-28311.705,2549.925,9999.18
1764768852.8019135,5451.929999999999,1981.53,-31344.615,-9117.765,-8296.965,-28318.545,2545.605,9994.095
1764768852.8019135,5460.03,1990.035,-31335.345,-9108.18,-8287.335,-28307.97,2553.075,10002.42
1764768852.8019135,5457.105,1987.02,-31337.865,-9111.15,-8289.99,-28310.58,2551.095,10000.305
1764768852.8019135,5462.639999999999,1992.33,-31333.77,-9106.92,-8285.31,-28305.225,2557.35,10008.18
1764768852.8484533,5469.66,2001.285,-31325.175,-9098.19,-8276.805,-28297.035,2564.775,10015.785
1764768852.8484533,5468.04,2000.655,-31326.12,-9099.99,-8277.93,-28299.24,2563.83,10014.3
1764768852.8484533,5460.57,1992.69,-31333.545,-9107.37,-8284.77,-28307.34,2556.99,10006.38
1764768852.8484533,5467.41,1997.865,-31329.0,-9103.32,-8281.17,-28302.165,2561.895,10012.32
1764768852.8484533,5466.06,1994.67,-31331.79,-9106.245,-8284.365,-28304.145,2559.42,10009.62
1764768852.8484533,5463.855,1992.735,-31333.365,-9107.28,-8285.805,-28305.99,2556.54,10006.335
1764768852.8484533,5460.389999999999,1989.36,-31336.965,-9111.195,-8290.125,-28310.94,2553.345,10003.275
1764768852.8484533,5451.929999999999,1980.855,-31345.38,-9119.52,-8299.574999999999,-28320.39,2545.02,9995.49
1764768852.8484533,5455.98,1985.58,-31340.52,-9113.535,-8292.42,-28313.82,2551.05,10000.08
1764768852.8484533,5466.375,1996.965,-31328.865,-9102.015,-8279.145,-28300.95,2561.76,10011.555
1764768852.8484533,5465.025,1996.02,-31329.135,-9102.69,-8280.404999999999,-28302.255,2560.68,10010.745
1764768852.8484533,5447.16,1977.165,-31347.405,-9121.14,-8300.295,-28321.11,2543.085,9992.025
1764768852.8484533,5443.875,1972.935,-31351.725,-9125.055,-8304.84,-28325.205,2538.495,9987.48
1764768852.8484533,5449.995,1979.505,-31345.965,-9118.305,-8297.19,-28317.825,2544.93,9994.005
1764768852.8484533,5459.264999999999,1987.965,-31336.785,-9109.17,-8288.369999999999,-28308.555,2552.94,10003.05
1764768852.8484533,5453.235,1980.18,-31344.75,-9117.27,-8297.279999999999,-28316.7,2544.93,9994.545
1764768852.8484533,5456.52,1983.645,-31341.15,-9113.4,-8293.59,-28312.965,2547.72,9997.92
1764768852.8484533,5453.505,1980.36,-31342.68,-9114.795,-8294.58,-28313.82,2547.045,9995.04
1764768852.8484533,5466.78,1994.13,-31329.135,-9101.205,-8280.63,-28299.645,2559.78,10009.44
1764768852.8484533,5472.405,2000.61,-31323.015,-9095.31,-8274.645,-28294.11,2566.71,10016.46
1764768852.8484533,5472.27,2001.555,-31322.79,-9094.365,-8273.43,-28293.975,2566.98,10017.18
1764768852.8484533,5471.594999999999,2001.015,-31323.15,-9094.095,-8273.835,-28294.425,2566.395,10017.36
1764768852.891157,5468.94,1997.37,-31325.58,-9096.3,-8276.805,-28297.035,2563.155,10014.48
1764768852.891157,5464.035,1992.105,-31331.565,-9102.465,-8283.69,-28303.335,2557.62,10008.81
1764768852.891157,5462.37,1989.225,-31334.445,-9104.805,-8287.47,-28306.395,2554.38,10005.57
1764768852.891157,5461.514999999999,1987.92,-31334.445,-9104.13,-8285.4,-28304.685,2553.525,10004.76
1764768852.891157,5458.32,1984.77,-31337.55,-9106.38,-8287.965,-28307.97,2550.195,10000.62
1764768852.891157,5453.594999999999,1980.405,-31342.455,-9111.015,-8293.77,-28313.73,2545.56,9996.66
1764768852.891157,5453.639999999999,1980.045,-31342.59,-9110.52,-8293.994999999999,-28313.82,2546.19,9997.335
1764768852.891157,5455.755,1982.205,-31340.295,-9108.855,-8291.61,-28311.75,2548.8,9999.72
1764768852.8921697,5457.33,1984.185,-31337.865,-9106.83,-8289.18,-28310.085,2551.185,10001.43
1764768852.8921697,5452.514999999999,1978.83,-31343.535,-9112.275,-8294.67,-28315.755,2545.38,9996.66
1764768852.8921697,5454.135,1980.72,-31342.86,-9111.69,-8296.065,-28315.845,2546.055,9997.92
1764768852.8921697,5452.605,1979.685,-31343.13,-9110.97,-8294.94,-28314.405,2544.75,9995.535
1764768852.8921697,5448.51,1974.645,-31346.685,-9114.12,-8297.91,-28317.555,2539.935,9989.775
1764768852.8921697,5438.835,1963.08,-31358.295,-9126.18,-8310.285,-28329.705,2529.81,9978.3
1764768852.8921697,5440.905,1964.925,-31357.125,-9124.515,-8309.16,-28327.68,2531.25,9979.92
1764768852.8921697,5452.065,1977.39,-31345.065,-9111.42,-8296.244999999999,-28314.405,2541.96,9992.385
1764768852.8921697,5453.865,1979.73,-31342.68,-9109.62,-8293.904999999999,-28312.56,2544.03,9994.635
1764768852.8921697,5450.67,1977.345,-31345.965,-9113.895,-8298.404999999999,-28317.375,2543.175,9992.52
1764768852.8921697,5460.705,1988.505,-31333.23,-9100.395,-8284.994999999999,-28305.09,2553.12,10003.32
1764768852.8921697,5459.535,1987.47,-31333.05,-9100.44,-8284.455,-28305.09,2552.805,10002.285
1764768852.8921697,5454.045,1981.035,-31339.665,-9106.605,-8291.925,-28311.39,2547.225,9996.975
1764768852.8921697,5446.889999999999,1973.97,-31346.415,-9112.86,-8299.35,-28317.96,2542.095,9989.595
1764768852.9382854,5451.435,1978.92,-31341.96,-9108.495,-8294.625,-28313.37,2546.01,9993.555
1764768852.9382854,5456.52,1982.925,-31338.63,-9104.895,-8292.24,-28309.455,2549.61,9997.785
1764768852.9382854,5457.735,1983.42,-31337.82,-9103.905,-8290.44,-28307.79,2550.735,9998.91
1764768852.9382854,5459.58,1986.345,-31333.59,-9099.27,-8285.895,-28304.055,2553.255,10000.89
1764768852.9382854,5474.34,2002.365,-31318.65,-9085.185,-8272.619999999999,-28290.195,2567.655,10017.09
1764768852.9382854,5478.615,2006.415,-31314.78,-9081.315,-8268.074999999999,-28285.965,2572.155,10021.77
1764768852.9382854,5479.155,2007.945,-31313.97,-9080.64,-8266.815,-28285.65,2573.46,10022.895
1764768852.9382854,5476.724999999999,2005.38,-31316.4,-9082.71,-8269.065,-28287.855,2572.47,10020.51
1764768852.9382854,5471.775,1999.08,-31322.655,-9088.515,-8275.365,-28293.84,2567.25,10014.885
1764768852.9382854,5475.105,2002.365,-31319.01,-9085.23,-8272.44,-28290.915,2568.015,10017.405
1764768852.9382854,5468.804999999999,1993.815,-31327.695,-9094.005,-8280.9,-28299.645,2560.41,10008.585
1764768852.9382854,5467.275,1991.385,-31329.27,-9096.03,-8283.33,-28302.57,2558.925,10006.335
1764768852.9382854,5467.86,1991.79,-31328.01,-9094.815,-8281.89,-28300.77,2559.06,10006.74
1764768852.9382854,5468.085,1991.97,-31328.46,-9094.68,-8281.485,-28300.005,2559.285,10006.785
1764768852.9382854,5473.304999999999,1998.045,-31323.33,-9088.74,-8276.22,-28294.875,2564.415,10013.58
1764768852.9382854,5467.32,1992.42,-31328.775,-9094.59,-8281.215,-28300.5,2559.96,10008.045
1764768852.9382854,5471.685,1996.335,-31324.005,-9090.045,-8276.76,-28296.81,2564.1,10012.68
1764768852.9382854,5464.935,1988.595,-31331.97,-9098.055,-8285.355,-28304.82,2557.665,10005.12
1764768852.9382854,5471.865,1995.48,-31325.265,-9091.665,-8279.73,-28299.285,2563.245,10011.51
1764768852.9382854,5473.935,1996.92,-31323.555,-9090.045,-8278.605,-28298.07,2564.235,10013.13
1764768852.9382854,5472.945,1995.12,-31324.86,-9091.44,-8280.9,-28300.545,2561.76,10010.79
1764768852.9382854,5476.05,1998.36,-31321.53,-9087.93,-8276.985,-28295.73,2564.955,10013.805
1764768852.9382854,5476.77,1998.945,-31320.54,-9087.075,-8275.68,-28293.075,2566.665,10014.75
1764768852.9382854,5471.955,1993.32,-31327.02,-9092.79,-8281.755,-28298.925,2562.75,10010.115
1764768852.9382854,5477.895,1999.71,-31322.52,-9088.695,-8278.335,-28295.37,2568.15,10017.0
1764768852.9382854,5474.52,1997.775,-31322.79,-9088.605,-8276.67,-28295.145,2567.115,10013.985
1764768852.9863458,5478.57,2002.77,-31316.76,-9082.35,-8270.369999999999,-28290.195,2571.255,10018.485
1764768852.9863458,5470.2,1993.68,-31326.93,-9092.88,-8280.494999999999,-28299.24,2563.695,10010.835
1764768852.9863458,5468.804999999999,1991.835,-31329.045,-9096.03,-8283.06,-28301.805,2561.895,10009.575
1764768852.9863458,5466.645,1988.595,-31332.33,-9098.55,-8284.949999999999,-28303.785,2560.005,10006.875
1764768852.9863458,5463.36,1984.815,-31335.3,-9100.98,-8288.505,-28306.755,2553.255,10000.62
1764768852.9863458,5468.445,1989.9,-31329.45,-9095.355,-8282.07,-28301.04,2557.035,10004.58
1764768852.9863458,5484.285,2006.73,-31313.43,-9079.695,-8266.904999999999,-28285.11,2571.795,10021.41
1764768852.9863458,5490.135,2012.13,-31308.57,-9075.915,-8263.035,-28280.295,2577.96,10028.655
1764768852.9863458,5485.77,2008.08,-31312.17,-9078.975,-8266.14,-28284.48,2574.495,10024.695
1764768852.9863458,5480.01,2002.185,-31317.48,-9085.095,-8272.035,-28291.365,2570.31,10018.98
1764768852.9863458,5488.425,2011.815,-31308.255,-9075.42,-8261.505,-28281.78,2578.32,10027.845
1764768852.9863458,5483.655,2006.685,-31313.475,-9080.055,-8265.69,-28285.29,2573.685,10023.12
1764768852.9863458,5474.745,1997.325,-31323.6,-9090.18,-8276.445,-28295.685,2564.595,10014.255
1764768852.9863458,5476.094999999999,1998.18,-31322.115,-9089.28,-8275.68,-28294.965,2564.19,10014.12
1764768852.9863458,5466.78,1987.11,-31332.15,-9099.09,-8286.75,-28307.07,2554.605,10003.995
1764768852.9863458,5470.965,1990.485,-31329.405,-9096.705,-8285.175,-28305.225,2556.765,10007.865
1764768852.9863458,5462.775,1982.16,-31337.28,-9104.895,-8292.779999999999,-28311.66,2548.755,9998.955
1764768852.9863458,5457.825,1977.255,-31341.465,-9109.755,-8296.335,-28315.53,2544.21,9993.285
1764768852.9863458,5460.03,1981.17,-31338.54,-9106.695,-8293.32,-28312.965,2547.945,9996.48
1764768852.9863458,5465.88,1988.46,-31332.15,-9099.99,-8287.289999999999,-28306.26,2555.28,10003.95
1764768853.0318348,5475.15,1998.18,-31323.33,-9090.45,-8277.975,-28296.675,2563.92,10014.345
1764768853.0318348,5471.28,1994.085,-31327.02,-9094.14,-8281.35,-28300.59,2560.725,10011.105
1764768853.0318348,5461.695,1983.375,-31337.865,-9105.165,-8291.43,-28310.715,2552.355,10000.845
1764768853.0318348,5458.23,1978.605,-31342.725,-9109.665,-8295.75,-28314.72,2547.405,9995.49
1764768853.0318348,5459.445,1979.055,-31341.645,-9108.675,-8295.39,-28314.045,2547.54,9996.12
1764768853.0318348,5467.139999999999,1986.435,-31333.59,-9100.62,-8288.055,-28305.72,2553.66,10003.77
1764768853.0318348,5471.235,1990.26,-31330.53,-9096.57,-8284.455,-28301.58,2556.585,10007.775
1764768853.0328755,5474.295,1993.86,-31327.38,-9092.475,-8279.685,-28297.71,2560.59,10011.15
1764768853.0328755,5464.844999999999,1984.32,-31336.47,-9101.88,-8288.865,-28306.89,2552.895,10002.96
1764768853.0328755,5467.275,1987.38,-31333.185,-9098.415,-8285.85,-28304.1,2555.145,10006.83
1764768853.0328755,5472.405,1993.23,-31326.93,-9092.385,-8280.0,-28299.51,2561.22,10012.815
1764768853.0328755,5470.02,1990.575,-31330.08,-9096.255,-8282.97,-28303.02,2558.745,10010.52
1764768853.0328755,5464.08,1984.095,-31337.46,-9102.735,-8290.485,-28310.13,2553.435,10004.085
1764768853.0328755,5472.945,1992.78,-31328.235,-9093.87,-8281.98,-28301.355,2561.67,10012.77
1764768853.0328755,5471.865,1989.63,-31330.44,-9095.85,-8284.005,-28303.245,2559.555,10009.395
1764768853.0328755,5476.32,1993.41,-31328.055,-9092.655,-8280.494999999999,-28299.735,2562.21,10012.5
1764768853.0328755,5468.355,1984.86,-31336.695,-9100.62,-8289.9,-28308.555,2554.155,10003.95
1764768853.0328755,5474.655,1991.835,-31328.055,-9092.205,-8281.44,-28299.555,2559.69,10011.42
1764768853.0328755,5481.36,1999.845,-31322.925,-9087.3,-8276.94,-28294.2,2567.43,10019.43
1764768853.0328755,5483.474999999999,2003.04,-31319.145,-9083.565,-8271.09,-28289.79,2571.12,10022.805
1764768853.0328755,5480.28,1999.125,-31321.125,-9084.465,-8272.215,-28291.545,2569.23,10019.61
1764768853.0328755,5469.344999999999,1987.65,-31332.06,-9096.57,-8284.455,-28303.92,2557.26,10007.055
1764768853.0328755,5473.035,1991.385,-31328.82,-9093.87,-8281.664999999999,-28300.365,2561.265,10011.735
1764768853.0328755,5469.435,1988.505,-31331.34,-9096.255,-8284.994999999999,-28304.055,2559.195,10008.045
1764768853.0789468,5470.245,1987.785,-31332.285,-9095.895,-8283.914999999999,-28301.805,2559.105,10007.685
1764768853.0789468,5471.685,1988.37,-31332.51,-9096.525,-8284.59,-28301.22,2560.185,10009.575
1764768853.0789468,5468.175,1985.22,-31335.93,-9099.63,-8288.324999999999,-28304.55,2555.325,10005.795
1764768853.0789468,5469.075,1985.22,-31335.165,-9099.18,-8288.279999999999,-28303.74,2556.09,10006.695
1764768853.0789468,5471.91,1989.27,-31331.835,-9095.67,-8285.265,-28300.545,2560.005,10009.845
1764768853.0789468,5478.795,1997.685,-31323.51,-9087.75,-8277.029999999999,-28292.715,2567.79,10018.215
1764768853.0789468,5485.635,2004.66,-31317.12,-9080.91,-8269.605,-28285.65,2574.63,10026.63
1764768853.0789468,5475.42,1993.23,-31328.325,-9091.89,-8280.99,-28297.08,2564.505,10015.605
1764768853.0789468,5477.895,1995.21,-31325.58,-9089.73,-8278.695,-28295.595,2564.82,10017.135
1764768853.0789468,5473.08,1988.73,-31332.51,-9095.445,-8284.635,-28301.805,2559.6,10010.655
1764768853.0789468,5470.785,1985.49,-31336.245,-9098.685,-8287.244999999999,-28304.055,2557.665,10007.685
1764768853.0799582,5471.685,1986.21,-31335.3,-9098.28,-8286.93,-28303.02,2558.655,10008.045
1764768853.0799582,5474.52,1988.91,-31332.15,-9094.59,-8283.195,-28299.195,2560.95,10010.52
1764768853.0799582,5476.77,1991.07,-31329.54,-9091.98,-8280.18,-28296.855,2562.48,10013.13
1764768853.0799582,5479.469999999999,1994.58,-31326.075,-9088.74,-8277.75,-28295.28,2563.875,10016.73
1764768853.0799582,5478.389999999999,1994.31,-31325.265,-9089.505,-8278.38,-28296.99,2563.38,10016.28
1764768853.0799582,5471.28,1987.29,-31331.97,-9096.39,-8285.805,-28304.955,2557.035,10009.98
1764768853.0799582,5464.485,1979.91,-31339.845,-9104.04,-8294.13,-28313.505,2549.43,10002.735
1764768853.0799582,5461.245,1976.13,-31342.815,-9107.145,-8297.73,-28317.465,2546.055,9998.955
1764768853.0799582,5452.92,1967.13,-31351.545,-9115.92,-8306.73,-28325.385,2538.0,9989.37
1764768853.0799582,5450.985,1964.52,-31354.425,-9118.62,-8309.699999999999,-28326.78,2535.435,9986.76
1764768853.0799582,5457.465,1971.18,-31348.53,-9112.005,-8302.635,-28319.895,2539.935,9992.97
1764768853.0799582,5459.04,1972.485,-31348.17,-9111.645,-8302.455,-28318.815,2540.88,9993.69
1764768853.0799582,5459.58,1973.835,-31346.46,-9110.16,-8300.654999999999,-28317.645,2541.735,9994.005
1764768853.1270812,5460.84,1975.455,-31344.255,-9108.855,-8299.619999999999,-28316.88,2543.22,9995.76
1764768853.1270812,5458.23,1972.485,-31347.63,-9112.815,-8304.345,-28320.885,2542.32,9993.42
1764768853.1270812,5463.81,1979.145,-31341.42,-9106.155,-8295.615,-28313.01,2548.62,10000.305
1764768853.1270812,5458.86,1974.06,-31345.47,-9108.54,-8296.74,-28315.485,2544.21,9995.355
1764768853.1270812,5453.28,1967.4,-31352.265,-9115.875,-8304.029999999999,-28324.305,2538.045,9988.65
1764768853.1270812,5454.495,1968.12,-31350.915,-9114.885,-8303.22,-28323.045,2539.08,9990.045
1764768853.1270812,5463.585,1976.4,-31343.715,-9108.54,-8298.225,-28316.7,2545.965,9998.505
1764768853.1270812,5458.86,1971.45,-31349.34,-9112.95,-8302.815,-28320.705,2541.78,9991.8
1764768853.1270812,5462.325,1975.455,-31343.895,-9107.46,-8296.605,-28313.73,2546.46,9995.85
1764768853.1270812,5475.375,1989.36,-31330.17,-9094.32,-8284.095,-28302.885,2559.285,10010.25
1764768853.1270812,5481.179999999999,1995.12,-31323.915,-9088.74,-8279.369999999999,-28297.755,2565.45,10016.775
1764768853.1270812,5481.63,1996.47,-31322.25,-9086.4,-8276.715,-28295.505,2566.17,10017.315
1764768853.1270812,5487.435,2003.13,-31315.41,-9078.705,-8268.345,-28287.495,2573.775,10023.885
1764768853.1270812,5478.974999999999,1994.085,-31325.175,-9088.605,-8278.11,-28296.18,2567.34,10016.37
1764768853.1270812,5478.255,1993.455,-31325.67,-9088.785,-8278.02,-28296.09,2565.99,10015.2
1764768853.1270812,5485.23,1999.935,-31318.065,-9081.54,-8271.045,-28288.89,2570.67,10021.77
1764768853.1270812,5485.5,1999.44,-31319.055,-9082.62,-8272.619999999999,-28289.52,2570.22,10020.735
1764768853.1270812,5485.455,1999.17,-31319.64,-9083.565,-8273.205,-28290.42,2569.41,10020.24
1764768853.1270812,5478.885,1991.745,-31326.48,-9089.955,-8280.09,-28297.26,2562.48,10013.4
1764768853.1270812,5486.76,1999.845,-31317.975,-9081.72,-8271.27,-28288.44,2570.22,10021.275
1764768853.127648,5489.415,2002.725,-31315.59,-9079.695,-8268.795,-28285.92,2574.405,10024.695
1764768853.127648,5484.87,1999.125,-31318.92,-9082.665,-8272.305,-28289.61,2571.48,10021.095
1764768853.127648,5490.585,2005.785,-31311.72,-9075.42,-8264.205,-28281.645,2577.015,10027.71
1764768853.127648,5483.385,1997.145,-31319.595,-9084.24,-8272.305,-28290.105,2570.31,10019.61
1764768853.1731973,5496.929999999999,2011.005,-31306.59,-9071.1,-8259.48,-28276.875,2583.36,10033.02
1764768853.1731973,5501.429999999999,2015.1,-31302.405,-9066.735,-8255.34,-28272.465,2586.915,10036.575
1764768853.1731973,5500.98,2013.66,-31303.35,-9068.13,-8256.42,-28273.815,2585.61,10035.18
1764768853.1731973,5492.655,2005.02,-31312.305,-9076.5,-8264.654999999999,-28281.24,2578.005,10026.405
1764768853.1731973,5494.23,2007.225,-31309.605,-9073.98,-8261.955,-28278.81,2579.31,10028.745
1764768853.1742518,5487.255,1999.44,-31317.57,-9081.63,-8269.605,-28286.28,2572.83,10021.68
1764768853.1742518,5487.12,1998.855,-31317.165,-9081.18,-8269.515,-28286.28,2573.055,10021.77
1764768853.1742518,5493.554999999999,2006.1,-31309.515,-9073.98,-8261.414999999999,-28278.855,2579.355,10029.555
1764768853.1742518,5490.719999999999,2003.085,-31313.295,-9078.975,-8267.895,-28284.615,2575.755,10026.81
1764768853.1742518,5477.625,1989.765,-31325.715,-9091.395,-8280.315,-28297.62,2563.83,10013.58
1764768853.1742518,5483.925,1996.2,-31318.695,-9083.925,-8271.494999999999,-28289.205,2569.23,10019.835
1764768853.1742518,5484.599999999999,1996.335,-31318.065,-9083.565,-8271.63,-28288.485,2569.455,10021.23
1764768853.1742518,5478.705,1989.945,-31324.545,-9089.37,-8277.525,-28294.335,2564.235,10014.39
1764768853.1742518,5486.445,1997.685,-31316.895,-9081.495,-8269.74,-28286.73,2570.94,10021.995
1764768853.1742518,5488.56,1998.675,-31315.32,-9080.415,-8269.02,-28285.29,2571.66,10023.525
1764768853.1742518,5486.49,1998.18,-31315.995,-9081.315,-8270.19,-28286.865,2571.48,10022.085
1764768853.1742518,5489.054999999999,2001.645,-31312.98,-9078.12,-8267.49,-28284.075,2573.955,10025.82
1764768853.1742518,5491.035,2004.66,-31311.405,-9076.365,-8266.5,-28283.49,2575.395,10028.25
1764768853.1742518,5496.75,2010.645,-31305.645,-9071.37,-8261.369999999999,-28279.845,2579.31,10033.56
1764768853.1742518,5492.655,2006.145,-31310.19,-9075.87,-8265.24,-28283.175,2576.385,10029.96
1764768853.1742518,5492.474999999999,2005.875,-31310.775,-9076.68,-8265.869999999999,-28282.68,2575.08,10029.87
1764768853.1742518,5492.385,2006.055,-31309.65,-9076.815,-8266.365,-28283.58,2573.55,10029.06
1764768853.1742518,5489.775,2002.41,-31312.89,-9079.695,-8269.515,-28287.54,2570.535,10025.145
1764768853.1742518,5486.58,1997.235,-31318.335,-9084.24,-8274.375,-28291.815,2566.755,10020.33
1764768853.219999,5478.03,1987.38,-31327.515,-9093.465,-8283.24,-28301.265,2558.655,10010.295
1764768853.219999,5484.42,1994.355,-31320.405,-9087.03,-8276.4,-28294.335,2564.64,10017.585
1764768853.219999,5477.985,1988.505,-31325.76,-9093.015,-8282.385,-28301.4,2559.78,10011.78
1764768853.219999,5481.855,1993.23,-31321.26,-9088.56,-8277.84,-28296.495,2565.27,10016.595
1764768853.219999,5496.435,2009.25,-31306.545,-9073.395,-8262.225,-28280.52,2580.84,10033.335
1764768853.219999,5492.295,2005.47,-31310.415,-9077.67,-8266.455,-28285.245,2578.545,10030.41
1764768853.219999,5493.915,2006.505,-31309.245,-9076.23,-8265.24,-28284.615,2579.4,10031.985
1764768853.219999,5497.514999999999,2009.97,-31306.32,-9073.035,-8261.775,-28281.555,2580.39,10035.36
1764768853.219999,5493.105,2004.48,-31312.215,-9078.57,-8267.58,-28286.685,2575.44,10029.78
1764768853.219999,5502.285,2012.49,-31302.855,-9070.065,-8258.625,-28277.91,2583.045,10038.105
1764768853.219999,5503.185,2012.76,-31302.72,-9069.255,-8257.365,-28276.965,2583.945,10038.51
1764768853.219999,5494.094999999999,2003.895,-31311.36,-9077.805,-8266.32,-28285.515,2576.025,10029.69
1764768853.2213192,5499.585,2009.565,-31305.645,-9071.145,-8259.48,-28278.81,2581.605,10035.765
1764768853.2213192,5506.514999999999,2017.71,-31296.555,-9062.415,-8250.255,-28269.99,2591.19,10045.035
1764768853.2213192,5508.764999999999,2020.68,-31293.18,-9059.265,-8247.06,-28267.155,2594.52,10048.005
1764768853.2213192,5494.32,2005.83,-31308.12,-9074.115,-8262.585,-28282.365,2580.615,10032.795
1764768853.2213192,5490.9,2001.87,-31312.89,-9078.975,-8267.715,-28286.865,2576.88,10028.88
1764768853.2213192,5490.09,2000.16,-31314.24,-9079.965,-8268.435,-28287.045,2573.955,10026.945
1764768853.2213192,5495.355,2005.065,-31309.2,-9074.115,-8263.755,-28281.915,2577.96,10031.625
1764768853.2213192,5490.945,1999.575,-31315.68,-9080.91,-8271.72,-28289.205,2573.145,10026.81
1764768853.2213192,5490.63,1997.91,-31317.93,-9083.115,-8273.115,-28290.69,2571.48,10026.09
1764768853.2213192,5491.08,1999.485,-31315.68,-9080.055,-8268.119999999999,-28285.92,2571.255,10026.135
1764768853.2213192,5490.675,1999.98,-31314.78,-9079.785,-8267.265,-28286.415,2570.58,10025.01
1764768853.2213192,5488.425,1998.36,-31316.58,-9082.305,-8269.154999999999,-28289.34,2571.21,10025.1
1764768853.2676616,5500.935,2012.175,-31302.855,-9068.4,-8254.71,-28276.02,2584.62,10039.68
1764768853.2676616,5497.56,2008.71,-31305.915,-9071.73,-8258.445,-28279.44,2581.695,10035.36
1764768853.2676616,5497.425,2008.215,-31306.41,-9072.36,-8259.21,-28279.665,2581.47,10034.955
1764768853.2676616,5493.96,2003.715,-31310.28,-9076.59,-8264.34,-28284.795,2576.745,10030.68
1764768853.2676616,5487.885,1996.56,-31317.345,-9084.015,-8271.539999999999,-28292.895,2570.805,10023.345
1764768853.2676616,5495.445,2003.805,-31310.55,-9076.32,-8263.529999999999,-28284.75,2577.285,10030.365
1764768853.2676616,5489.19,1996.56,-31317.885,-9082.98,-8270.324999999999,-28291.68,2571.48,10023.03
1764768853.2676616,5482.53,1989.72,-31325.13,-9090.945,-8279.19,-28301.355,2563.11,10015.92
1764768853.2676616,5489.145,1997.1,-31318.29,-9084.285,-8271.99,-28295.46,2569.185,10023.525
1764768853.2676616,5493.33,2003.13,-31312.215,-9077.895,-8264.88,-28288.98,2574.99,10029.87
1764768853.2676616,5498.55,2009.52,-31306.455,-9072.54,-8258.715,-28282.005,2582.28,10036.35
1764768853.2676616,5498.37,2009.205,-31306.23,-9072.495,-8257.904999999999,-28280.88,2583.135,10036.35
1764768853.2690191,5501.205,2012.76,-31303.62,-9069.57,-8254.755,-28277.73,2585.61,10039.455
1764768853.2690191,5498.91,2009.655,-31305.645,-9070.605,-8255.25,-28277.91,2583.99,10037.295
1764768853.2690191,5489.235,1999.215,-31317.12,-9082.44,-8268.164999999999,-28290.33,2574.585,10026.135
1764768853.2690191,5489.099999999999,1997.595,-31318.695,-9084.465,-8270.1,-28291.14,2573.37,10024.83
1764768853.2690191,5494.185,2003.535,-31312.845,-9078.39,-8265.555,-28287.405,2576.88,10029.78
1764768853.2690191,5504.355,2013.75,-31302.945,-9067.995,-8255.925,-28278.405,2586.195,10040.265
1764768853.2690191,5502.465,2011.995,-31304.475,-9069.48,-8255.25,-28276.785,2586.51,10039.095
1764768853.2690191,5496.48,2006.775,-31309.92,-9075.195,-8261.055,-28282.905,2582.595,10033.92
1764768853.2690191,5515.02,2026.53,-31289.625,-9055.17,-8241.525,-28263.645,2601.135,10053.855
1764768853.2690191,5518.575,2029.635,-31286.295,-9051.795,-8237.699999999999,-28260.27,2605.455,10057.41
1764768853.2690191,5510.745,2020.905,-31293.9,-9059.805,-8245.215,-28267.515,2598.03,10048.68
1764768853.2690191,5519.88,2029.95,-31284.81,-9049.95,-8235.765,-28257.57,2606.31,10057.005
1764768853.3148062,5523.075,2032.605,-31284.0,-9049.095,-8235.18,-28256.355,2607.975,10059.255
1764768853.3148062,5516.955,2025.945,-31291.515,-9057.105,-8242.965,-28264.275,2601.945,10052.37
1764768853.3148062,5515.335,2024.415,-31291.38,-9056.475,-8242.065,-28264.14,2600.46,10050.795
1764768853.3148062,5522.985,2031.66,-31283.055,-9048.6,-8234.145,-28255.86,2607.48,10058.535
1764768853.3148062,5522.76,2032.695,-31283.64,-9049.77,-8235.855,-28256.85,2609.01,10060.29
1764768853.3148062,5527.08,2038.23,-31278.33,-9044.19,-8229.6,-28251.09,2614.365,10065.825
1764768853.3148062,5533.425,2045.25,-31270.14,-9036.27,-8220.24,-28242.99,2620.71,10073.295
1764768853.3148062,5524.38,2035.485,-31280.13,-9045.585,-8230.41,-28253.385,2612.835,10063.89
1764768853.3148062,5527.62,2038.23,-31278.69,-9044.775,-8229.105,-28251.54,2614.86,10065.78
1764768853.3148062,5534.46,2044.035,-31272.84,-9038.745,-8223.119999999999,-28244.745,2619.81,10071.945
1764768853.3148062,5532.344999999999,2040.03,-31276.755,-9042.525,-8227.98,-28249.38,2615.67,10069.155
1764768853.3148062,5522.715,2029.68,-31286.16,-9051.12,-8234.73,-28257.075,2606.175,10057.635
1764768853.3148062,5525.19,2033.37,-31282.605,-9047.565,-8230.725,-28253.97,2608.74,10060.11
1764768853.3148062,5531.13,2039.22,-31275.9,-9041.94,-8224.335,-28247.805,2615.4,10067.58
1764768853.3158126,5542.56,2052.225,-31263.705,-9030.51,-8212.904999999999,-28236.42,2626.785,10080.72
1764768853.3158126,5545.53,2055.51,-31261.005,-9028.035,-8210.205,-28233.945,2630.205,10084.185
1764768853.3158126,5544.585,2054.655,-31260.645,-9028.62,-8210.925,-28235.25,2630.16,10083.105
1764768853.3158126,5530.905,2040.795,-31274.685,-9043.2,-8225.279999999999,-28248.705,2617.29,10069.065
1764768853.3158126,5526.945,2036.385,-31278.51,-9047.475,-8228.88,-28251.225,2612.7,10064.43
1764768853.3158126,5525.685,2034.18,-31281.03,-9049.32,-8230.77,-28253.07,2610.09,10062.0
1764768853.3158126,5538.06,2047.185,-31268.655,-9037.125,-8219.744999999999,-28241.595,2619.63,10073.835
1764768853.3158126,5535.495,2043.72,-31271.715,-9040.23,-8222.445,-28244.295,2617.425,10071.855
1764768853.3617225,5520.915,2027.025,-31288.905,-9057.915,-8239.815,-28260.945,2604.825,10056.915
1764768853.3617225,5518.17,2024.28,-31290.57,-9058.86,-8240.445,-28262.655,2600.46,10053.315
1764768853.3617225,5522.13,2028.51,-31286.07,-9053.19,-8235.18,-28258.47,2605.185,10058.175
1764768853.3617225,5529.42,2036.97,-31276.755,-9045.27,-8226.855,-28251.0,2612.97,10066.365
1764768853.3617225,5533.38,2041.785,-31272.3,-9041.715,-8222.58,-28246.455,2616.525,10070.91
1764768853.3617225,5520.87,2029.23,-31285.395,-9054.675,-8236.125,-28259.595,2603.655,10058.67
1764768853.3617225,5526.0,2034.81,-31280.4,-9048.645,-8230.5,-28254.285,2608.11,10064.475
1764768853.3617225,5520.69,2028.78,-31286.79,-9055.44,-8236.664999999999,-28259.865,2602.035,10057.905
1764768853.3617225,5505.795,2011.725,-31303.8,-9071.73,-8253.539999999999,-28277.055,2585.97,10040.985
1764768853.3617225,5501.34,2005.92,-31308.84,-9077.31,-8259.84,-28283.715,2581.02,10035.585
1764768853.3617225,5499.36,2004.21,-31310.415,-9079.29,-8260.83,-28284.255,2578.815,10034.1
1764768853.3617225,5499.405,2005.02,-31309.965,-9078.84,-8260.74,-28283.895,2578.95,10034.91
1764768853.3617225,5504.31,2010.375,-31304.565,-9073.935,-8255.25,-28278.495,2582.685,10039.86
1764768853.3617225,5505.57,2013.165,-31300.335,-9068.445,-8249.49,-28274.58,2585.07,10041.435
1764768853.3617225,5506.155,2014.155,-31299.345,-9068.13,-8249.895,-28274.625,2587.005,10043.235
1764768853.3617225,5499.179999999999,2005.515,-31306.59,-9076.725,-8258.039999999999,-28282.545,2580.93,10035.27
1764768853.3617225,5502.285,2007.63,-31305.195,-9073.845,-8255.52,-28278.765,2583.315,10037.835
1764768853.3617225,5505.48,2011.68,-31301.505,-9068.76,-8251.289999999999,-28274.265,2585.385,10041.48
1764768853.3617225,5502.96,2008.035,-31305.015,-9072.54,-8254.755,-28277.73,2583.27,10038.105
1764768853.3617225,5506.605,2010.555,-31303.035,-9070.11,-8252.279999999999,-28275.165,2584.755,10040.76
1764768853.3617225,5501.295,2004.525,-31309.065,-9075.735,-8257.635,-28279.845,2579.355,10034.01
1764768853.3617225,5508.045,2011.05,-31301.505,-9068.22,-8251.11,-28273.005,2584.935,10040.805
1764768853.3617225,5510.16,2014.65,-31297.995,-9064.215,-8246.88,-28269.0,2588.625,10044.63
1764768853.3617225,5504.76,2009.52,-31302.72,-9068.67,-8251.02,-28274.31,2585.52,10040.4
1764768853.4082358,5513.985,2018.97,-31293.72,-9060.03,-8242.92,-28265.58,2593.305,10049.58
1764768853.4082358,5512.86,2017.8,-31294.665,-9062.145,-8244.449999999999,-28267.245,2591.325,10048.32
1764768853.4082358,5510.205,2014.02,-31297.365,-9064.53,-8247.105,-28269.81,2588.265,10044.585
1764768853.4082358,5507.91,2010.465,-31301.55,-9068.67,-8251.154999999999,-28273.32,2585.97,10041.975
1764768853.4082358,5496.48,1997.64,-31314.195,-9081.945,-8264.52,-28285.965,2574.54,10029.15
1764768853.4082358,5491.395,1991.61,-31319.955,-9087.255,-8270.82,-28292.04,2567.88,10021.905
1764768853.4082358,5497.83,1998.27,-31312.935,-9080.28,-8263.305,-28284.39,2573.82,10029.825
1764768853.4082358,5496.705,1997.235,-31315.23,-9081.855,-8265.914999999999,-28285.92,2573.01,10028.16
1764768853.4082358,5498.91,2000.475,-31312.44,-9078.39,-8261.955,-28282.23,2576.43,10031.085
1764768853.4082358,5506.83,2009.655,-31303.08,-9069.57,-8252.145,-28273.95,2584.755,10040.85
1764768853.4082358,5512.455,2015.64,-31296.87,-9063.495,-8246.43,-28268.865,2590.245,10047.195
1764768853.4082358,5509.485,2012.22,-31299.93,-9067.05,-8249.76,-28272.24,2587.995,10044.405
1764768853.4082358,5501.07,2002.14,-31310.19,-9077.13,-8259.435,-28281.285,2579.67,10034.595
1764768853.4082358,5496.795,1997.595,-31315.14,-9081.54,-8265.015,-28287.0,2574.585,10030.095
1764768853.4082358,5492.205,1993.005,-31318.605,-9084.69,-8268.57,-28290.24,2569.32,10024.38
1764768853.4082358,5494.995,1995.39,-31316.805,-9084.195,-8267.58,-28287.99,2571.93,10028.07
1764768853.4082358,5505.705,2005.695,-31307.085,-9074.97,-8257.994999999999,-28278.855,2581.29,10038.51
1764768853.4082358,5511.51,2011.41,-31301.415,-9069.39,-8251.965,-28273.455,2586.285,10044.36
1764768853.4082358,5509.349999999999,2009.385,-31304.835,-9072.72,-8255.025,-28276.56,2585.34,10043.37
1764768853.4082358,5510.88,2013.075,-31299.885,-9067.905,-8249.535,-28272.15,2588.85,10046.79
1764768853.453508,5514.255,2015.91,-31296.015,-9065.655,-8246.654999999999,-28268.46,2592.27,10050.705
1764768853.4540153,5507.235,2009.025,-31303.17,-9073.35,-8254.71,-28276.605,2585.7,10043.01
1764768853.4540153,5501.969999999999,2002.635,-31309.47,-9079.875,-8261.369999999999,-28283.58,2580.3,10037.205
1764768853.4540153,5509.71,2009.475,-31302.18,-9073.215,-8254.395,-28276.65,2586.735,10044.27
1764768853.4540153,5506.425,2005.335,-31306.68,-9076.68,-8259.255,-28281.105,2583.405,10039.635
1764768853.4540153,5507.37,2005.92,-31306.14,-9075.915,-8258.805,-28280.16,2582.865,10040.355
1764768853.4540153,5496.21,1994.715,-31316.445,-9086.625,-8268.93,-28291.095,2572.11,10028.07
1764768853.4540153,5491.26,1989.18,-31322.34,-9093.645,-8276.085,-28297.215,2566.575,10023.12
1764768853.4540153,5494.995,1993.365,-31319.01,-9091.17,-8273.295,-28294.605,2569.41,10027.395
1764768853.4540153,5493.465,1993.05,-31318.515,-9089.37,-8270.414999999999,-28293.615,2568.555,10026.0
1764768853.4540153,5492.88,1992.69,-31318.515,-9089.19,-8270.19,-28294.47,2568.825,10026.45
1764768853.4540153,5491.935,1991.61,-31320.09,-9091.8,-8273.34,-28297.98,2567.52,10025.01
1764768853.4540153,5488.965,1988.415,-31323.465,-9095.535,-8277.615,-28301.535,2563.65,10021.86
1764768853.4540153,5484.195,1982.52,-31328.955,-9100.98,-8282.16,-28305.9,2558.52,10016.235
1764768853.4540153,5477.13,1973.745,-31338.36,-9109.89,-8291.205,-28314.495,2550.195,10007.28
1764768853.4540153,5470.155,1965.735,-31345.92,-9117.225,-8299.619999999999,-28321.695,2543.49,9999.765
1764768853.4540153,5476.41,1972.485,-31339.35,-9110.7,-8293.05,-28314.765,2548.485,10006.245
1764768853.4540153,5468.804999999999,1965.105,-31346.64,-9118.755,-8300.52,-28322.73,2541.6,9998.685
1764768853.4540153,5467.05,1963.755,-31347.63,-9119.565,-8301.465,-28323.72,2540.835,9997.425
1764768853.4540153,5474.07,1971.495,-31339.125,-9110.565,-8293.05,-28316.52,2549.43,10006.155
1764768853.4540153,5486.804999999999,1985.58,-31326.48,-9097.605,-8279.82,-28303.92,2561.895,10020.555
1764768853.4540153,5475.87,1973.61,-31338.045,-9109.62,-8291.789999999999,-28316.295,2551.905,10009.71
1764768853.4540153,5478.12,1974.06,-31336.74,-9108.495,-8291.07,-28315.755,2552.22,10011.015
1764768853.4540153,5485.41,1980.63,-31329.54,-9101.25,-8283.735,-28307.52,2557.395,10017.36
1764768853.4999871,5482.889999999999,1977.075,-31332.78,-9104.535,-8286.48,-28309.815,2554.83,10013.58
1764768853.4999871,5488.38,1982.385,-31327.785,-9099.945,-8281.619999999999,-28304.235,2557.98,10018.98
1764768853.4999871,5487.435,1981.08,-31329.18,-9101.745,-8283.735,-28305.72,2556.63,10017.81
1764768853.4999871,5486.219999999999,1980.45,-31329.54,-9101.79,-8283.914999999999,-28306.26,2556.045,10016.46
1764768853.4999871,5484.42,1978.92,-31331.16,-9102.78,-8283.96,-28307.565,2554.74,10015.47
1764768853.4999871,5486.895,1983.195,-31327.245,-9098.28,-8280.18,-28303.605,2558.835,10019.205
1764768853.4999871,5486.13,1983.78,-31326.21,-9097.605,-8278.83,-28302.93,2560.41,10020.06
1764768853.4999871,5474.835,1972.125,-31337.46,-9110.295,-8290.845,-28315.98,2549.7,10008.495
1764768853.4999871,5482.485,1978.47,-31331.115,-9104.31,-8284.59,-28309.365,2555.82,10014.795
1764768853.500491,5476.275,1970.82,-31340.07,-9113.22,-8294.265,-28317.915,2549.16,10007.685
1764768853.500491,5471.594999999999,1965.375,-31345.065,-9119.205,-8300.789999999999,-28324.845,2544.48,10002.645
1764768853.500491,5469.255,1964.655,-31344.705,-9118.08,-8300.744999999999,-28324.44,2541.69,9998.955
1764768853.500491,5467.679999999999,1963.44,-31346.01,-9118.665,-8300.835,-28322.955,2539.53,9997.56
1764768853.500491,5469.344999999999,1964.61,-31344.93,-9117.99,-8300.115,-28322.595,2540.43,9999.495
1764768853.500491,5482.125,1977.525,-31332.69,-9105.93,-8287.47,-28310.355,2553.66,10014.255
1764768853.500491,5481.63,1977.885,-31331.205,-9106.29,-8287.515,-28309.86,2556.855,10015.875
1764768853.500491,5486.219999999999,1984.275,-31324.365,-9098.145,-8278.244999999999,-28301.265,2561.715,10020.78
1764768853.500491,5474.429999999999,1972.08,-31336.245,-9109.845,-8290.08,-28313.82,2549.745,10007.82
1764768853.500491,5480.46,1977.66,-31331.34,-9104.895,-8284.68,-28309.005,2554.065,10013.895
1764768853.500491,5480.054999999999,1976.49,-31333.05,-9106.92,-8287.244999999999,-28311.12,2553.075,10012.95
1764768853.500491,5470.74,1966.185,-31343.04,-9116.91,-8297.91,-28321.065,2544.3,10003.455
1764768853.500491,5471.82,1967.625,-31340.97,-9114.21,-8294.895,-28318.41,2542.995,10003.005
1764768853.500491,5463.675,1958.535,-31348.755,-9121.95,-8303.49,-28326.015,2536.2,9993.78
1764768853.500491,5467.455,1962.36,-31345.245,-9118.89,-8299.574999999999,-28322.415,2540.205,9997.74
1764768853.500491,5479.65,1976.31,-31331.61,-9105.93,-8285.625,-28309.77,2551.995,10011.465
1764768853.500491,5483.295,1981.53,-31326.48,-9100.395,-8280.315,-28305.45,2556.405,10016.73
1764768853.547547,5480.054999999999,1978.11,-31329.72,-9103.59,-8283.42,-28308.87,2554.11,10014.345
1764768853.547547,5472.135,1969.38,-31338.405,-9112.905,-8293.05,-28317.87,2546.1,10005.48
1764768853.547547,5465.25,1961.28,-31345.74,-9119.835,-8300.654999999999,-28324.8,2539.845,9997.695
1764768853.547547,5470.695,1966.455,-31340.565,-9113.715,-8295.345,-28318.995,2543.895,10003.23
1764768853.547547,5467.41,1963.53,-31344.39,-9116.865,-8298.855,-28321.695,2541.285,10000.395
1764768853.547547,5471.73,1966.77,-31340.79,-9113.805,-8295.39,-28318.32,2543.805,10003.77
1764768853.547547,5465.835,1959.885,-31346.235,-9119.43,-8301.195,-28324.305,2537.91,9996.705
1764768853.547547,5469.974999999999,1964.655,-31342.32,-9114.615,-8296.965,-28320.21,2541.915,10001.385
1764768853.547547,5463.63,1958.535,-31349.34,-9121.32,-8304.615,-28327.77,2536.695,9995.445
1764768853.547547,5465.16,1961.505,-31346.055,-9117.945,-8300.789999999999,-28323.99,2539.665,9998.595
1764768853.547547,5474.7,1971.36,-31336.065,-9107.685,-8290.035,-28313.055,2550.285,10009.395
1764768853.547547,5465.655,1962.27,-31346.19,-9117.495,-8299.98,-28324.17,2542.41,9999.855
1764768853.547547,5463.54,1961.46,-31346.415,-9117.18,-8299.215,-28323.36,2542.32,9998.73
1764768853.547547,5469.75,1967.22,-31341.15,-9112.41,-8294.039999999999,-28317.96,2546.325,10003.725
1764768853.547547,5479.11,1976.445,-31331.565,-9103.365,-8284.77,-28308.465,2553.75,10012.23
1764768853.547547,5472.855,1967.985,-31339.035,-9110.88,-8292.555,-28316.25,2547.045,10004.13
1764768853.547547,5476.185,1970.145,-31337.415,-9109.215,-8291.25,-28314.585,2548.26,10007.46
1764768853.547547,5477.445,1972.035,-31335.48,-9107.64,-8289.585,-28313.28,2549.88,10009.305
1764768853.547547,5476.5,1971.27,-31336.02,-9108.72,-8289.404999999999,-28313.37,2550.6,10009.035
1764768853.547547,5476.995,1972.8,-31334.22,-9107.73,-8288.19,-28312.515,2552.985,10010.385
1764768853.547547,5494.95,1993.185,-31315.005,-9088.425,-8268.029999999999,-28293.66,2572.155,10031.355
1764768853.547547,5491.26,1989.405,-31318.965,-9092.43,-8271.539999999999,-28297.62,2568.735,10028.295
1764768853.547547,5488.514999999999,1985.49,-31322.385,-9095.13,-8273.115,-28299.06,2566.395,10025.19
1764768853.547547,5490.81,1987.155,-31319.685,-9093.555,-8271.855,-28297.305,2567.295,10026.72
1764768853.5964932,5504.804999999999,2000.385,-31307.355,-9081.36,-8259.795,-28285.695,2577.555,10039.545
1764768853.597499,5504.445,1999.44,-31309.695,-9084.87,-8263.755,-28290.465,2576.7,10038.78
1764768853.597499,5491.395,1985.85,-31322.655,-9098.145,-8277.119999999999,-28303.74,2564.685,10024.65
1764768853.597499,5495.219999999999,1990.395,-31318.785,-9094.905,-8275.32,-28300.95,2567.835,10029.285
1764768853.597499,5488.695,1984.14,-31323.735,-9099.315,-8278.065,-28304.415,2563.38,10023.705
1764768853.597499,5480.505,1975.14,-31331.97,-9107.64,-8284.68,-28311.255,2556.045,10015.695
1764768853.597499,5485.77,1981.845,-31325.175,-9100.395,-8278.289999999999,-28304.91,2561.13,10020.96
1764768853.597499,5476.59,1972.755,-31335.66,-9110.835,-8288.955,-28315.17,2552.76,10011.735
1764768853.597499,5476.995,1973.115,-31335.12,-9110.79,-8288.73,-28315.755,2552.085,10011.735
1764768853.597499,5471.91,1966.95,-31341.24,-9116.865,-8294.85,-28322.325,2547.585,10005.75
1764768853.597499,5476.41,1971.135,-31338.315,-9113.715,-8291.43,-28317.825,2550.51,10009.71
1764768853.597499,5485.545,1979.955,-31329.09,-9104.49,-8282.385,-28308.78,2557.44,10018.26
1764768853.597499,5488.29,1981.62,-31326.795,-9103.095,-8280.225,-28306.395,2558.205,10019.16
1764768853.597499,5488.65,1982.16,-31326.39,-9103.23,-8279.505,-28305.945,2559.285,10020.195
1764768853.597499,5485.86,1979.955,-31329.135,-9106.695,-8282.52,-28309.68,2557.17,10018.485
1764768853.597499,5482.035,1976.625,-31332.195,-9110.385,-8284.68,-28312.065,2555.685,10015.38
1764768853.597499,5488.155,1982.7,-31327.11,-9105.165,-8279.82,-28308.375,2560.545,10021.77
1764768853.597499,5482.26,1977.12,-31332.69,-9111.06,-8286.164999999999,-28314.99,2554.83,10016.235
1764768853.597499,5481.0,1976.13,-31333.41,-9111.69,-8286.795,-28315.17,2553.885,10014.885
1764768853.597499,5473.98,1967.985,-31341.285,-9119.7,-8294.4,-28322.73,2547.0,10006.785
1764768853.597499,5471.099999999999,1963.26,-31344.345,-9122.985,-8297.55,-28325.88,2543.175,10002.06
1764768853.597499,5474.385,1966.275,-31341.06,-9120.15,-8293.904999999999,-28321.695,2545.785,10004.805
1764768853.597499,5484.42,1976.895,-31331.475,-9110.16,-8284.095,-28312.11,2554.47,10014.795
1764768853.597499,5478.21,1970.505,-31337.82,-9116.955,-8291.34,-28319.535,2549.295,10008.0
1764768853.6409311,5476.005,1968.21,-31339.395,-9118.89,-8292.869999999999,-28321.785,2547.63,10006.515
1764768853.6409311,5486.895,1979.955,-31328.19,-9107.37,-8279.955,-28308.87,2559.285,10019.025
1764768853.6409311,5492.88,1986.66,-31320.765,-9100.575,-8272.98,-28302.345,2567.025,10027.08
1764768853.6409311,5486.355,1980.945,-31326.12,-9106.335,-8279.324999999999,-28310.265,2561.085,10020.285
1764768853.6409311,5490.63,1984.005,-31323.195,-9102.87,-8276.175,-28307.115,2563.245,10023.795
1764768853.6409311,5482.62,1973.61,-31334.895,-9114.795,-8288.55,-28317.87,2554.605,10013.895
1764768853.6409311,5479.02,1969.92,-31338.9,-9119.115,-8292.42,-28322.1,2549.655,10009.755
1764768853.6409311,5478.255,1968.84,-31339.08,-9119.475,-8291.88,-28321.245,2549.835,10008.36
1764768853.6409311,5484.014999999999,1974.645,-31333.23,-9113.4,-8285.58,-28315.305,2555.685,10013.67
1764768853.6409311,5493.105,1983.825,-31324.365,-9104.67,-8275.86,-28305.585,2564.01,10023.66
1764768853.6409311,5492.295,1982.97,-31325.13,-9106.92,-8278.289999999999,-28307.385,2562.615,10022.67
1764768853.6409311,5492.16,1983.195,-31325.4,-9107.82,-8279.73,-28308.555,2563.155,10023.615
1764768853.6409311,5481.81,1972.8,-31334.265,-9116.28,-8287.38,-28316.475,2553.66,10013.4
1764768853.6409311,5468.13,1958.805,-31347.495,-9129.825,-8300.789999999999,-28330.83,2540.205,9999.045
1764768853.6409311,5470.335,1960.785,-31345.695,-9128.34,-8299.215,-28329.975,2540.745,10001.295
1764768853.6409311,5464.98,1954.305,-31353.48,-9135.405,-8306.369999999999,-28335.42,2535.48,9995.175
1764768853.6409311,5467.86,1957.545,-31350.87,-9132.255,-8303.535,-28332.405,2537.955,9997.425
1764768853.6409311,5470.335,1959.12,-31348.62,-9129.51,-8300.97,-28329.93,2539.08,9999.09
1764768853.6409311,5474.79,1963.485,-31344.57,-9124.92,-8297.055,-28326.285,2542.005,10003.545
1764768853.6414423,5483.52,1971.81,-31336.38,-9116.775,-8287.92,-28317.33,2550.69,10013.49
1764768853.6414423,5479.875,1969.02,-31338.45,-9118.53,-8289.945,-28319.265,2548.98,10010.835
1764768853.6414423,5491.035,1982.16,-31324.815,-9105.435,-8276.355,-28306.215,2561.985,10023.705
1764768853.6907544,5492.385,1983.6,-31322.88,-9104.67,-8275.275,-28304.865,2564.37,10025.235
1764768853.6907544,5478.21,1968.165,-31338.36,-9121.095,-8291.654999999999,-28320.66,2549.97,10009.935
1764768853.6907544,5474.295,1964.745,-31341.87,-9123.615,-8294.715,-28324.035,2545.11,10004.985
1764768853.6907544,5479.425,1968.21,-31338.81,-9120.645,-8291.565,-28319.895,2549.475,10009.62
1764768853.6907544,5483.025,1971.18,-31336.245,-9117.63,-8288.64,-28316.43,2551.185,10012.41
1764768853.6907544,5492.295,1981.485,-31326.525,-9107.415,-8279.279999999999,-28306.665,2558.7,10022.04
1764768853.6907544,5497.245,1986.345,-31321.8,-9102.78,-8274.15,-28301.715,2563.785,10027.575
1764768853.6907544,5495.625,1985.715,-31321.665,-9102.78,-8273.025,-28301.265,2564.01,10026.585
1764768853.6907544,5490.045,1980.09,-31326.705,-9107.595,-8277.615,-28305.9,2559.645,10020.465
1764768853.6907544,5494.635,1985.22,-31321.98,-9102.915,-8272.98,-28300.815,2564.505,10025.955
1764768853.6907544,5501.969999999999,1993.86,-31314.24,-9095.13,-8265.33,-28294.92,2571.615,10033.785
1764768853.6913924,5491.44,1982.88,-31326.03,-9107.91,-8278.605,-28309.86,2561.085,10022.58
1764768853.6913924,5487.795,1979.055,-31329.405,-9112.005,-8282.61,-28313.28,2557.305,10019.25
1764768853.6913924,5494.41,1985.31,-31322.79,-9105.705,-8276.22,-28306.485,2561.895,10024.605
1764768853.6913924,5491.485,1981.575,-31326.84,-9110.295,-8280.99,-28311.615,2557.125,10019.61
1764768853.6913924,5483.655,1973.295,-31334.805,-9117.315,-8286.029999999999,-28316.34,2551.905,10011.87
1764768853.6913924,5488.469999999999,1977.84,-31331.025,-9113.4,-8281.619999999999,-28310.895,2555.01,10016.64
1764768853.6913924,5489.955,1978.965,-31329.81,-9112.005,-8280.81,-28310.715,2555.55,10017.945
1764768853.6913924,5490.135,1980.135,-31328.235,-9110.295,-8278.244999999999,-28308.825,2558.16,10020.42
1764768853.6913924,5489.01,1980.36,-31327.785,-9110.97,-8277.57,-28308.105,2559.195,10021.545
1764768853.6913924,5494.365,1986.435,-31321.89,-9105.795,-8274.24,-28304.82,2563.155,10026.54
1764768853.6913924,5483.88,1974.465,-31334.445,-9118.845,-8287.515,-28317.465,2552.985,10015.02
1764768853.6913924,5491.08,1981.935,-31326.48,-9110.835,-8277.93,-28308.375,2559.735,10021.725
1764768853.6913924,5495.535,1986.885,-31321.08,-9104.76,-8271.539999999999,-28302.795,2564.145,10026.27
1764768853.7331746,5487.48,1977.795,-31331.07,-9114.66,-8281.125,-28311.57,2555.775,10017.63
1764768853.7331746,5493.87,1983.825,-31325.535,-9109.08,-8275.86,-28305.54,2560.365,10023.705
1764768853.7331746,5496.795,1986.66,-31322.475,-9105.48,-8272.35,-28302.345,2563.47,10026.315
1764768853.7331746,5488.469999999999,1978.29,-31330.845,-9114.075,-8280.449999999999,-28310.715,2555.955,10018.485
1764768853.7331746,5483.295,1973.115,-31335.615,-9119.565,-8285.445,-28315.62,2551.725,10013.895
1764768853.7341988,5487.885,1979.01,-31330.35,-9114.795,-8280.315,-28310.76,2557.26,10019.385
1764768853.7341988,5502.105,1994.895,-31315.5,-9099.315,-8265.465,-28296.135,2572.245,10035.495
1764768853.7341988,5493.735,1985.535,-31325.445,-9109.17,-8275.005,-28305.135,2565.045,10027.08
1764768853.7341988,5490.135,1981.8,-31329.495,-9113.265,-8280.09,-28309.905,2560.05,10022.535
1764768853.7341988,5496.075,1987.02,-31323.42,-9106.695,-8273.744999999999,-28303.56,2563.335,10026.18
1764768853.7341988,5490.27,1979.415,-31330.35,-9113.4,-8281.17,-28310.76,2557.26,10019.07
1764768853.7341988,5496.12,1986.03,-31323.78,-9107.1,-8274.33,-28304.37,2562.03,10024.47
1764768853.7341988,5493.06,1982.475,-31326.57,-9111.105,-8277.75,-28307.43,2559.015,10021.23
1764768853.7341988,5490.27,1978.92,-31330.08,-9114.795,-8281.44,-28311.165,2557.17,10018.575
1764768853.7341988,5486.67,1976.535,-31332.78,-9116.775,-8283.51,-28314.045,2554.83,10016.145
1764768853.7341988,5481.63,1972.44,-31336.515,-9121.14,-8287.244999999999,-28318.23,2552.04,10012.185
1764768853.7341988,5489.054999999999,1981.17,-31329.225,-9114.12,-8279.414999999999,-28310.355,2558.7,10020.915
1764768853.7341988,5478.3,1968.93,-31341.24,-9125.955,-8291.205,-28322.55,2548.17,10009.125
1764768853.7341988,5478.48,1967.985,-31341.825,-9126.09,-8291.88,-28322.73,2548.485,10008.81
1764768853.7341988,5481.675,1971.45,-31338.765,-9123.435,-8290.35,-28320.435,2550.645,10011.375
1764768853.7341988,5485.77,1975.41,-31334.67,-9120.69,-8286.57,-28316.34,2552.31,10015.47
1764768853.7341988,5475.78,1964.115,-31345.11,-9131.49,-8297.055,-28326.015,2542.86,10004.625
1764768853.780419,5484.195,1973.475,-31336.515,-9122.4,-8287.244999999999,-28316.07,2552.085,10013.49
1764768853.780419,5483.429999999999,1973.25,-31336.875,-9124.155,-8287.92,-28316.565,2552.355,10013.13
1764768853.780419,5490.45,1981.485,-31328.865,-9115.515,-8278.965,-28308.51,2559.51,10021.77
1764768853.780419,5492.52,1983.69,-31326.795,-9113.58,-8276.49,-28306.665,2561.985,10024.38
1764768853.780419,5494.05,1985.76,-31325.49,-9112.32,-8275.41,-28305.585,2564.28,10025.73
1764768853.780419,5492.7,1984.68,-31326.705,-9114.03,-8276.94,-28307.205,2563.92,10025.01
1764768853.780419,5494.905,1986.03,-31325.58,-9113.445,-8276.445,-28305.72,2565.36,10027.125
1764768853.780419,5489.28,1978.83,-31331.745,-9118.845,-8280.539999999999,-28309.77,2559.645,10020.33
1764768853.780419,5479.83,1968.615,-31342.365,-9129.555,-8292.824999999999,-28321.47,2549.43,10008.855
1764768853.780419,5487.12,1976.13,-31334.94,-9122.85,-8285.625,-28313.82,2555.685,10016.865
1764768853.780419,5482.485,1971.405,-31339.755,-9128.115,-8289.404999999999,-28318.77,2551.185,10012.59
1764768853.780419,5480.235,1969.47,-31342.68,-9130.68,-8292.285,-28322.055,2548.98,10010.205
1764768853.780419,5485.05,1975.635,-31337.1,-9124.65,-8286.119999999999,-28316.295,2554.155,10015.92
1764768853.780419,5485.77,1976.175,-31336.335,-9124.2,-8285.22,-28315.89,2555.955,10016.28
1764768853.780419,5499.135,1990.395,-31323.195,-9110.43,-8271.63,-28302.345,2568.42,10030.5
1764768853.780419,5497.83,1988.955,-31324.545,-9111.78,-8272.755,-28304.01,2567.205,10028.655
1764768853.780419,5493.78,1984.095,-31328.775,-9116.865,-8277.84,-28307.79,2563.11,10024.02
1764768853.780419,5486.175,1975.455,-31338.0,-9126.81,-8289.09,-28318.23,2554.695,10015.245
1764768853.780419,5489.639999999999,1976.4,-31337.37,-9125.955,-8286.795,-28315.98,2555.685,10016.37
1764768853.780419,5482.53,1969.695,-31343.94,-9131.94,-8291.565,-28321.695,2548.845,10008.945
1764768853.780419,5488.965,1977.39,-31336.965,-9125.1,-8285.13,-28315.395,2553.975,10015.02
1764768853.780419,5488.065,1975.32,-31338.765,-9126.585,-8287.11,-28318.23,2554.605,10014.75
1764768853.780419,5497.56,1985.76,-31328.37,-9116.325,-8276.67,-28308.06,2564.685,10025.82
1764768853.780419,5497.83,1987.92,-31325.715,-9113.985,-8273.295,-28303.92,2566.305,10027.665
1764768853.8274934,5497.11,1987.335,-31326.345,-9114.885,-8273.88,-28305.585,2566.215,10027.71
1764768853.8274934,5486.804999999999,1976.355,-31337.73,-9125.235,-8284.635,-28316.79,2557.035,10016.73
1764768853.8274934,5490.36,1979.73,-31334.31,-9122.13,-8282.16,-28314.225,2558.835,10019.655
1764768853.8274934,5488.695,1975.905,-31337.505,-9126.0,-8286.3,-28317.915,2554.83,10015.11
1764768853.8274934,5479.83,1965.51,-31347.855,-9134.73,-8294.715,-28325.52,2546.19,10004.985
1764768853.8274934,5488.56,1973.925,-31339.8,-9126.36,-8287.02,-28317.375,2553.57,10013.805
1764768853.8274934,5483.79,1968.435,-31344.21,-9131.58,-8291.97,-28322.505,2549.655,10009.215
1764768853.8274934,5483.429999999999,1968.66,-31344.03,-9131.265,-8291.699999999999,-28321.38,2550.735,10009.8
1764768853.8274934,5488.695,1975.86,-31335.885,-9123.705,-8283.285,-28313.325,2557.53,10017.135
1764768853.8274934,5497.514999999999,1985.13,-31325.355,-9114.165,-8272.35,-28303.38,2565.27,10026.405
1764768853.8274934,5499.405,1987.335,-31323.33,-9112.32,-8270.055,-28301.715,2567.835,10028.52
1764768853.8280258,5487.615,1974.285,-31337.37,-9125.37,-8284.365,-28316.205,2556.09,10015.65
1764768853.8280258,5491.8,1978.605,-31333.05,-9121.095,-8280.0,-28311.975,2558.745,10019.52
1764768853.8280258,5493.15,1978.92,-31331.745,-9120.105,-8278.244999999999,-28310.58,2558.97,10019.925
1764768853.8280258,5487.929999999999,1972.485,-31338.855,-9126.765,-8286.21,-28317.285,2552.76,10013.535
1764768853.8280258,5480.415,1964.925,-31346.37,-9134.46,-8293.994999999999,-28324.17,2546.28,10005.48
1764768853.8280258,5484.645,1968.75,-31342.32,-9130.365,-8289.585,-28319.715,2549.97,10009.845
1764768853.8280258,5492.025,1976.895,-31333.68,-9121.41,-8280.9,-28310.94,2557.935,10018.53
1764768853.8280258,5487.48,1972.845,-31337.73,-9125.91,-8285.85,-28315.62,2555.01,10014.57
1764768853.8280258,5495.355,1981.485,-31329.135,-9117.09,-8276.49,-28307.205,2562.93,10023.615
1764768853.8280258,5501.565,1988.055,-31323.33,-9112.185,-8271.404999999999,-28302.03,2570.805,10031.13
1764768853.8280258,5496.795,1983.06,-31327.74,-9115.83,-8274.285,-28305.09,2567.52,10025.955
1764768853.8740995,5503.275,1990.305,-31320.54,-9107.28,-8265.105,-28296.675,2573.37,10032.3
1764768853.8740995,5497.425,1983.78,-31327.605,-9114.84,-8272.89,-28304.235,2567.385,10026.045
1764768853.8740995,5501.385,1985.805,-31325.355,-9113.175,-8270.955,-28301.58,2568.78,10028.97
1764768853.8746078,5497.785,1982.25,-31328.55,-9115.38,-8273.52,-28305.045,2565.945,10023.705
1764768853.8746078,5504.535,1990.44,-31321.215,-9107.91,-8265.96,-28298.07,2571.84,10030.905
1764768853.8746078,5499.81,1985.535,-31326.345,-9113.04,-8271.135,-28303.515,2569.14,10026.9
1764768853.8746078,5502.06,1987.515,-31324.095,-9111.33,-8269.199999999999,-28300.545,2571.75,10029.42
1764768853.8746078,5512.545,1998.855,-31312.305,-9100.665,-8258.895,-28289.07,2581.785,10041.165
1764768853.8746078,5511.195,1997.28,-31313.88,-9102.105,-8259.93,-28291.32,2580.93,10040.175
1764768853.8746078,5495.31,1982.205,-31330.35,-9118.125,-8276.175,-28307.79,2566.485,10024.695
1764768853.8746078,5490.855,1977.165,-31335.39,-9124.02,-8282.34,-28314.18,2560.86,10019.16
1764768853.8746078,5495.13,1980.27,-31331.97,-9120.51,-8278.154999999999,-28309.59,2565.18,10022.67
1764768853.8746078,5504.804999999999,1988.91,-31323.24,-9110.745,-8268.57,-28299.735,2572.065,10030.86
1764768853.8746078,5506.469999999999,1990.575,-31320.72,-9108.18,-8266.32,-28296.945,2571.795,10031.49
1764768853.8746078,5504.175,1988.82,-31322.61,-9110.205,-8268.164999999999,-28298.43,2571.03,10029.87
1764768853.8746078,5502.554999999999,1987.155,-31323.78,-9111.105,-8269.154999999999,-28300.545,2570.58,10029.24
1764768853.8746078,5499.36,1984.365,-31326.525,-9114.975,-8273.07,-28304.055,2567.88,10026.405
1764768853.8746078,5498.955,1983.78,-31327.02,-9115.83,-8274.195,-28305.405,2566.935,10026.675
1764768853.8746078,5499.405,1983.96,-31327.875,-9115.785,-8274.645,-28305.855,2567.7,10026.63
1764768853.8746078,5492.7,1977.39,-31334.625,-9122.805,-8280.585,-28312.875,2561.805,10019.52
1764768853.8746078,5496.48,1980.81,-31330.71,-9118.665,-8276.13,-28308.105,2564.685,10023.21
1764768853.8746078,5496.435,1979.415,-31331.34,-9119.385,-8277.435,-28308.69,2563.335,10021.545
1764768853.8746078,5493.645,1976.22,-31335.57,-9122.94,-8281.44,-28312.245,2560.185,10018.935
1764768853.8746078,5485.905,1967.985,-31343.895,-9131.13,-8289.855,-28321.02,2552.49,10009.845
1764768853.9177923,5486.31,1968.255,-31343.49,-9130.455,-8289.494999999999,-28320.345,2552.175,10010.43
1764768853.9177923,5487.885,1969.38,-31342.365,-9129.78,-8288.19,-28319.13,2553.165,10011.96
1764768853.9177923,5496.929999999999,1980.135,-31331.34,-9119.745,-8278.244999999999,-28310.265,2562.48,10022.445
1764768853.9177923,5503.05,1987.875,-31323.15,-9112.5,-8270.55,-28304.055,2570.445,10030.725
1764768853.9177923,5500.575,1985.985,-31325.58,-9114.12,-8270.64,-28303.83,2568.735,10028.835
1764768853.9177923,5486.4,1971.225,-31340.25,-9129.15,-8285.94,-28317.915,2554.92,10013.895
1764768853.9177923,5483.565,1967.355,-31343.13,-9132.48,-8290.35,-28321.425,2552.805,10011.015
1764768853.9177923,5482.215,1964.745,-31344.165,-9133.875,-8291.97,-28323.09,2549.925,10008.45
1764768853.9177923,5484.78,1967.13,-31342.455,-9131.175,-8289.18,-28319.355,2551.185,10010.79
1764768853.9177923,5495.219999999999,1977.3,-31332.915,-9122.49,-8280.494999999999,-28308.78,2560.05,10022.31
1764768853.9177923,5499.405,1982.61,-31326.975,-9115.875,-8273.34,-28301.67,2564.955,10027.44
1764768853.9177923,5496.885,1980.135,-31328.865,-9117.315,-8274.69,-28304.82,2562.48,10024.695
1764768853.9177923,5490.405,1972.26,-31336.92,-9125.91,-8283.465,-28312.605,2555.91,10018.305
1764768853.9177923,5484.465,1966.77,-31341.42,-9130.68,-8287.785,-28317.015,2552.625,10013.535
1764768853.9177923,5497.83,1981.755,-31327.11,-9116.73,-8274.195,-28303.335,2566.08,10028.115
1764768853.9177923,5491.71,1975.005,-31332.105,-9122.175,-8278.289999999999,-28308.06,2562.795,10021.95
1764768853.9177923,5491.889999999999,1974.195,-31332.645,-9122.58,-8278.38,-28308.15,2561.175,10021.05
1764768853.9177923,5497.065,1978.245,-31329.045,-9118.89,-8275.185,-28304.46,2563.2,10025.01
1764768853.9177923,5496.66,1977.12,-31330.62,-9121.545,-8278.425,-28306.755,2562.03,10024.2
1764768853.9177923,5496.705,1977.39,-31329.045,-9120.555,-8277.975,-28305.855,2561.76,10023.21
1764768853.9652812,5497.695,1978.83,-31327.695,-9117.945,-8276.49,-28304.82,2563.155,10024.605
1764768853.9658113,5495.445,1976.625,-31330.62,-9119.835,-8279.055,-28307.97,2560.68,10022.94
1764768853.9658113,5493.42,1973.88,-31333.635,-9123.165,-8282.205,-28312.02,2558.835,10021.275
1764768853.9658113,5503.635,1985.94,-31322.295,-9112.68,-8271.675,-28302.03,2568.735,10032.795
1764768853.9658113,5504.804999999999,1988.235,-31319.685,-9109.44,-8268.39,-28298.745,2571.48,10034.19
1764768853.9658113,5496.525,1979.55,-31328.595,-9117.0,-8276.94,-28307.07,2563.785,10025.595
1764768853.9658113,5509.08,1992.78,-31316.445,-9105.345,-8265.645,-28294.65,2575.845,10037.835
1764768853.9658113,5503.679999999999,1987.335,-31321.26,-9110.43,-8270.82,-28300.185,2570.535,10032.345
1764768853.9658113,5499.0,1980.72,-31328.325,-9116.145,-8277.119999999999,-28306.8,2563.695,10026.27
1764768853.9668214,5496.974999999999,1977.66,-31331.52,-9119.43,-8280.27,-28309.68,2559.735,10022.985
1764768853.9668214,5502.105,1983.33,-31325.58,-9114.12,-8274.285,-28303.92,2564.73,10028.475
1764768853.9668214,5497.425,1978.605,-31330.44,-9118.98,-8278.875,-28308.78,2561.895,10023.75
1764768853.9668214,5496.795,1977.93,-31331.295,-9120.375,-8279.505,-28310.085,2561.67,10023.435
1764768853.9668214,5507.01,1988.91,-31320.63,-9109.845,-8267.76,-28299.105,2572.605,10035.135
1764768853.9668214,5507.505,1990.395,-31319.685,-9110.115,-8268.029999999999,-28299.24,2574.135,10036.755
1764768853.9668214,5492.34,1974.105,-31334.805,-9125.64,-8283.645,-28315.305,2558.88,10020.78
1764768853.9668214,5488.56,1969.47,-31339.575,-9130.185,-8288.595,-28320.255,2553.03,10015.38
1764768853.9668214,5497.875,1977.93,-31331.7,-9122.355,-8279.64,-28311.12,2560.905,10024.56
1764768853.9668214,5500.98,1980.945,-31328.37,-9118.44,-8276.76,-28307.295,2563.92,10026.855
1764768853.9668214,5501.16,1979.91,-31328.19,-9118.98,-8276.895,-28307.205,2563.155,10025.37
1764768853.9668214,5495.804999999999,1974.645,-31333.23,-9123.345,-8280.225,-28310.625,2558.835,10019.655
1764768853.9668214,5499.99,1979.91,-31327.92,-9118.665,-8275.725,-28306.08,2563.155,10025.73
1764768853.9668214,5494.05,1974.33,-31334.58,-9125.82,-8283.195,-28313.46,2558.43,10020.735
1764768853.9668214,5502.15,1982.745,-31326.615,-9118.395,-8275.365,-28305.585,2565.81,10029.15
1764768853.9668214,5504.445,1985.67,-31321.44,-9113.22,-8269.11,-28299.69,2569.23,10031.985
1764768853.9668214,5495.67,1976.13,-31330.89,-9122.085,-8278.605,-28311.66,2559.645,10021.995
1764768854.0136333,5484.554999999999,1962.405,-31343.895,-9135.63,-8292.285,-28324.35,2547.495,10009.575
1764768854.0136333,5482.395,1959.66,-31345.92,-9137.115,-8293.365,-28324.665,2545.38,10006.065
1764768854.0136333,5486.67,1962.945,-31343.13,-9134.28,-8291.205,-28321.155,2549.25,10010.385
1764768854.0136333,5487.165,1962.585,-31343.355,-9134.73,-8292.465,-28321.56,2548.89,10010.43
1764768854.0136333,5489.91,1966.14,-31339.98,-9132.12,-8289.765,-28319.49,2551.455,10013.94
1764768854.0136333,5501.385,1978.83,-31327.515,-9119.925,-8276.94,-28306.845,2562.93,10026.99
1764768854.0136333,5505.525,1984.05,-31322.7,-9114.03,-8271.09,-28300.05,2568.06,10032.48
1764768854.0136333,5508.63,1986.435,-31319.685,-9111.105,-8266.545,-28296.495,2572.335,10036.17
1764768854.0136333,5505.57,1983.51,-31322.565,-9113.67,-8268.93,-28299.96,2569.995,10033.74
1764768854.0136333,5497.469999999999,1975.185,-31330.44,-9121.77,-8276.94,-28308.915,2561.175,10025.55
1764768854.0136333,5493.87,1971.81,-31334.04,-9124.695,-8280.27,-28312.065,2557.395,10021.23
1764768854.0136333,5494.995,1972.395,-31335.03,-9124.785,-8281.395,-28312.47,2556.72,10020.96
1764768854.0136333,5497.38,1974.735,-31332.735,-9122.355,-8279.055,-28309.095,2559.06,10023.165
1764768854.0136333,5499.179999999999,1976.4,-31331.385,-9121.095,-8277.885,-28307.745,2560.95,10025.145
1764768854.0136333,5493.42,1970.73,-31336.74,-9126.315,-8283.105,-28312.92,2555.955,10018.17
1764768854.0136333,5494.545,1972.935,-31335.705,-9125.1,-8281.305,-28312.155,2558.34,10020.69
1764768854.0136333,5504.49,1983.33,-31325.94,-9115.38,-8271.765,-28302.345,2568.51,10032.795
1764768854.0136333,5505.435,1984.905,-31323.555,-9112.23,-8269.199999999999,-28300.365,2569.41,10034.28
1764768854.0136333,5503.59,1983.42,-31324.095,-9112.77,-8268.705,-28300.455,2569.005,10033.38
1764768854.0136333,5502.78,1983.06,-31324.095,-9112.815,-8269.695,-28300.275,2568.78,10032.93
1764768854.0136333,5503.905,1983.195,-31323.24,-9111.87,-8269.154999999999,-28299.51,2568.195,10033.245
1764768854.0136333,5499.179999999999,1977.66,-31328.595,-9117.27,-8274.375,-28305.405,2563.2,10027.17
1764768854.0136333,5489.55,1967.085,-31339.575,-9128.79,-8286.164999999999,-28316.25,2553.705,10016.01
1764768854.0136333,5496.705,1973.565,-31333.095,-9121.86,-8279.01,-28308.42,2558.43,10022.355
1764768854.0570483,5499.719999999999,1976.895,-31329.405,-9117.72,-8274.779999999999,-28303.29,2563.47,10026.63
1764768854.0570483,5493.69,1971.54,-31335.39,-9124.065,-8281.44,-28310.265,2558.34,10020.645
1764768854.0570483,5496.165,1974.87,-31332.78,-9121.86,-8279.279999999999,-28307.88,2561.22,10024.785
1764768854.0570483,5495.4,1975.545,-31330.35,-9119.34,-8276.175,-28305.54,2562.885,10025.37
1764768854.0570483,5506.335,1986.75,-31318.965,-9108.27,-8265.105,-28295.28,2572.875,10037.115
1764768854.0570483,5502.51,1981.62,-31323.69,-9111.78,-8269.289999999999,-28300.23,2569.185,10033.155
1764768854.0570483,5495.58,1972.98,-31332.915,-9120.78,-8278.515,-28308.87,2562.66,10025.145
1764768854.0570483,5494.86,1972.35,-31333.68,-9122.355,-8280.09,-28309.725,2561.175,10023.03
1764768854.0570483,5498.415,1976.04,-31329.405,-9118.53,-8276.94,-28305.72,2563.83,10026.0
1764768854.0570483,5507.594999999999,1985.445,-31319.82,-9108.405,-8266.545,-28294.785,2571.57,10035.72
1764768854.0570483,5510.385,1989.135,-31317.255,-9105.3,-8263.664999999999,-28291.23,2574.405,10038.69
1764768854.0570483,5511.825,1990.89,-31315.905,-9104.445,-8263.71,-28290.24,2576.52,10040.94
1764768854.0570483,5508.675,1987.785,-31318.155,-9106.155,-8265.69,-28292.895,2574.495,10037.97
1764768854.0570483,5507.28,1986.12,-31318.335,-9106.29,-8264.744999999999,-28293.48,2574.405,10037.16
1764768854.0570483,5506.514999999999,1985.49,-31319.46,-9107.595,-8265.555,-28294.965,2573.415,10036.8
1764768854.0570483,5504.76,1984.23,-31321.305,-9108.945,-8268.029999999999,-28296.99,2571.48,10035.045
1764768854.0570483,5506.155,1984.725,-31320.54,-9108.765,-8267.445,-28295.325,2572.425,10036.08
1764768854.0570483,5499.224999999999,1976.985,-31328.37,-9116.775,-8275.86,-28303.74,2565.63,10027.395
1764768854.0570483,5502.24,1979.955,-31325.085,-9113.67,-8273.115,-28300.815,2566.755,10029.51
1764768854.0570483,5496.974999999999,1973.655,-31330.845,-9119.205,-8278.83,-28306.395,2561.085,10023.03
1764768854.0570483,5504.58,1980.72,-31324.005,-9111.105,-8270.01,-28297.26,2568.285,10031.355
1764768854.0570483,5503.95,1980.855,-31324.095,-9111.825,-8270.73,-28298.43,2567.7,10031.535
1764768854.1034846,5492.969999999999,1970.145,-31334.265,-9123.165,-8282.25,-28310.31,2558.835,10020.915
1764768854.1034846,5497.29,1975.41,-31329.18,-9118.395,-8276.715,-28305.63,2564.73,10025.685
1764768854.1034846,5510.925,1990.26,-31314.825,-9104.4,-8262.045,-28291.59,2578.41,10040.31
1764768854.1034846,5502.06,1980.81,-31324.365,-9114.03,-8270.865,-28300.365,2569.41,10031.085
1764768854.1034846,5503.185,1981.125,-31324.14,-9113.85,-8270.19,-28299.735,2569.365,10031.895
1764768854.1034846,5493.915,1970.73,-31333.455,-9123.435,-8280.539999999999,-28311.705,2560.185,10020.87
1764768854.1034846,5489.685,1965.105,-31339.08,-9129.555,-8286.48,-28315.665,2553.66,10015.47
1764768854.1034846,5496.974999999999,1972.125,-31331.655,-9122.49,-8278.74,-28307.295,2559.96,10022.67
1764768854.1034846,5500.62,1975.41,-31328.325,-9119.385,-8275.635,-28304.82,2563.065,10026.27
1764768854.1034846,5501.88,1976.31,-31328.1,-9118.215,-8274.465,-28304.19,2564.37,10027.98
1764768854.1034846,5500.08,1974.555,-31330.08,-9120.015,-8275.77,-28305.045,2563.695,10027.71
1764768854.1034846,5500.395,1975.635,-31328.055,-9119.34,-8274.285,-28304.595,2564.595,10027.845
1764768854.1034846,5494.86,1970.145,-31332.78,-9124.425,-8278.74,-28310.355,2560.23,10022.04
1764768854.1034846,5480.91,1956.51,-31346.19,-9137.655,-8292.015,-28324.53,2547.405,10008.135
1764768854.1034846,5487.03,1961.955,-31341.555,-9133.02,-8287.695,-28319.805,2551.275,10013.895
1764768854.1034846,5479.785,1954.215,-31349.565,-9140.76,-8295.435,-28326.825,2543.895,10004.805
1764768854.1034846,5479.875,1952.91,-31352.445,-9143.415,-8297.73,-28327.86,2543.805,10005.03
1764768854.104718,5482.755,1955.52,-31349.07,-9139.185,-8293.904999999999,-28323.945,2545.92,10007.325
1764768854.104718,5493.96,1967.265,-31336.965,-9127.35,-8281.664999999999,-28311.48,2556.135,10018.755
1764768854.104718,5488.74,1962.18,-31343.04,-9133.2,-8287.605,-28317.33,2551.995,10014.03
1764768854.104718,5487.48,1961.91,-31343.895,-9133.38,-8288.19,-28318.68,2550.69,10013.445
1764768854.104718,5499.495,1974.69,-31331.295,-9122.355,-8277.975,-28308.69,2561.76,10026.72
1764768854.1513772,5505.795,1981.53,-31326.3,-9117.81,-8272.89,-28302.345,2568.465,10033.785
1764768854.1513772,5498.28,1974.915,-31330.845,-9121.725,-8274.465,-28305.54,2561.04,10024.29
1764768854.1513772,5491.035,1967.31,-31339.215,-9130.275,-8283.105,-28314.36,2553.39,10016.145
1764768854.1513772,5495.445,1971.135,-31336.245,-9127.53,-8281.305,-28312.065,2556.27,10020.78
1764768854.1513772,5493.78,1969.245,-31338.495,-9129.06,-8283.824999999999,-28314.585,2554.38,10018.53
1764768854.1513772,5500.035,1975.545,-31331.565,-9121.995,-8276.67,-28307.07,2559.96,10025.37
1764768854.1513772,5503.86,1978.965,-31328.505,-9118.845,-8272.845,-28302.975,2564.415,10029.87
1764768854.1513772,5501.925,1978.155,-31328.595,-9120.33,-8274.24,-28305.225,2562.75,10027.035
1764768854.1513772,5496.705,1973.655,-31332.825,-9124.245,-8277.75,-28309.095,2560.005,10022.85
1764768854.1513772,5490.495,1967.445,-31339.53,-9131.805,-8283.96,-28315.665,2555.775,10017.63
1764768854.1513772,5497.245,1973.97,-31332.645,-9124.965,-8277.975,-28309.275,2561.535,10024.245
1764768854.1513772,5494.95,1972.08,-31334.49,-9126.54,-8279.955,-28311.3,2559.195,10022.175
1764768854.1513772,5487.705,1964.43,-31342.635,-9135.27,-8288.01,-28318.635,2552.895,10014.435
1764768854.1513772,5489.594999999999,1965.51,-31343.4,-9135.945,-8288.279999999999,-28318.095,2552.535,10013.985
1764768854.1513772,5490.405,1965.105,-31343.715,-9135.855,-8288.55,-28318.23,2551.68,10013.31
1764768854.1513772,5488.11,1962.585,-31345.875,-9137.835,-8290.89,-28320.525,2549.07,10011.465
1764768854.1513772,5493.42,1968.075,-31341.285,-9133.29,-8285.58,-28315.08,2553.93,10017.36
1764768854.1513772,5492.025,1967.13,-31341.24,-9133.74,-8285.85,-28315.665,2552.85,10016.955
1764768854.1513772,5503.365,1980.495,-31328.55,-9121.275,-8273.565,-28304.145,2564.235,10029.78
1764768854.1513772,5501.474999999999,1979.37,-31330.845,-9123.435,-8275.455,-28306.44,2564.235,10028.16
1764768854.1513772,5503.86,1981.98,-31328.595,-9120.915,-8273.07,-28303.74,2566.62,10030.635
1764768854.1513772,5493.78,1971.45,-31338.36,-9131.625,-8283.779999999999,-28314.495,2555.73,10020.195
1764768854.1513772,5481.27,1957.23,-31352.085,-9144.855,-8297.955,-28328.67,2543.445,10006.695
1764768854.1513772,5481.63,1956.735,-31351.905,-9145.08,-8298.99,-28328.94,2542.455,10006.155
1764768854.197263,5483.16,1958.535,-31350.105,-9143.235,-8295.93,-28325.79,2543.58,10007.235
1764768854.197263,5482.889999999999,1958.085,-31350.645,-9144.405,-8296.38,-28325.925,2542.95,10006.38
1764768854.197263,5486.49,1961.505,-31347.585,-9141.795,-8293.904999999999,-28322.91,2545.695,10010.205
1764768854.197263,5492.835,1968.03,-31341.465,-9135.72,-8288.055,-28317.465,2551.095,10018.305
1764768854.197263,5487.974999999999,1964.25,-31345.38,-9139.455,-8292.15,-28322.64,2548.755,10014.03
1764768854.197263,5489.28,1965.51,-31343.445,-9137.745,-8290.845,-28321.74,2550.465,10015.56
1764768854.197263,5501.925,1979.1,-31329.315,-9123.615,-8277.119999999999,-28308.42,2563.245,10029.195
1764768854.197263,5501.655,1978.02,-31329.72,-9125.595,-8278.785,-28310.805,2563.11,10028.925
1764768854.197263,5490.27,1965.825,-31342.365,-9138.42,-8291.295,-28322.46,2551.77,10017.09
1764768854.197263,5487.615,1963.17,-31345.2,-9140.94,-8293.725,-28324.665,2547.72,10012.455
1764768854.198264,5494.545,1969.38,-31338.27,-9132.795,-8284.59,-28315.26,2552.805,10018.08
1764768854.198264,5495.219999999999,1968.75,-31338.9,-9133.29,-8285.265,-28315.395,2553.84,10018.035
1764768854.198264,5501.16,1974.195,-31333.95,-9129.33,-8281.755,-28311.165,2559.465,10025.055
1764768854.198264,5493.06,1967.445,-31340.295,-9135.225,-8287.74,-28317.555,2553.885,10017.36
1764768854.198264,5493.195,1968.255,-31338.72,-9132.795,-8285.265,-28316.205,2554.245,10018.215
1764768854.198264,5505.21,1981.215,-31326.84,-9121.68,-8273.654999999999,-28305.135,2566.305,10032.48
1764768854.198264,5512.635,1989.72,-31319.19,-9114.84,-8266.41,-28296.99,2574.81,10040.985
1764768854.198264,5504.58,1982.07,-31326.48,-9121.23,-8272.755,-28302.84,2566.755,10032.3
1764768854.198264,5496.929999999999,1972.305,-31336.695,-9130.815,-8282.115,-28312.29,2558.475,10022.445
1764768854.198264,5504.625,1979.775,-31329.54,-9123.75,-8274.779999999999,-28304.595,2565.945,10030.95
1764768854.198264,5501.25,1975.68,-31333.455,-9128.07,-8280.09,-28308.735,2562.3,10027.44
1764768854.198264,5503.95,1977.93,-31330.71,-9125.325,-8275.725,-28304.82,2563.155,10029.375
1764768854.198264,5499.495,1973.61,-31335.84,-9129.375,-8279.414999999999,-28309.005,2558.835,10024.245
1764768854.198264,5491.844999999999,1965.78,-31343.625,-9138.105,-8289.18,-28319.04,2552.175,10016.415
1764768854.243679,5491.755,1966.635,-31342.32,-9137.07,-8287.695,-28318.365,2553.57,10017.585
1764768854.243679,5493.554999999999,1969.965,-31339.395,-9133.605,-8284.68,-28315.89,2556.495,10021.005
1764768854.243679,5499.27,1976.805,-31333.185,-9126.81,-8277.885,-28309.005,2562.57,10027.71
1764768854.243679,5486.355,1963.35,-31346.685,-9140.67,-8291.565,-28323.045,2549.52,10013.535
1764768854.243679,5489.91,1966.32,-31343.175,-9137.88,-8288.505,-28319.85,2552.13,10016.595
1764768854.243679,5482.26,1957.005,-31353.03,-9146.88,-8298.09,-28329.03,2543.895,10006.605
1764768854.243679,5481.405,1954.845,-31354.515,-9148.23,-8299.845,-28330.29,2542.14,10003.905
1764768854.243679,5480.775,1954.215,-31354.56,-9148.185,-8300.205,-28330.38,2541.645,10003.005
1764768854.243679,5485.185,1959.21,-31350.015,-9143.28,-8295.48,-28324.755,2546.01,10008.135
1764768854.243679,5485.23,1958.67,-31349.61,-9143.37,-8295.119999999999,-28324.305,2546.01,10008.99
1764768854.243679,5486.535,1960.605,-31347.855,-9141.66,-8292.465,-28322.19,2548.035,10011.285
1764768854.243679,5501.07,1975.995,-31331.52,-9125.055,-8275.725,-28305.63,2562.705,10027.215
1764768854.243679,5509.44,1984.68,-31322.79,-9116.955,-8268.345,-28297.215,2571.345,10036.665
1764768854.243679,5497.065,1972.26,-31335.39,-9129.465,-8280.675,-28310.175,2560.995,10023.84
1764768854.243679,5492.835,1968.39,-31338.54,-9132.435,-8284.32,-28313.64,2556.495,10019.655
1764768854.243679,5499.36,1974.825,-31331.97,-9125.55,-8278.199999999999,-28307.115,2561.085,10025.82
1764768854.243679,5494.905,1968.885,-31338.18,-9131.22,-8283.51,-28312.155,2556.585,10019.745
1764768854.243679,5502.15,1976.22,-31331.745,-9123.57,-8275.994999999999,-28304.37,2562.435,10026.225
1764768854.244691,5498.145,1971.585,-31335.975,-9127.89,-8280.09,-28308.42,2558.655,10021.815
1764768854.244691,5495.445,1969.02,-31337.64,-9130.995,-8283.06,-28312.155,2555.91,10018.755
1764768854.244691,5496.795,1969.695,-31336.29,-9130.005,-8281.44,-28310.175,2558.565,10021.23
1764768854.244691,5502.96,1977.255,-31328.37,-9122.67,-8273.835,-28302.21,2566.485,10029.195
1764768854.244691,5508.585,1984.41,-31321.755,-9115.74,-8267.445,-28295.955,2572.2,10035.54
1764768854.244691,5499.585,1975.365,-31330.98,-9124.605,-8276.175,-28305.18,2563.47,10025.235
1764768854.2910497,5504.67,1979.955,-31325.67,-9120.33,-8272.845,-28301.265,2566.845,10029.735
1764768854.2910497,5499.36,1973.655,-31333.68,-9127.98,-8281.395,-28308.24,2561.49,10023.57
1764768854.2910497,5496.48,1969.515,-31337.415,-9130.59,-8282.25,-28309.005,2558.25,10019.745
1764768854.2910497,5497.155,1970.235,-31335.39,-9128.025,-8279.55,-28305.99,2557.8,10019.835
1764768854.2910497,5491.035,1964.205,-31341.87,-9134.28,-8286.705,-28313.145,2552.94,10013.94
1764768854.2910497,5492.115,1966.545,-31338.9,-9132.165,-8284.455,-28311.255,2555.01,10016.64
1764768854.2910497,5503.094999999999,1979.01,-31327.245,-9120.24,-8272.845,-28299.195,2565.945,10028.745
1764768854.2910497,5504.849999999999,1981.26,-31325.355,-9118.62,-8271.045,-28297.755,2568.375,10031.31
1764768854.2910497,5503.185,1979.1,-31327.47,-9121.275,-8272.755,-28300.095,2566.08,10029.33
1764768854.2910497,5498.685,1973.97,-31332.375,-9125.64,-8277.48,-28304.505,2560.95,10024.65
1764768854.291554,5496.66,1970.595,-31334.805,-9128.07,-8280.494999999999,-28306.98,2558.385,10021.905
1764768854.291554,5490.719999999999,1963.53,-31341.15,-9133.785,-8285.94,-28312.74,2552.22,10014.075
1764768854.291554,5483.565,1955.295,-31350.24,-9142.92,-8295.164999999999,-28321.065,2545.29,10006.47
1764768854.291554,5485.455,1957.95,-31347.18,-9139.725,-8292.42,-28317.105,2547.855,10009.35
1764768854.291554,5494.995,1967.715,-31336.515,-9128.43,-8279.955,-28306.62,2556.36,10019.025
1764768854.291554,5497.56,1970.325,-31334.445,-9126.945,-8280.765,-28308.375,2557.665,10020.735
1764768854.291554,5490.45,1963.665,-31340.88,-9133.47,-8286.345,-28313.64,2552.76,10014.48
1764768854.291554,5491.71,1965.78,-31338.765,-9129.915,-8282.789999999999,-28309.68,2555.055,10016.685
1764768854.291554,5499.45,1975.05,-31329.585,-9120.6,-8272.845,-28300.905,2563.38,10025.73
1764768854.291554,5490.855,1964.7,-31340.25,-9132.075,-8284.32,-28311.66,2554.11,10016.415
1764768854.291554,5491.08,1964.34,-31340.655,-9132.12,-8285.13,-28311.345,2553.12,10015.695
1764768854.291554,5486.895,1959.705,-31345.515,-9136.62,-8289.765,-28316.295,2549.52,10010.835
1764768854.291554,5487.705,1959.93,-31345.065,-9136.305,-8289.135,-28315.215,2550.195,10011.285
1764768854.291554,5486.535,1958.535,-31346.73,-9137.475,-8290.619999999999,-28316.385,2548.26,10009.44
1764768854.3373442,5485.41,1957.365,-31347.99,-9138.6,-8292.375,-28317.87,2547.585,10008.585
1764768854.3373442,5493.78,1966.095,-31338.99,-9130.59,-8283.555,-28309.86,2555.73,10017.54
1764768854.3373442,5490.945,1965.33,-31339.62,-9131.85,-8283.6,-28310.805,2555.505,10016.82
1764768854.3373442,5500.935,1976.535,-31328.82,-9121.365,-8271.81,-28299.645,2566.755,10029.105
1764768854.3373442,5504.625,1980.27,-31325.49,-9118.62,-8270.414999999999,-28298.475,2570.445,10032.435
1764768854.3373442,5492.655,1966.815,-31338.72,-9132.84,-8286.029999999999,-28314.45,2557.17,10018.305
1764768854.3373442,5488.92,1962.18,-31341.69,-9135.585,-8287.695,-28315.17,2553.615,10014.345
1764768854.3373442,5490.315,1963.755,-31340.16,-9132.93,-8284.23,-28311.885,2555.37,10015.11
1764768854.3373442,5496.705,1969.605,-31334.535,-9127.08,-8278.92,-28305.9,2560.635,10021.32
1764768854.3373442,5509.665,1983.24,-31320.945,-9113.625,-8265.465,-28291.455,2572.515,10034.415
1764768854.3373442,5513.219999999999,1987.02,-31316.895,-9109.89,-8262.045,-28288.08,2576.835,10038.33
1764768854.3373442,5509.755,1984.095,-31320.405,-9114.75,-8267.22,-28293.48,2574.63,10036.08
1764768854.3373442,5515.56,1989.945,-31315.05,-9109.98,-8261.46,-28287.405,2580.57,10042.785
1764768854.3373442,5515.74,1991.205,-31313.61,-9106.965,-8257.185,-28284.57,2581.56,10042.83
1764768854.3373442,5516.28,1991.07,-31313.205,-9107.1,-8257.725,-28285.245,2581.785,10043.955
1764768854.3373442,5512.77,1987.245,-31316.445,-9110.925,-8261.64,-28289.655,2578.32,10040.49
1764768854.3373442,5505.435,1978.92,-31325.58,-9119.52,-8269.289999999999,-28297.89,2570.76,10031.895
1764768854.3373442,5507.73,1980.135,-31325.04,-9120.33,-8270.505,-28298.7,2571.03,10034.235
1764768854.3373442,5498.955,1971.0,-31332.825,-9128.385,-8279.91,-28307.52,2562.255,10024.335
1764768854.3373442,5495.085,1966.095,-31338.09,-9133.11,-8284.815,-28311.165,2557.035,10019.43
1764768854.3373442,5495.715,1967.13,-31336.965,-9132.21,-8283.735,-28309.995,2557.755,10021.005
1764768854.3373442,5502.78,1974.915,-31329.405,-9125.64,-8276.715,-28303.515,2563.83,10028.07
1764768854.3845062,5500.215,1973.61,-31330.8,-9127.08,-8277.975,-28305.675,2564.01,10025.955
1764768854.3845062,5510.25,1983.6,-31319.955,-9116.01,-8267.13,-28295.055,2574.99,10037.745
1764768854.3845062,5507.37,1979.595,-31324.59,-9120.465,-8271.449999999999,-28299.78,2571.255,10034.64
1764768854.3845062,5491.844999999999,1963.17,-31341.915,-9137.34,-8288.64,-28317.015,2554.695,10018.17
1764768854.3845062,5496.48,1966.86,-31337.73,-9133.02,-8283.914999999999,-28311.75,2558.115,10022.58
1764768854.3845062,5495.535,1966.455,-31336.965,-9131.355,-8281.619999999999,-28309.365,2557.485,10020.375
1764768854.3845062,5492.969999999999,1964.385,-31339.305,-9134.28,-8286.074999999999,-28313.145,2553.66,10016.055
1764768854.3845062,5485.95,1957.455,-31345.875,-9141.255,-8293.14,-28319.31,2547.945,10009.035
1764768854.3845062,5488.245,1958.535,-31345.155,-9139.905,-8291.385,-28316.925,2549.925,10010.7
1764768854.3845062,5491.215,1961.91,-31341.87,-9136.8,-8288.235,-28313.19,2553.255,10014.57
1764768854.3845062,5499.045,1971.945,-31332.555,-9127.53,-8278.38,-28304.55,2560.905,10024.335
1764768854.3845062,5502.42,1974.375,-31329.315,-9124.875,-8276.58,-28304.55,2565.27,10028.745
1764768854.3845062,5503.23,1975.68,-31329.135,-9124.425,-8276.58,-28305.135,2566.935,10029.24
1764768854.3845062,5493.285,1965.51,-31339.53,-9134.415,-8285.94,-28312.965,2557.935,10018.575
1764768854.3845062,5497.92,1970.73,-31334.13,-9128.79,-8281.215,-28306.89,2561.535,10022.76
1764768854.3845062,5491.935,1963.485,-31340.61,-9135.27,-8288.775,-28313.955,2555.28,10015.875
1764768854.3845062,5494.005,1964.655,-31340.115,-9134.595,-8287.83,-28313.28,2554.83,10016.37
1764768854.3845062,5488.469999999999,1959.3,-31344.165,-9137.88,-8291.07,-28317.285,2550.465,10010.925
1764768854.3845062,5497.83,1968.48,-31334.985,-9128.25,-8280.63,-28306.755,2560.5,10021.635
1764768854.3845062,5494.455,1965.105,-31338.63,-9132.075,-8286.119999999999,-28312.065,2557.98,10018.755
1764768854.3845062,5494.95,1966.995,-31335.93,-9129.645,-8281.935,-28308.105,2560.68,10020.735
1764768854.3845062,5503.094999999999,1976.31,-31327.02,-9120.96,-8273.25,-28299.645,2569.005,10029.555
1764768854.4347107,5515.695,1989.315,-31314.87,-9109.755,-8262.27,-28288.305,2581.245,10043.46
1764768854.4347107,5508.81,1981.665,-31323.015,-9118.08,-8269.785,-28295.64,2575.26,10036.89
1764768854.4347107,5510.61,1983.69,-31320.405,-9113.715,-8265.465,-28291.95,2574.72,10036.845
1764768854.4347107,5504.985,1976.94,-31325.49,-9118.665,-8271.36,-28298.115,2568.375,10029.825
1764768854.4347107,5493.554999999999,1964.52,-31338.72,-9132.345,-8285.355,-28311.03,2557.53,10017.135
1764768854.4347107,5488.92,1958.58,-31344.12,-9136.845,-8289.945,-28315.215,2552.22,10012.275
1764768854.4347107,5491.215,1960.47,-31342.635,-9135.0,-8289.045,-28313.82,2554.38,10015.11
1764768854.4347107,5493.24,1962.63,-31340.745,-9132.615,-8287.47,-28311.93,2556.045,10017.135
1764768854.4347107,5500.26,1970.91,-31332.465,-9124.74,-8279.775,-28304.73,2562.885,10025.685
1764768854.4347107,5497.514999999999,1967.67,-31334.625,-9126.36,-8280.539999999999,-28306.62,2561.13,10023.3
1764768854.4347107,5498.955,1967.85,-31334.445,-9126.27,-8279.865,-28305.09,2562.435,10024.695
1764768854.4347107,5492.835,1961.01,-31340.295,-9132.39,-8286.029999999999,-28311.48,2555.235,10018.035
1764768854.4347107,5494.139999999999,1962.495,-31338.99,-9131.04,-8284.949999999999,-28310.535,2556.9,10018.71
1764768854.4347107,5498.685,1967.31,-31334.31,-9125.865,-8279.685,-28304.82,2560.905,10022.4
1764768854.4347107,5507.73,1976.31,-31326.3,-9118.305,-8271.945,-28296.405,2568.375,10031.985
1764768854.4347107,5506.785,1975.23,-31326.66,-9118.98,-8273.835,-28297.98,2567.385,10030.68
1764768854.4347107,5500.62,1969.785,-31332.42,-9124.515,-8280.09,-28303.515,2562.3,10024.56
1764768854.4347107,5509.62,1979.865,-31322.565,-9114.57,-8270.055,-28293.21,2571.255,10035.18
1764768854.4347107,5502.51,1972.44,-31328.91,-9120.87,-8275.904999999999,-28298.835,2564.46,10029.24
1764768854.4347107,5498.415,1968.12,-31331.925,-9124.47,-8279.369999999999,-28302.84,2560.905,10025.01
1764768854.4347107,5496.66,1965.645,-31333.995,-9126.135,-8282.025,-28305.405,2559.555,10023.885
1764768854.4347107,5489.46,1957.635,-31342.455,-9134.01,-8290.574999999999,-28313.91,2552.13,10015.965
1764768854.4347107,5485.679999999999,1954.305,-31345.515,-9137.565,-8294.039999999999,-28317.78,2550.51,10012.23
1764768854.4347107,5487.21,1954.935,-31344.57,-9136.26,-8292.42,-28316.115,2550.87,10013.445
1764768854.4777884,5498.55,1966.995,-31332.915,-9124.83,-8281.395,-28305.225,2560.005,10024.38
1764768854.4777884,5498.145,1966.23,-31334.58,-9126.0,-8282.34,-28305.765,2560.815,10023.615
1764768854.4777884,5502.599999999999,1970.37,-31329.765,-9120.735,-8277.39,-28301.22,2565.315,10028.43
1764768854.4777884,5496.705,1964.385,-31335.03,-9126.27,-8283.105,-28306.845,2560.14,10022.94
1764768854.4777884,5503.905,1972.53,-31327.47,-9118.665,-8274.645,-28298.79,2566.935,10031.175
1764768854.4777884,5505.66,1974.645,-31326.21,-9117.135,-8273.25,-28297.8,2569.905,10033.335
1764768854.4777884,5494.23,1962.36,-31337.145,-9127.8,-8284.23,-28308.87,2557.305,10021.14
1764768854.4777884,5479.92,1947.78,-31351.95,-9143.28,-8300.205,-28324.62,2543.67,10006.245
1764768854.4777884,5487.03,1954.845,-31345.83,-9136.845,-8293.904999999999,-28318.905,2549.655,10012.5
1764768854.4777884,5483.52,1950.345,-31349.34,-9140.445,-8296.83,-28321.38,2546.685,10007.955
1764768854.4777884,5487.705,1954.665,-31344.93,-9136.215,-8292.06,-28316.34,2550.285,10011.915
1764768854.4782944,5481.0,1946.925,-31353.345,-9144.27,-8300.565,-28324.08,2543.355,10004.31
1764768854.4782944,5480.594999999999,1945.035,-31355.055,-9146.16,-8302.86,-28325.88,2541.33,10003.545
1764768854.4782944,5488.29,1955.61,-31345.425,-9135.945,-8292.33,-28316.43,2549.385,10013.535
1764768854.4782944,5486.76,1955.745,-31345.29,-9135.855,-8292.105,-28316.025,2550.96,10013.22
1764768854.4782944,5494.545,1964.295,-31337.235,-9128.79,-8285.895,-28310.31,2559.555,10022.445
1764768854.4782944,5509.349999999999,1980.135,-31320.405,-9110.385,-8265.69,-28290.78,2575.71,10039.23
1764768854.4782944,5505.705,1977.03,-31323.285,-9113.085,-8267.58,-28292.805,2573.1,10035.585
1764768854.4782944,5511.06,1982.25,-31318.695,-9109.215,-8264.654999999999,-28288.845,2577.06,10040.445
1764768854.4782944,5503.679999999999,1973.25,-31327.47,-9116.955,-8273.16,-28296.9,2569.365,10030.5
1764768854.4782944,5500.395,1968.435,-31332.555,-9120.555,-8277.93,-28301.265,2565.135,10025.64
1764768854.4782944,5509.17,1977.21,-31324.365,-9113.13,-8270.82,-28292.805,2572.47,10034.595
1764768854.4782944,5510.474999999999,1978.875,-31322.655,-9112.005,-8269.02,-28291.635,2573.595,10035.585
1764768854.4782944,5502.33,1969.695,-31330.44,-9120.33,-8276.94,-28300.455,2566.755,10027.485
1764768854.5246158,5497.605,1965.555,-31334.85,-9124.155,-8280.99,-28304.37,2563.515,10023.525
1764768854.5246158,5499.09,1968.615,-31332.195,-9121.32,-8278.47,-28302.525,2566.305,10026.135
1764768854.5259025,5505.66,1975.77,-31326.03,-9115.29,-8271.855,-28296.855,2571.345,10033.92
1764768854.5259025,5496.66,1966.41,-31335.48,-9125.145,-8282.295,-28306.935,2562.57,10024.56
1764768854.5259025,5498.82,1968.615,-31333.5,-9121.995,-8280.135,-28305.0,2562.48,10025.64
1764768854.5259025,5498.235,1966.545,-31335.975,-9124.695,-8282.295,-28306.395,2559.33,10023.12
1764768854.5259025,5493.375,1958.535,-31343.67,-9131.985,-8290.305,-28313.595,2553.165,10017.045
1764768854.5259025,5488.605,1954.395,-31347.765,-9136.215,-8294.175,-28318.23,2548.305,10011.735
1764768854.5259025,5479.65,1945.53,-31356.765,-9145.26,-8302.23,-28326.24,2541.555,10003.005
1764768854.5259025,5475.735,1942.83,-31359.87,-9147.915,-8305.425,-28329.12,2539.035,9999.9
1764768854.5259025,5479.11,1947.375,-31355.595,-9143.73,-8302.095,-28325.565,2543.31,10004.805
1764768854.5259025,5492.88,1963.26,-31341.015,-9129.555,-8288.91,-28314.315,2556.72,10020.105
1764768854.5259025,5503.005,1973.655,-31330.575,-9119.25,-8277.48,-28303.605,2568.015,10031.04
1764768854.5259025,5490.719999999999,1960.245,-31342.905,-9131.67,-8288.82,-28314.765,2556.9,10018.8
1764768854.5259025,5493.87,1962.81,-31340.295,-9128.655,-8285.535,-28312.2,2557.305,10021.185
1764768854.5259025,5494.23,1962.585,-31340.565,-9128.88,-8285.85,-28311.57,2556.945,10021.05
1764768854.5259025,5487.3,1954.17,-31348.62,-9137.115,-8294.13,-28319.355,2549.7,10012.095
1764768854.5259025,5490.719999999999,1957.635,-31345.02,-9133.335,-8289.945,-28315.215,2552.715,10015.47
1764768854.5259025,5487.66,1953.765,-31348.89,-9137.34,-8294.31,-28319.445,2550.42,10013.31
1764768854.5259025,5495.13,1962.9,-31338.855,-9127.17,-8283.869999999999,-28308.735,2557.71,10021.905
1764768854.5259025,5495.31,1963.98,-31337.82,-9126.72,-8282.295,-28308.195,2558.655,10023.48
1764768854.5259025,5490.135,1958.445,-31343.13,-9131.76,-8287.02,-28313.415,2555.235,10019.07
1764768854.5259025,5493.96,1962.405,-31338.54,-9127.35,-8282.97,-28309.77,2557.395,10022.625
1764768854.5259025,5488.02,1955.79,-31345.695,-9133.92,-8289.945,-28316.34,2550.825,10016.145
1764768854.5719738,5477.535,1944.81,-31356.495,-9144.585,-8300.789999999999,-28327.185,2541.105,10005.075
1764768854.5719738,5481.495,1948.23,-31352.58,-9141.39,-8297.73,-28323.09,2544.615,10007.955
1764768854.5719738,5490.54,1957.905,-31343.715,-9132.705,-8288.82,-28313.01,2554.425,10017.63
1764768854.5719738,5491.035,1958.58,-31342.68,-9131.445,-8288.64,-28312.065,2555.055,10018.08
1764768854.5719738,5499.945,1966.77,-31334.13,-9124.02,-8280.63,-28304.055,2561.895,10026.855
1764768854.5719738,5502.06,1969.785,-31330.62,-9119.565,-8276.039999999999,-28300.59,2564.46,10028.565
1764768854.5719738,5495.49,1963.89,-31336.515,-9125.64,-8282.07,-28307.07,2559.915,10021.86
1764768854.5719738,5498.91,1967.985,-31332.78,-9122.355,-8278.289999999999,-28304.1,2564.325,10026.63
1764768854.5719738,5515.695,1985.805,-31316.13,-9104.22,-8259.39,-28285.965,2581.11,10044.945
1764768854.5719738,5517.179999999999,1987.245,-31315.545,-9103.905,-8259.255,-28285.83,2583.045,10046.16
1764768854.5719738,5513.264999999999,1982.025,-31320.45,-9108.495,-8264.475,-28291.32,2579.22,10040.445
1764768854.5719738,5517.224999999999,1985.4,-31316.265,-9105.84,-8262.09,-28288.395,2581.56,10044.81
1764768854.5719738,5507.955,1976.67,-31325.31,-9114.975,-8271.404999999999,-28298.43,2571.93,10035.0
1764768854.5719738,5513.715,1981.215,-31320.54,-9109.935,-8266.14,-28291.77,2575.125,10040.04
1764768854.5719738,5515.469999999999,1982.745,-31318.515,-9107.595,-8264.295,-28288.035,2577.06,10042.47
1764768854.5719738,5516.37,1983.78,-31317.345,-9106.74,-8262.63,-28288.035,2578.23,10043.91
1764768854.5719738,5517.224999999999,1986.12,-31315.23,-9104.535,-8260.289999999999,-28286.28,2579.805,10046.25
1764768854.5719738,5523.66,1993.14,-31308.84,-9097.965,-8254.395,-28279.395,2588.445,10054.305
1764768854.5719738,5527.665,1997.64,-31303.935,-9092.7,-8249.039999999999,-28274.715,2593.665,10059.21
1764768854.5719738,5518.53,1987.965,-31313.925,-9102.69,-8259.255,-28285.02,2584.755,10049.04
1764768854.5719738,5524.245,1992.96,-31309.155,-9097.155,-8254.26,-28279.845,2588.67,10054.53
1764768854.5719738,5525.73,1993.68,-31309.065,-9096.84,-8253.27,-28278.54,2589.165,10054.935
1764768854.6190534,5523.03,1990.305,-31312.62,-9100.17,-8256.195,-28281.51,2584.98,10050.93
1764768854.6190534,5518.17,1984.32,-31317.57,-9105.21,-8260.875,-28285.965,2581.11,10044.63
1764768854.6190534,5524.785,1991.745,-31311.18,-9098.19,-8254.125,-28279.215,2586.51,10052.01
1764768854.6190534,5521.23,1988.37,-31314.285,-9101.61,-8256.914999999999,-28282.14,2583.855,10049.13
1764768854.6190534,5522.94,1990.395,-31311.63,-9099.63,-8254.845,-28280.7,2586.78,10052.01
1764768854.6190534,5523.705,1992.285,-31309.02,-9096.615,-8251.875,-28278.27,2588.76,10054.26
1764768854.6190534,5514.84,1982.745,-31317.48,-9104.805,-8260.83,-28287.45,2579.94,10045.035
1764768854.6190534,5503.23,1970.1,-31330.305,-9117.855,-8274.465,-28300.86,2567.97,10032.57
1764768854.6190534,5496.57,1963.035,-31337.64,-9125.46,-8282.25,-28308.69,2561.04,10024.83
1764768854.6201367,5505.255,1971.36,-31330.08,-9117.54,-8274.195,-28300.32,2567.79,10032.435
1764768854.6201367,5508.81,1974.015,-31327.2,-9114.795,-8271.99,-28298.115,2570.4,10034.01
1764768854.6201367,5502.645,1967.49,-31333.005,-9120.87,-8278.47,-28303.515,2565.36,10027.575
1764768854.6201367,5507.594999999999,1973.52,-31327.29,-9114.3,-8272.619999999999,-28296.99,2570.31,10033.875
1764768854.6201367,5501.88,1969.065,-31332.105,-9119.115,-8276.85,-28301.985,2567.52,10028.925
1764768854.6201367,5502.465,1969.875,-31331.34,-9119.565,-8277.164999999999,-28302.525,2568.015,10030.77
1764768854.6201367,5507.28,1974.69,-31327.425,-9116.73,-8275.005,-28299.555,2573.1,10036.26
1764768854.6201367,5519.835,1988.595,-31311.99,-9100.665,-8257.095,-28283.265,2585.52,10049.49
1764768854.6206446,5518.935,1987.785,-31311.135,-9099.54,-8255.205,-28281.915,2585.205,10049.13
1764768854.6206446,5518.8,1985.805,-31314.24,-9102.78,-8259.119999999999,-28284.975,2584.305,10048.23
1764768854.6206446,5518.485,1985.13,-31315.635,-9103.365,-8260.065,-28285.245,2582.055,10046.925
1764768854.6206446,5516.19,1982.7,-31316.94,-9104.49,-8262.09,-28285.83,2580.075,10044.72
1764768854.6206446,5510.115,1976.58,-31322.565,-9110.295,-8268.345,-28291.005,2575.035,10038.69
1764768854.6206446,5519.025,1984.77,-31314.015,-9102.645,-8259.57,-28281.69,2582.595,10047.015
1764768854.6206446,5515.605,1982.16,-31315.95,-9105.39,-8261.1,-28284.165,2580.885,10044.18
1764768854.6206446,5508.179999999999,1975.14,-31323.465,-9113.895,-8271.27,-28295.73,2573.28,10037.205
1764768854.6206446,5514.03,1980.945,-31317.345,-9107.01,-8264.52,-28289.34,2580.075,10044.135
1764768854.667862,5516.37,1983.96,-31313.655,-9102.87,-8259.029999999999,-28284.075,2584.395,10046.925
1764768854.667862,5504.94,1972.35,-31325.13,-9115.38,-8271.494999999999,-28295.64,2573.46,10035.27
1764768854.667862,5506.65,1974.195,-31323.78,-9114.345,-8271.18,-28294.56,2574.27,10037.16
1764768854.667862,5514.795,1981.8,-31315.77,-9105.705,-8262.18,-28286.19,2579.805,10044.81
1764768854.667862,5517.945,1983.78,-31314.375,-9103.995,-8259.525,-28283.49,2581.785,10046.88
1764768854.667862,5517.135,1982.385,-31315.86,-9105.39,-8261.82,-28286.1,2579.49,10043.775
1764768854.667862,5514.344999999999,1980.135,-31317.84,-9107.235,-8262.9,-28287.27,2577.555,10041.57
1764768854.667862,5509.755,1975.86,-31321.845,-9112.635,-8268.21,-28293.12,2573.415,10037.295
1764768854.667862,5517.54,1985.265,-31311.99,-9103.23,-8258.31,-28284.12,2582.235,10046.52
1764768854.667862,5517.224999999999,1985.085,-31313.565,-9105.345,-8259.66,-28285.965,2583.81,10047.51
1764768854.667862,5526.224999999999,1995.165,-31303.44,-9094.77,-8249.355,-28277.145,2592.855,10057.545
1764768854.667862,5525.19,1993.815,-31304.385,-9096.12,-8250.885,-28279.395,2590.245,10056.06
1764768854.667862,5517.224999999999,1984.86,-31313.16,-9104.94,-8259.84,-28287.495,2582.685,10047.555
1764768854.667862,5520.735,1987.155,-31311.18,-9103.32,-8257.725,-28285.425,2583.36,10048.905
1764768854.667862,5515.469999999999,1980.18,-31317.705,-9110.565,-8263.89,-28291.59,2578.455,10042.335
1764768854.667862,5513.76,1978.02,-31319.55,-9112.32,-8266.095,-28293.705,2577.015,10040.67
1764768854.667862,5513.04,1977.48,-31320.36,-9112.905,-8267.715,-28294.74,2576.07,10039.905
1764768854.667862,5518.98,1984.86,-31313.025,-9105.12,-8261.414999999999,-28288.215,2582.145,10047.105
1764768854.667862,5513.985,1980.945,-31316.895,-9109.08,-8264.61,-28292.22,2579.355,10043.145
1764768854.667862,5517.585,1986.165,-31312.44,-9104.22,-8260.02,-28287.585,2584.935,10048.365
1764768854.667862,5532.344999999999,2002.095,-31297.275,-9089.37,-8245.619999999999,-28273.77,2599.47,10064.655
1764768854.667862,5522.355,1991.07,-31308.165,-9100.305,-8256.195,-28284.39,2589.39,10053.225
1764768854.714342,5522.76,1990.17,-31308.84,-9101.115,-8256.96,-28284.66,2588.31,10052.64
1764768854.714342,5524.785,1991.745,-31306.725,-9099.315,-8255.16,-28282.275,2589.525,10055.115
1764768854.714342,5528.429999999999,1995.255,-31303.665,-9096.03,-8252.1,-28279.71,2590.515,10057.905
1764768854.714342,5519.295,1985.535,-31313.7,-9104.85,-8261.73,-28290.06,2582.46,10047.285
1764768854.714342,5519.655,1984.725,-31314.105,-9106.335,-8262.09,-28290.015,2583.9,10047.195
1764768854.714342,5521.635,1987.11,-31311.315,-9103.995,-8259.75,-28287.72,2586.87,10049.94
1764768854.714342,5524.695,1990.935,-31308.12,-9099.54,-8255.34,-28282.995,2590.11,10054.125
1764768854.714342,5532.66,2000.295,-31299.165,-9090.495,-8246.43,-28272.825,2598.66,10064.07
1764768854.714342,5534.099999999999,2001.285,-31299.03,-9091.53,-8248.005,-28273.095,2601.18,10065.96
1764768854.714342,5527.035,1993.995,-31305.6,-9097.74,-8252.64,-28278.18,2593.98,10057.995
1764768854.714342,5523.929999999999,1991.07,-31306.635,-9098.1,-8252.324999999999,-28279.08,2588.895,10052.19
1764768854.714342,5518.575,1985.04,-31313.655,-9104.715,-8259.75,-28285.965,2584.395,10046.655
1764768854.714342,5524.38,1990.305,-31308.84,-9099.315,-8254.305,-28279.395,2589.57,10052.37
1764768854.714342,5517.09,1982.61,-31316.94,-9106.695,-8262.225,-28286.91,2582.37,10045.665
1764768854.714342,5523.48,1989.225,-31310.73,-9100.35,-8255.385,-28280.295,2588.175,10053.18
1764768854.714342,5518.53,1984.95,-31314.105,-9103.77,-8258.355,-28283.445,2585.205,10048.77
1764768854.714342,5526.045,1993.77,-31306.005,-9096.21,-8250.57,-28275.795,2592.405,10056.87
1764768854.714342,5534.73,2002.95,-31296.87,-9087.12,-8240.895,-28266.615,2601.945,10067.265
1764768854.714342,5538.96,2007.045,-31293.495,-9083.475,-8237.475,-28262.745,2606.715,10071.36
1764768854.714342,5526.224999999999,1993.77,-31307.355,-9097.92,-8252.369999999999,-28277.775,2593.395,10057.905
1764768854.714342,5529.645,1996.92,-31303.935,-9093.645,-8247.375,-28271.88,2596.32,10061.595
1764768854.714342,5522.175,1988.955,-31312.08,-9101.205,-8255.25,-28279.305,2589.66,10053.27
1764768854.7616837,5522.49,1988.955,-31311.27,-9099.99,-8253.99,-28278.405,2589.21,10053.36
1764768854.762197,5534.505,2001.96,-31297.905,-9086.805,-8241.795,-28265.985,2599.245,10064.565
1764768854.762197,5537.205,2005.335,-31294.035,-9084.015,-8238.465,-28262.7,2601.81,10067.805
1764768854.762197,5529.51,1997.595,-31301.325,-9091.89,-8245.485,-28270.26,2597.04,10061.01
1764768854.762197,5531.985,1999.26,-31300.38,-9090.405,-8243.595,-28267.605,2600.595,10064.79
1764768854.762197,5547.33,2015.46,-31284.765,-9074.34,-8227.755,-28252.62,2613.6,10080.585
1764768854.762197,5551.785,2020.635,-31279.455,-9068.805,-8221.365,-28246.185,2618.775,10085.85
1764768854.762197,5545.485,2015.325,-31285.35,-9074.025,-8226.765,-28250.595,2614.455,10079.685
1764768854.762197,5556.78,2026.845,-31274.37,-9062.865,-8215.695,-28239.885,2625.21,10090.62
1764768854.762197,5552.91,2021.49,-31278.78,-9067.23,-8220.33,-28245.105,2620.485,10084.545
1764768854.762197,5558.76,2026.53,-31272.66,-9061.515,-8213.895,-28238.085,2624.805,10089.765
1764768854.762197,5551.38,2018.88,-31282.02,-9070.965,-8224.289999999999,-28247.355,2618.145,10082.025
1764768854.762197,5555.295,2023.605,-31276.665,-9066.195,-8219.699999999999,-28245.015,2622.78,10086.615
1764768854.762197,5554.98,2023.74,-31276.53,-9065.79,-8218.98,-28244.07,2623.545,10087.2
1764768854.762197,5559.795,2029.68,-31271.67,-9061.65,-8214.48,-28239.12,2628.765,10093.905
1764768854.762197,5571.179999999999,2042.595,-31258.845,-9047.655,-8199.225,-28224.945,2640.735,10106.64
1764768854.762197,5580.179999999999,2053.17,-31247.145,-9035.19,-8185.95,-28213.29,2650.32,10115.505
1764768854.762197,5574.33,2047.005,-31252.41,-9042.12,-8193.195,-28220.22,2644.47,10108.8
1764768854.762197,5566.32,2036.97,-31262.445,-9051.975,-8203.59,-28230.03,2636.235,10099.89
1764768854.762197,5571.675,2041.245,-31258.215,-9047.205,-8199.0,-28225.71,2639.565,10104.48
1764768854.762197,5570.099999999999,2039.76,-31260.465,-9048.96,-8200.8,-28226.295,2637.225,10102.23
1764768854.762197,5565.735,2034.945,-31265.19,-9054.045,-8205.705,-28230.66,2631.78,10096.92
1764768854.762197,5566.41,2035.935,-31263.705,-9052.56,-8204.715,-28229.04,2633.265,10097.37
1764768854.762197,5568.12,2039.13,-31260.285,-9048.96,-8200.98,-28226.655,2637.09,10100.79
1764768854.8057194,5571.495,2042.82,-31256.55,-9045.045,-8196.615,-28222.965,2641.275,10105.335
1764768854.8057194,5569.469999999999,2041.155,-31258.395,-9047.07,-8198.73,-28225.17,2640.285,10104.705
1764768854.8057194,5567.219999999999,2038.95,-31260.825,-9049.68,-8202.42,-28228.005,2637.945,10102.905
1764768854.8057194,5557.094999999999,2028.195,-31271.22,-9060.03,-8213.265,-28239.3,2628.99,10092.42
1764768854.8057194,5560.02,2031.21,-31268.43,-9056.565,-8209.215,-28235.52,2631.51,10094.76
1764768854.8057194,5570.415,2041.335,-31258.35,-9046.44,-8199.63,-28224.27,2639.925,10105.11
1764768854.8057194,5575.23,2045.16,-31255.245,-9044.055,-8197.65,-28221.525,2642.895,10109.475
1764768854.8057194,5570.91,2040.615,-31258.395,-9047.565,-8200.08,-28224.99,2638.035,10103.895
1764768854.8057194,5560.11,2029.455,-31269.375,-9058.32,-8209.98,-28234.305,2629.125,10093.365
1764768854.8057194,5554.889999999999,2023.92,-31274.955,-9063.72,-8215.965,-28240.38,2624.355,10088.91
1764768854.8057194,5555.655,2025.585,-31273.47,-9062.37,-8215.244999999999,-28240.515,2625.165,10090.71
1764768854.8057194,5569.695,2040.93,-31258.305,-9046.26,-8199.045,-28224.63,2639.745,10106.82
1764768854.8057194,5577.165,2049.21,-31250.34,-9038.745,-8190.855,-28216.035,2647.665,10114.875
1764768854.8057194,5572.844999999999,2044.485,-31254.48,-9043.92,-8196.255,-28220.715,2644.11,10110.555
1764768854.8057194,5561.37,2031.795,-31267.53,-9057.15,-8209.305,-28234.395,2631.96,10096.785
1764768854.8057194,5555.07,2024.64,-31274.01,-9063.405,-8215.83,-28241.55,2623.86,10088.37
1764768854.8057194,5558.76,2026.305,-31272.12,-9062.28,-8213.895,-28239.165,2626.56,10091.43
1764768854.8057194,5566.094999999999,2032.875,-31265.775,-9055.98,-8207.82,-28232.64,2632.815,10098.81
1764768854.8057194,5566.77,2033.82,-31264.965,-9055.215,-8207.145,-28232.82,2632.23,10099.485
1764768854.8057194,5561.775,2029.455,-31269.42,-9059.355,-8211.24,-28236.78,2628.045,10094.94
1764768854.8057194,5555.52,2024.01,-31274.91,-9064.62,-8216.82,-28242.045,2624.22,10089.81
1764768854.8057194,5566.185,2035.44,-31263.075,-9052.56,-8204.67,-28230.615,2635.83,10101.78
1764768854.8057194,5569.469999999999,2038.5,-31259.43,-9049.455,-8200.98,-28227.42,2639.16,10104.975
1764768854.8057194,5558.67,2027.43,-31270.23,-9060.255,-8211.51,-28237.815,2629.395,10094.04
1764768854.852538,5551.29,2019.195,-31278.555,-9068.22,-8219.565,-28245.195,2621.835,10085.22
1764768854.852538,5561.505,2029.815,-31267.755,-9057.105,-8208.81,-28233.9,2630.43,10095.66
1764768854.852538,5563.485,2031.57,-31266.72,-9055.305,-8206.965,-28231.155,2631.33,10096.965
1764768854.852538,5560.695,2028.33,-31269.465,-9058.32,-8210.295,-28235.025,2627.325,10093.545
1764768854.8530514,5552.73,2020.41,-31276.98,-9066.195,-8218.26,-28243.08,2620.8,10086.255
1764768854.8530514,5552.46,2021.67,-31276.125,-9064.53,-8215.74,-28241.28,2622.195,10087.38
1764768854.8530514,5554.08,2024.28,-31273.38,-9062.46,-8212.904999999999,-28238.085,2625.21,10091.34
1764768854.8530514,5561.01,2032.02,-31266.27,-9054.99,-8205.029999999999,-28230.39,2631.78,10098.945
1764768854.8530514,5563.844999999999,2034.09,-31263.21,-9051.93,-8201.385,-28228.14,2634.255,10101.06
1764768854.8530514,5555.205,2024.775,-31271.805,-9060.885,-8211.015,-28237.815,2625.57,10091.745
1764768854.8530514,5559.57,2029.23,-31267.89,-9056.07,-8206.74,-28232.82,2628.045,10096.02
1764768854.8530514,5552.73,2021.49,-31275.54,-9063.225,-8213.85,-28239.525,2620.935,10087.2
1764768854.8530514,5559.12,2025.405,-31271.535,-9059.175,-8210.43,-28234.395,2624.58,10092.06
1764768854.8530514,5558.985,2024.01,-31273.065,-9061.065,-8212.815,-28236.645,2623.185,10091.295
1764768854.8530514,5555.7,2021.13,-31275.27,-9062.01,-8212.545,-28237.905,2622.105,10088.685
1764768854.8530514,5548.32,2015.37,-31280.58,-9067.635,-8217.63,-28244.115,2616.57,10081.71
1764768854.8530514,5548.5,2016.27,-31279.635,-9067.455,-8218.08,-28245.105,2617.605,10083.555
1764768854.8530514,5557.635,2025.99,-31269.915,-9058.545,-8209.755,-28237.5,2626.83,10093.995
1764768854.8530514,5561.145,2030.085,-31266.405,-9054.585,-8205.795,-28232.325,2631.735,10097.73
1764768854.8530514,5551.74,2019.96,-31276.44,-9063.765,-8214.164999999999,-28240.2,2622.645,10088.055
1764768854.8530514,5555.385,2023.245,-31272.705,-9059.805,-8209.26,-28235.52,2625.03,10091.655
1764768854.8530514,5545.755,2012.085,-31283.685,-9070.92,-8221.23,-28246.725,2614.545,10080.72
1764768854.9004235,5543.73,2009.43,-31285.89,-9072.99,-8223.885,-28249.29,2611.53,10078.245
1764768854.9004235,5550.344999999999,2015.46,-31279.365,-9066.24,-8217.09,-28242.855,2617.245,10084.365
1764768854.9004235,5543.01,2008.035,-31286.745,-9073.89,-8224.785,-28250.37,2611.125,10077.39
1764768854.9004235,5539.995,2005.56,-31290.12,-9077.67,-8228.43,-28253.655,2608.02,10074.735
1764768854.9004235,5548.32,2014.92,-31280.985,-9069.12,-8220.105,-28245.69,2615.355,10083.555
1764768854.9004235,5546.205,2013.48,-31281.75,-9070.47,-8221.32,-28247.22,2615.355,10082.88
1764768854.9007547,5555.61,2023.245,-31272.255,-9060.615,-8210.34,-28236.645,2625.21,10092.87
1764768854.9007547,5556.06,2023.2,-31272.615,-9061.515,-8210.88,-28237.455,2623.815,10092.015
1764768854.9007547,5555.88,2021.625,-31274.415,-9063.225,-8212.635,-28239.21,2622.87,10091.52
1764768854.9007547,5552.01,2016.315,-31278.78,-9067.95,-8216.82,-28243.62,2620.035,10087.02
1764768854.9007547,5556.06,2021.175,-31274.415,-9063.9,-8211.465,-28238.13,2623.455,10090.98
1764768854.9007547,5553.0,2019.555,-31276.98,-9066.24,-8213.985,-28240.605,2619.72,10088.145
1764768854.9007547,5551.605,2017.35,-31279.455,-9068.58,-8216.82,-28242.99,2617.965,10085.49
1764768854.9007547,5547.465,2013.12,-31283.64,-9072.495,-8221.815,-28247.94,2615.445,10081.395
1764768854.9007547,5551.335,2017.485,-31279.545,-9068.67,-8217.315,-28244.34,2619.72,10087.02
1764768854.9007547,5546.79,2013.435,-31284.135,-9074.16,-8222.67,-28249.83,2616.21,10083.105
1764768854.9007547,5554.8,2020.995,-31277.34,-9067.05,-8216.145,-28242.27,2623.905,10091.16
1764768854.9007547,5541.84,2008.17,-31288.725,-9077.94,-8227.395,-28254.555,2612.43,10077.57
1764768854.9007547,5546.745,2012.4,-31283.37,-9072.045,-8220.555,-28247.895,2614.905,10081.26
1764768854.9007547,5544.81,2009.565,-31286.79,-9076.59,-8224.875,-28252.08,2610.63,10077.975
1764768854.9007547,5539.545,2002.905,-31293.99,-9084.87,-8233.47,-28259.55,2604.285,10071.675
1764768854.9007547,5530.995,1993.995,-31302.9,-9093.645,-8242.335,-28268.37,2596.365,10062.36
1764768854.9007547,5533.695,1997.73,-31299.795,-9090.09,-8238.105,-28265.265,2599.74,10066.14
1764768854.9007547,5542.469999999999,2008.215,-31288.59,-9079.38,-8226.945,-28254.51,2608.56,10076.535
1764768854.9475355,5539.545,2006.37,-31289.895,-9080.82,-8228.295,-28255.77,2607.255,10075.23
1764768854.9475355,5533.695,1999.71,-31297.275,-9088.47,-8236.215,-28263.24,2603.43,10070.415
1764768854.9475355,5541.75,2008.44,-31288.365,-9080.01,-8226.18,-28254.375,2611.98,10079.325
1764768854.9475355,5531.58,1998.54,-31297.365,-9088.965,-8235.36,-28263.96,2602.26,10067.76
1764768854.9475355,5529.735,1995.795,-31300.74,-9091.845,-8239.77,-28268.55,2599.02,10065.105
1764768854.9475355,5535.0,2000.205,-31297.725,-9088.29,-8237.88,-28265.31,2601.81,10069.47
1764768854.9475355,5532.03,1996.29,-31302.765,-9092.97,-8242.289999999999,-28269.9,2598.885,10065.33
1764768854.9475355,5538.105,2002.68,-31294.62,-9083.88,-8231.76,-28259.1,2603.97,10070.955
1764768854.9475355,5537.385,2002.185,-31294.395,-9083.115,-8231.67,-28259.775,2602.215,10069.83
1764768854.9475355,5532.525,1997.685,-31298.85,-9087.84,-8236.305,-28264.545,2599.875,10066.59
1764768854.9475355,5541.57,2007.27,-31289.805,-9079.425,-8228.565,-28255.815,2609.415,10077.795
1764768854.9475355,5545.62,2012.31,-31284.945,-9074.475,-8223.119999999999,-28250.37,2614.5,10083.33
1764768854.9475355,5548.32,2014.965,-31281.615,-9072.135,-8220.195,-28247.31,2617.515,10085.67
1764768854.9475355,5548.365,2015.19,-31281.93,-9071.775,-8220.869999999999,-28247.175,2617.425,10085.22
1764768854.9475355,5552.325,2017.845,-31278.825,-9068.355,-8217.81,-28243.89,2620.26,10088.235
1764768854.9475355,5549.76,2014.605,-31282.245,-9071.505,-8221.59,-28247.13,2616.975,10084.725
1764768854.9475355,5539.23,2002.635,-31294.35,-9083.43,-8234.279999999999,-28258.875,2606.085,10072.215
1764768854.9475355,5533.425,1996.335,-31299.93,-9088.47,-8239.275,-28263.42,2600.55,10065.33
1764768854.9475355,5531.849999999999,1995.57,-31300.38,-9089.235,-8240.445,-28264.815,2598.84,10064.07
1764768854.9485488,5539.59,2004.21,-31292.19,-9081.09,-8232.84,-28256.625,2606.085,10073.07
1764768854.9485488,5540.76,2006.1,-31290.255,-9079.74,-8231.13,-28255.455,2607.525,10075.41
1764768854.9485488,5541.705,2007.09,-31288.995,-9078.345,-8229.195,-28254.105,2609.415,10077.03
1764768854.9914584,5545.304999999999,2010.645,-31285.53,-9074.385,-8224.74,-28250.01,2614.185,10081.44
1764768854.9919682,5544.63,2010.285,-31285.62,-9075.195,-8225.414999999999,-28251.09,2612.43,10080.315
1764768854.9919682,5541.48,2006.325,-31289.805,-9079.065,-8228.61,-28254.825,2608.335,10075.365
1764768854.9919682,5530.32,1992.825,-31303.26,-9092.34,-8242.289999999999,-28268.1,2596.005,10062.18
1764768854.9919682,5532.12,1994.04,-31301.955,-9091.845,-8241.615,-28267.29,2596.455,10063.755
1764768854.9919682,5542.11,2004.975,-31290.435,-9080.145,-8230.994999999999,-28256.49,2606.265,10074.42
1764768854.9919682,5537.34,1999.935,-31295.52,-9084.69,-8236.215,-28261.89,2603.07,10069.515
1764768854.9919682,5539.05,2003.31,-31292.19,-9080.73,-8232.975,-28258.92,2605.095,10072.26
1764768854.9919682,5534.37,1999.26,-31295.745,-9084.42,-8236.305,-28261.485,2602.485,10068.75
1764768854.9919682,5545.304999999999,2011.5,-31283.28,-9072.18,-8223.57,-28249.11,2612.745,10080.495
1764768854.9919682,5550.03,2014.515,-31281.03,-9070.155,-8220.69,-28246.23,2617.695,10085.31
1764768854.9919682,5537.07,2000.025,-31294.89,-9083.88,-8234.775,-28260.765,2604.06,10071.495
1764768854.9919682,5538.735,2003.22,-31291.425,-9080.055,-8231.67,-28257.21,2605.095,10073.115
1764768854.9919682,5531.804999999999,1995.795,-31299.3,-9086.31,-8238.06,-28264.32,2598.21,10064.295
1764768854.9919682,5529.33,1991.565,-31303.755,-9092.07,-8244.045,-28269.81,2593.26,10059.705
1764768854.9919682,5525.415,1988.01,-31306.59,-9094.815,-8246.925,-28272.285,2589.57,10055.295
1764768854.9919682,5526.45,1988.595,-31305.825,-9093.69,-8245.485,-28271.07,2591.235,10056.78
1764768854.9919682,5529.735,1993.14,-31301.415,-9089.64,-8240.85,-28267.38,2594.745,10060.875
1764768854.9919682,5539.094999999999,2003.805,-31291.38,-9078.795,-8230.32,-28255.995,2604.78,10072.395
1764768854.9919682,5538.105,2003.625,-31292.955,-9080.955,-8232.029999999999,-28258.38,2604.51,10071.675
1764768854.9919682,5546.295,2012.94,-31283.865,-9071.145,-8222.4,-28248.435,2613.42,10081.035
1764768854.9924736,5536.889999999999,2001.87,-31294.53,-9082.98,-8234.414999999999,-28259.28,2604.195,10071.675
1764768855.0386746,5533.92,1997.46,-31298.58,-9087.255,-8239.005,-28263.6,2600.865,10068.705
1764768855.0386746,5534.235,1998.315,-31295.16,-9082.305,-8232.164999999999,-28258.11,2601.855,10068.165
1764768855.0386746,5537.16,2000.745,-31294.17,-9081.72,-8231.49,-28257.93,2602.755,10070.685
1764768855.0386746,5537.295,2001.06,-31293.54,-9080.955,-8232.57,-28258.11,2603.475,10070.28
1764768855.0386746,5536.935,2000.88,-31294.035,-9080.28,-8232.525,-28258.2,2603.34,10069.875
1764768855.0386746,5541.885,2006.595,-31287.78,-9073.8,-8225.685,-28252.35,2608.335,10076.04
1764768855.0386746,5535.63,2000.97,-31293.495,-9079.335,-8230.949999999999,-28258.065,2604.06,10071.0
1764768855.0386746,5542.29,2008.44,-31286.43,-9072.81,-8223.615,-28251.27,2609.73,10077.795
1764768855.0386746,5543.28,2009.115,-31285.17,-9071.325,-8222.039999999999,-28249.695,2611.485,10079.325
1764768855.0386746,5532.389999999999,1997.1,-31296.735,-9083.52,-8235.36,-28262.205,2601.45,10067.31
1764768855.0386746,5531.535,1996.38,-31297.365,-9083.835,-8236.305,-28262.61,2599.83,10066.005
