Timestamp,Channel1,Channel2,Channel3,Channel4,Channel5,Channel6,Channel7,Channel8
1764767058.753912,10068.165,-5267.429999999999,-39637.215,-19199.34,-14294.475,-31236.39,-2528.865,6399.855
1764767058.753912,10075.635,-5259.69,-39628.395,-19189.215,-14283.27,-31225.005,-2520.585,6406.965
1764767058.753912,10072.845,-5264.19,-39634.155,-19195.2,-14290.695,-31231.305,-2523.105,6403.094999999999
1764767058.753912,10070.325,-5267.25,-39638.07,-19199.295,-14296.095,-31237.155,-2528.595,6399.405
1764767058.753912,10053.63,-5284.035,-39655.035,-19216.53,-14313.555,-31254.795,-2544.795,6382.485
1764767058.753912,10054.035,-5281.29,-39652.425,-19214.235,-14312.115,-31253.49,-2542.59,6385.32
1764767058.753912,10058.22,-5277.06,-39647.745,-19208.475,-14306.04,-31248.135,-2536.92,6390.045
1764767058.753912,10066.68,-5267.429999999999,-39638.34,-19199.115,-14297.31,-31239.765,-2529.675,6398.55
1764767058.753912,10059.345,-5274.9,-39645.765,-19206.99,-14305.68,-31248.945,-2536.38,6391.259999999999
1764767058.753912,10064.61,-5269.905,-39640.77,-19201.86,-14300.595,-31243.005,-2532.375,6396.12
1764767058.753912,10065.645,-5269.05,-39639.825,-19201.545,-14299.38,-31241.52,-2530.215,6398.46
1764767058.753912,10068.21,-5265.045,-39636.81,-19198.08,-14297.76,-31239.63,-2528.1,6401.025
1764767058.75493,10068.21,-5265.9,-39637.62,-19197.54,-14297.805,-31240.08,-2528.1,6400.304999999999
1764767058.75493,10065.06,-5270.13,-39641.355,-19201.32,-14301.27,-31243.77,-2531.97,6396.435
1764767058.75493,10053.18,-5282.28,-39652.515,-19212.345,-14312.745,-31255.92,-2543.355,6383.429999999999
1764767058.75493,10056.915,-5278.95,-39649.365,-19209.69,-14308.965,-31252.68,-2538.855,6388.2
1764767058.75493,10064.745,-5270.49,-39639.87,-19200.195,-14299.155,-31243.995,-2532.375,6397.02
1764767058.75493,10067.355,-5267.61,-39637.035,-19197.36,-14297.13,-31241.7,-2529.81,6399.81
1764767058.75493,10067.355,-5267.115,-39636.18,-19197.405,-14296.815,-31241.97,-2529.63,6399.855
1764767058.75493,10065.42,-5270.804999999999,-39639.825,-19200.69,-14299.02,-31244.355,-2529.855,6398.73
1764767058.75493,10058.625,-5276.97,-39645.18,-19206.27,-14306.76,-31252.23,-2537.19,6390.405
1764767058.75493,10064.655,-5270.535,-39639.33,-19199.745,-14299.605,-31244.49,-2531.205,6397.11
1764767058.75493,10061.91,-5273.91,-39641.985,-19202.805,-14302.08,-31246.38,-2532.915,6394.32
1764767058.804408,10067.22,-5268.105,-39635.82,-19195.965,-14296.23,-31240.485,-2528.55,6399.405
1764767058.804408,10061.55,-5272.56,-39640.14,-19200.78,-14301.99,-31246.74,-2534.49,6393.285
1764767058.804408,10054.575,-5279.13,-39646.665,-19207.8,-14309.55,-31254.165,-2540.385,6386.04
1764767058.804408,10058.85,-5273.955,-39641.445,-19202.4,-14304.42,-31248.54,-2535.03,6391.349999999999
1764767058.804408,10070.37,-5260.815,-39627.945,-19189.575,-14291.325,-31234.905,-2523.51,6405.66
1764767058.804408,10069.155,-5261.804999999999,-39629.475,-19191.195,-14291.865,-31236.12,-2524.23,6405.12
1764767058.804913,10063.08,-5269.139999999999,-39637.17,-19199.295,-14300.505,-31244.76,-2533.32,6396.66
1764767058.804913,10060.38,-5272.38,-39639.735,-19202.265,-14304.195,-31248.36,-2536.29,6393.375
1764767058.804913,10061.91,-5272.56,-39641.535,-19205.595,-14308.02,-31250.565,-2533.32,6395.355
1764767058.804913,10054.17,-5280.525,-39647.205,-19209.24,-14310.0,-31253.31,-2540.565,6386.445
1764767058.804913,10063.98,-5268.87,-39636.045,-19197.45,-14297.175,-31241.205,-2531.745,6397.469999999999
1764767058.804913,10057.59,-5274.315,-39642.57,-19203.75,-14305.545,-31248.045,-2537.37,6390.945
1764767058.804913,10064.745,-5266.44,-39632.985,-19192.995,-14295.105,-31237.11,-2528.73,6399.405
1764767058.804913,10060.38,-5270.49,-39637.395,-19196.82,-14298.57,-31240.98,-2530.35,6397.02
1764767058.804913,10058.4,-5272.11,-39638.295,-19198.08,-14300.19,-31241.34,-2531.52,6395.67
1764767058.804913,10068.165,-5261.94,-39628.17,-19187.64,-14290.38,-31230.945,-2523.6,6405.795
1764767058.804913,10070.01,-5259.69,-39625.785,-19185.39,-14288.22,-31229.01,-2521.62,6406.785
1764767058.804913,10059.795,-5269.815,-39635.955,-19195.785,-14298.615,-31239.72,-2530.755,6395.804999999999
1764767058.804913,10058.04,-5271.84,-39638.07,-19197.945,-14300.865,-31241.52,-2533.14,6393.33
1764767058.804913,10061.73,-5268.42,-39634.83,-19195.29,-14297.49,-31238.505,-2530.125,6397.065
1764767058.804913,10076.805,-5251.995,-39618.405,-19178.865,-14281.245,-31222.26,-2516.22,6412.545
1764767058.804913,10070.505,-5259.014999999999,-39624.615,-19185.255,-14286.735,-31227.3,-2520.315,6405.929999999999
1764767058.847931,10076.85,-5251.23,-39617.415,-19177.155,-14278.32,-31218.795,-2512.08,6414.344999999999
1764767058.847931,10086.615,-5238.405,-39605.58,-19164.87,-14265.18,-31206.51,-2502.27,6425.594999999999
1764767058.847931,10080.0,-5245.155,-39612.555,-19172.25,-14273.505,-31214.52,-2508.3,6417.405
1764767058.847931,10073.385,-5252.445,-39619.08,-19179.405,-14280.39,-31221.72,-2514.6,6410.61
1764767058.847931,10075.77,-5250.195,-39616.245,-19177.695,-14278.86,-31220.19,-2513.115,6412.094999999999
1764767058.847931,10087.515,-5237.82,-39603.555,-19164.645,-14265.81,-31205.88,-2501.28,6424.785
1764767058.8489425,10075.185,-5251.905,-39617.82,-19178.73,-14280.93,-31221.945,-2514.51,6410.61
1764767058.8489425,10072.395,-5255.73,-39622.005,-19182.375,-14283.405,-31224.735,-2518.02,6407.685
1764767058.8489425,10076.22,-5252.4,-39617.82,-19179.45,-14279.715,-31220.28,-2516.625,6410.655
1764767058.8489425,10066.32,-5261.49,-39627.09,-19188.945,-14288.94,-31229.415,-2523.915,6402.014999999999
1764767058.8489425,10068.12,-5258.745,-39624.525,-19185.615,-14284.935,-31225.95,-2519.82,6405.435
1764767058.8489425,10065.96,-5259.69,-39624.795,-19186.2,-14285.115,-31226.895,-2521.35,6404.085
1764767058.8489425,10060.38,-5265.63,-39631.32,-19194.12,-14293.89,-31235.175,-2527.47,6398.685
1764767058.8489425,10058.67,-5268.51,-39633.705,-19196.37,-14295.735,-31238.595,-2529.405,6395.804999999999
1764767058.8489425,10065.735,-5261.22,-39625.515,-19188.855,-14287.68,-31230.765,-2521.575,6402.87
1764767058.8489425,10072.17,-5255.325,-39620.565,-19183.815,-14281.965,-31224.24,-2516.76,6408.63
1764767058.8489425,10080.135,-5246.325,-39612.06,-19175.445,-14273.595,-31215.51,-2511.045,6416.91
1764767058.8489425,10077.435,-5248.53,-39613.545,-19176.255,-14275.26,-31217.4,-2514.555,6413.085
1764767058.8489425,10068.075,-5259.735,-39623.715,-19186.875,-14285.565,-31227.795,-2523.915,6403.05
1764767058.8489425,10053.405,-5277.465,-39643.155,-19207.98,-14305.365,-31246.38,-2536.155,6389.55
1764767058.8489425,10054.755,-5275.215,-39640.905,-19206.405,-14304.015,-31246.245,-2538.315,6390.63
1764767058.8489425,10059.12,-5267.79,-39632.805,-19196.73,-14294.205,-31237.47,-2531.07,6396.389999999999
1764767058.8938868,10067.985,-5255.415,-39620.79,-19184.535,-14281.56,-31224.645,-2519.91,6406.469999999999
1764767058.8938868,10072.305,-5250.915,-39617.055,-19180.575,-14276.79,-31220.19,-2515.455,6411.195
1764767058.8938868,10066.095,-5257.755,-39623.895,-19188.09,-14284.755,-31228.515,-2521.53,6405.389999999999
1764767058.8938868,10060.29,-5263.245,-39629.115,-19194.975,-14292.765,-31236.615,-2526.48,6399.585
1764767058.8938868,10070.235,-5253.12,-39619.17,-19185.615,-14282.505,-31226.4,-2518.29,6409.44
1764767058.8938868,10071.45,-5252.76,-39618.81,-19184.715,-14281.02,-31224.96,-2515.95,6409.935
1764767058.8938868,10079.235,-5243.175,-39608.37,-19174.68,-14271.48,-31215.465,-2508.435,6418.259999999999
1764767058.8938868,10067.67,-5255.28,-39621.195,-19187.73,-14283.27,-31227.525,-2519.82,6406.74
1764767058.8938868,10076.715,-5244.66,-39610.845,-19177.515,-14272.965,-31216.59,-2509.875,6418.259999999999
1764767058.8938868,10076.085,-5245.605,-39611.16,-19178.37,-14273.955,-31217.625,-2511.0,6416.91
1764767058.8938868,10075.68,-5246.37,-39612.87,-19180.125,-14275.53,-31218.93,-2511.585,6416.28
1764767058.8938868,10079.91,-5241.465,-39608.595,-19176.03,-14270.58,-31212.54,-2504.565,6422.13
1764767058.8938868,10082.475,-5237.865,-39605.175,-19173.915,-14267.385,-31208.715,-2501.82,6425.37
1764767058.8938868,10084.635,-5237.145,-39604.59,-19173.645,-14267.115,-31207.905,-2500.83,6426.675
1764767058.8938868,10080.81,-5242.455,-39607.965,-19177.02,-14269.545,-31211.37,-2504.52,6422.4
1764767058.8938868,10074.33,-5250.735,-39616.605,-19185.66,-14279.175,-31221.315,-2512.125,6413.804999999999
1764767058.8938868,10074.06,-5251.23,-39617.505,-19187.28,-14280.93,-31223.52,-2515.32,6412.094999999999
1764767058.8938868,10056.51,-5269.005,-39635.055,-19204.155,-14297.895,-31240.17,-2531.52,6394.59
1764767058.8938868,10052.865,-5273.28,-39639.465,-19208.34,-14301.99,-31244.49,-2535.525,6390.945
1764767058.8938868,10060.155,-5264.595,-39629.97,-19200.24,-14292.945,-31234.995,-2528.82,6399.45
1764767058.8938868,10056.51,-5267.295,-39631.905,-19201.77,-14294.205,-31235.76,-2529.405,6396.21
1764767058.8956594,10071.18,-5250.24,-39615.84,-19186.065,-14279.445,-31221.405,-2513.205,6414.03
1764767058.8956594,10077.21,-5242.32,-39607.29,-19177.245,-14270.625,-31212.855,-2506.545,6421.41
1764767058.8956594,10078.785,-5241.33,-39607.74,-19177.965,-14270.895,-31213.62,-2505.195,6423.344999999999
1764767058.9420776,10076.22,-5244.255,-39610.305,-19181.07,-14274.405,-31217.67,-2509.065,6419.115
1764767058.9420776,10067.895,-5254.65,-39620.295,-19192.005,-14285.07,-31228.245,-2518.29,6408.63
1764767058.9420776,10073.79,-5249.474999999999,-39614.94,-19186.065,-14277.555,-31220.01,-2513.205,6415.11
1764767058.9420776,10068.75,-5254.56,-39618.99,-19189.755,-14280.66,-31222.98,-2517.165,6410.61
1764767058.9420776,10072.35,-5249.205,-39613.365,-19184.715,-14275.575,-31218.39,-2512.125,6415.469999999999
1764767058.9420776,10076.535,-5242.59,-39607.065,-19179.045,-14269.68,-31213.35,-2506.455,6421.545
1764767058.9420776,10074.645,-5244.57,-39609.18,-19181.34,-14271.345,-31215.195,-2507.49,6420.87
1764767058.9420776,10065.96,-5253.345,-39618.405,-19190.115,-14280.435,-31223.88,-2514.915,6412.275
1764767058.9420776,10065.195,-5255.145,-39619.44,-19191.825,-14282.82,-31225.77,-2518.47,6410.295
1764767058.9420776,10055.7,-5265.63,-39629.07,-19201.59,-14292.945,-31236.84,-2527.515,6399.405
1764767058.9420776,10055.43,-5266.53,-39630.33,-19202.985,-14293.845,-31238.145,-2528.415,6398.325
1764767058.9420776,10060.56,-5262.345,-39626.01,-19199.745,-14290.74,-31233.825,-2524.23,6402.735
1764767058.9420776,10068.66,-5253.705,-39617.055,-19190.97,-14281.785,-31224.555,-2517.03,6410.88
1764767058.9420776,10055.52,-5265.495,-39628.26,-19201.995,-14292.81,-31237.11,-2529.72,6398.37
1764767058.9420776,10062.135,-5257.889999999999,-39621.33,-19193.895,-14285.205,-31229.19,-2522.88,6406.335
1764767058.9420776,10066.725,-5252.49,-39617.505,-19192.095,-14284.98,-31227.84,-2518.11,6411.42
1764767058.9420776,10055.25,-5264.73,-39627.945,-19203.12,-14296.005,-31239.0,-2528.055,6399.224999999999
1764767058.9420776,10057.275,-5262.345,-39624.57,-19198.935,-14290.02,-31233.33,-2526.03,6402.645
1764767058.9430852,10050.435,-5268.915,-39632.13,-19206.54,-14297.94,-31241.925,-2532.51,6395.219999999999
1764767058.9430852,10051.695,-5267.655,-39631.68,-19206.945,-14298.39,-31243.23,-2533.005,6395.04
1764767058.9430852,10060.695,-5258.79,-39622.815,-19198.17,-14288.67,-31232.835,-2524.77,6404.58
1764767058.9430852,10061.01,-5259.24,-39623.13,-19198.935,-14288.85,-31231.395,-2524.365,6404.58
1764767058.9430852,10060.695,-5260.05,-39623.4,-19199.655,-14290.02,-31232.16,-2524.77,6403.32
1764767058.9430852,10056.96,-5262.3,-39626.055,-19201.545,-14292.135,-31235.715,-2527.38,6400.395
1764767058.9430852,10058.895,-5259.014999999999,-39623.895,-19199.205,-14290.335,-31234.095,-2525.31,6402.554999999999
1764767058.9430852,10051.38,-5266.485,-39631.59,-19206.855,-14298.435,-31242.555,-2531.115,6394.77
1764767058.9893484,10049.49,-5268.33,-39632.67,-19208.88,-14301.99,-31246.29,-2534.4,6392.295
1764767058.9893484,10055.88,-5261.355,-39624.165,-19200.465,-14292.27,-31237.38,-2526.975,6399.719999999999
1764767058.9898577,10054.305,-5263.155,-39626.19,-19202.805,-14294.88,-31239.405,-2526.48,6398.415
1764767058.9898577,10061.82,-5256.135,-39619.485,-19195.875,-14287.905,-31231.665,-2520.315,6406.065
1764767058.9898577,10057.185,-5260.455,-39623.31,-19200.105,-14291.775,-31235.4,-2523.555,6401.88
1764767058.9898577,10058.805,-5258.88,-39621.33,-19198.485,-14289.975,-31233.42,-2521.44,6404.085
1764767058.9898577,10066.365,-5250.554999999999,-39612.735,-19190.745,-14282.64,-31226.13,-2514.735,6412.185
1764767058.9898577,10056.24,-5260.86,-39622.905,-19201.005,-14293.62,-31237.605,-2524.275,6401.295
1764767058.9898577,10056.78,-5259.915,-39622.545,-19200.78,-14292.99,-31236.84,-2522.835,6401.925
1764767058.9898577,10061.775,-5253.389999999999,-39616.11,-19195.38,-14287.905,-31231.53,-2516.625,6407.91
1764767058.9898577,10068.795,-5245.83,-39607.875,-19187.955,-14281.02,-31225.14,-2509.335,6416.685
1764767058.9898577,10074.78,-5238.81,-39600.45,-19180.575,-14274.495,-31219.155,-2504.43,6423.435
1764767058.9898577,10064.88,-5248.755,-39610.035,-19188.495,-14282.73,-31227.57,-2512.665,6413.58
1764767058.9898577,10069.335,-5243.4,-39605.85,-19184.76,-14278.545,-31222.935,-2507.355,6418.53
1764767058.9898577,10080.81,-5231.745,-39595.41,-19175.22,-14269.005,-31212.855,-2498.94,6429.69
1764767058.9898577,10083.555,-5229.179999999999,-39592.98,-19171.98,-14266.89,-31210.605,-2496.87,6431.445
1764767058.9898577,10079.055,-5234.535,-39598.11,-19177.38,-14272.47,-31216.815,-2501.415,6427.17
1764767058.9898577,10059.03,-5256.405,-39619.215,-19198.935,-14294.43,-31239.945,-2521.98,6405.66
1764767058.9898577,10064.295,-5249.295,-39611.745,-19191.015,-14287.14,-31233.69,-2517.165,6411.285
1764767058.9898577,10067.22,-5246.235,-39608.73,-19189.26,-14284.125,-31230.45,-2513.07,6414.929999999999
1764767058.9898577,10064.52,-5248.755,-39611.79,-19193.22,-14288.265,-31234.185,-2514.105,6412.094999999999
1764767058.9898577,10074.465,-5236.65,-39599.235,-19180.305,-14275.395,-31221.135,-2502.09,6424.02
1764767059.036999,10071.495,-5240.385,-39602.43,-19182.87,-14278.68,-31224.96,-2505.105,6420.554999999999
1764767059.036999,10074.195,-5237.865,-39600.18,-19181.07,-14276.835,-31222.98,-2504.16,6422.4
1764767059.036999,10070.595,-5241.915,-39604.905,-19185.48,-14281.065,-31227.165,-2507.265,6418.935
1764767059.036999,10078.92,-5232.24,-39595.5,-19175.895,-14271.255,-31217.94,-2499.255,6428.925
1764767059.036999,10080.765,-5230.304999999999,-39593.475,-19173.78,-14269.545,-31216.41,-2497.32,6430.5
1764767059.036999,10070.235,-5241.69,-39603.915,-19184.49,-14281.875,-31228.56,-2507.265,6419.115
1764767059.036999,10078.02,-5233.275,-39595.365,-19176.48,-14273.82,-31220.325,-2499.93,6427.71
1764767059.036999,10067.715,-5242.5,-39605.22,-19186.38,-14284.395,-31231.26,-2509.38,6417.81
1764767059.036999,10069.83,-5239.845,-39602.745,-19183.995,-14279.895,-31226.49,-2508.3,6421.41
1764767059.036999,10072.17,-5238.81,-39600.585,-19182.825,-14278.905,-31225.185,-2506.365,6423.255
1764767059.036999,10069.245,-5241.645,-39603.33,-19186.29,-14283.72,-31230.405,-2509.2,6419.655
1764767059.036999,10064.97,-5244.929999999999,-39607.965,-19191.465,-14289.84,-31236.03,-2512.26,6416.009999999999
1764767059.036999,10065.33,-5245.155,-39608.055,-19190.475,-14287.77,-31235.04,-2511.765,6417.224999999999
1764767059.036999,10079.055,-5229.315,-39590.775,-19171.845,-14268.645,-31216.86,-2497.365,6431.085
1764767059.036999,10088.28,-5217.885,-39578.265,-19158.75,-14255.415,-31204.26,-2487.645,6440.085
1764767059.036999,10079.595,-5229.09,-39589.605,-19171.53,-14268.42,-31216.14,-2495.835,6431.67
1764767059.036999,10083.42,-5225.13,-39586.095,-19168.29,-14264.595,-31212.405,-2491.47,6436.844999999999
1764767059.036999,10095.12,-5209.83,-39570.3,-19151.595,-14248.8,-31196.205,-2476.98,6452.009999999999
1764767059.036999,10098.0,-5205.599999999999,-39566.025,-19147.77,-14244.435,-31191.84,-2471.355,6455.969999999999
1764767059.036999,10104.66,-5197.995,-39558.195,-19140.255,-14237.37,-31185.18,-2465.55,6463.08
1764767059.036999,10106.865,-5195.565,-39555.855,-19137.96,-14235.57,-31183.335,-2463.57,6464.745
1764767059.036999,10102.32,-5202.045,-39561.705,-19143.99,-14241.33,-31189.095,-2468.97,6458.625
1764767059.0375204,10091.385,-5214.014999999999,-39573.945,-19155.915,-14253.12,-31200.705,-2479.635,6447.78
1764767059.0375204,10092.555,-5211.945,-39573.27,-19155.105,-14252.715,-31200.165,-2479.905,6448.05
1764767059.0835557,10102.455,-5201.595,-39563.415,-19145.34,-14242.815,-31190.85,-2471.58,6457.545
1764767059.0835557,10095.57,-5210.19,-39571.425,-19154.07,-14251.86,-31199.985,-2480.625,6449.67
1764767059.0835557,10084.455,-5220.045,-39581.28,-19164.24,-14262.57,-31211.595,-2490.21,6438.285
1764767059.0835557,10088.685,-5215.139999999999,-39576.33,-19158.795,-14256.315,-31204.665,-2484.045,6444.134999999999
1764767059.0835557,10083.285,-5220.27,-39580.695,-19162.845,-14261.265,-31208.985,-2487.6,6438.509999999999
1764767059.0835557,10077.435,-5226.21,-39586.095,-19169.415,-14268.105,-31216.23,-2494.62,6432.3
1764767059.0835557,10083.51,-5219.82,-39579.615,-19161.72,-14260.41,-31208.13,-2490.57,6438.69
1764767059.0835557,10087.56,-5216.895,-39577.32,-19159.47,-14258.25,-31206.105,-2486.475,6443.37
1764767059.0835557,10091.07,-5213.474999999999,-39574.71,-19156.59,-14256.27,-31204.08,-2482.47,6447.645
1764767059.0835557,10096.605,-5206.365,-39567.015,-19148.445,-14248.89,-31197.825,-2476.53,6453.63
1764767059.0835557,10101.06,-5202.09,-39562.74,-19143.36,-14243.58,-31192.02,-2471.31,6458.355
1764767059.0835557,10095.03,-5209.56,-39569.265,-19150.2,-14250.555,-31196.61,-2476.755,6451.785
1764767059.0835557,10085.31,-5218.83,-39577.95,-19159.515,-14260.995,-31207.005,-2485.755,6442.245
1764767059.0835557,10084.41,-5219.235,-39578.22,-19159.515,-14261.265,-31208.4,-2487.33,6441.12
1764767059.0835557,10086.66,-5216.445,-39576.465,-19158.39,-14259.645,-31206.69,-2484.315,6444.719999999999
1764767059.0835557,10093.635,-5210.639999999999,-39570.12,-19152.72,-14254.65,-31201.965,-2479.59,6451.2
1764767059.0835557,10091.385,-5213.7,-39573.27,-19156.005,-14258.79,-31206.24,-2482.875,6447.87
1764767059.0835557,10090.08,-5215.23,-39573.72,-19156.005,-14259.78,-31206.87,-2484.18,6445.8
1764767059.0835557,10092.105,-5213.474999999999,-39572.235,-19155.015,-14257.395,-31203.63,-2481.12,6448.77
1764767059.0835557,10099.485,-5205.465,-39564.9,-19147.905,-14250.42,-31196.655,-2473.47,6456.014999999999
1764767059.0835557,10103.535,-5200.29,-39559.815,-19141.29,-14244.75,-31191.435,-2467.845,6460.695
1764767059.0835557,10094.535,-5210.46,-39570.03,-19152.495,-14257.17,-31202.82,-2475.315,6452.145
1764767059.0845642,10093.95,-5209.38,-39568.14,-19150.56,-14256.405,-31201.965,-2475.63,6452.145
1764767059.0845642,10091.835,-5209.56,-39568.365,-19151.145,-14255.28,-31202.82,-2477.835,6450.66
1764767059.1308894,10093.455,-5207.13,-39566.43,-19149.615,-14253.48,-31201.92,-2475.99,6452.82
1764767059.1308894,10102.86,-5197.86,-39556.62,-19140.705,-14244.84,-31193.415,-2467.755,6461.955
1764767059.1308894,10102.275,-5199.165,-39557.43,-19142.415,-14247.045,-31196.07,-2469.465,6459.615
1764767059.1308894,10090.89,-5212.26,-39570.525,-19155.33,-14259.69,-31208.175,-2478.825,6447.78
1764767059.1308894,10091.655,-5211.63,-39569.76,-19154.925,-14259.735,-31207.905,-2479.005,6449.04
1764767059.1308894,10103.04,-5199.435,-39557.295,-19143.225,-14247.855,-31196.025,-2468.565,6461.235
1764767059.1308894,10105.65,-5196.645,-39554.28,-19140.3,-14245.335,-31194.225,-2466.045,6463.08
1764767059.1308894,10092.96,-5209.065,-39567.015,-19153.665,-14259.42,-31207.545,-2478.285,6449.715
1764767059.1308894,10104.21,-5195.97,-39553.65,-19141.425,-14246.595,-31196.25,-2466.315,6462.81
1764767059.1308894,10102.77,-5196.014999999999,-39553.965,-19141.785,-14247.45,-31198.59,-2465.685,6462.719999999999
1764767059.1308894,10114.92,-5182.11,-39540.015,-19128.69,-14233.77,-31184.685,-2453.355,6475.679999999999
1764767059.1308894,10116.36,-5181.12,-39539.34,-19127.88,-14232.645,-31183.38,-2452.095,6477.12
1764767059.1308894,10118.475,-5178.69,-39537.045,-19125.495,-14228.955,-31180.23,-2448.855,6480.405
1764767059.1308894,10113.885,-5183.73,-39540.96,-19130.805,-14234.13,-31184.37,-2452.545,6475.995
1764767059.1308894,10104.12,-5195.79,-39552.39,-19143.0,-14246.37,-31197.465,-2464.335,6463.575
1764767059.1308894,10104.165,-5195.25,-39551.265,-19141.965,-14246.1,-31198.095,-2466.27,6462.224999999999
1764767059.1308894,10125.18,-5172.03,-39528.045,-19118.385,-14222.655,-31174.02,-2442.915,6486.3
1764767059.1308894,10118.745,-5179.095,-39535.335,-19127.43,-14231.34,-31182.12,-2447.73,6480.764999999999
1764767059.1308894,10127.295,-5168.565,-39524.985,-19116.765,-14219.595,-31170.15,-2438.82,6490.62
1764767059.1308894,10121.805,-5174.37,-39529.53,-19121.715,-14224.815,-31175.46,-2443.455,6484.905
1764767059.1308894,10127.16,-5168.115,-39523.05,-19115.595,-14218.47,-31169.88,-2437.965,6491.295
1764767059.1308894,10121.085,-5175.27,-39529.665,-19122.615,-14224.905,-31177.08,-2443.005,6484.634999999999
1764767059.1308894,10122.435,-5172.615,-39527.1,-19120.455,-14223.195,-31174.38,-2440.485,6487.83
1764767059.1308894,10128.915,-5165.955,-39520.62,-19114.695,-14217.93,-31169.205,-2435.67,6493.724999999999
1764767059.177672,10136.7,-5157.585,-39511.665,-19106.055,-14209.245,-31160.97,-2428.65,6501.195
1764767059.177672,10136.115,-5158.44,-39512.385,-19106.73,-14209.83,-31161.69,-2429.01,6499.665
1764767059.177672,10146.915,-5146.695,-39500.685,-19094.985,-14198.49,-31150.215,-2419.515,6510.33
1764767059.177672,10139.895,-5155.425,-39509.685,-19104.345,-14207.895,-31159.44,-2425.455,6502.905
1764767059.1786785,10144.17,-5150.16,-39503.88,-19098.675,-14201.145,-31152.915,-2420.505,6508.215
1764767059.1786785,10135.035,-5159.565,-39512.97,-19108.53,-14211.495,-31163.445,-2427.84,6498.45
1764767059.1786785,10134.135,-5159.79,-39513.645,-19110.33,-14213.925,-31166.055,-2429.595,6497.775
1764767059.1786785,10138.14,-5155.02,-39509.19,-19105.875,-14208.255,-31161.645,-2426.355,6503.219999999999
1764767059.1786785,10133.055,-5160.375,-39514.995,-19111.635,-14213.655,-31167.675,-2430.9,6497.955
1764767059.1786785,10139.805,-5152.365,-39506.76,-19103.985,-14207.22,-31161.33,-2424.915,6504.795
1764767059.1786785,10135.17,-5157.405,-39511.755,-19109.97,-14212.845,-31167.81,-2427.84,6500.429999999999
1764767059.1786785,10137.285,-5155.83,-39509.145,-19106.73,-14207.985,-31164.03,-2426.67,6501.645
1764767059.1786785,10147.77,-5145.21,-39498.57,-19096.335,-14197.5,-31153.32,-2417.265,6512.445
1764767059.1786785,10135.215,-5158.71,-39512.205,-19110.825,-14213.115,-31168.395,-2428.695,6499.53
1764767059.1786785,10132.785,-5160.51,-39514.455,-19112.58,-14216.265,-31170.06,-2429.28,6499.395
1764767059.1786785,10135.98,-5156.505,-39510.045,-19108.305,-14212.755,-31166.955,-2427.345,6503.58
1764767059.1786785,10126.935,-5165.595,-39517.335,-19115.01,-14217.93,-31174.29,-2434.59,6494.04
1764767059.1786785,10136.79,-5154.929999999999,-39507.795,-19104.705,-14208.84,-31164.795,-2426.355,6504.03
1764767059.1786785,10140.885,-5150.474999999999,-39502.62,-19099.71,-14204.34,-31160.565,-2421.315,6508.53
1764767059.1786785,10139.355,-5153.175,-39505.995,-19103.31,-14207.49,-31164.165,-2423.205,6506.28
1764767059.1786785,10137.645,-5156.054999999999,-39508.92,-19107.09,-14212.035,-31168.575,-2425.95,6503.58
1764767059.1786785,10139.76,-5153.355,-39505.545,-19104.03,-14210.46,-31166.73,-2424.87,6505.02
1764767059.221969,10142.685,-5149.935,-39501.675,-19100.115,-14205.42,-31162.005,-2421.72,6508.08
1764767059.221969,10136.385,-5156.46,-39508.155,-19107.63,-14212.98,-31169.88,-2427.84,6502.32
1764767059.221969,10135.62,-5156.91,-39508.38,-19108.485,-14212.98,-31171.095,-2427.615,6501.735
1764767059.221969,10135.755,-5156.19,-39507.57,-19107.945,-14211.765,-31169.925,-2425.635,6503.219999999999
1764767059.221969,10129.995,-5162.445,-39513.78,-19114.065,-14217.345,-31176.045,-2429.415,6497.55
1764767059.221969,10134.81,-5157.36,-39508.785,-19109.97,-14213.07,-31172.805,-2425.86,6502.77
1764767059.221969,10135.755,-5155.83,-39507.705,-19108.98,-14212.89,-31172.445,-2426.715,6503.264999999999
1764767059.221969,10130.895,-5160.554999999999,-39512.565,-19114.605,-14218.605,-31178.295,-2431.755,6497.235
1764767059.221969,10117.395,-5174.955,-39526.605,-19128.87,-14233.59,-31192.83,-2443.68,6483.375
1764767059.221969,10118.52,-5173.065,-39525.12,-19127.7,-14232.42,-31191.615,-2442.69,6484.634999999999
1764767059.221969,10129.995,-5160.33,-39513.69,-19117.575,-14223.33,-31183.695,-2434.86,6496.469999999999
1764767059.221969,10119.42,-5171.715,-39523.14,-19127.43,-14232.33,-31193.55,-2444.715,6484.724999999999
1764767059.221969,10122.885,-5168.205,-39520.215,-19125.81,-14230.35,-31190.58,-2440.215,6489.54
1764767059.221969,10119.285,-5170.185,-39523.32,-19129.455,-14233.86,-31193.82,-2441.97,6487.514999999999
1764767059.221969,10125.225,-5161.995,-39514.455,-19121.04,-14225.49,-31186.305,-2435.85,6494.085
1764767059.221969,10116.63,-5172.3,-39524.445,-19131.39,-14236.335,-31196.7,-2443.14,6485.67
1764767059.221969,10113.57,-5176.62,-39528.945,-19136.745,-14240.655,-31200.795,-2447.82,6481.71
1764767059.221969,10122.705,-5165.955,-39518.505,-19127.43,-14230.17,-31189.77,-2439.09,6491.52
1764767059.221969,10125.72,-5163.75,-39516.39,-19126.395,-14228.28,-31187.835,-2436.57,6492.915
1764767059.221969,10124.325,-5165.37,-39518.82,-19128.42,-14230.305,-31189.41,-2438.325,6491.25
1764767059.221969,10125.36,-5164.47,-39518.235,-19128.375,-14229.675,-31188.555,-2437.605,6492.96
1764767059.221969,10120.455,-5169.915,-39522.87,-19135.08,-14236.02,-31195.71,-2443.005,6487.785
1764767059.2693963,10117.755,-5171.849999999999,-39524.895,-19137.33,-14237.82,-31198.68,-2445.795,6485.535
1764767059.2693963,10110.87,-5178.06,-39531.42,-19144.485,-14245.245,-31206.915,-2450.97,6478.425
1764767059.2693963,10110.06,-5179.365,-39533.715,-19149.255,-14248.035,-31208.715,-2450.925,6478.335
1764767059.2693963,10104.21,-5185.26,-39537.765,-19153.98,-14250.735,-31210.38,-2455.29,6473.429999999999
1764767059.2693963,10106.145,-5182.74,-39535.605,-19153.08,-14249.835,-31209.93,-2454.885,6474.24
1764767059.2693963,10121.31,-5165.865,-39520.08,-19136.43,-14231.385,-31191.93,-2440.035,6490.259999999999
1764767059.2693963,10126.935,-5160.69,-39513.645,-19129.725,-14222.52,-31183.11,-2434.59,6495.389999999999
1764767059.2693963,10125.945,-5163.03,-39516.615,-19133.235,-14225.445,-31185.405,-2436.075,6493.77
1764767059.2693963,10125.855,-5162.895,-39517.155,-19134.09,-14226.3,-31186.125,-2435.895,6494.58
1764767059.2693963,10123.155,-5164.965,-39518.91,-19136.79,-14228.865,-31188.69,-2438.01,6492.195
1764767059.2693963,10122.075,-5165.19,-39518.91,-19137.105,-14229.18,-31189.635,-2438.235,6492.06
1764767059.2693963,10115.55,-5171.264999999999,-39525.435,-19144.08,-14236.965,-31197.96,-2444.58,6485.535
1764767059.2693963,10121.535,-5163.345,-39518.28,-19137.015,-14229.675,-31192.065,-2439.045,6492.285
1764767059.2693963,10116.72,-5168.745,-39524.265,-19143.765,-14234.94,-31197.465,-2441.16,6488.054999999999
1764767059.2693963,10117.35,-5169.014999999999,-39524.58,-19144.755,-14236.155,-31198.005,-2441.205,6488.009999999999
1764767059.2693963,10120.635,-5166.27,-39521.565,-19142.055,-14233.05,-31193.865,-2439.045,6491.115
1764767059.2693963,10128.96,-5158.53,-39513.42,-19135.395,-14225.805,-31186.755,-2433.465,6498.764999999999
1764767059.2693963,10127.34,-5158.935,-39514.23,-19137.195,-14227.92,-31189.455,-2434.32,6496.245
1764767059.2693963,10135.395,-5149.44,-39504.78,-19127.655,-14218.47,-31180.41,-2426.535,6505.965
1764767059.2693963,10123.83,-5161.05,-39517.02,-19139.355,-14229.9,-31191.795,-2437.155,6494.31
1764767059.2693963,10122.345,-5161.365,-39517.92,-19140.57,-14230.935,-31192.245,-2437.02,6494.445
1764767059.2693963,10128.51,-5153.58,-39509.64,-19132.56,-14222.295,-31184.28,-2430.495,6501.96
1764767059.2693963,10123.335,-5158.44,-39514.455,-19138.185,-14227.515,-31190.535,-2435.13,6496.785
1764767059.2704017,10127.295,-5154.75,-39510.9,-19135.17,-14224.815,-31188.33,-2432.925,6499.98
1764767059.316305,10121.67,-5162.58,-39518.28,-19143.09,-14233.995,-31197.465,-2439.315,6492.285
1764767059.316305,10126.125,-5157.27,-39512.88,-19138.365,-14228.505,-31193.37,-2437.065,6496.155
1764767059.316305,10117.215,-5166.99,-39522.105,-19147.41,-14236.83,-31201.335,-2444.58,6486.929999999999
1764767059.316305,10116.45,-5168.07,-39522.42,-19148.715,-14237.325,-31200.84,-2445.12,6486.03
1764767059.316305,10131.84,-5151.33,-39506.4,-19134.18,-14223.87,-31187.025,-2431.08,6501.96
1764767059.316305,10129.59,-5153.849999999999,-39509.37,-19137.33,-14227.155,-31190.58,-2433.06,6500.07
1764767059.316305,10127.16,-5156.054999999999,-39511.215,-19139.085,-14228.73,-31192.11,-2434.275,6498.719999999999
1764767059.316305,10122.66,-5160.105,-39514.05,-19141.605,-14230.53,-31194.225,-2437.965,6495.255
1764767059.316305,10119.87,-5162.715,-39515.85,-19143.225,-14232.555,-31197.375,-2439.45,6492.96
1764767059.316305,10117.17,-5165.19,-39519.81,-19146.645,-14237.685,-31202.595,-2439.54,6490.304999999999
1764767059.3168137,10122.48,-5157.72,-39513.375,-19139.445,-14230.665,-31195.755,-2434.815,6496.02
1764767059.3168137,10113.885,-5168.7,-39524.265,-19149.48,-14241.015,-31206.69,-2444.4,6485.715
1764767059.3168137,10116.045,-5167.17,-39522.825,-19147.815,-14240.115,-31206.15,-2444.76,6487.695
1764767059.3168137,10113.48,-5171.04,-39526.11,-19152.45,-14245.065,-31210.83,-2446.965,6484.185
1764767059.3168137,10120.95,-5161.23,-39516.255,-19142.82,-14234.175,-31200.57,-2438.37,6492.87
1764767059.3168137,10110.735,-5170.59,-39525.39,-19151.955,-14242.68,-31208.76,-2446.335,6484.365
1764767059.3168137,10119.42,-5160.825,-39516.03,-19143.855,-14233.86,-31200.705,-2439.315,6492.735
1764767059.3168137,10118.16,-5161.815,-39516.84,-19145.61,-14234.895,-31202.1,-2437.965,6492.509999999999
1764767059.3168137,10120.365,-5157.855,-39512.61,-19142.82,-14232.375,-31200.615,-2435.04,6495.344999999999
1764767059.3168137,10125.18,-5152.23,-39507.795,-19136.97,-14225.22,-31194.09,-2428.83,6501.78
1764767059.3168137,10116.99,-5161.905,-39517.38,-19147.5,-14235.165,-31203.09,-2436.255,6492.645
1764767059.3168137,10122.48,-5156.145,-39511.89,-19143.72,-14231.43,-31199.085,-2433.645,6497.46
1764767059.3168137,10118.16,-5161.23,-39516.93,-19148.76,-14236.29,-31204.35,-2437.56,6493.185
1764767059.3168137,10124.73,-5154.21,-39510.315,-19142.1,-14230.17,-31198.455,-2432.655,6499.304999999999
1764767059.3631165,10126.845,-5152.455,-39508.74,-19140.345,-14229.045,-31196.34,-2430.495,6501.24
1764767059.3631165,10114.335,-5165.054999999999,-39520.62,-19152.405,-14241.015,-31209.3,-2441.79,6488.82
1764767059.3631165,10121.715,-5156.82,-39512.25,-19144.395,-14232.24,-31201.83,-2434.995,6496.92
1764767059.3631165,10123.38,-5154.615,-39510.54,-19141.785,-14230.08,-31200.3,-2432.295,6498.945
1764767059.3631165,10121.445,-5157.72,-39513.105,-19144.08,-14232.42,-31201.2,-2432.655,6497.955
1764767059.3631165,10113.795,-5166.315,-39521.34,-19152.72,-14241.465,-31210.2,-2440.395,6489.54
1764767059.3631165,10112.715,-5167.304999999999,-39521.565,-19153.53,-14241.375,-31211.145,-2442.015,6487.74
1764767059.3631165,10118.7,-5161.41,-39516.705,-19149.345,-14237.595,-31206.915,-2439.495,6493.094999999999
1764767059.3631165,10118.97,-5162.04,-39517.335,-19150.515,-14237.865,-31207.455,-2439.945,6492.195
1764767059.3631165,10116.54,-5164.695,-39519.0,-19153.53,-14238.36,-31208.355,-2440.53,6489.675
1764767059.3631165,10124.505,-5156.73,-39511.62,-19147.005,-14229.945,-31198.68,-2432.565,6499.259999999999
1764767059.3631165,10115.505,-5166.36,-39521.745,-19158.435,-14241.105,-31209.345,-2440.8,6489.719999999999
1764767059.3631165,10123.2,-5156.099999999999,-39512.34,-19149.39,-14230.665,-31198.995,-2432.655,6499.125
1764767059.3631165,10124.505,-5153.13,-39509.82,-19147.41,-14228.46,-31197.15,-2430.72,6501.465
1764767059.3631165,10117.755,-5161.32,-39516.795,-19155.78,-14237.01,-31205.88,-2437.155,6494.264999999999
1764767059.3631165,10110.42,-5169.599999999999,-39524.13,-19163.745,-14244.12,-31213.71,-2444.04,6486.12
1764767059.3631165,10109.25,-5170.455,-39526.29,-19166.265,-14246.55,-31215.51,-2445.165,6485.31
1764767059.3631165,10117.62,-5161.77,-39518.46,-19159.02,-14240.43,-31208.445,-2439.045,6493.95
1764767059.3631165,10117.53,-5162.355,-39518.73,-19159.605,-14241.105,-31208.94,-2441.205,6493.23
1764767059.3631165,10114.335,-5165.955,-39521.52,-19161.9,-14243.67,-31210.74,-2444.4,6488.82
1764767059.3631165,10113.075,-5167.889999999999,-39522.78,-19165.095,-14245.83,-31212.045,-2444.4,6487.83
1764767059.3631165,10107.945,-5171.58,-39526.965,-19171.305,-14251.365,-31217.895,-2449.305,6483.105
1764767059.3631165,10107.045,-5172.345,-39528.18,-19172.97,-14252.625,-31219.245,-2449.53,6482.429999999999
1764767059.3631165,10098.27,-5181.84,-39537.945,-19183.995,-14263.515,-31228.92,-2456.505,6473.384999999999
1764767059.408826,10101.735,-5178.915,-39535.2,-19181.97,-14262.12,-31226.355,-2453.67,6477.795
1764767059.408826,10091.295,-5190.66,-39544.965,-19191.15,-14269.32,-31235.445,-2465.01,6464.655
1764767059.408826,10089.495,-5192.775,-39546.99,-19194.615,-14272.2,-31239.18,-2466.765,6462.36
1764767059.408826,10087.02,-5195.88,-39549.555,-19198.125,-14274.99,-31242.285,-2471.4,6458.58
1764767059.408826,10094.535,-5187.69,-39542.04,-19191.78,-14267.655,-31234.05,-2465.28,6466.905
1764767059.408826,10098.945,-5182.92,-39537.63,-19187.595,-14262.93,-31228.425,-2460.33,6471.54
1764767059.408826,10101.78,-5180.264999999999,-39534.885,-19185.615,-14261.265,-31227.615,-2458.62,6474.42
1764767059.408826,10099.125,-5182.605,-39537.045,-19188.405,-14263.605,-31230.18,-2460.78,6472.035
1764767059.408826,10096.38,-5184.63,-39538.89,-19190.385,-14263.74,-31229.37,-2461.095,6470.37
1764767059.408826,10089.27,-5191.92,-39546.135,-19197.99,-14269.995,-31234.725,-2465.73,6464.474999999999
1764767059.408826,10097.73,-5183.595,-39537.99,-19190.115,-14262.48,-31226.22,-2459.295,6473.16
1764767059.408826,10095.57,-5185.62,-39540.465,-19192.635,-14265.63,-31229.325,-2460.69,6470.37
1764767059.408826,10103.49,-5176.53,-39531.015,-19184.13,-14256.315,-31220.685,-2453.805,6478.155
1764767059.408826,10105.2,-5175.045,-39528.99,-19182.555,-14254.695,-31218.255,-2451.735,6480.63
1764767059.408826,10098.225,-5184.27,-39537.945,-19190.745,-14261.895,-31224.915,-2457.72,6472.125
1764767059.408826,10108.35,-5172.929999999999,-39525.75,-19179.54,-14251.14,-31214.97,-2450.115,6481.575
1764767059.408826,10111.95,-5168.205,-39521.07,-19173.69,-14245.02,-31208.58,-2444.67,6487.065
1764767059.408826,10099.485,-5181.615,-39534.57,-19187.055,-14259.645,-31223.43,-2456.955,6473.384999999999
1764767059.408826,10097.235,-5183.82,-39537.72,-19188.9,-14261.76,-31224.735,-2457.945,6472.035
1764767059.408826,10095.795,-5185.125,-39538.98,-19190.07,-14262.93,-31224.24,-2458.395,6470.955
1764767059.408826,10094.535,-5186.385,-39540.285,-19190.115,-14263.2,-31225.275,-2460.33,6469.02
1764767059.408826,10096.92,-5182.965,-39536.73,-19184.49,-14257.44,-31219.605,-2456.37,6473.07
1764767059.4569604,10108.08,-5170.724999999999,-39525.03,-19172.88,-14247.315,-31207.995,-2446.74,6485.445
1764767059.4569604,10104.525,-5174.865,-39529.8,-19177.785,-14252.13,-31212.54,-2451.24,6480.855
1764767059.4569604,10093.23,-5187.87,-39540.96,-19188.405,-14263.29,-31224.42,-2462.355,6467.804999999999
1764767059.4569604,10097.01,-5184.855,-39536.685,-19183.5,-14257.62,-31219.02,-2459.025,6470.009999999999
1764767059.4569604,10108.53,-5172.165,-39524.94,-19172.295,-14245.425,-31206.42,-2448.27,6482.295
1764767059.4569604,10100.16,-5180.535,-39532.995,-19180.305,-14254.38,-31215.33,-2456.595,6473.835
1764767059.4569604,10090.035,-5190.345,-39543.03,-19189.89,-14264.82,-31226.265,-2465.82,6463.08
1764767059.4569604,10091.34,-5187.42,-39539.475,-19185.885,-14260.86,-31221.99,-2463.84,6466.41
1764767059.4569604,10101.195,-5176.395,-39528.18,-19174.59,-14248.35,-31207.815,-2453.085,6478.695
1764767059.4569604,10100.295,-5176.485,-39528.315,-19173.915,-14248.89,-31207.635,-2452.455,6478.92
1764767059.4574673,10092.105,-5185.62,-39537.63,-19182.87,-14257.935,-31215.555,-2460.375,6470.955
1764767059.4574673,10098.09,-5180.58,-39532.14,-19176.345,-14250.78,-31207.59,-2455.38,6477.165
1764767059.4574673,10094.895,-5184.45,-39536.235,-19180.845,-14256.945,-31213.53,-2458.035,6473.34
1764767059.4574673,10095.3,-5182.605,-39532.995,-19176.525,-14253.615,-31211.145,-2457.63,6473.61
1764767059.4574673,10104.345,-5172.345,-39523.005,-19166.49,-14242.905,-31200.255,-2449.485,6484.185
1764767059.4574673,10096.875,-5180.355,-39530.385,-19173.015,-14249.52,-31206.6,-2456.28,6475.995
1764767059.4574673,10087.245,-5189.895,-39538.89,-19180.44,-14258.115,-31214.745,-2464.065,6466.23
1764767059.4574673,10086.12,-5190.84,-39541.005,-19182.78,-14261.085,-31216.68,-2464.92,6465.915
1764767059.4574673,10092.24,-5183.325,-39534.39,-19175.625,-14255.595,-31209.84,-2459.7,6472.889999999999
1764767059.4574673,10088.82,-5185.98,-39536.955,-19177.515,-14257.125,-31211.145,-2460.735,6470.099999999999
1764767059.4574673,10097.055,-5177.97,-39528.765,-19169.145,-14248.71,-31202.64,-2454.345,6478.38
1764767059.4574673,10098.045,-5176.889999999999,-39527.595,-19167.795,-14247.72,-31202.415,-2455.245,6477.615
1764767059.4574673,10095.93,-5179.32,-39530.52,-19171.08,-14251.05,-31205.835,-2456.91,6475.365
1764767059.4574673,10091.16,-5185.665,-39536.37,-19175.94,-14256.495,-31209.93,-2461.185,6469.92
1764767059.5040472,10100.115,-5175.855,-39527.19,-19166.76,-14247.72,-31200.66,-2453.13,6479.28
1764767059.5040472,10095.48,-5180.895,-39531.87,-19171.755,-14252.535,-31206.15,-2458.17,6474.915
1764767059.5040472,10092.78,-5182.29,-39533.04,-19173.015,-14254.47,-31208.49,-2460.735,6472.304999999999
1764767059.5040472,10082.61,-5192.595,-39542.94,-19182.78,-14264.19,-31218.03,-2468.88,6462.45
1764767059.5040472,10086.57,-5187.735,-39537.81,-19177.965,-14257.62,-31211.55,-2462.265,6468.21
1764767059.5040472,10099.125,-5172.705,-39523.59,-19163.52,-14243.67,-31197.87,-2449.44,6482.79
1764767059.5040472,10101.96,-5170.59,-39521.295,-19160.955,-14242.545,-31196.925,-2448.045,6484.41
1764767059.5040472,10101.285,-5170.815,-39521.115,-19161.945,-14244.48,-31199.715,-2449.755,6482.25
1764767059.5040472,10098.63,-5173.92,-39524.355,-19165.905,-14247.945,-31203.99,-2454.03,6478.605
1764767059.5040472,10099.17,-5175.224999999999,-39527.28,-19167.705,-14249.25,-31202.955,-2453.445,6479.46
1764767059.5040472,10104.21,-5169.24,-39520.89,-19161.27,-14244.165,-31197.06,-2449.305,6484.275
1764767059.5040472,10100.115,-5173.74,-39525.255,-19163.16,-14245.29,-31198.545,-2451.105,6480.585
1764767059.5040472,10092.915,-5180.22,-39531.915,-19170.63,-14253.12,-31206.105,-2455.785,6473.655
1764767059.5040472,10090.8,-5182.514999999999,-39533.49,-19172.25,-14254.56,-31207.095,-2456.685,6471.945
1764767059.5040472,10088.325,-5184.63,-39535.965,-19174.32,-14257.935,-31210.38,-2459.475,6469.514999999999
1764767059.5040472,10088.82,-5183.639999999999,-39535.2,-19173.24,-14257.62,-31209.615,-2458.395,6470.415
1764767059.5040472,10091.97,-5180.58,-39532.995,-19170.945,-14254.875,-31207.23,-2456.055,6473.655
1764767059.5040472,10089.495,-5184.764999999999,-39536.595,-19174.725,-14257.755,-31209.795,-2459.34,6470.009999999999
1764767059.5040472,10091.7,-5182.605,-39534.48,-19172.16,-14255.82,-31207.995,-2458.17,6472.215
1764767059.5040472,10103.805,-5169.42,-39520.98,-19159.515,-14241.96,-31194.225,-2446.74,6485.13
1764767059.5050538,10107.81,-5164.74,-39516.435,-19154.52,-14235.795,-31188.645,-2442.015,6489.224999999999
1764767059.5050538,10101.735,-5171.13,-39523.455,-19162.62,-14244.345,-31197.735,-2448.72,6483.33
1764767059.5050538,10092.735,-5179.95,-39532.545,-19172.7,-14254.515,-31209.075,-2456.865,6474.33
1764767059.5050538,10098.72,-5173.695,-39526.245,-19166.31,-14247.63,-31201.515,-2451.24,6481.304999999999
1764767059.5504358,10101.6,-5170.365,-39524.895,-19164.78,-14247.09,-31199.31,-2448.27,6484.95
1764767059.5504358,10093.86,-5176.665,-39530.25,-19169.82,-14250.69,-31204.395,-2453.94,6476.985
1764767059.5504358,10098.45,-5170.815,-39524.13,-19162.485,-14243.175,-31197.915,-2450.205,6482.16
1764767059.5504358,10093.41,-5176.889999999999,-39530.565,-19169.01,-14250.915,-31204.935,-2455.11,6476.355
1764767059.5504358,10098.81,-5171.804999999999,-39525.48,-19165.005,-14246.64,-31199.715,-2450.835,6481.844999999999
1764767059.5504358,10091.61,-5179.95,-39533.13,-19173.06,-14254.515,-31207.365,-2458.62,6473.295
1764767059.5504358,10096.29,-5175.09,-39527.91,-19167.525,-14248.08,-31200.84,-2454.165,6479.009999999999
1764767059.5504358,10090.17,-5180.895,-39533.715,-19174.275,-14255.01,-31207.185,-2460.06,6472.53
1764767059.5504358,10096.695,-5172.929999999999,-39525.57,-19166.22,-14247.45,-31200.48,-2454.84,6479.775
1764767059.5504358,10094.49,-5174.955,-39527.685,-19167.255,-14248.8,-31201.965,-2456.415,6478.065
1764767059.5504358,10085.22,-5185.53,-39537.765,-19177.92,-14259.105,-31212.54,-2463.57,6468.03
1764767059.5504358,10083.105,-5187.645,-39539.115,-19179.585,-14261.445,-31215.15,-2466.09,6465.825
1764767059.5504358,10088.82,-5181.12,-39532.95,-19173.78,-14255.865,-31209.12,-2461.365,6472.53
1764767059.5504358,10079.82,-5190.705,-39543.3,-19183.095,-14264.37,-31216.725,-2469.735,6462.719999999999
1764767059.5504358,10087.11,-5182.83,-39535.56,-19175.265,-14255.865,-31207.41,-2463.12,6470.775
1764767059.5504358,10091.52,-5178.42,-39530.43,-19169.28,-14251.68,-31203.72,-2460.105,6473.88
1764767059.5504358,10088.01,-5183.145,-39533.67,-19171.89,-14254.92,-31207.365,-2463.75,6469.469999999999
1764767059.5504358,10080.495,-5191.83,-39543.615,-19181.565,-14264.19,-31216.68,-2471.67,6461.46
1764767059.5504358,10078.47,-5193.179999999999,-39544.74,-19182.15,-14265.09,-31217.85,-2473.74,6460.11
1764767059.5504358,10075.995,-5194.08,-39544.65,-19181.43,-14265.27,-31217.355,-2476.215,6458.445
1764767059.5504358,10076.13,-5194.395,-39544.74,-19180.755,-14264.595,-31216.635,-2475.09,6458.535
1764767059.5504358,10068.795,-5202.495,-39553.065,-19189.17,-14273.82,-31226.49,-2480.13,6450.929999999999
1764767059.596475,10067.76,-5202.99,-39554.01,-19189.665,-14274.225,-31226.355,-2480.985,6450.344999999999
1764767059.596475,10074.195,-5196.825,-39547.62,-19183.14,-14267.565,-31220.91,-2476.485,6455.969999999999
1764767059.596475,10066.545,-5205.554999999999,-39556.08,-19190.835,-14275.17,-31227.885,-2482.335,6448.185
1764767059.596475,10075.41,-5195.79,-39547.305,-19181.43,-14266.98,-31219.47,-2475.045,6457.139999999999
1764767059.596475,10081.935,-5188.59,-39540.555,-19174.32,-14260.77,-31212.45,-2468.205,6463.62
1764767059.596475,10076.895,-5193.72,-39544.965,-19178.55,-14264.325,-31215.555,-2473.245,6458.219999999999
1764767059.596475,10078.875,-5189.895,-39540.96,-19174.995,-14261.04,-31212.72,-2470.005,6461.82
1764767059.596475,10081.035,-5186.295,-39537.0,-19170.63,-14257.44,-31209.03,-2467.575,6465.285
1764767059.596475,10081.17,-5185.304999999999,-39536.325,-19170.09,-14257.98,-31208.625,-2467.26,6465.735
1764767059.596475,10074.375,-5193.315,-39544.515,-19176.885,-14265.045,-31215.105,-2470.95,6459.344999999999
1764767059.596475,10068.93,-5200.335,-39550.545,-19182.375,-14270.895,-31221.045,-2476.215,6453.81
1764767059.596475,10067.175,-5202.54,-39550.95,-19181.52,-14270.94,-31220.28,-2479.455,6451.245
1764767059.596475,10076.355,-5192.054999999999,-39540.825,-19170.945,-14261.49,-31210.92,-2471.22,6461.054999999999
1764767059.596475,10075.455,-5193.27,-39542.85,-19173.69,-14265.315,-31214.565,-2472.12,6459.795
1764767059.596475,10083.735,-5184.72,-39534.525,-19164.96,-14256.405,-31204.845,-2464.605,6467.759999999999
1764767059.596475,10076.085,-5191.56,-39539.745,-19169.19,-14259.69,-31209.165,-2470.365,6460.38
1764767059.596475,10083.78,-5182.38,-39531.6,-19161.18,-14251.455,-31201.47,-2462.805,6469.785
1764767059.596475,10082.88,-5183.505,-39532.14,-19161.99,-14253.255,-31203.45,-2464.335,6469.02
1764767059.596475,10075.41,-5190.929999999999,-39539.385,-19169.19,-14260.77,-31210.335,-2469.33,6462.09
1764767059.596475,10081.035,-5183.865,-39532.905,-19162.215,-14253.39,-31202.955,-2464.695,6469.11
1764767059.596475,10084.095,-5180.94,-39530.34,-19159.065,-14250.645,-31200.255,-2462.805,6471.495
1764767059.596475,10082.97,-5183.415,-39533.265,-19161.09,-14252.04,-31201.92,-2464.155,6469.155
1764767059.596475,10073.61,-5194.485,-39543.75,-19171.08,-14261.805,-31212.135,-2472.615,6458.58
1764767059.596475,10071.585,-5197.095,-39545.235,-19173.42,-14264.595,-31214.745,-2475.765,6455.925
1764767059.639483,10082.295,-5185.26,-39533.58,-19161.63,-14252.49,-31203.315,-2466.99,6466.185
1764767059.639483,10070.82,-5196.465,-39544.83,-19171.98,-14262.84,-31213.8,-2476.08,6455.295
1764767059.639483,10071.27,-5193.72,-39541.725,-19168.65,-14260.275,-31211.64,-2474.55,6456.96
1764767059.639483,10075.095,-5187.69,-39535.29,-19162.575,-14253.615,-31205.385,-2469.33,6462.99
1764767059.639483,10085.4,-5176.62,-39524.805,-19152.45,-14241.78,-31192.83,-2457.765,6475.139999999999
1764767059.639483,10085.67,-5177.115,-39525.12,-19152.045,-14241.285,-31192.695,-2458.08,6474.825
1764767059.639483,10083.195,-5181.615,-39529.17,-19156.77,-14245.695,-31197.105,-2462.22,6470.46
1764767059.639483,10075.005,-5190.57,-39537.945,-19165.995,-14254.38,-31206.6,-2469.465,6461.235
1764767059.6400132,10078.83,-5186.88,-39534.525,-19162.305,-14251.14,-31203.045,-2468.475,6464.745
1764767059.6400132,10077.615,-5188.86,-39537.18,-19164.96,-14253.345,-31205.565,-2470.05,6463.304999999999
1764767059.6400132,10086.12,-5178.285,-39526.74,-19153.665,-14241.33,-31193.19,-2460.735,6473.7
1764767059.6400132,10077.975,-5187.105,-39534.66,-19161.63,-14249.43,-31201.245,-2467.89,6466.05
1764767059.6400132,10083.87,-5179.77,-39526.965,-19152.855,-14240.25,-31191.345,-2460.87,6474.15
1764767059.6400132,10084.815,-5177.61,-39523.185,-19148.895,-14235.84,-31188.33,-2457.9,6476.085
1764767059.6400132,10083.6,-5179.139999999999,-39525.075,-19151.865,-14238.855,-31191.165,-2459.34,6475.05
1764767059.6400132,10073.475,-5190.21,-39537.09,-19164.195,-14251.995,-31203.675,-2470.455,6463.395
1764767059.6400132,10078.38,-5185.395,-39531.33,-19158.39,-14246.01,-31197.24,-2465.595,6468.57
1764767059.6400132,10075.41,-5189.22,-39535.245,-19162.485,-14249.43,-31200.48,-2467.71,6465.014999999999
1764767059.6400132,10079.73,-5183.955,-39529.485,-19157.22,-14244.075,-31195.485,-2466.18,6467.985
1764767059.6400132,10075.14,-5189.4,-39535.29,-19163.97,-14249.88,-31201.515,-2470.995,6462.719999999999
1764767059.6400132,10084.635,-5179.905,-39525.615,-19154.115,-14239.215,-31190.13,-2460.465,6473.745
1764767059.6400132,10081.17,-5182.875,-39528.36,-19157.265,-14242.95,-31193.64,-2464.29,6469.335
1764767059.6876178,10070.37,-5194.035,-39539.475,-19168.38,-14255.415,-31205.61,-2474.145,6458.849999999999
1764767059.6876178,10066.185,-5198.13,-39543.12,-19171.89,-14257.395,-31209.12,-2478.915,6455.52
1764767059.688624,10072.665,-5190.84,-39535.38,-19164.915,-14251.005,-31202.595,-2473.65,6463.08
1764767059.688624,10076.805,-5185.935,-39531.69,-19160.775,-14248.35,-31198.86,-2469.15,6467.355
1764767059.688624,10073.88,-5189.715,-39534.48,-19162.98,-14249.025,-31199.04,-2471.94,6462.9
1764767059.688624,10058.895,-5206.77,-39551.67,-19179.945,-14264.37,-31212.045,-2484.585,6447.69
1764767059.688624,10063.17,-5203.53,-39550.095,-19178.37,-14264.595,-31210.92,-2481.795,6451.695
1764767059.688624,10065.105,-5201.28,-39546.45,-19174.725,-14260.68,-31208.13,-2482.47,6451.469999999999
1764767059.688624,10065.06,-5200.83,-39545.55,-19174.5,-14259.195,-31207.59,-2483.28,6450.66
1764767059.688624,10061.775,-5203.215,-39549.645,-19179.45,-14264.64,-31212.81,-2485.98,6448.139999999999
1764767059.688624,10060.56,-5202.405,-39547.755,-19178.145,-14263.83,-31212.45,-2484.63,6448.23
1764767059.688624,10058.85,-5203.53,-39548.745,-19179.585,-14264.91,-31212.945,-2485.44,6446.88
1764767059.688624,10058.67,-5204.565,-39549.555,-19179.99,-14265.225,-31212.09,-2483.82,6447.509999999999
1764767059.688624,10059.48,-5202.405,-39547.305,-19179.045,-14264.505,-31212.495,-2483.595,6447.509999999999
1764767059.688624,10062.27,-5199.3,-39545.1,-19177.425,-14262.615,-31210.56,-2481.615,6449.625
1764767059.688624,10059.93,-5201.82,-39547.98,-19179.945,-14265.675,-31213.62,-2484.54,6446.474999999999
1764767059.688624,10050.975,-5212.53,-39558.69,-19189.44,-14275.53,-31223.43,-2493.855,6436.53
1764767059.6897607,10053.45,-5210.415,-39555.99,-19186.2,-14272.2,-31219.11,-2489.895,6439.724999999999
1764767059.6897607,10063.89,-5198.715,-39544.83,-19175.13,-14260.815,-31207.86,-2481.075,6451.11
1764767059.6897607,10056.015,-5206.365,-39552.885,-19183.905,-14269.545,-31216.95,-2489.265,6442.155
1764767059.6897607,10058.535,-5202.81,-39548.745,-19181.115,-14266.44,-31214.88,-2486.88,6446.07
1764767059.6897607,10048.365,-5213.88,-39560.355,-19191.69,-14276.565,-31224.69,-2495.97,6436.08
1764767059.7337687,10053.855,-5207.49,-39554.19,-19185.165,-14268.465,-31216.59,-2490.39,6442.469999999999
1764767059.7337687,10056.06,-5204.34,-39552.255,-19183.455,-14266.71,-31214.745,-2487.69,6445.62
1764767059.7337687,10057.545,-5203.755,-39549.645,-19181.745,-14264.325,-31212.72,-2486.745,6447.105
1764767059.7337687,10058.715,-5203.08,-39547.935,-19180.935,-14263.515,-31211.595,-2485.755,6447.645
1764767059.7337687,10051.92,-5209.38,-39554.145,-19186.155,-14268.69,-31217.49,-2491.2,6439.995
1764767059.7337687,10054.26,-5207.94,-39554.865,-19186.155,-14267.79,-31214.97,-2488.23,6443.054999999999
1764767059.7337687,10065.555,-5195.745,-39542.445,-19173.825,-14256.45,-31203.0,-2479.365,6454.125
1764767059.7337687,10054.125,-5207.94,-39555.27,-19185.795,-14267.115,-31213.44,-2488.635,6441.884999999999
1764767059.7337687,10053.135,-5208.12,-39554.46,-19185.21,-14265.315,-31212.9,-2487.825,6441.615
1764767059.7337687,10052.82,-5208.255,-39554.415,-19184.895,-14266.35,-31213.53,-2488.5,6442.245
1764767059.7337687,10052.955,-5207.355,-39553.02,-19184.355,-14265.405,-31212.765,-2488.545,6443.594999999999
1764767059.7337687,10055.205,-5203.44,-39548.97,-19180.305,-14262.84,-31210.38,-2485.44,6446.61
1764767059.7337687,10056.42,-5201.145,-39546.945,-19177.92,-14259.645,-31206.825,-2482.065,6449.31
1764767059.7337687,10065.87,-5191.245,-39537.765,-19168.605,-14248.755,-31195.305,-2473.155,6459.48
1764767059.7353077,10071.54,-5185.755,-39532.545,-19164.24,-14244.57,-31190.625,-2468.655,6463.44
1764767059.7353077,10075.185,-5181.929999999999,-39528.18,-19159.965,-14240.7,-31186.98,-2464.92,6466.455
1764767059.7353077,10077.03,-5179.86,-39526.02,-19157.445,-14238.99,-31185.09,-2462.67,6468.705
1764767059.7353077,10066.68,-5189.22,-39536.325,-19167.39,-14248.755,-31194.54,-2470.815,6459.435
1764767059.7353077,10063.845,-5192.145,-39538.845,-19169.82,-14250.69,-31196.88,-2473.155,6457.995
1764767059.7353077,10057.95,-5199.255,-39544.875,-19176.795,-14257.755,-31204.53,-2480.4,6450.974999999999
1764767059.7353077,10056.735,-5200.2,-39545.415,-19178.055,-14258.655,-31206.105,-2480.985,6450.48
1764767059.7353077,10058.58,-5197.635,-39542.76,-19176.03,-14256.63,-31203.945,-2478.645,6453.405
1764767059.7353077,10066.5,-5189.94,-39535.83,-19168.92,-14250.015,-31195.53,-2471.445,6461.37
1764767059.7353077,10061.73,-5195.025,-39540.465,-19173.465,-14255.37,-31200.93,-2476.035,6456.554999999999
1764767059.7353077,10065.42,-5191.47,-39537.315,-19169.145,-14249.97,-31195.575,-2473.335,6459.705
1764767059.7353077,10060.605,-5196.33,-39542.265,-19173.375,-14255.37,-31200.435,-2477.43,6453.63
1764767059.7816715,10068.435,-5186.745,-39530.835,-19161.135,-14242.725,-31189.5,-2470.995,6461.19
1764767059.7816715,10066.365,-5188.995,-39533.85,-19164.195,-14246.1,-31191.795,-2472.39,6459.57
1764767059.7816715,10067.13,-5187.465,-39533.265,-19164.78,-14246.415,-31191.795,-2470.365,6461.594999999999
1764767059.7816715,10061.775,-5192.19,-39537.81,-19169.145,-14251.41,-31197.645,-2474.73,6456.15
1764767059.7816715,10050.48,-5204.115,-39549.78,-19181.52,-14263.695,-31210.245,-2485.035,6444.36
1764767059.7816715,10057.32,-5196.599999999999,-39541.275,-19174.14,-14256.045,-31203.27,-2479.23,6452.73
1764767059.7816715,10057.86,-5195.115,-39539.52,-19172.115,-14254.605,-31200.705,-2478.33,6455.295
1764767059.7816715,10052.73,-5200.74,-39545.37,-19178.145,-14260.005,-31205.43,-2482.29,6450.03
1764767059.7816715,10043.82,-5211.09,-39554.64,-19187.505,-14269.68,-31215.69,-2492.415,6439.275
1764767059.782682,10053.63,-5201.37,-39546.18,-19178.73,-14261.715,-31208.04,-2484.63,6447.645
1764767059.782682,10057.86,-5196.599999999999,-39541.32,-19173.69,-14256.225,-31203.045,-2479.68,6451.245
1764767059.782682,10044.72,-5209.92,-39553.47,-19186.74,-14268.69,-31214.43,-2490.165,6439.95
1764767059.782682,10041.48,-5212.755,-39555.225,-19188.405,-14270.175,-31215.915,-2492.46,6438.105
1764767059.782682,10049.58,-5204.295,-39546.225,-19179.09,-14260.455,-31205.97,-2484.63,6447.06
1764767059.782682,10045.485,-5208.03,-39550.095,-19183.14,-14264.145,-31208.895,-2487.735,6443.235
1764767059.782682,10047.33,-5205.645,-39547.71,-19181.16,-14262.705,-31208.805,-2486.52,6445.755
1764767059.782682,10039.14,-5215.139999999999,-39557.835,-19192.86,-14274.135,-31219.875,-2495.34,6435.719999999999
1764767059.782682,10036.35,-5218.965,-39561.435,-19195.74,-14276.745,-31222.125,-2498.805,6431.31
1764767059.782682,10042.56,-5212.395,-39554.145,-19187.28,-14270.265,-31215.015,-2493.54,6437.745
1764767059.782682,10048.275,-5206.5,-39548.475,-19182.24,-14265.315,-31209.84,-2488.905,6442.83
1764767059.782682,10049.49,-5205.195,-39545.64,-19179.72,-14262.3,-31206.78,-2487.69,6443.054999999999
1764767059.782682,10043.73,-5211.72,-39552.795,-19186.56,-14269.59,-31213.845,-2492.865,6438.06
1764767059.828591,10035.945,-5219.054999999999,-39561.345,-19195.335,-14277.465,-31221.72,-2498.94,6431.085
1764767059.828591,10037.97,-5215.679999999999,-39557.655,-19192.05,-14275.755,-31220.145,-2498.985,6432.615
1764767059.828591,10028.25,-5226.255,-39568.635,-19201.5,-14284.98,-31230.27,-2506.995,6422.445
1764767059.828591,10022.58,-5232.599999999999,-39575.295,-19208.655,-14292.135,-31236.165,-2511.765,6417.045
1764767059.828591,10022.085,-5233.139999999999,-39574.62,-19209.465,-14292.045,-31236.615,-2511.99,6416.37
1764767059.828591,10024.92,-5229.72,-39569.985,-19205.1,-14287.32,-31232.34,-2510.595,6418.844999999999
1764767059.829917,10033.155,-5221.53,-39561.57,-19197.27,-14278.77,-31223.97,-2503.53,6427.8
1764767059.829917,10030.365,-5224.815,-39564.54,-19199.79,-14281.92,-31227.165,-2505.735,6424.469999999999
1764767059.829917,10039.995,-5214.195,-39554.19,-19189.89,-14271.39,-31216.5,-2497.455,6434.415
1764767059.830267,10038.105,-5215.86,-39555.45,-19192.365,-14273.685,-31218.84,-2499.075,6432.795
1764767059.830267,10031.04,-5223.33,-39564.045,-19201.365,-14283.945,-31228.56,-2505.78,6425.505
1764767059.830267,10023.21,-5231.205,-39571.965,-19210.095,-14291.775,-31236.84,-2513.07,6418.08
1764767059.830267,10022.67,-5231.34,-39571.65,-19208.655,-14289.84,-31234.59,-2512.755,6418.62
1764767059.830267,10034.01,-5218.38,-39559.41,-19195.875,-14277.645,-31221.36,-2501.64,6431.985
1764767059.830267,10036.35,-5216.804999999999,-39557.07,-19192.86,-14274.315,-31218.03,-2498.895,6434.009999999999
1764767059.830267,10022.085,-5231.205,-39570.39,-19205.82,-14287.455,-31233.285,-2513.97,6417.719999999999
1764767059.830267,10024.155,-5228.91,-39567.645,-19202.805,-14284.53,-31230.945,-2512.845,6420.87
1764767059.830267,10024.245,-5230.304999999999,-39568.815,-19203.57,-14285.43,-31230.72,-2513.385,6420.825
1764767059.830267,10022.76,-5232.599999999999,-39572.19,-19206.0,-14289.165,-31233.15,-2515.77,6417.405
1764767059.830267,10009.125,-5246.91,-39585.51,-19219.14,-14301.045,-31245.57,-2527.38,6402.825
1764767059.830267,10008.81,-5245.155,-39582.45,-19216.17,-14298.255,-31243.005,-2525.085,6404.219999999999
1764767059.830267,10017.18,-5234.22,-39571.695,-19204.065,-14286.87,-31231.44,-2514.015,6415.695
1764767059.830267,10026.585,-5222.79,-39561.165,-19192.815,-14275.485,-31220.865,-2504.88,6426.81
1764767059.830267,10014.705,-5236.245,-39573.675,-19206.045,-14288.76,-31234.365,-2516.67,6414.344999999999
1764767059.873625,10016.37,-5235.525,-39572.325,-19204.695,-14288.445,-31234.095,-2517.345,6414.66
1764767059.873625,10009.125,-5243.49,-39580.38,-19213.155,-14297.13,-31242.33,-2524.05,6405.75
1764767059.873625,10014.12,-5238.27,-39575.565,-19208.07,-14292.045,-31236.84,-2520.72,6410.745
1764767059.873625,10013.04,-5241.195,-39578.85,-19210.275,-14295.33,-31239.36,-2523.87,6408.495
1764767059.873625,10008.045,-5245.74,-39583.53,-19214.505,-14299.29,-31243.275,-2528.415,6404.13
1764767059.873625,9994.995,-5259.105,-39595.815,-19227.78,-14312.79,-31257.585,-2540.565,6390.675
1764767059.873625,10000.125,-5251.365,-39588.21,-19219.23,-14304.69,-31250.115,-2535.615,6396.75
1764767059.873625,9995.805,-5255.145,-39591.675,-19222.065,-14308.065,-31252.995,-2539.035,6392.295
1764767059.873625,10003.635,-5246.099999999999,-39583.215,-19214.055,-14298.21,-31243.095,-2529.675,6401.61
1764767059.873625,9998.01,-5252.264999999999,-39589.335,-19219.86,-14302.485,-31246.335,-2532.915,6397.469999999999
1764767059.873625,10005.435,-5245.065,-39581.865,-19211.22,-14295.105,-31238.505,-2527.785,6405.3
1764767059.873625,10003.23,-5248.575,-39584.7,-19213.11,-14297.04,-31241.025,-2531.025,6401.61
1764767059.873625,10003.68,-5248.304999999999,-39584.025,-19212.705,-14295.645,-31239.63,-2530.305,6401.429999999999
1764767059.873625,10006.47,-5245.47,-39580.92,-19210.05,-14293.44,-31237.56,-2529.09,6403.679999999999
1764767059.8741322,10005.93,-5246.91,-39582.045,-19210.95,-14294.97,-31239.585,-2531.07,6402.42
1764767059.8741322,10001.385,-5251.5,-39586.365,-19214.82,-14298.705,-31244.13,-2535.885,6398.19
1764767059.8741322,9999.81,-5253.345,-39587.265,-19215.765,-14298.615,-31244.715,-2536.605,6396.75
1764767059.8741322,9999.675,-5253.389999999999,-39588.57,-19216.89,-14300.505,-31245.75,-2536.965,6397.469999999999
1764767059.8741322,9998.19,-5253.705,-39588.705,-19215.9,-14298.39,-31244.265,-2537.685,6396.795
1764767059.8741322,9992.34,-5259.465,-39593.835,-19220.445,-14302.845,-31249.125,-2543.445,6389.91
1764767059.8741322,9980.505,-5271.795,-39606.75,-19233.675,-14316.975,-31261.68,-2554.605,6377.76
1764767059.8741322,9984.915,-5267.7,-39601.395,-19228.23,-14312.25,-31257.63,-2552.04,6382.575
1764767059.9213102,9985.905,-5267.205,-39599.595,-19225.98,-14310.18,-31255.605,-2551.725,6382.08
1764767059.9213102,9982.98,-5271.615,-39604.455,-19231.47,-14315.04,-31259.25,-2553.795,6378.48
1764767059.9213102,9993.285,-5260.95,-39593.565,-19220.31,-14303.115,-31247.685,-2544.435,6389.91
1764767059.9213102,9990.585,-5263.335,-39595.59,-19221.255,-14304.825,-31248.72,-2546.865,6388.155
1764767059.9213102,9987.345,-5267.205,-39599.325,-19224.855,-14309.055,-31252.95,-2549.025,6385.32
1764767059.9213102,9975.15,-5279.13,-39609.99,-19235.295,-14319.36,-31263.3,-2559.195,6373.26
1764767059.9213102,9983.565,-5268.78,-39600.135,-19225.44,-14309.64,-31253.67,-2552.445,6382.53
1764767059.9213102,9988.65,-5263.155,-39595.545,-19220.31,-14304.465,-31248.855,-2546.595,6388.92
1764767059.9213102,9991.125,-5259.645,-39591.855,-19215.72,-14300.28,-31244.265,-2543.49,6391.53
1764767059.922317,9987.705,-5263.92,-39595.095,-19218.6,-14303.07,-31246.875,-2547.54,6386.985
1764767059.922317,9982.08,-5270.985,-39602.34,-19225.395,-14310.495,-31254.39,-2554.74,6380.235
1764767059.922317,9971.235,-5282.82,-39613.14,-19236.555,-14320.98,-31264.83,-2564.19,6368.76
1764767059.922317,9975.555,-5278.545,-39608.865,-19231.695,-14316.345,-31261.41,-2562.255,6372.45
1764767059.922317,9972.18,-5281.605,-39611.88,-19233.945,-14319.225,-31264.515,-2566.845,6368.76
1764767059.922317,9971.055,-5282.235,-39613.005,-19234.98,-14319.27,-31262.715,-2564.595,6369.435
1764767059.922317,9969.03,-5283.405,-39614.49,-19235.97,-14318.955,-31261.41,-2563.47,6369.21
1764767059.922317,9964.17,-5288.445,-39618.72,-19240.29,-14322.96,-31266.81,-2567.88,6363.224999999999
1764767059.922317,9968.985,-5281.965,-39612.195,-19233.315,-14316.795,-31261.86,-2564.055,6367.995
1764767059.922317,9959.535,-5292.72,-39624.12,-19245.015,-14328.72,-31273.56,-2574.045,6357.554999999999
1764767059.922317,9952.695,-5299.695,-39629.925,-19249.965,-14334.03,-31278.78,-2580.705,6350.76
1764767059.922317,9951.57,-5301.72,-39631.86,-19251.18,-14334.615,-31279.14,-2583.54,6348.465
1764767059.922317,9958.635,-5294.115,-39625.065,-19243.485,-14326.47,-31270.59,-2576.925,6356.025
1764767059.922317,9964.845,-5286.51,-39617.82,-19235.07,-14318.415,-31262.76,-2569.32,6363.9
1764767059.922317,9955.17,-5296.005,-39626.955,-19243.44,-14327.415,-31272.21,-2577.78,6354.315
1764767059.9687274,9962.325,-5286.96,-39617.64,-19234.665,-14318.46,-31263.705,-2570.805,6362.955
1764767059.9687274,9955.26,-5293.349999999999,-39623.175,-19240.92,-14325.93,-31271.715,-2576.205,6356.61
1764767059.9697342,9953.55,-5295.15,-39624.39,-19241.955,-14326.155,-31272.165,-2577.915,6355.53
1764767059.9697342,9962.73,-5285.474999999999,-39614.805,-19232.145,-14314.725,-31259.925,-2567.295,6366.69
1764767059.9697342,9966.195,-5282.865,-39612.645,-19230.66,-14314.77,-31259.34,-2565.99,6368.804999999999
1764767059.9697342,9959.265,-5291.325,-39619.305,-19236.645,-14320.26,-31265.82,-2574.18,6360.929999999999
1764767059.9697342,9947.34,-5302.53,-39628.62,-19244.34,-14327.145,-31274.415,-2584.215,6348.735
1764767059.9697342,9957.555,-5290.74,-39618.27,-19233.99,-14318.415,-31265.595,-2574.9,6359.31
1764767059.9697342,9961.65,-5285.835,-39613.5,-19229.76,-14314.365,-31260.825,-2570.22,6363.45
1764767059.9697342,9958.77,-5290.47,-39618.18,-19234.08,-14317.74,-31263.12,-2573.685,6359.985
1764767059.9697342,9957.285,-5292.09,-39619.89,-19234.305,-14317.065,-31260.51,-2571.435,6360.03
1764767059.9697342,9950.94,-5297.715,-39625.605,-19239.93,-14324.265,-31268.34,-2576.295,6354.719999999999
1764767059.9697342,9958.41,-5289.255,-39616.695,-19230.615,-14315.895,-31261.815,-2571.39,6362.145
1764767059.9697342,9957.195,-5289.795,-39617.82,-19230.84,-14316.3,-31262.265,-2572.965,6359.715
1764767059.9697342,9946.935,-5301.135,-39628.17,-19241.145,-14325.705,-31271.715,-2582.055,6348.825
1764767059.9697342,9944.775,-5303.79,-39630.06,-19243.125,-14328.18,-31274.28,-2583.54,6347.429999999999
1764767059.9697342,9946.665,-5303.115,-39628.845,-19241.505,-14326.875,-31272.165,-2583.63,6348.69
1764767059.9697342,9958.41,-5290.875,-39616.56,-19229.67,-14315.445,-31259.835,-2573.595,6361.155
1764767059.9697342,9955.395,-5292.495,-39617.64,-19231.02,-14318.1,-31263.705,-2576.97,6357.87
1764767059.9697342,9941.67,-5306.22,-39630.87,-19244.205,-14330.97,-31276.53,-2588.355,6343.83
1764767059.9697342,9952.56,-5295.42,-39619.305,-19232.28,-14318.145,-31263.12,-2577.465,6356.07
1764767059.9697342,9955.665,-5292.585,-39617.505,-19229.085,-14315.805,-31260.6,-2575.26,6359.13
1764767060.0156634,9955.305,-5291.054999999999,-39617.1,-19228.905,-14315.715,-31260.735,-2573.775,6360.75
1764767060.0156634,9958.59,-5286.69,-39612.825,-19224.945,-14311.665,-31256.37,-2570.13,6364.395
1764767060.0156634,9955.53,-5292.09,-39617.82,-19229.355,-14316.525,-31262.31,-2575.35,6359.13
1764767060.0156634,9947.025,-5301.63,-39625.605,-19237.095,-14324.175,-31270.545,-2582.955,6349.905
1764767060.0156634,9949.905,-5299.335,-39624.255,-19235.115,-14322.69,-31268.295,-2580.84,6353.01
1764767060.0161748,9941.76,-5307.84,-39632.58,-19242.99,-14331.645,-31276.89,-2588.58,6344.28
1764767060.0161748,9948.195,-5301.045,-39625.92,-19235.835,-14324.085,-31269.465,-2583.72,6350.58
1764767060.0161748,9943.335,-5305.635,-39631.365,-19240.29,-14327.28,-31273.02,-2587.77,6346.844999999999
1764767060.0161748,9940.455,-5307.75,-39633.39,-19242.765,-14330.61,-31276.305,-2590.965,6344.46
1764767060.0161748,9929.16,-5319.495,-39644.955,-19253.52,-14342.31,-31288.23,-2601.72,6332.535
1764767060.0161748,9934.785,-5313.645,-39637.8,-19247.13,-14335.245,-31281.975,-2596.095,6339.285
1764767060.0161748,9925.11,-5323.77,-39646.8,-19256.49,-14345.01,-31291.785,-2604.24,6328.62
1764767060.0161748,9923.805,-5326.425,-39651.03,-19259.865,-14349.105,-31295.565,-2606.67,6327.585
1764767060.0161748,9929.385,-5321.429999999999,-39645.855,-19254.645,-14344.515,-31290.12,-2603.52,6332.715
1764767060.0161748,9918.72,-5332.23,-39655.035,-19261.395,-14350.77,-31296.105,-2612.43,6320.429999999999
1764767060.0161748,9919.71,-5330.88,-39653.37,-19258.875,-14349.105,-31296.015,-2612.34,6320.474999999999
1764767060.0161748,9929.115,-5321.205,-39644.73,-19249.965,-14340.555,-31287.735,-2604.915,6329.969999999999
1764767060.0161748,9918.9,-5332.05,-39655.395,-19260.045,-14350.995,-31298.31,-2614.5,6319.575
1764767060.0161748,9923.13,-5326.695,-39649.095,-19254.24,-14344.74,-31292.19,-2608.83,6325.65
1764767060.0161748,9919.44,-5327.82,-39650.535,-19256.22,-14347.44,-31295.385,-2609.73,6323.76
1764767060.0161748,9926.865,-5320.304999999999,-39643.875,-19249.74,-14341.23,-31288.68,-2604.24,6331.32
1764767060.0161748,9927.045,-5320.665,-39643.965,-19250.19,-14341.995,-31289.535,-2604.465,6331.094999999999
1764767060.0161748,9921.735,-5327.82,-39649.455,-19255.59,-14348.07,-31295.34,-2609.28,6324.974999999999
1764767060.0161748,9911.025,-5338.44,-39659.67,-19265.49,-14356.755,-31304.07,-2618.1,6315.12
1764767060.062205,9914.49,-5333.58,-39655.44,-19260.45,-14352.57,-31299.93,-2615.31,6318.9
1764767060.062205,9930.915,-5315.445,-39638.115,-19242.495,-14335.065,-31283.28,-2599.785,6335.73
1764767060.062205,9935.595,-5310.99,-39632.58,-19236.33,-14330.34,-31278.015,-2595.78,6339.78
1764767060.062205,9928.755,-5318.099999999999,-39639.555,-19243.755,-14337.99,-31284.045,-2602.26,6333.795
1764767060.062205,9925.56,-5321.655,-39642.345,-19246.41,-14338.53,-31283.19,-2602.35,6332.085
1764767060.062205,9917.37,-5328.99,-39650.355,-19254.06,-14346.495,-31291.605,-2608.965,6323.58
1764767060.062205,9919.08,-5325.389999999999,-39647.835,-19251.45,-14344.83,-31290.255,-2607.255,6326.01
1764767060.062205,9928.845,-5314.815,-39636.18,-19240.02,-14333.085,-31279.095,-2598.075,6337.08
1764767060.062205,9931.77,-5312.97,-39633.255,-19237.41,-14330.88,-31277.655,-2596.5,6339.24
1764767060.062205,9929.07,-5316.615,-39636.36,-19238.85,-14332.59,-31279.77,-2600.19,6335.01
1764767060.062205,9927.0,-5319.675,-39639.42,-19240.515,-14334.03,-31281.12,-2602.125,6332.94
1764767060.062205,9930.105,-5316.435,-39636.675,-19237.455,-14331.33,-31277.835,-2598.93,6336.54
1764767060.062205,9937.44,-5307.48,-39628.215,-19228.32,-14321.7,-31268.43,-2591.19,6344.054999999999
1764767060.062205,9937.26,-5305.77,-39626.28,-19225.44,-14319.135,-31265.505,-2589.255,6345.495
1764767060.062205,9940.41,-5301.405,-39623.49,-19221.705,-14315.715,-31262.265,-2582.64,6350.13
1764767060.062205,9945.18,-5294.79,-39616.74,-19214.325,-14307.975,-31255.425,-2576.07,6356.385
1764767060.062205,9956.385,-5283.179999999999,-39605.13,-19201.86,-14294.43,-31241.43,-2564.28,6368.625
1764767060.062205,9949.005,-5291.55,-39612.87,-19210.545,-14303.88,-31250.565,-2571.57,6360.66
1764767060.062205,9947.745,-5292.179999999999,-39613.185,-19209.87,-14303.43,-31251.465,-2573.415,6358.95
1764767060.062205,9957.42,-5284.215,-39605.4,-19202.715,-14296.545,-31242.96,-2565.09,6368.175
1764767060.062205,9959.4,-5282.37,-39603.285,-19201.365,-14295.555,-31241.7,-2562.795,6369.435
1764767060.062723,9950.31,-5291.415,-39612.69,-19211.175,-14304.33,-31250.295,-2569.77,6361.514999999999
1764767060.062723,9952.155,-5289.615,-39610.17,-19206.945,-14299.785,-31245.615,-2569.815,6362.685
1764767060.062723,9938.52,-5303.565,-39624.3,-19219.41,-14312.79,-31258.71,-2581.74,6348.78
1764767060.105164,9938.115,-5302.755,-39623.805,-19219.905,-14314.41,-31260.195,-2582.955,6348.735
1764767060.105164,9947.88,-5292.54,-39613.32,-19209.015,-14305.005,-31250.025,-2574.9,6358.635
1764767060.105164,9941.22,-5299.514999999999,-39621.105,-19216.845,-14313.915,-31258.44,-2579.715,6352.245
1764767060.105164,9934.785,-5305.545,-39624.975,-19220.22,-14317.245,-31262.715,-2584.62,6346.485
1764767060.105164,9934.335,-5305.815,-39626.145,-19220.4,-14317.92,-31262.49,-2584.98,6346.215
1764767060.105164,9933.12,-5308.335,-39629.025,-19221.75,-14319.09,-31263.48,-2586.645,6343.56
1764767060.105164,9934.65,-5306.355,-39627.9,-19219.32,-14316.93,-31262.265,-2585.385,6345.045
1764767060.105164,9947.835,-5291.505,-39612.33,-19203.615,-14301.585,-31247.055,-2573.37,6359.715
1764767060.105164,9949.365,-5289.84,-39609.405,-19201.905,-14299.92,-31244.715,-2572.695,6360.435
1764767060.105164,9935.01,-5305.275,-39625.29,-19219.005,-14316.795,-31261.905,-2586.15,6345.54
1764767060.105164,9935.91,-5303.565,-39623.445,-19217.79,-14315.49,-31260.555,-2585.115,6346.935
1764767060.1061952,9944.505,-5293.304999999999,-39612.375,-19207.44,-14305.995,-31251.015,-2576.43,6357.105
1764767060.1061952,9937.305,-5300.955,-39619.44,-19215.18,-14311.35,-31256.865,-2581.155,6350.58
1764767060.1061952,9939.735,-5298.525,-39617.1,-19212.84,-14307.705,-31253.13,-2577.645,6353.37
1764767060.1061952,9949.41,-5288.535,-39608.865,-19204.335,-14299.965,-31245.165,-2570.22,6363.54
1764767060.1061952,9952.605,-5285.16,-39605.085,-19200.825,-14297.445,-31242.555,-2566.755,6366.78
1764767060.1061952,9950.625,-5287.139999999999,-39607.47,-19202.445,-14301.09,-31245.795,-2570.085,6364.125
1764767060.1061952,9948.96,-5288.94,-39608.055,-19202.49,-14301.945,-31246.92,-2571.93,6361.38
1764767060.1061952,9952.695,-5285.295,-39603.105,-19197.315,-14297.04,-31241.79,-2566.665,6366.69
1764767060.1061952,9948.825,-5289.885,-39607.47,-19202.715,-14303.385,-31248.18,-2571.705,6362.415
1764767060.1061952,9944.685,-5293.889999999999,-39611.61,-19206.945,-14307.345,-31253.13,-2575.8,6358.41
1764767060.1061952,9936.945,-5301.179999999999,-39618.9,-19214.055,-14314.365,-31260.555,-2582.19,6349.995
1764767060.1061952,9943.47,-5293.62,-39611.7,-19206.72,-14307.57,-31253.535,-2575.8,6357.735
1764767060.1061952,9938.295,-5299.335,-39618.18,-19214.1,-14314.68,-31259.295,-2579.49,6352.335
1764767060.1520634,9935.91,-5301.945,-39620.43,-19216.845,-14316.3,-31260.915,-2580.84,6350.804999999999
1764767060.1520634,9933.93,-5304.33,-39622.545,-19219.05,-14319.405,-31264.875,-2583.855,6347.925
1764767060.1520634,9935.145,-5303.79,-39622.23,-19219.86,-14320.755,-31266.72,-2584.26,6348.51
1764767060.1520634,9936.585,-5301.72,-39620.25,-19217.52,-14318.28,-31264.29,-2583.27,6349.679999999999
1764767060.1520634,9947.97,-5288.625,-39606.84,-19203.48,-14303.475,-31248.9,-2571.66,6363.224999999999
1764767060.1520634,9948.825,-5286.195,-39605.22,-19202.4,-14301.63,-31246.245,-2568.195,6366.51
1764767060.1520634,9947.205,-5287.455,-39607.065,-19204.785,-14304.105,-31249.62,-2568.915,6364.26
1764767060.1520634,9957.51,-5275.035,-39594.105,-19191.33,-14291.28,-31237.29,-2557.845,6376.905
1764767060.1520634,9959.4,-5272.02,-39591.09,-19188.18,-14287.995,-31234.86,-2554.155,6380.46
1764767060.1520634,9951.12,-5281.65,-39599.82,-19198.035,-14296.32,-31244.58,-2561.985,6371.415
1764767060.1520634,9955.98,-5277.645,-39595.275,-19194.165,-14291.865,-31240.215,-2558.745,6375.375
1764767060.1520634,9949.005,-5285.745,-39604.095,-19203.12,-14302.035,-31250.25,-2567.61,6366.78
1764767060.1520634,9948.42,-5286.195,-39605.085,-19204.965,-14305.095,-31252.68,-2569.095,6366.375
1764767060.1520634,9956.565,-5278.095,-39595.005,-19195.155,-14293.035,-31241.25,-2560.455,6374.88
1764767060.1520634,9964.125,-5270.355,-39587.22,-19186.695,-14283.18,-31231.53,-2552.265,6382.26
1764767060.1530886,9959.085,-5274.945,-39592.89,-19193.04,-14289.345,-31236.39,-2557.62,6377.264999999999
1764767060.1530886,9957.06,-5276.925,-39594.645,-19197.405,-14291.955,-31239.27,-2559.195,6374.925
1764767060.1530886,9948.33,-5286.15,-39603.6,-19206.63,-14301.45,-31249.26,-2566.215,6365.835
1764767060.1530886,9947.295,-5287.139999999999,-39605.04,-19207.755,-14302.26,-31249.98,-2566.935,6365.385
1764767060.1530886,9948.6,-5285.79,-39603.96,-19205.91,-14301.0,-31247.82,-2565.315,6367.455
1764767060.1530886,9947.835,-5286.195,-39603.915,-19205.685,-14300.235,-31247.775,-2566.08,6366.915
1764767060.1530886,9945.495,-5288.715,-39606.345,-19208.295,-14302.395,-31250.79,-2568.96,6364.304999999999
1764767060.1997647,9946.035,-5289.12,-39607.65,-19210.14,-14304.735,-31252.995,-2570.715,6363.36
1764767060.1997647,9947.34,-5285.97,-39605.805,-19207.98,-14302.755,-31250.745,-2569.23,6365.25
1764767060.1997647,9957.645,-5274.72,-39594.015,-19195.965,-14291.955,-31238.64,-2559.78,6376.275
1764767060.1997647,9953.235,-5280.389999999999,-39599.73,-19202.67,-14298.255,-31244.445,-2565.135,6371.235
1764767060.1997647,9941.535,-5292.99,-39611.565,-19216.215,-14312.34,-31258.26,-2575.98,6358.32
1764767060.1997647,9940.59,-5292.945,-39610.62,-19216.485,-14312.295,-31259.34,-2576.34,6358.77
1764767060.1997647,9950.895,-5280.75,-39599.28,-19205.235,-14301.315,-31249.035,-2567.565,6370.695
1764767060.1997647,9948.87,-5282.19,-39600.99,-19206.765,-14302.935,-31251.195,-2568.51,6368.355
1764767060.1997647,9936.585,-5296.724999999999,-39614.805,-19220.04,-14316.165,-31263.03,-2578.995,6355.035
1764767060.1997647,9932.355,-5300.775,-39618.72,-19223.685,-14320.665,-31266.27,-2583.27,6350.4
1764767060.1997647,9936.675,-5296.59,-39615.48,-19220.67,-14318.145,-31263.255,-2578.815,6355.304999999999
1764767060.1997647,9951.795,-5279.895,-39598.29,-19204.155,-14301.99,-31248.18,-2565.045,6371.28
1764767060.1997647,9955.755,-5274.764999999999,-39593.565,-19198.935,-14296.05,-31243.68,-2560.995,6375.285
1764767060.1997647,9949.59,-5281.29,-39599.37,-19204.515,-14303.205,-31251.195,-2567.295,6368.67
1764767060.1997647,9943.2,-5289.255,-39606.345,-19211.445,-14310.045,-31257.405,-2570.58,6363.09
1764767060.1997647,9950.085,-5281.02,-39598.425,-19203.39,-14301.18,-31247.955,-2564.46,6371.054999999999
1764767060.1997647,9948.69,-5281.47,-39600.27,-19205.55,-14302.665,-31250.205,-2565.405,6370.469999999999
1764767060.1997647,9939.555,-5290.965,-39608.595,-19213.2,-14311.53,-31260.825,-2573.28,6361.02
1764767060.1997647,9946.665,-5283.675,-39602.295,-19207.62,-14305.59,-31253.76,-2566.53,6368.804999999999
1764767060.1997647,9948.87,-5280.974999999999,-39600.135,-19205.19,-14303.61,-31250.88,-2564.01,6371.054999999999
1764767060.1997647,9939.06,-5292.224999999999,-39610.89,-19214.37,-14311.935,-31259.295,-2571.975,6360.12
1764767060.1997647,9941.67,-5289.705,-39608.415,-19212.165,-14309.37,-31255.74,-2569.77,6363.585
1764767060.1997647,9950.85,-5279.58,-39597.48,-19202.13,-14299.38,-31245.615,-2561.49,6373.395
1764767060.1997647,9934.695,-5296.77,-39615.84,-19220.49,-14318.595,-31265.595,-2578.32,6355.26
1764767060.2468233,9931.545,-5299.74,-39619.845,-19224.54,-14323.365,-31269.915,-2581.29,6353.685
1764767060.2468233,9937.26,-5292.495,-39610.44,-19213.38,-14311.08,-31259.115,-2574.945,6360.344999999999
1764767060.2468233,9932.31,-5296.455,-39614.715,-19217.79,-14315.94,-31265.595,-2579.76,6353.775
1764767060.2468233,9930.15,-5299.47,-39617.19,-19220.805,-14318.055,-31267.575,-2580.57,6352.02
1764767060.2468233,9930.69,-5299.2,-39616.695,-19220.04,-14316.705,-31265.55,-2579.715,6353.28
1764767060.2468233,9939.96,-5289.525,-39607.38,-19210.59,-14308.695,-31257.315,-2573.415,6362.415
1764767060.2468233,9942.03,-5286.78,-39604.95,-19208.07,-14306.58,-31255.47,-2571.48,6364.304999999999
1764767060.2468233,9939.015,-5289.255,-39607.785,-19210.95,-14309.28,-31258.44,-2572.965,6362.235
1764767060.2468233,9945.9,-5282.505,-39601.035,-19204.335,-14301.855,-31249.89,-2566.17,6370.335
1764767060.2468233,9929.97,-5299.83,-39617.19,-19219.995,-14317.2,-31264.155,-2580.165,6353.054999999999
1764767060.2468233,9924.3,-5305.77,-39623.58,-19226.34,-14324.445,-31272.12,-2585.385,6347.474999999999
1764767060.2468233,9925.83,-5302.71,-39619.89,-19223.64,-14320.98,-31268.88,-2582.73,6350.31
1764767060.2468233,9930.015,-5297.895,-39616.02,-19219.455,-14316.615,-31265.19,-2578.455,6354.81
1764767060.2468233,9936.18,-5290.74,-39607.965,-19212.255,-14309.235,-31258.485,-2572.83,6362.01
1764767060.2468233,9939.6,-5287.41,-39604.86,-19209.555,-14308.02,-31256.955,-2570.85,6365.295
1764767060.2468233,9940.365,-5287.77,-39605.535,-19210.095,-14308.29,-31256.505,-2569.5,6364.98
1764767060.247347,9936.225,-5291.73,-39608.55,-19214.055,-14311.845,-31259.52,-2572.785,6360.48
1764767060.247347,9945.045,-5281.695,-39598.56,-19204.965,-14302.035,-31250.115,-2564.73,6371.099999999999
1764767060.247347,9948.915,-5277.96,-39593.79,-19200.285,-14297.13,-31245.39,-2559.555,6376.32
1764767060.247347,9945.405,-5281.514999999999,-39597.75,-19204.38,-14300.955,-31249.575,-2563.92,6371.054999999999
1764767060.247347,9944.46,-5282.595,-39600.315,-19207.71,-14304.195,-31252.815,-2564.865,6369.885
1764767060.247347,9934.11,-5294.07,-39611.925,-19219.995,-14316.66,-31265.73,-2574.405,6358.679999999999
1764767060.247347,9932.13,-5294.34,-39612.6,-19220.22,-14315.76,-31265.73,-2574.81,6358.005
1764767060.247347,9937.305,-5288.67,-39607.29,-19214.955,-14311.53,-31260.87,-2570.49,6364.035
1764767060.2941487,9930.15,-5296.995,-39615.48,-19224.315,-14321.25,-31269.825,-2577.69,6355.98
1764767060.2941487,9928.485,-5299.65,-39617.325,-19226.61,-14323.68,-31272.615,-2580.525,6353.054999999999
1764767060.2941487,9930.33,-5298.21,-39616.2,-19226.295,-14323.725,-31273.155,-2582.145,6353.55
1764767060.2941487,9928.71,-5299.695,-39616.11,-19226.565,-14323.815,-31273.47,-2581.965,6351.795
1764767060.295159,9945.72,-5281.38,-39598.425,-19209.195,-14306.76,-31254.705,-2563.92,6370.83
1764767060.295159,9942.48,-5283.81,-39600.9,-19211.04,-14308.605,-31255.695,-2563.605,6369.21
1764767060.295159,9951.075,-5273.505,-39591.45,-19201.68,-14299.605,-31246.29,-2555.28,6378.974999999999
1764767060.295159,9951.48,-5273.46,-39590.055,-19201.32,-14298.885,-31246.74,-2554.74,6379.11
1764767060.295159,9952.11,-5271.345,-39588.84,-19200.87,-14297.895,-31246.605,-2551.995,6381.135
1764767060.295159,9957.33,-5266.08,-39584.79,-19197.72,-14295.87,-31244.265,-2548.62,6386.264999999999
1764767060.295159,9946.665,-5277.51,-39595.77,-19207.755,-14305.05,-31253.445,-2557.845,6373.889999999999
1764767060.295159,9942.03,-5283.81,-39601.35,-19213.245,-14310.855,-31259.475,-2564.145,6366.87
1764767060.295159,9949.455,-5278.005,-39595.545,-19208.655,-14306.805,-31254.39,-2559.195,6374.79
1764767060.295159,9953.46,-5273.865,-39592.35,-19205.595,-14303.88,-31251.87,-2555.55,6378.795
1764767060.295159,9948.42,-5278.995,-39596.67,-19211.715,-14311.8,-31259.835,-2562.66,6371.19
1764767060.295159,9932.49,-5295.465,-39612.915,-19228.14,-14327.325,-31276.08,-2577.285,6355.71
1764767060.295159,9940.77,-5285.655,-39603.645,-19218.465,-14315.355,-31263.615,-2567.43,6365.52
1764767060.295159,9949.005,-5275.304999999999,-39594.42,-19208.52,-14306.715,-31253.67,-2557.44,6376.094999999999
1764767060.295159,9950.22,-5273.28,-39592.395,-19206.72,-14305.365,-31252.68,-2556.765,6377.535
1764767060.29616,9936.9,-5288.445,-39605.76,-19219.815,-14317.155,-31265.64,-2569.14,6362.91
1764767060.29616,9936.585,-5290.425,-39608.91,-19224.54,-14320.755,-31267.98,-2569.095,6363.0
1764767060.29616,9946.845,-5278.5,-39597.3,-19212.57,-14309.775,-31256.82,-2561.355,6373.17
1764767060.29616,9949.905,-5275.889999999999,-39594.69,-19210.365,-14307.03,-31253.76,-2558.565,6375.285
1764767060.29616,9949.635,-5276.88,-39595.41,-19211.4,-14308.29,-31254.525,-2559.06,6375.42
1764767060.342431,9956.88,-5268.735,-39586.59,-19201.995,-14298.975,-31244.67,-2550.555,6383.7
1764767060.342431,9955.17,-5270.22,-39587.22,-19201.815,-14297.49,-31243.095,-2550.33,6381.99
1764767060.342431,9956.385,-5268.825,-39586.86,-19200.96,-14296.815,-31242.24,-2548.755,6384.285
1764767060.342431,9955.215,-5269.32,-39586.59,-19201.635,-14297.895,-31244.265,-2550.96,6382.71
1764767060.342431,9945.495,-5279.355,-39596.67,-19212.12,-14307.525,-31253.445,-2559.285,6373.035
1764767060.342431,9949.545,-5274.855,-39593.115,-19208.52,-14303.7,-31249.89,-2555.28,6377.445
1764767060.342431,9940.68,-5284.349999999999,-39602.115,-19217.34,-14311.755,-31258.17,-2561.67,6368.219999999999
1764767060.342431,9937.98,-5287.905,-39604.995,-19219.995,-14314.5,-31260.69,-2567.835,6363.495
1764767060.342431,9945.495,-5279.849999999999,-39597.93,-19213.155,-14308.2,-31254.84,-2563.515,6370.605
1764767060.342431,9940.185,-5286.465,-39602.565,-19217.43,-14311.98,-31258.35,-2566.62,6364.62
1764767060.342431,9945.135,-5280.615,-39597.3,-19211.265,-14303.88,-31249.08,-2561.22,6370.74
1764767060.342431,9942.12,-5284.08,-39601.08,-19213.83,-14305.23,-31248.765,-2563.47,6368.355
1764767060.342431,9939.96,-5285.25,-39602.88,-19214.82,-14306.04,-31249.98,-2565.09,6366.69
1764767060.342431,9934.83,-5289.615,-39608.1,-19220.67,-14312.565,-31257.135,-2569.455,6361.065
1764767060.342431,9942.84,-5279.625,-39598.2,-19209.96,-14301.54,-31246.38,-2561.355,6370.83
1764767060.342431,9939.69,-5283.315,-39600.9,-19212.12,-14302.845,-31248.495,-2562.705,6367.815
1764767060.3434403,9953.46,-5267.16,-39584.43,-19195.065,-14284.665,-31230.54,-2547.36,6383.565
1764767060.3434403,9950.94,-5270.13,-39587.58,-19199.205,-14288.76,-31233.78,-2549.295,6381.0
1764767060.3434403,9952.245,-5268.554999999999,-39585.645,-19196.64,-14284.935,-31229.325,-2546.595,6382.575
1764767060.3434403,9961.695,-5258.429999999999,-39574.89,-19185.21,-14273.145,-31217.715,-2538.36,6392.655
1764767060.3434403,9958.185,-5261.94,-39578.13,-19188.63,-14276.025,-31221.36,-2543.805,6388.83
1764767060.3434403,9943.695,-5278.365,-39594.69,-19206.045,-14293.44,-31236.705,-2557.35,6374.429999999999
1764767060.3893614,9948.69,-5271.57,-39587.49,-19198.665,-14285.88,-31229.73,-2552.76,6380.28
1764767060.3893614,9948.555,-5272.11,-39587.76,-19198.845,-14285.745,-31229.415,-2551.995,6381.45
1764767060.3893614,9945.27,-5275.62,-39594.195,-19205.55,-14293.08,-31236.12,-2555.145,6377.895
1764767060.3893614,9942.66,-5276.655,-39594.33,-19205.145,-14293.305,-31236.615,-2556.09,6375.465
1764767060.3893614,9933.03,-5287.545,-39603.195,-19213.065,-14301.09,-31244.94,-2566.125,6363.495
1764767060.3893614,9928.71,-5293.53,-39609.495,-19219.725,-14306.94,-31250.07,-2570.94,6358.139999999999
1764767060.3893614,9930.015,-5291.19,-39607.83,-19218.33,-14306.13,-31248.045,-2570.175,6360.344999999999
1764767060.3893614,9937.935,-5282.775,-39598.605,-19207.935,-14296.455,-31238.055,-2563.65,6369.075
1764767060.3893614,9938.385,-5283.495,-39598.11,-19206.18,-14295.6,-31237.47,-2564.145,6369.435
1764767060.3893614,9926.055,-5296.32,-39612.015,-19218.555,-14308.47,-31250.655,-2574.99,6357.06
1764767060.3893614,9928.17,-5292.09,-39607.65,-19212.795,-14305.005,-31247.28,-2572.83,6360.21
1764767060.3893614,9940.995,-5276.79,-39592.62,-19196.37,-14288.805,-31231.665,-2559.015,6376.05
1764767060.3893614,9945.405,-5272.56,-39586.95,-19189.845,-14282.055,-31224.42,-2552.49,6381.54
1764767060.3893614,9945.36,-5273.054999999999,-39587.13,-19191.105,-14284.17,-31226.94,-2553.435,6380.82
1764767060.3893614,9941.22,-5276.34,-39590.28,-19194.705,-14288.265,-31231.53,-2557.395,6376.77
1764767060.3898685,9939.24,-5279.264999999999,-39593.97,-19198.44,-14290.92,-31233.69,-2559.645,6375.15
1764767060.3898685,9940.095,-5279.175,-39593.52,-19197.63,-14290.695,-31232.745,-2559.825,6375.15
1764767060.3898685,9941.085,-5278.59,-39591.585,-19195.47,-14286.87,-31229.73,-2559.96,6374.745
1764767060.3898685,9940.095,-5279.58,-39593.79,-19197.945,-14289.345,-31231.89,-2561.04,6373.035
1764767060.3898685,9924.75,-5295.105,-39610.035,-19215.0,-14306.175,-31248.27,-2574.99,6358.185
1764767060.3898685,9919.035,-5300.01,-39613.725,-19218.33,-14309.145,-31251.33,-2578.86,6353.685
1764767060.3898685,9916.83,-5302.98,-39617.37,-19223.145,-14313.915,-31255.29,-2580.57,6352.155
1764767060.3898685,9919.035,-5300.145,-39614.985,-19220.895,-14311.17,-31253.805,-2577.78,6353.865
1764767060.3898685,9921.15,-5297.22,-39611.79,-19216.395,-14306.535,-31249.53,-2574.765,6357.195
1764767060.4359932,9918.855,-5298.929999999999,-39613.095,-19217.52,-14308.875,-31252.23,-2578.77,6354.99
1764767060.4359932,9923.175,-5294.565,-39608.28,-19212.21,-14304.645,-31247.01,-2573.145,6360.255
1764767060.4359932,9932.895,-5285.07,-39599.865,-19203.795,-14296.455,-31237.515,-2564.91,6370.02
1764767060.4359932,9926.505,-5292.81,-39606.84,-19210.275,-14303.07,-31245.345,-2574.045,6360.435
1764767060.4359932,9927.405,-5290.92,-39603.96,-19205.91,-14298.975,-31243.59,-2574.63,6360.66
1764767060.4359932,9913.095,-5307.165,-39619.035,-19219.77,-14312.295,-31256.235,-2586.69,6346.26
1764767060.4359932,9919.08,-5301.179999999999,-39614.355,-19214.955,-14308.065,-31249.845,-2580.12,6354.81
1764767060.4359932,9920.61,-5298.345,-39612.33,-19212.795,-14305.05,-31247.415,-2579.04,6356.025
1764767060.4359932,9916.92,-5302.53,-39616.065,-19216.935,-14309.37,-31251.285,-2582.28,6352.11
1764767060.4359932,9910.08,-5309.28,-39622.635,-19224.09,-14316.075,-31258.98,-2587.095,6345.135
1764767060.4359932,9916.47,-5301.09,-39614.355,-19216.17,-14308.65,-31252.68,-2581.695,6352.335
1764767060.4359932,9907.47,-5311.395,-39624.435,-19226.655,-14319.495,-31263.255,-2590.875,6342.21
1764767060.4359932,9906.21,-5313.78,-39626.415,-19229.67,-14322.195,-31265.28,-2592.495,6340.95
1764767060.4359932,9918.495,-5300.955,-39613.905,-19216.98,-14309.145,-31251.195,-2579.715,6354.36
1764767060.4359932,9915.885,-5304.87,-39617.235,-19220.4,-14311.71,-31254.12,-2583.0,6350.895
1764767060.4359932,9905.895,-5315.67,-39627.585,-19231.92,-14322.735,-31266.63,-2593.8,6340.275
1764767060.4359932,9897.525,-5323.455,-39636.18,-19240.875,-14331.96,-31275.18,-2601.045,6331.545
1764767060.4359932,9898.335,-5321.88,-39634.65,-19239.795,-14330.25,-31274.55,-2599.065,6331.905
1764767060.4359932,9899.37,-5320.08,-39631.77,-19237.095,-14327.415,-31272.795,-2596.23,6335.099999999999
1764767060.436986,9902.295,-5316.389999999999,-39629.115,-19234.755,-14326.47,-31271.67,-2594.745,6337.98
1764767060.436986,9913.995,-5303.88,-39616.92,-19222.965,-14314.455,-31260.06,-2584.665,6349.59
1764767060.436986,9911.295,-5307.84,-39620.52,-19226.07,-14318.145,-31262.265,-2587.545,6346.215
1764767060.436986,9907.605,-5311.8,-39624.12,-19229.085,-14321.97,-31264.74,-2590.245,6342.344999999999
1764767060.436986,9900.225,-5320.935,-39632.4,-19238.76,-14332.725,-31275.495,-2597.895,6334.56
1764767060.484761,9908.235,-5311.71,-39623.13,-19228.545,-14323.005,-31266.99,-2591.37,6343.335
1764767060.484761,9903.735,-5316.435,-39627.675,-19231.65,-14327.19,-31271.94,-2596.365,6339.645
1764767060.484761,9893.835,-5326.38,-39637.17,-19240.965,-14337.27,-31281.93,-2604.195,6329.88
1764767060.484761,9895.68,-5323.545,-39634.29,-19237.77,-14333.985,-31278.645,-2600.28,6332.985
1764767060.484761,9902.88,-5315.13,-39624.75,-19229.31,-14326.65,-31271.31,-2594.475,6340.86
1764767060.484761,9895.365,-5322.96,-39631.77,-19236.645,-14334.84,-31279.365,-2601.54,6332.849999999999
1764767060.484761,9907.2,-5309.19,-39618.585,-19224.45,-14322.33,-31266.63,-2589.93,6345.855
1764767060.484761,9910.035,-5308.38,-39618.9,-19225.8,-14323.14,-31267.62,-2587.635,6348.24
1764767060.484761,9902.61,-5317.47,-39625.875,-19232.64,-14328.99,-31274.055,-2595.105,6338.52
1764767060.484761,9908.46,-5310.63,-39618.045,-19224.945,-14321.475,-31268.385,-2591.415,6343.56
1764767060.484761,9911.61,-5307.48,-39614.85,-19222.605,-14319.765,-31265.73,-2588.895,6346.98
1764767060.484761,9911.43,-5306.31,-39614.265,-19222.47,-14320.665,-31265.505,-2587.77,6347.474999999999
1764767060.484761,9911.205,-5305.679999999999,-39613.365,-19221.345,-14318.955,-31264.02,-2585.43,6346.8
1764767060.484761,9906.345,-5310.675,-39619.71,-19228.32,-14326.155,-31270.77,-2588.67,6341.804999999999
1764767060.484761,9917.19,-5297.715,-39605.94,-19213.695,-14309.64,-31254.705,-2574.765,6355.844999999999
1764767060.484761,9914.445,-5300.775,-39609.18,-19217.34,-14314.905,-31260.285,-2577.105,6352.83
1764767060.484761,9914.76,-5300.73,-39609.36,-19216.89,-14315.58,-31262.04,-2578.545,6352.02
1764767060.484761,9923.805,-5290.605,-39597.93,-19203.795,-14302.17,-31250.115,-2571.84,6361.155
1764767060.484761,9922.905,-5292.27,-39598.47,-19203.66,-14302.44,-31250.025,-2571.93,6360.615
1764767060.4855726,9917.325,-5299.56,-39606.345,-19211.805,-14310.315,-31256.46,-2576.43,6354.36
1764767060.4855726,9922.5,-5294.115,-39601.395,-19206.315,-14304.015,-31249.755,-2572.425,6360.255
1764767060.4855726,9914.985,-5300.235,-39607.335,-19212.12,-14310.72,-31256.64,-2580.48,6353.01
1764767060.5305762,9903.24,-5313.014999999999,-39620.745,-19225.62,-14323.455,-31269.915,-2590.695,6341.535
1764767060.5305762,9908.325,-5306.804999999999,-39613.905,-19219.41,-14316.75,-31264.065,-2585.025,6347.7
1764767060.5305762,9910.305,-5303.115,-39611.205,-19216.215,-14314.545,-31261.68,-2580.57,6350.715
1764767060.5305762,9918.63,-5293.395,-39600.855,-19206.27,-14304.735,-31252.14,-2573.055,6359.13
1764767060.5305762,9913.32,-5299.875,-39606.975,-19212.255,-14309.73,-31256.73,-2577.375,6353.325
1764767060.5305762,9922.005,-5292.0,-39598.785,-19204.02,-14301.045,-31247.1,-2569.275,6362.865
1764767060.5305762,9918.72,-5296.77,-39603.6,-19208.97,-14306.985,-31252.59,-2573.28,6357.96
1764767060.5305762,9921.645,-5292.405,-39598.785,-19203.795,-14302.215,-31248.45,-2570.4,6360.84
1764767060.5305762,9935.145,-5277.87,-39583.53,-19188.225,-14286.33,-31232.475,-2557.53,6374.835
1764767060.5305762,9928.485,-5284.8,-39589.38,-19194.39,-14291.865,-31239.54,-2564.415,6368.13
1764767060.5305762,9920.7,-5293.17,-39599.145,-19204.74,-14302.845,-31249.98,-2571.345,6361.29
1764767060.5305762,9926.37,-5287.23,-39593.16,-19198.665,-14297.355,-31243.905,-2566.665,6367.545
1764767060.5305762,9924.705,-5288.445,-39594.195,-19198.35,-14295.465,-31241.475,-2565.675,6367.455
1764767060.5305762,9915.93,-5298.66,-39605.13,-19209.96,-14307.12,-31251.33,-2573.595,6357.735
1764767060.5305762,9914.445,-5299.47,-39605.13,-19209.69,-14307.345,-31252.995,-2575.44,6355.26
1764767060.5305762,9916.92,-5296.995,-39603.105,-19207.53,-14306.625,-31252.14,-2573.73,6358.094999999999
1764767060.5305762,9920.43,-5293.845,-39599.055,-19201.86,-14300.1,-31246.065,-2572.245,6360.929999999999
1764767060.5305762,9921.24,-5292.45,-39598.605,-19201.32,-14299.695,-31246.065,-2572.155,6361.514999999999
1764767060.5305762,9933.795,-5277.554999999999,-39584.16,-19187.415,-14285.565,-31232.34,-2558.655,6376.094999999999
1764767060.5305762,9923.13,-5288.355,-39594.645,-19197.72,-14295.825,-31242.915,-2567.745,6365.655
1764767060.5305762,9921.645,-5288.895,-39594.105,-19196.595,-14294.295,-31241.25,-2566.215,6366.645
1764767060.5305762,9926.055,-5283.855,-39589.02,-19192.5,-14291.28,-31238.55,-2562.795,6370.38
1764767060.5738218,9929.88,-5280.389999999999,-39585.555,-19189.575,-14288.13,-31235.85,-2559.915,6373.395
1764767060.5738218,9940.275,-5267.655,-39573.27,-19176.975,-14276.385,-31224.105,-2548.845,6385.094999999999
1764767060.5738218,9936.675,-5272.29,-39577.68,-19181.97,-14281.605,-31228.065,-2550.645,6382.304999999999
1764767060.5738218,9936.135,-5273.145,-39577.365,-19181.295,-14280.705,-31227.165,-2550.51,6381.135
1764767060.5738218,9937.89,-5271.03,-39575.385,-19179.855,-14280.795,-31228.11,-2551.005,6380.91
1764767060.5748284,9942.12,-5267.385,-39572.37,-19175.76,-14276.655,-31224.15,-2547.495,6385.23
1764767060.5748284,9951.57,-5257.035,-39561.975,-19164.6,-14265.405,-31212.45,-2538.225,6396.435
1764767060.5748284,9947.16,-5261.67,-39566.295,-19168.47,-14269.815,-31216.005,-2542.275,6392.61
1764767060.5748284,9936.945,-5271.66,-39576.915,-19180.575,-14282.235,-31228.47,-2551.635,6382.62
1764767060.5748284,9943.695,-5264.145,-39569.895,-19173.42,-14274.54,-31219.74,-2543.535,6391.53
1764767060.5748284,9945.045,-5261.355,-39566.385,-19168.785,-14270.13,-31216.185,-2542.455,6392.655
1764767060.5748284,9942.66,-5264.19,-39568.455,-19171.35,-14273.73,-31220.685,-2545.875,6389.19
1764767060.5748284,9934.425,-5273.28,-39577.005,-19180.665,-14283.045,-31229.64,-2552.265,6381.405
1764767060.575587,9939.78,-5267.115,-39570.795,-19174.86,-14277.195,-31223.34,-2546.82,6387.435
1764767060.575587,9936.72,-5271.03,-39573.63,-19178.055,-14279.94,-31226.265,-2549.25,6382.935
1764767060.575587,9941.715,-5266.395,-39569.445,-19174.095,-14276.61,-31221.72,-2544.255,6388.065
1764767060.575587,9951.615,-5255.505,-39558.015,-19163.115,-14264.64,-31210.425,-2533.95,6398.73
1764767060.575587,9942.345,-5265.72,-39568.95,-19173.78,-14275.17,-31220.955,-2543.355,6389.099999999999
1764767060.575587,9946.44,-5259.599999999999,-39562.965,-19167.57,-14269.455,-31215.69,-2540.43,6393.96
1764767060.575587,9949.23,-5256.045,-39558.735,-19164.645,-14266.89,-31213.98,-2537.64,6397.335
1764767060.575587,9948.105,-5257.26,-39559.77,-19166.58,-14268.33,-31215.87,-2538.405,6396.12
1764767060.575587,9940.68,-5266.62,-39569.22,-19176.525,-14276.88,-31223.745,-2544.165,6388.56
1764767060.575587,9948.105,-5257.845,-39560.445,-19168.11,-14269.05,-31214.61,-2536.965,6396.929999999999
1764767060.5762544,9952.785,-5251.77,-39553.695,-19160.64,-14260.14,-31205.07,-2529.45,6403.23
1764767060.6197107,9952.38,-5253.255,-39554.865,-19162.845,-14262.795,-31207.68,-2531.385,6402.06
1764767060.6197107,9951.435,-5254.83,-39556.755,-19164.24,-14264.82,-31209.615,-2534.355,6399.855
1764767060.6197107,9939.42,-5269.5,-39571.29,-19178.865,-14279.175,-31223.295,-2547.855,6385.635
1764767060.6197107,9919.71,-5290.875,-39591.855,-19199.745,-14300.505,-31245.075,-2566.845,6365.25
1764767060.6197107,9919.98,-5289.705,-39590.415,-19198.395,-14299.695,-31244.715,-2566.26,6366.375
1764767060.6197107,9931.77,-5277.014999999999,-39577.5,-19185.615,-14287.365,-31233.06,-2554.83,6378.84
1764767060.6197107,9929.52,-5278.455,-39579.255,-19187.82,-14289.21,-31234.005,-2555.865,6376.23
1764767060.6197107,9941.355,-5265.36,-39566.52,-19173.96,-14273.595,-31217.715,-2542.725,6390.81
1764767060.6197107,9948.375,-5259.24,-39560.58,-19168.83,-14267.205,-31210.47,-2534.13,6399.0
1764767060.6197107,9948.735,-5258.925,-39558.96,-19166.355,-14264.055,-31207.86,-2533.59,6398.37
1764767060.6197107,9947.07,-5260.59,-39560.265,-19168.29,-14266.665,-31212.045,-2537.595,6395.759999999999
1764767060.6197107,9946.17,-5262.389999999999,-39561.39,-19170.18,-14268.555,-31213.8,-2539.305,6395.04
1764767060.6197107,9950.445,-5257.889999999999,-39557.25,-19166.94,-14265.315,-31210.02,-2534.76,6398.91
1764767060.6197107,9948.735,-5259.645,-39559.815,-19170.09,-14268.42,-31212.54,-2536.02,6397.514999999999
1764767060.6197107,9948.42,-5259.285,-39559.815,-19169.865,-14268.06,-31211.64,-2535.975,6396.929999999999
1764767060.6197107,9939.87,-5266.035,-39565.71,-19175.265,-14272.11,-31216.95,-2542.545,6389.37
1764767060.6197107,9945.45,-5258.79,-39559.365,-19168.47,-14265.18,-31209.705,-2536.155,6397.38
1764767060.6197107,9950.13,-5254.38,-39555.09,-19164.645,-14261.715,-31206.285,-2532.735,6401.79
1764767060.6197107,9946.62,-5258.565,-39559.32,-19169.415,-14267.07,-31211.28,-2536.605,6397.335
1764767060.6197107,9945.045,-5260.05,-39560.355,-19171.17,-14268.645,-31213.53,-2538.045,6395.985
1764767060.6197107,9936.405,-5267.925,-39567.69,-19178.82,-14275.665,-31221.495,-2544.705,6386.67
1764767060.6197107,9938.925,-5265.9,-39565.62,-19176.48,-14273.73,-31218.615,-2542.455,6388.514999999999
1764767060.6197107,9948.645,-5257.035,-39557.52,-19168.695,-14264.82,-31208.355,-2533.5,6398.73
1764767060.6197107,9940.23,-5265.855,-39566.16,-19177.065,-14271.39,-31214.34,-2539.845,6390.224999999999
1764767060.668759,9947.565,-5257.17,-39557.7,-19169.37,-14264.73,-31208.085,-2534.445,6397.695
1764767060.668759,9936.945,-5267.429999999999,-39567.015,-19178.595,-14274.495,-31219.38,-2543.805,6387.075
1764767060.668759,9929.385,-5275.17,-39574.08,-19184.49,-14279.58,-31224.555,-2548.35,6380.685
1764767060.668759,9925.92,-5279.67,-39579.57,-19190.385,-14285.745,-31231.08,-2552.13,6376.77
1764767060.668759,9925.02,-5280.57,-39580.695,-19192.005,-14287.5,-31233.285,-2555.415,6375.24
1764767060.668759,9936.855,-5267.97,-39567.78,-19180.08,-14275.71,-31221.765,-2544.93,6387.84
1764767060.668759,9937.305,-5267.745,-39567.51,-19179.27,-14275.035,-31220.325,-2544.03,6388.83
1764767060.668759,9940.14,-5262.885,-39563.37,-19175.04,-14270.85,-31216.59,-2541.105,6391.8
1764767060.668759,9943.38,-5258.79,-39558.87,-19170.495,-14264.865,-31211.46,-2537.19,6395.445
1764767060.668759,9938.25,-5264.639999999999,-39566.205,-19178.415,-14272.92,-31219.02,-2543.22,6390.81
1764767060.668759,9922.41,-5281.38,-39581.73,-19194.57,-14289.93,-31237.29,-2559.33,6373.53
1764767060.668759,9922.185,-5281.74,-39581.82,-19194.93,-14289.345,-31237.02,-2560.095,6373.395
1764767060.668759,9922.185,-5279.895,-39580.605,-19193.805,-14289.39,-31235.94,-2558.835,6374.565
1764767060.668759,9916.47,-5285.745,-39586.23,-19199.655,-14294.88,-31241.385,-2562.795,6368.804999999999
1764767060.668759,9915.66,-5287.005,-39587.175,-19201.32,-14295.87,-31243.095,-2563.515,6367.275
1764767060.668759,9914.355,-5288.355,-39588.48,-19202.67,-14297.4,-31245.345,-2566.44,6364.71
1764767060.668759,9917.37,-5286.014999999999,-39586.41,-19200.465,-14294.52,-31242.375,-2564.145,6367.59
1764767060.668759,9931.23,-5271.929999999999,-39571.2,-19185.165,-14278.68,-31225.77,-2550.87,6381.54
1764767060.668759,9940.275,-5262.75,-39562.92,-19176.39,-14270.625,-31217.175,-2542.275,6390.719999999999
1764767060.668759,9938.61,-5263.56,-39564.63,-19178.415,-14272.56,-31220.01,-2544.075,6389.55
1764767060.668759,9940.815,-5260.635,-39560.715,-19174.32,-14267.97,-31215.915,-2540.34,6392.07
1764767060.668759,9944.955,-5254.83,-39553.83,-19168.695,-14263.515,-31211.64,-2535.48,6397.335
1764767060.7115953,9940.635,-5260.5,-39559.635,-19173.825,-14266.305,-31213.305,-2536.56,6394.41
1764767060.7115953,9934.11,-5267.34,-39567.015,-19182.105,-14274.855,-31221.72,-2543.04,6387.12
1764767060.7115953,9943.335,-5257.665,-39559.455,-19176.12,-14269.5,-31215.555,-2536.335,6397.83
1764767060.7115953,9945.585,-5255.685,-39555.765,-19171.89,-14264.28,-31211.685,-2534.895,6399.495
1764767060.7115953,9939.6,-5261.04,-39559.815,-19176.21,-14268.96,-31216.815,-2539.935,6392.969999999999
1764767060.7115953,9935.775,-5265.27,-39562.695,-19179.18,-14273.055,-31221.135,-2542.635,6388.245
1764767060.7115953,9952.605,-5248.349999999999,-39546.54,-19163.97,-14258.745,-31206.87,-2527.47,6405.03
1764767060.712099,9944.82,-5255.865,-39553.92,-19171.53,-14265.9,-31214.205,-2534.22,6397.02
1764767060.712099,9951.66,-5247.405,-39544.56,-19161.765,-14256.36,-31204.665,-2526.39,6406.335
1764767060.712099,9952.605,-5245.605,-39541.995,-19159.47,-14253.03,-31201.605,-2523.15,6408.855
1764767060.712099,9948.825,-5247.9,-39544.47,-19162.53,-14256.225,-31204.89,-2524.365,6406.65
1764767060.712099,9950.67,-5245.335,-39542.49,-19161.315,-14255.325,-31203.675,-2522.7,6409.62
1764767060.712099,9958.185,-5237.595,-39535.29,-19152.72,-14247.315,-31194.99,-2517.03,6416.37
1764767060.712099,9957.645,-5239.26,-39536.865,-19154.115,-14249.88,-31195.845,-2518.47,6413.94
1764767060.712099,9961.47,-5236.29,-39532.995,-19150.515,-14245.38,-31191.615,-2513.97,6417.45
1764767060.712099,9965.835,-5232.105,-39528.09,-19146.285,-14240.34,-31186.98,-2510.19,6421.455
1764767060.712099,9967.905,-5229.495,-39526.605,-19145.52,-14239.44,-31185.99,-2508.705,6422.31
1764767060.712099,9955.485,-5242.365,-39539.385,-19158.84,-14253.12,-31199.49,-2520.45,6409.259999999999
1764767060.712099,9962.055,-5234.175,-39530.925,-19149.66,-14244.345,-31190.67,-2512.845,6416.775
1764767060.712099,9962.505,-5234.49,-39530.475,-19149.93,-14244.21,-31191.75,-2511.765,6418.17
1764767060.712099,9956.25,-5240.655,-39536.955,-19155.69,-14250.015,-31198.68,-2515.365,6412.094999999999
1764767060.712099,9960.435,-5234.49,-39531.24,-19150.2,-14244.93,-31193.55,-2511.765,6417.719999999999
1764767060.712099,9958.635,-5236.92,-39532.77,-19151.415,-14246.145,-31195.53,-2513.565,6415.335
1764767060.712099,9962.82,-5233.139999999999,-39528.27,-19146.465,-14242.05,-31190.265,-2509.515,6419.745
1764767060.7588031,9953.955,-5242.86,-39538.665,-19156.68,-14253.12,-31200.75,-2518.74,6409.304999999999
1764767060.7588031,9954.045,-5242.77,-39537.765,-19156.005,-14253.39,-31201.785,-2520.405,6409.035
1764767060.7588031,9966.465,-5229.36,-39524.715,-19142.955,-14240.745,-31189.995,-2510.145,6421.634999999999
1764767060.7588031,9953.505,-5242.095,-39538.215,-19155.915,-14253.165,-31202.91,-2521.755,6409.17
1764767060.7588031,9957.285,-5236.65,-39532.68,-19149.435,-14245.47,-31194.405,-2514.285,6415.469999999999
1764767060.7588031,9968.535,-5225.04,-39520.845,-19137.33,-14232.42,-31180.68,-2502.135,6429.15
1764767060.7588031,9971.055,-5222.745,-39517.92,-19134.675,-14231.16,-31180.545,-2500.965,6431.219999999999
1764767060.7588031,9968.85,-5224.545,-39520.62,-19137.195,-14234.445,-31184.37,-2503.665,6428.384999999999
1764767060.7588031,9964.935,-5228.46,-39523.995,-19140.525,-14237.595,-31187.88,-2507.355,6423.66
1764767060.7588031,9959.445,-5234.895,-39530.115,-19146.015,-14243.355,-31192.965,-2511.54,6417.585
1764767060.7588031,9967.455,-5226.84,-39523.365,-19140.345,-14238.0,-31186.395,-2505.06,6426.315
1764767060.7588031,9961.02,-5234.715,-39529.98,-19146.33,-14244.12,-31193.37,-2512.125,6418.304999999999
1764767060.7588031,9974.07,-5220.224999999999,-39515.49,-19131.39,-14230.08,-31178.7,-2498.22,6432.66
1764767060.7588031,9969.255,-5224.095,-39519.855,-19135.755,-14236.155,-31183.875,-2501.055,6429.554999999999
1764767060.7588031,9974.97,-5218.605,-39512.43,-19128.285,-14228.28,-31177.08,-2497.005,6435.224999999999
1764767060.7588031,9968.67,-5224.095,-39516.3,-19133.865,-14233.455,-31183.83,-2501.37,6428.61
1764767060.7588031,9971.46,-5220.179999999999,-39513.555,-19130.94,-14230.845,-31180.905,-2497.14,6433.245
1764767060.7588031,9979.38,-5211.63,-39504.915,-19122.345,-14221.98,-31171.995,-2489.94,6441.435
1764767060.7588031,9972.99,-5219.28,-39511.89,-19129.545,-14229.63,-31180.05,-2496.195,6433.425
1764767060.7588031,9972.18,-5220.045,-39512.655,-19130.94,-14230.35,-31180.23,-2496.15,6432.66
1764767060.7588031,9977.22,-5214.645,-39507.57,-19125.405,-14224.32,-31172.985,-2489.805,6438.554999999999
1764767060.7588031,9987.345,-5204.25,-39497.895,-19115.46,-14214.915,-31163.535,-2481.75,6449.085
1764767060.805754,9986.31,-5206.995,-39500.865,-19119.105,-14217.975,-31166.82,-2483.505,6447.554999999999
1764767060.805754,9971.37,-5220.764999999999,-39513.915,-19132.245,-14231.34,-31181.22,-2496.645,6433.335
1764767060.805754,9970.695,-5219.73,-39512.88,-19130.445,-14230.125,-31180.14,-2495.88,6432.884999999999
1764767060.806764,9972.36,-5217.525,-39509.64,-19126.845,-14226.48,-31176.27,-2492.145,6435.855
1764767060.806764,9972.27,-5217.03,-39509.595,-19127.565,-14229.045,-31179.24,-2492.865,6435.719999999999
1764767060.806764,9972.315,-5217.03,-39509.82,-19127.925,-14228.505,-31179.195,-2492.82,6435.495
1764767060.806764,9980.37,-5209.155,-39502.125,-19120.095,-14220.27,-31170.15,-2486.07,6444.134999999999
1764767060.806764,9971.55,-5219.37,-39512.475,-19129.455,-14230.62,-31178.52,-2493.405,6434.82
1764767060.806764,9967.905,-5224.41,-39517.47,-19134.09,-14235.435,-31183.245,-2498.715,6429.509999999999
1764767060.806764,9978.795,-5211.675,-39505.32,-19123.2,-14225.22,-31173.84,-2490.21,6439.634999999999
1764767060.8072708,9977.985,-5213.115,-39507.165,-19125.045,-14226.165,-31175.145,-2491.695,6438.42
1764767060.8072708,9966.915,-5224.095,-39517.29,-19136.025,-14237.19,-31185.54,-2500.605,6429.105
1764767060.8072708,9971.55,-5218.83,-39512.115,-19130.67,-14232.555,-31180.365,-2496.24,6435.0
1764767060.8072708,9964.53,-5224.815,-39517.38,-19135.89,-14237.91,-31185.45,-2500.065,6428.745
1764767060.8072708,9972.45,-5216.13,-39509.37,-19128.555,-14229.54,-31176.99,-2492.595,6437.969999999999
1764767060.8072708,9970.335,-5218.965,-39510.495,-19130.04,-14231.115,-31178.655,-2494.62,6435.315
1764767060.8072708,9981.585,-5206.815,-39499.155,-19118.655,-14220.18,-31167.27,-2483.73,6447.105
1764767060.8072708,9981.72,-5206.005,-39498.165,-19118.655,-14220.225,-31167.63,-2482.155,6446.655
1764767060.8072708,9980.55,-5207.804999999999,-39498.885,-19119.42,-14221.08,-31168.89,-2483.37,6444.585
1764767060.8072708,9983.52,-5203.8,-39495.465,-19115.235,-14217.165,-31165.29,-2480.265,6447.96
1764767060.8072708,9988.605,-5200.335,-39492.225,-19112.85,-14213.97,-31161.555,-2476.125,6453.179999999999
1764767060.8082776,9981.945,-5208.03,-39499.83,-19121.58,-14223.42,-31170.33,-2485.125,6445.259999999999
1764767060.8082776,9980.685,-5208.525,-39500.235,-19121.625,-14222.7,-31170.06,-2486.34,6445.125
1764767060.808656,9978.075,-5209.47,-39500.73,-19121.355,-14221.395,-31170.15,-2487.015,6442.92
1764767060.851097,9969.975,-5217.795,-39509.28,-19129.635,-14229.855,-31179.465,-2493.81,6434.145
1764767060.851097,9968.76,-5219.595,-39511.8,-19131.075,-14233.005,-31181.805,-2496.24,6432.795
1764767060.851097,9958.815,-5231.115,-39523.095,-19141.605,-14243.715,-31191.66,-2505.96,6421.95
1764767060.851097,9955.08,-5234.67,-39525.345,-19144.485,-14246.37,-31194.72,-2509.56,6417.855
1764767060.851097,9960.255,-5229.99,-39520.89,-19140.345,-14241.915,-31190.31,-2505.69,6422.58
1764767060.851097,9954.72,-5235.705,-39526.47,-19146.06,-14249.115,-31196.25,-2510.55,6417.764999999999
1764767060.851097,9963.405,-5226.075,-39516.84,-19136.115,-14238.765,-31186.305,-2502.405,6427.71
1764767060.851097,9950.805,-5239.304999999999,-39529.665,-19149.12,-14252.49,-31200.885,-2515.545,6412.86
1764767060.851097,9958.185,-5229.945,-39521.385,-19140.39,-14244.165,-31192.38,-2508.57,6421.41
1764767060.851097,9957.465,-5230.035,-39521.745,-19139.265,-14243.04,-31192.02,-2508.705,6422.985
1764767060.851097,9955.755,-5231.474999999999,-39523.545,-19141.875,-14246.73,-31196.655,-2511.225,6421.005
1764767060.851097,9948.915,-5238.99,-39529.98,-19149.12,-14253.21,-31203.09,-2516.535,6414.03
1764767060.851097,9949.77,-5238.63,-39529.215,-19148.76,-14252.265,-31201.65,-2515.68,6415.74
1764767060.851097,9954.045,-5233.05,-39523.455,-19142.28,-14245.74,-31193.82,-2511.495,6421.05
1764767060.851097,9956.79,-5230.845,-39521.745,-19140.66,-14245.245,-31193.46,-2510.19,6422.445
1764767060.851097,9959.985,-5229.045,-39518.73,-19138.14,-14243.265,-31191.12,-2507.94,6424.425
1764767060.851097,9972.36,-5214.42,-39503.34,-19123.335,-14227.38,-31174.74,-2491.74,6439.094999999999
1764767060.851097,9960.93,-5225.94,-39514.635,-19134.675,-14240.34,-31187.925,-2502.63,6426.81
1764767060.851097,9960.66,-5227.605,-39516.165,-19135.125,-14240.205,-31187.7,-2502.225,6427.844999999999
1764767060.851097,9965.655,-5222.97,-39511.755,-19130.22,-14234.04,-31181.04,-2497.23,6433.83
1764767060.851097,9961.2,-5226.03,-39515.085,-19133.64,-14238.63,-31186.08,-2501.64,6428.925
1764767060.851097,9964.935,-5219.91,-39508.515,-19128.105,-14233.455,-31182.075,-2498.085,6432.705
1764767060.851097,9963.675,-5221.71,-39509.73,-19129.95,-14233.5,-31182.21,-2496.735,6432.48
1764767060.851097,9962.145,-5224.5,-39512.385,-19133.775,-14238.27,-31186.755,-2501.37,6429.15
1764767060.8984804,9971.505,-5215.545,-39504.465,-19124.73,-14229.72,-31177.935,-2493.945,6437.925
1764767060.8990064,9973.305,-5213.34,-39501.27,-19120.23,-14224.59,-31173.12,-2490.57,6441.165
1764767060.8990064,9977.13,-5208.435,-39496.68,-19115.595,-14220.45,-31169.115,-2486.925,6445.755
1764767060.8990064,9962.685,-5222.295,-39510.0,-19128.735,-14234.985,-31184.325,-2499.345,6431.849999999999
1764767060.8990064,9957.285,-5228.415,-39516.525,-19135.755,-14242.14,-31191.66,-2504.745,6427.035
1764767060.8990064,9962.73,-5223.24,-39511.89,-19132.155,-14238.855,-31188.15,-2500.515,6433.56
1764767060.8990064,9956.655,-5228.145,-39515.895,-19134.81,-14240.565,-31189.5,-2504.115,6427.844999999999
1764767060.8990064,9967.23,-5215.139999999999,-39501.945,-19120.77,-14226.57,-31176.495,-2493.045,6438.509999999999
1764767060.8990064,9966.735,-5216.804999999999,-39504.375,-19123.83,-14229.27,-31178.79,-2493.72,6437.429999999999
1764767060.8990064,9977.985,-5205.78,-39493.53,-19113.75,-14218.965,-31167.765,-2483.685,6448.905
1764767060.8990064,9981.855,-5201.28,-39488.265,-19108.89,-14215.365,-31165.245,-2480.625,6452.91
1764767060.8990064,9975.735,-5206.815,-39492.63,-19113.66,-14219.19,-31170.33,-2484.405,6447.33
1764767060.8990064,9988.56,-5192.955,-39479.085,-19099.08,-14203.89,-31153.77,-2471.13,6460.83
1764767060.8990064,9987.885,-5194.889999999999,-39480.525,-19100.43,-14204.88,-31153.545,-2472.03,6460.38
1764767060.8995214,9985.77,-5196.599999999999,-39481.605,-19102.095,-14207.22,-31155.39,-2473.74,6458.4
1764767060.8995214,9985.5,-5196.24,-39480.795,-19102.14,-14207.715,-31155.84,-2472.705,6458.67
1764767060.8995214,9985.455,-5195.79,-39480.75,-19101.33,-14207.31,-31156.785,-2473.56,6459.66
1764767060.8995214,9981.18,-5200.785,-39485.385,-19105.965,-14212.215,-31162.05,-2478.915,6454.62
1764767060.8995214,9977.76,-5204.97,-39489.525,-19110.33,-14216.445,-31165.245,-2482.605,6450.84
1764767060.8995214,9973.08,-5210.595,-39495.51,-19116.54,-14223.51,-31171.455,-2488.455,6444.81
1764767060.8995214,9970.56,-5212.98,-39498.165,-19119.33,-14226.525,-31174.47,-2491.74,6442.29
1764767060.8995214,9974.25,-5206.905,-39490.74,-19111.41,-14218.47,-31166.055,-2485.845,6448.005
1764767060.9452994,9976.68,-5205.915,-39490.065,-19110.15,-14216.67,-31163.67,-2483.055,6450.03
1764767060.9452994,9966.375,-5217.885,-39502.395,-19123.425,-14230.98,-31178.385,-2494.53,6438.42
1764767060.9452994,9974.745,-5207.804999999999,-39492.36,-19113.57,-14220.855,-31169.205,-2486.745,6447.78
1764767060.9452994,9979.515,-5202.27,-39486.105,-19106.595,-14213.43,-31161.555,-2480.04,6453.585
1764767060.9452994,9977.58,-5204.16,-39487.545,-19108.215,-14213.745,-31161.87,-2480.04,6452.46
1764767060.9452994,9966.735,-5216.264999999999,-39499.695,-19121.625,-14227.38,-31174.785,-2490.795,6440.759999999999
1764767060.9452994,9974.97,-5207.895,-39490.65,-19111.545,-14217.345,-31164.03,-2483.235,6449.355
1764767060.9452994,9977.58,-5204.16,-39487.23,-19107.99,-14213.79,-31160.43,-2480.04,6452.594999999999
1764767060.9452994,9970.92,-5211.36,-39494.835,-19116.135,-14222.16,-31168.62,-2486.16,6444.63
1764767060.9452994,9970.38,-5212.665,-39496.005,-19117.485,-14224.05,-31170.15,-2488.635,6442.92
1764767060.9452994,9977.895,-5204.745,-39487.86,-19108.305,-14214.915,-31161.69,-2481.345,6450.525
1764767060.9452994,9970.785,-5212.304999999999,-39495.51,-19115.64,-14222.115,-31169.97,-2490.165,6441.84
1764767060.9452994,9963.27,-5220.045,-39502.665,-19124.055,-14231.07,-31178.97,-2497.095,6434.19
1764767060.9452994,9970.65,-5211.764999999999,-39493.845,-19115.37,-14222.43,-31170.33,-2489.805,6442.965
1764767060.9452994,9969.615,-5212.71,-39495.6,-19117.8,-14223.24,-31170.645,-2489.355,6442.605
1764767060.9452994,9961.02,-5222.745,-39506.265,-19128.825,-14232.69,-31178.205,-2495.565,6434.19
1764767060.9452994,9959.715,-5223.78,-39505.365,-19127.79,-14231.25,-31176.675,-2498.175,6431.625
1764767060.9452994,9966.195,-5216.58,-39497.355,-19119.195,-14223.555,-31169.835,-2492.505,6438.825
1764767060.9452994,9960.39,-5224.635,-39504.555,-19126.845,-14230.665,-31176.18,-2497.005,6432.929999999999
1764767060.9452994,9965.61,-5219.19,-39499.605,-19122.03,-14225.49,-31171.365,-2492.415,6437.61
1764767060.9452994,9980.055,-5203.755,-39485.52,-19107.99,-14212.035,-31157.19,-2478.69,6452.73
1764767060.9452994,9976.23,-5208.84,-39488.715,-19111.32,-14214.51,-31159.665,-2482.38,6448.86
1764767060.9452994,9973.305,-5209.605,-39488.445,-19110.195,-14214.015,-31159.845,-2484.63,6447.105
1764767060.9458148,9972.585,-5208.75,-39488.04,-19109.79,-14214.105,-31160.295,-2483.145,6447.825
1764767060.990975,9964.035,-5218.11,-39498.39,-19120.59,-14224.32,-31171.005,-2491.245,6438.014999999999
1764767060.990975,9958.86,-5223.24,-39503.385,-19124.73,-14229.045,-31175.82,-2496.375,6432.12
1764767060.990975,9960.66,-5221.845,-39501.99,-19124.64,-14229.0,-31175.19,-2496.33,6433.83
1764767060.990975,9969.21,-5213.835,-39493.44,-19116.45,-14220.54,-31166.505,-2489.535,6443.37
1764767060.990975,9971.28,-5212.215,-39491.685,-19114.38,-14217.57,-31162.95,-2487.645,6444.81
1764767060.990975,9972.27,-5210.595,-39490.02,-19112.445,-14215.86,-31161.69,-2486.655,6445.62
1764767060.990975,9971.955,-5210.639999999999,-39491.235,-19113.615,-14216.895,-31163.355,-2488.545,6444.945
1764767060.990975,9959.445,-5224.275,-39504.555,-19126.845,-14229.855,-31175.955,-2501.01,6431.985
1764767060.990975,9946.575,-5237.099999999999,-39517.11,-19138.725,-14241.915,-31188.915,-2511.27,6419.384999999999
1764767060.990975,9941.355,-5242.32,-39521.745,-19143.765,-14246.595,-31194.45,-2516.04,6414.21
1764767060.990975,9946.08,-5237.145,-39516.84,-19139.355,-14242.59,-31189.32,-2510.73,6419.655
1764767060.990975,9956.07,-5225.67,-39505.68,-19128.51,-14231.61,-31178.115,-2501.955,6430.634999999999
1764767060.9927163,9949.14,-5233.679999999999,-39513.69,-19134.9,-14238.495,-31186.08,-2509.065,6421.59
1764767060.9927163,9947.025,-5237.37,-39516.615,-19139.22,-14242.815,-31189.86,-2513.295,6418.755
1764767060.9927163,9954.63,-5230.215,-39509.595,-19132.2,-14236.245,-31182.075,-2507.175,6426.63
1764767060.9927163,9946.89,-5238.675,-39517.155,-19138.995,-14242.275,-31187.97,-2512.44,6418.889999999999
1764767060.9927163,9955.08,-5229.675,-39507.03,-19129.68,-14231.97,-31177.44,-2503.98,6427.485
1764767060.9927163,9948.87,-5235.165,-39513.33,-19136.025,-14239.935,-31186.17,-2512.845,6420.599999999999
1764767060.9927163,9938.385,-5245.11,-39523.725,-19146.42,-14250.51,-31197.015,-2521.8,6410.52
1764767060.9927163,9945.81,-5236.2,-39516.345,-19138.185,-14241.33,-31187.61,-2513.61,6419.205
1764767060.9927163,9947.43,-5234.264999999999,-39514.32,-19135.395,-14237.73,-31184.685,-2510.325,6421.59
1764767060.9927163,9936.945,-5245.245,-39524.085,-19145.475,-14247.27,-31195.215,-2519.82,6410.745
1764767061.0360029,9941.31,-5241.014999999999,-39519.855,-19141.155,-14242.68,-31190.13,-2517.345,6415.92
1764767061.0360029,9936.45,-5245.965,-39523.86,-19145.07,-14248.125,-31195.98,-2521.44,6410.835
1764767061.0360029,9943.11,-5238.764999999999,-39516.84,-19138.23,-14241.735,-31188.825,-2514.69,6417.99
1764767061.0360029,9940.77,-5241.915,-39520.98,-19142.82,-14246.55,-31192.965,-2516.985,6415.11
1764767061.0360029,9948.06,-5233.77,-39510.99,-19131.705,-14234.13,-31180.815,-2510.055,6422.58
1764767061.0360029,9943.065,-5237.82,-39514.365,-19134.315,-14237.325,-31184.73,-2515.41,6418.08
1764767061.0360029,9941.49,-5238.855,-39514.95,-19134.585,-14238.315,-31186.395,-2516.76,6416.19
1764767061.0360029,9938.61,-5242.905,-39519.54,-19139.58,-14243.4,-31191.48,-2519.64,6414.21
1764767061.0360029,9940.545,-5240.16,-39517.65,-19138.32,-14242.545,-31190.58,-2516.67,6416.685
1764767061.0360029,9940.32,-5240.61,-39516.93,-19137.195,-14240.205,-31188.42,-2515.095,6417.675
1764767061.0360029,9929.745,-5251.23,-39527.1,-19147.05,-14251.77,-31200.03,-2525.535,6405.974999999999
1764767061.0360029,9924.255,-5257.62,-39533.985,-19153.44,-14257.71,-31205.79,-2531.97,6399.0
1764767061.0360029,9926.055,-5255.73,-39532.905,-19152.135,-14256.135,-31203.045,-2529.99,6401.115
1764767061.0360029,9936.72,-5244.255,-39520.665,-19139.805,-14243.085,-31189.545,-2518.965,6412.41
1764767061.037029,9941.13,-5239.845,-39515.58,-19134.27,-14237.46,-31184.145,-2514.6,6417.315
1764767061.037029,9933.66,-5247.54,-39523.68,-19141.875,-14246.82,-31193.145,-2522.745,6410.295
1764767061.037029,9921.555,-5259.42,-39536.1,-19154.61,-14259.375,-31206.465,-2533.545,6398.009999999999
1764767061.037029,9919.71,-5259.96,-39536.37,-19154.655,-14259.195,-31207.185,-2534.445,6397.11
1764767061.037029,9928.845,-5250.825,-39526.515,-19144.44,-14248.935,-31196.79,-2525.94,6406.425
1764767061.037029,9926.955,-5252.804999999999,-39528.945,-19147.545,-14253.165,-31201.29,-2529.135,6403.679999999999
1764767061.037029,9916.515,-5264.145,-39539.34,-19157.895,-14263.38,-31211.325,-2538.225,6392.655
1764767061.037029,9919.755,-5260.41,-39536.19,-19154.16,-14260.185,-31208.355,-2536.425,6395.355
1764767061.037029,9912.06,-5268.51,-39544.83,-19162.26,-14268.555,-31216.32,-2543.22,6387.03
1764767061.037029,9910.17,-5270.67,-39547.305,-19164.195,-14270.535,-31217.67,-2545.605,6385.005
1764767061.080519,9917.46,-5264.054999999999,-39540.87,-19157.895,-14262.615,-31208.985,-2539.71,6392.295
1764767061.080519,9903.51,-5278.005,-39555.045,-19172.655,-14276.745,-31223.745,-2552.805,6377.67
1764767061.080519,9904.455,-5275.665,-39553.02,-19171.125,-14276.745,-31223.79,-2550.51,6380.505
1764767061.080519,9909.63,-5269.679999999999,-39546.27,-19164.555,-14268.555,-31216.545,-2545.92,6386.31
1764767061.080519,9902.385,-5277.96,-39553.965,-19172.745,-14276.115,-31223.565,-2551.995,6378.66
1764767061.080519,9909.495,-5269.86,-39545.595,-19164.33,-14267.745,-31214.655,-2544.705,6387.255
1764767061.0820603,9911.25,-5267.7,-39543.93,-19162.71,-14265.72,-31213.305,-2542.455,6388.38
1764767061.0820603,9902.07,-5278.23,-39555.18,-19174.14,-14277.69,-31226.175,-2552.22,6377.085
1764767061.0820603,9901.845,-5279.13,-39555.27,-19172.88,-14276.16,-31225.545,-2555.37,6375.105
1764767061.0820603,9897.345,-5284.889999999999,-39561.75,-19180.215,-14284.485,-31233.195,-2560.32,6369.66
1764767061.0820603,9909.585,-5272.29,-39550.23,-19169.865,-14274.495,-31221.36,-2547.18,6383.925
1764767061.0820603,9906.435,-5274.99,-39551.67,-19170.585,-14274.315,-31222.17,-2550.465,6380.865
1764767061.0820603,9893.43,-5286.87,-39562.29,-19179.585,-14283.405,-31232.565,-2561.76,6367.724999999999
1764767061.0820603,9886.635,-5292.764999999999,-39568.545,-19186.425,-14289.885,-31238.01,-2565.72,6363.045
1764767061.0830865,9885.06,-5293.755,-39569.085,-19187.055,-14290.56,-31238.595,-2567.34,6361.469999999999
1764767061.0830865,9886.14,-5293.485,-39568.815,-19185.57,-14288.94,-31237.02,-2566.845,6363.179999999999
1764767061.0830865,9898.785,-5281.695,-39557.97,-19174.545,-14278.005,-31225.14,-2554.92,6376.635
1764767061.0830865,9897.48,-5282.91,-39559.815,-19175.985,-14280.39,-31227.93,-2556.72,6374.25
1764767061.0830865,9887.58,-5293.62,-39570.525,-19186.605,-14291.865,-31238.55,-2566.305,6363.36
1764767061.0830865,9897.705,-5282.37,-39559.455,-19174.86,-14281.695,-31227.615,-2558.52,6373.844999999999
1764767061.0830865,9900.36,-5278.41,-39555.45,-19170.945,-14277.69,-31225.23,-2555.055,6376.995
1764767061.0830865,9887.31,-5292.0,-39569.22,-19184.4,-14291.64,-31239.585,-2566.575,6363.224999999999
1764767061.1305263,9884.97,-5293.44,-39570.885,-19184.76,-14290.74,-31237.695,-2566.53,6362.91
1764767061.1305263,9885.78,-5292.09,-39569.895,-19182.195,-14286.87,-31233.015,-2563.38,6365.07
1764767061.1305263,9897.345,-5280.12,-39558.915,-19171.44,-14275.755,-31223.34,-2553.57,6377.264999999999
1764767061.1305263,9896.58,-5281.74,-39560.22,-19173.465,-14278.5,-31226.94,-2555.865,6375.87
1764767061.1305263,9887.31,-5292.54,-39570.255,-19184.175,-14288.805,-31237.695,-2565.09,6365.295
1764767061.1305263,9888.48,-5291.415,-39569.895,-19183.41,-14287.995,-31236.57,-2565.765,6366.69
1764767061.1315248,9878.76,-5301.63,-39578.625,-19191.465,-14296.41,-31244.355,-2573.55,6356.61
1764767061.1315248,9888.705,-5289.974999999999,-39567.24,-19179.945,-14284.395,-31232.655,-2563.92,6366.735
1764767061.1315248,9895.995,-5282.46,-39560.175,-19173.51,-14278.95,-31226.895,-2557.665,6373.215
1764767061.1315248,9883.08,-5296.095,-39573.495,-19187.19,-14292.63,-31239.675,-2568.24,6360.21
1764767061.1315248,9882.81,-5295.42,-39572.325,-19186.11,-14291.28,-31238.055,-2567.745,6360.929999999999
1764767061.1315248,9891.585,-5285.52,-39562.155,-19175.85,-14280.615,-31227.12,-2559.42,6371.415
1764767061.1315248,9892.485,-5284.08,-39561.39,-19174.995,-14279.22,-31226.445,-2557.53,6372.27
1764767061.1315248,9888.075,-5288.13,-39564.855,-19179.315,-14283.18,-31231.485,-2559.645,6368.4
1764767061.1315248,9897.03,-5278.59,-39555.54,-19170.045,-14273.82,-31222.575,-2552.04,6377.804999999999
1764767061.1315248,9897.885,-5278.185,-39556.08,-19169.955,-14274.54,-31222.395,-2552.445,6377.985
