Timestamp,Channel1,Channel2,Channel3,Channel4,Channel5,Channel6,Channel7,Channel8
1764769086.6127586,6446.429999999999,2540.61,-30658.59,-8433.0,-8339.22,-28637.145,3022.155,10332.63
1764769086.6127586,6433.245,2527.335,-30671.64,-8444.835,-8349.48,-28646.775,3009.51,10317.465
1764769086.613775,6440.445,2535.75,-30662.82,-8435.565,-8341.154999999999,-28639.26,3015.045,10323.855
1764769086.613775,6435.179999999999,2528.46,-30670.245,-8441.955,-8347.904999999999,-28644.12,3010.5,10318.32
1764769086.613775,6436.485,2529.855,-30670.74,-8440.965,-8346.645,-28643.175,3012.48,10320.255
1764769086.613775,6443.054999999999,2538.045,-30661.83,-8432.775,-8338.5,-28637.145,3019.095,10328.445
1764769086.613775,6439.905,2535.21,-30663.225,-8434.305,-8340.84,-28640.07,3017.655,10326.555
1764769086.613775,6436.98,2531.925,-30666.69,-8436.779999999999,-8343.404999999999,-28641.6,3015.72,10324.53
1764769086.613775,6437.745,2533.05,-30666.015,-8435.43,-8341.83,-28640.295,3016.845,10325.385
1764769086.613775,6446.79,2543.085,-30656.205,-8425.89,-8331.48,-28631.43,3025.08,10334.7
1764769086.613775,6452.28,2547.495,-30651.84,-8422.02,-8327.61,-28627.155,3029.04,10338.795
1764769086.613775,6445.665,2539.53,-30659.175,-8429.445,-8336.205,-28636.02,3020.805,10330.695
1764769086.613775,6436.71,2529.63,-30668.58,-8438.985,-8345.835,-28644.93,3012.12,10321.02
1764769086.613775,6436.259999999999,2529.675,-30668.76,-8438.4,-8345.205,-28644.57,3012.165,10320.84
1764769086.613775,6444.27,2538.855,-30661.29,-8429.715,-8335.8,-28635.795,3019.41,10330.155
1764769086.613775,6444.134999999999,2539.035,-30660.705,-8429.805,-8335.71,-28635.885,3019.68,10330.11
1764769086.613775,6437.969999999999,2531.61,-30667.455,-8436.51,-8342.19,-28642.77,3014.73,10323.99
1764769086.613775,6442.11,2536.02,-30663.54,-8433.404999999999,-8338.994999999999,-28638.72,3018.465,10329.03
1764769086.613775,6444.0,2538.405,-30661.065,-8430.255,-8336.25,-28636.65,3019.275,10329.885
1764769086.613775,6446.474999999999,2539.755,-30659.355,-8428.455,-8333.685,-28635.39,3021.525,10331.46
1764769086.613775,6454.755,2548.35,-30651.66,-8421.074999999999,-8326.17,-28626.39,3030.435,10340.64
1764769086.613775,6450.705,2544.57,-30655.215,-8424.765,-8330.58,-28629.63,3026.205,10336.455
1764769086.6592703,6448.094999999999,2540.16,-30659.67,-8428.23,-8333.1,-28631.61,3022.83,10332.045
1764769086.6592703,6438.06,2528.73,-30671.19,-8439.029999999999,-8343.539999999999,-28642.77,3013.245,10321.02
1764769086.6592703,6438.24,2529.36,-30671.28,-8439.345,-8343.765,-28643.76,3013.38,10321.2
1764769086.6592703,6446.295,2539.485,-30661.515,-8429.13,-8333.955,-28635.12,3021.345,10330.515
1764769086.6592703,6448.23,2541.96,-30659.22,-8428.005,-8331.164999999999,-28632.555,3024.135,10333.755
1764769086.6592703,6440.67,2534.535,-30666.195,-8435.52,-8338.185,-28639.665,3017.7,10326.465
1764769086.6592703,6437.384999999999,2530.44,-30670.605,-8439.119999999999,-8341.154999999999,-28641.645,3015.9,10323.63
1764769086.6592703,6437.025,2528.955,-30672.81,-8440.065,-8342.685,-28643.22,3014.055,10322.46
1764769086.6592703,6453.99,2545.785,-30656.565,-8422.92,-8325.63,-28625.355,3029.265,10339.56
1764769086.6592703,6455.429999999999,2547.135,-30655.98,-8423.145,-8325.539999999999,-28624.905,3028.86,10339.785
1764769086.6592703,6452.82,2543.985,-30658.905,-8425.755,-8327.025,-28626.84,3025.8,10336.59
1764769086.6592703,6446.429999999999,2537.685,-30665.25,-8431.74,-8332.83,-28632.78,3020.22,10330.605
1764769086.6592703,6451.83,2544.3,-30659.265,-8425.8,-8326.26,-28627.29,3025.71,10337.13
1764769086.6602862,6444.36,2536.38,-30666.195,-8432.955,-8333.19,-28634.58,3019.59,10329.93
1764769086.6602862,6451.29,2543.49,-30658.725,-8426.43,-8325.449999999999,-28627.11,3026.34,10337.895
1764769086.6602862,6455.25,2548.215,-30655.44,-8422.65,-8320.994999999999,-28622.565,3030.12,10342.035
1764769086.6602862,6453.045,2546.1,-30658.365,-8425.08,-8323.289999999999,-28624.995,3028.68,10339.38
1764769086.6602862,6455.61,2547.855,-30656.43,-8423.19,-8321.039999999999,-28622.295,3031.335,10342.035
1764769086.6602862,6466.545,2558.52,-30646.71,-8414.865,-8313.21,-28613.52,3040.875,10352.925
1764769086.6602862,6459.66,2551.14,-30653.955,-8421.345,-8319.645,-28619.505,3033.45,10344.78
1764769086.6602862,6462.54,2554.155,-30649.5,-8415.945,-8312.31,-28613.61,3035.97,10346.175
1764769086.6602862,6468.795,2561.58,-30641.49,-8409.015,-8304.93,-28606.635,3042.135,10352.475
1764769086.6602862,6458.085,2550.42,-30652.695,-8420.355,-8316.63,-28618.245,3032.46,10341.27
1764769086.6602862,6453.63,2545.335,-30658.275,-8424.945,-8320.994999999999,-28622.655,3028.41,10337.31
1764769086.7027545,6461.505,2555.055,-30649.545,-8416.485,-8311.949999999999,-28613.295,3037.14,10347.66
1764769086.7027545,6461.82,2556.18,-30647.925,-8415.539999999999,-8311.41,-28612.89,3037.59,10348.38
1764769086.7027545,6458.175,2551.5,-30652.47,-8419.365,-8316.09,-28617.66,3032.91,10344.555
1764769086.7027545,6457.32,2549.205,-30654.495,-8421.48,-8318.16,-28620.765,3030.345,10341.405
1764769086.7027545,6457.634999999999,2548.17,-30655.35,-8422.605,-8320.545,-28623.285,3028.095,10339.695
1764769086.7032669,6445.889999999999,2535.345,-30667.41,-8434.619999999999,-8333.64,-28636.47,3015.495,10325.61
1764769086.7032669,6445.304999999999,2533.905,-30669.48,-8435.61,-8332.83,-28633.995,3016.125,10324.62
1764769086.7032669,6450.84,2538.585,-30665.835,-8430.57,-8325.945,-28624.86,3022.65,10331.055
1764769086.7032669,6451.875,2539.71,-30665.295,-8429.94,-8323.965,-28622.97,3024.585,10333.395
1764769086.7032669,6444.405,2534.085,-30670.785,-8436.33,-8330.76,-28630.8,3018.96,10326.195
1764769086.7032669,6446.16,2537.82,-30667.365,-8434.574999999999,-8328.465,-28629.765,3022.245,10329.03
1764769086.7032669,6447.15,2539.08,-30666.015,-8432.73,-8327.925,-28630.08,3022.92,10330.56
1764769086.7032669,6453.81,2545.11,-30660.345,-8426.88,-8322.029999999999,-28623.375,3028.005,10336.905
1764769086.7032669,6452.37,2543.355,-30662.28,-8428.725,-8324.235,-28625.535,3025.98,10334.565
1764769086.7032669,6447.06,2536.11,-30670.74,-8437.05,-8332.515,-28633.41,3019.68,10328.58
1764769086.7032669,6439.41,2527.695,-30679.47,-8445.6,-8341.02,-28641.33,3011.715,10319.895
1764769086.7032669,6446.474999999999,2535.03,-30672.765,-8438.895,-8333.91,-28634.805,3017.655,10326.33
1764769086.7032669,6439.185,2527.335,-30679.785,-8445.195,-8340.48,-28643.04,3011.535,10318.725
1764769086.7032669,6443.28,2532.465,-30675.015,-8440.47,-8336.385,-28638.855,3015.63,10323.855
1764769086.7032669,6433.695,2522.16,-30684.78,-8450.055,-8345.25,-28647.09,3008.835,10314.945
1764769086.7032669,6430.094999999999,2518.695,-30688.02,-8454.195,-8348.445,-28650.96,3005.775,10312.38
1764769086.7032669,6431.804999999999,2520.81,-30686.49,-8453.07,-8347.904999999999,-28650.645,3006.855,10314.36
1764769086.7527635,6440.085,2529.585,-30678.795,-8445.195,-8339.805,-28643.22,3013.83,10323.18
1764769086.7527635,6446.655,2535.975,-30672.315,-8438.31,-8333.055,-28636.56,3019.77,10328.76
1764769086.7527635,6451.335,2539.71,-30668.76,-8434.35,-8330.175,-28633.725,3023.28,10333.125
1764769086.7527635,6446.07,2533.095,-30675.87,-8440.875,-8338.005,-28641.465,3015.81,10326.96
1764769086.7527635,6434.235,2520.135,-30689.28,-8454.42,-8351.46,-28654.515,3004.56,10314.36
1764769086.7527635,6437.429999999999,2523.6,-30685.725,-8451.225,-8348.085,-28650.285,3007.08,10318.545
1764769086.7527635,6441.929999999999,2528.505,-30680.415,-8445.914999999999,-8342.414999999999,-28645.605,3012.165,10323.54
1764769086.7527635,6438.825,2526.255,-30682.89,-8447.805,-8343.945,-28648.53,3012.03,10322.235
1764769086.7527635,6443.235,2531.07,-30678.795,-8444.07,-8338.949999999999,-28645.11,3015.63,10327.14
1764769086.7527635,6434.639999999999,2522.655,-30687.48,-8453.43,-8348.49,-28655.28,3007.71,10318.185
1764769086.7527635,6441.03,2528.19,-30682.305,-8448.164999999999,-8342.55,-28649.385,3013.425,10324.35
1764769086.7527635,6441.3,2528.1,-30682.44,-8448.525,-8342.955,-28649.52,3013.29,10323.36
1764769086.7527635,6453.224999999999,2540.07,-30671.82,-8436.779999999999,-8331.885,-28638.09,3023.46,10334.52
1764769086.7527635,6455.25,2541.33,-30671.325,-8436.555,-8332.199999999999,-28638.0,3025.215,10336.095
1764769086.7527635,6454.844999999999,2540.97,-30672.54,-8438.13,-8335.17,-28640.25,3024.675,10336.095
1764769086.7527635,6442.785,2529.405,-30682.845,-8447.715,-8343.72,-28649.97,3013.335,10323.135
1764769086.7527635,6441.57,2528.46,-30682.845,-8447.22,-8342.595,-28649.07,3014.01,10322.595
1764769086.7527635,6443.46,2530.71,-30682.44,-8447.22,-8342.145,-28648.935,3015.945,10325.07
1764769086.7527635,6444.36,2532.15,-30682.53,-8447.085,-8342.505,-28650.24,3014.91,10325.34
1764769086.7527635,6450.66,2538.585,-30675.42,-8439.119999999999,-8333.73,-28641.105,3021.48,10332.72
1764769086.7527635,6453.63,2541.42,-30673.125,-8437.095,-8331.48,-28638.045,3024.18,10335.87
1764769086.7527635,6455.61,2543.49,-30671.37,-8435.115,-8329.86,-28636.605,3025.98,10337.31
1764769086.7527635,6460.245,2546.955,-30667.77,-8430.57,-8325.18,-28631.88,3030.03,10341.135
1764769086.7527635,6453.45,2538.945,-30675.96,-8438.13,-8333.055,-28639.845,3022.11,10334.07
1764769086.800092,6446.25,2531.52,-30682.935,-8445.465,-8341.605,-28648.89,3013.56,10324.62
1764769086.800092,6452.235,2538.18,-30676.77,-8439.435,-8334.539999999999,-28641.735,3019.005,10330.38
1764769086.800092,6454.755,2541.015,-30673.845,-8436.69,-8330.895,-28637.01,3022.695,10333.8
1764769086.800092,6453.36,2539.935,-30674.745,-8437.095,-8330.265,-28636.425,3024.135,10334.205
1764769086.800092,6450.615,2537.82,-30677.445,-8439.39,-8333.145,-28639.8,3022.605,10333.035
1764769086.800092,6442.605,2529.09,-30686.625,-8447.715,-8342.775,-28649.295,3014.19,10324.17
1764769086.800092,6443.415,2529.855,-30685.68,-8446.994999999999,-8342.955,-28649.07,3014.91,10325.16
1764769086.800599,6452.505,2539.215,-30676.365,-8436.555,-8332.47,-28638.09,3023.235,10333.98
1764769086.800599,6458.13,2544.345,-30670.29,-8429.94,-8325.27,-28631.16,3028.77,10339.065
1764769086.800599,6454.17,2539.98,-30674.52,-8434.305,-8329.545,-28635.795,3023.91,10334.745
1764769086.800599,6446.745,2532.51,-30682.665,-8442.36,-8338.05,-28644.165,3016.26,10326.24
1764769086.800599,6448.5,2534.265,-30680.595,-8440.695,-8336.97,-28644.48,3016.98,10327.5
1764769086.800599,6461.955,2548.71,-30665.97,-8426.88,-8324.685,-28635.03,3027.555,10340.64
1764769086.800599,6462.495,2549.61,-30664.305,-8425.574999999999,-8323.515,-28635.84,3027.915,10341.405
1764769086.800599,6458.445,2546.325,-30668.04,-8428.41,-8324.55,-28634.22,3028.455,10339.56
1764769086.800599,6452.145,2539.395,-30675.735,-8434.845,-8329.095,-28635.615,3025.8,10334.52
1764769086.800599,6461.505,2548.98,-30665.79,-8424.09,-8317.845,-28623.87,3034.26,10344.285
1764769086.800599,6468.615,2555.505,-30658.05,-8417.385,-8311.095,-28617.48,3040.29,10350.585
1764769086.800599,6469.11,2555.37,-30657.915,-8417.385,-8310.645,-28615.77,3041.37,10350.855
1764769086.800599,6456.285,2541.645,-30670.92,-8429.715,-8323.965,-28628.415,3028.995,10336.725
1764769086.800599,6457.41,2543.49,-30669.705,-8428.994999999999,-8323.965,-28629.27,3029.175,10337.13
1764769086.800599,6460.74,2547.09,-30665.7,-8424.494999999999,-8319.465,-28625.31,3032.46,10341.045
1764769086.800599,6466.86,2554.11,-30657.735,-8416.664999999999,-8311.005,-28617.57,3039.525,10347.93
1764769086.800599,6458.94,2545.92,-30665.475,-8424.81,-8319.96,-28627.38,3032.73,10341.045
1764769086.846375,6464.34,2551.59,-30659.445,-8418.42,-8314.38,-28622.295,3037.095,10347.12
1764769086.846375,6461.28,2547.405,-30662.955,-8421.975,-8319.015,-28626.66,3033.855,10343.61
1764769086.846375,6471.945,2558.295,-30652.38,-8411.175,-8308.215,-28615.95,3043.62,10353.87
1764769086.846375,6476.67,2563.47,-30646.53,-8405.414999999999,-8302.23,-28610.73,3048.84,10358.64
1764769086.846375,6480.315,2565.405,-30644.82,-8404.515,-8301.6,-28608.975,3051.765,10361.88
1764769086.846375,6476.715,2560.545,-30650.4,-8409.96,-8308.26,-28615.77,3045.285,10356.93
1764769086.846375,6475.185,2559.87,-30650.355,-8408.565,-8306.369999999999,-28614.69,3042.675,10353.87
1764769086.846375,6474.15,2558.745,-30650.94,-8409.24,-8306.145,-28615.23,3041.415,10351.98
1764769086.846375,6475.094999999999,2559.645,-30649.185,-8407.529999999999,-8305.11,-28613.925,3043.62,10353.69
1764769086.846375,6473.655,2558.79,-30650.13,-8407.125,-8304.3,-28612.395,3045.285,10353.555
1764769086.846375,6471.585,2556.945,-30652.02,-8408.97,-8305.199999999999,-28612.98,3045.06,10353.15
1764769086.846375,6462.63,2548.035,-30661.92,-8418.015,-8315.505,-28624.23,3035.295,10344.105
1764769086.846375,6465.42,2551.185,-30659.22,-8414.91,-8313.615,-28621.755,3037.275,10346.805
1764769086.846375,6460.469999999999,2544.57,-30665.16,-8421.57,-8320.904999999999,-28628.37,3031.47,10339.695
1764769086.846375,6467.625,2551.5,-30658.005,-8413.83,-8313.39,-28620.315,3037.77,10347.075
1764769086.846375,6457.634999999999,2541.105,-30668.445,-8423.505,-8323.65,-28629.99,3028.41,10336.725
1764769086.846375,6454.485,2537.82,-30671.64,-8426.61,-8326.574999999999,-28633.68,3024.585,10333.575
1764769086.846375,6450.344999999999,2534.445,-30675.555,-8430.435,-8330.445,-28638.54,3019.86,10329.525
1764769086.846375,6451.56,2536.29,-30673.395,-8428.275,-8328.869999999999,-28636.74,3022.56,10331.955
1764769086.846375,6454.215,2539.485,-30669.255,-8425.08,-8325.539999999999,-28633.545,3027.24,10335.6
1764769086.846375,6456.24,2542.365,-30667.14,-8423.055,-8323.56,-28631.295,3028.86,10338.03
1764769086.846375,6461.37,2547.72,-30662.055,-8418.465,-8318.789999999999,-28626.75,3031.245,10342.98
1764769086.846375,6462.585,2548.755,-30660.75,-8417.475,-8317.215,-28625.895,3033.045,10344.42
1764769086.846375,6464.61,2549.835,-30659.715,-8416.35,-8315.775,-28623.285,3034.935,10345.32
1764769086.8915904,6468.3,2552.67,-30657.555,-8413.425,-8312.175,-28619.415,3038.22,10348.245
1764769086.8915904,6461.685,2545.56,-30664.71,-8420.76,-8319.33,-28627.065,3030.435,10340.91
1764769086.8915904,6455.025,2537.82,-30672.045,-8428.59,-8327.07,-28634.58,3023.775,10333.485
1764769086.8915904,6460.92,2543.94,-30665.43,-8422.74,-8320.725,-28628.64,3029.67,10340.28
1764769086.8915904,6459.21,2543.31,-30666.78,-8423.595,-8321.805,-28631.52,3028.995,10339.56
1764769086.8915904,6469.02,2554.2,-30656.565,-8412.615,-8311.095,-28621.26,3038.22,10350.54
1764769086.8915904,6471.585,2556.945,-30652.785,-8409.869999999999,-8307.539999999999,-28617.57,3042.585,10354.32
1764769086.8915904,6468.929999999999,2553.165,-30656.07,-8413.83,-8311.05,-28620.765,3039.93,10351.35
1764769086.8915904,6468.48,2552.535,-30657.51,-8415.18,-8311.904999999999,-28621.665,3039.165,10350.225
1764769086.8915904,6466.634999999999,2550.33,-30659.355,-8416.35,-8312.805,-28623.465,3037.32,10347.48
1764769086.8915904,6465.825,2547.495,-30662.37,-8419.86,-8317.26,-28626.345,3035.25,10345.275
1764769086.8915904,6460.2,2541.42,-30669.39,-8426.43,-8325.63,-28633.68,3027.555,10338.12
1764769086.8915904,6453.855,2535.345,-30675.6,-8433.18,-8331.93,-28640.115,3022.2,10331.01
1764769086.8915904,6460.695,2543.355,-30666.87,-8423.775,-8322.345,-28632.24,3027.87,10337.985
1764769086.8915904,6461.28,2544.84,-30664.89,-8422.65,-8320.365,-28631.745,3029.76,10339.245
1764769086.8915904,6451.92,2535.21,-30674.07,-8432.46,-8329.5,-28640.52,3023.505,10330.56
1764769086.8915904,6453.675,2537.055,-30672.855,-8430.795,-8327.789999999999,-28636.515,3026.925,10332.99
1764769086.8915904,6466.23,2550.285,-30659.4,-8417.43,-8314.83,-28624.32,3037.455,10345.68
1764769086.8915904,6470.685,2554.83,-30655.215,-8413.425,-8310.465,-28620.225,3041.415,10350.36
1764769086.8915904,6470.91,2555.055,-30654.72,-8413.47,-8311.275,-28619.82,3042.63,10350.405
1764769086.8915904,6470.82,2553.66,-30656.43,-8414.595,-8313.255,-28619.91,3041.775,10348.83
1764769086.8915904,6461.505,2543.535,-30666.645,-8423.955,-8322.795,-28629.495,3032.325,10338.795
1764769086.9384384,6467.58,2550.015,-30660.3,-8417.115,-8316.18,-28622.655,3037.32,10345.095
1764769086.9384384,6461.28,2543.985,-30666.42,-8424.18,-8325.855,-28632.555,3031.11,10338.705
1764769086.9384384,6457.95,2540.43,-30670.335,-8428.185,-8330.58,-28638.0,3026.475,10334.97
1764769086.9384384,6456.87,2541.375,-30668.04,-8424.63,-8327.61,-28637.73,3025.395,10334.565
1764769086.9384384,6465.42,2549.52,-30658.32,-8414.865,-8316.9,-28627.695,3034.935,10344.15
1764769086.9384384,6461.099999999999,2543.625,-30664.305,-8420.22,-8320.77,-28628.73,3033.945,10341.135
1764769086.9384384,6465.599999999999,2548.395,-30660.12,-8415.99,-8315.775,-28622.43,3038.76,10345.905
1764769086.9384384,6460.605,2542.77,-30665.43,-8421.39,-8319.779999999999,-28626.525,3034.98,10340.505
1764769086.9384384,6466.23,2548.395,-30661.29,-8417.52,-8316.0,-28622.655,3037.59,10345.005
1764769086.9384384,6457.139999999999,2538.405,-30670.695,-8427.465,-8326.35,-28633.365,3027.555,10334.565
1764769086.9384384,6458.13,2539.8,-30668.985,-8425.305,-8324.91,-28631.43,3029.31,10335.915
1764769086.9384384,6461.325,2543.13,-30665.52,-8421.39,-8321.265,-28627.695,3032.28,10339.2
1764769086.9384384,6463.17,2545.47,-30662.55,-8418.42,-8318.744999999999,-28625.58,3035.025,10342.395
1764769086.9384384,6467.804999999999,2551.23,-30656.79,-8412.119999999999,-8313.48,-28620.72,3039.435,10348.155
1764769086.9384384,6463.62,2547.315,-30661.11,-8416.845,-8318.43,-28626.48,3036.15,10344.105
1764769086.9384384,6465.87,2549.385,-30658.185,-8414.414999999999,-8316.585,-28623.78,3039.12,10345.995
1764769086.9384384,6470.235,2553.435,-30653.145,-8410.365,-8312.265,-28619.82,3043.395,10349.775
1764769086.9384384,6470.235,2554.155,-30652.155,-8409.24,-8311.815,-28620.27,3042.585,10349.28
1764769086.9384384,6478.83,2562.705,-30643.785,-8400.914999999999,-8304.435,-28613.07,3049.245,10357.56
1764769086.9384384,6481.304999999999,2563.875,-30642.57,-8400.105,-8303.355,-28611.72,3050.505,10359.18
1764769086.9384384,6482.25,2563.515,-30641.94,-8398.619999999999,-8300.744999999999,-28606.32,3053.61,10359.72
1764769086.9384384,6481.62,2564.055,-30641.67,-8397.449999999999,-8299.035,-28604.565,3055.455,10361.025
1764769086.9847205,6484.23,2567.79,-30638.43,-8395.154999999999,-8298.404999999999,-28605.15,3057.21,10364.85
1764769086.9847205,6476.58,2559.915,-30646.71,-8402.355,-8306.73,-28613.52,3049.965,10356.435
1764769086.9847205,6482.07,2565.99,-30641.265,-8396.369999999999,-8300.565,-28606.635,3055.68,10362.51
1764769086.9847205,6474.78,2558.295,-30647.97,-8403.615,-8307.81,-28614.15,3049.245,10354.32
1764769086.9847205,6481.395,2564.91,-30641.04,-8396.55,-8301.105,-28607.805,3054.33,10360.17
1764769086.9847205,6487.02,2570.76,-30634.785,-8390.52,-8295.48,-28601.46,3059.37,10366.335
1764769086.9847205,6485.985,2568.87,-30636.405,-8392.05,-8297.55,-28603.53,3058.11,10364.445
1764769086.9847205,6470.37,2552.715,-30652.65,-8408.07,-8313.93,-28620.495,3042.63,10347.705
1764769086.9847205,6468.84,2551.59,-30655.08,-8410.005,-8316.315,-28621.71,3041.235,10346.535
1764769086.9847205,6471.405,2553.12,-30654.495,-8408.34,-8314.965,-28619.73,3042.99,10348.56
1764769086.9847205,6474.915,2556.855,-30650.13,-8404.154999999999,-8309.88,-28615.185,3046.86,10352.385
1764769086.9847205,6483.42,2565.945,-30639.87,-8394.39,-8299.08,-28604.79,3056.31,10362.285
1764769086.9847205,6478.65,2560.95,-30644.145,-8398.619999999999,-8303.58,-28608.57,3054.555,10359.0
1764769086.9847205,6481.889999999999,2565.27,-30640.23,-8394.93,-8300.115,-28606.005,3059.01,10363.095
1764769086.9847205,6493.59,2576.925,-30628.305,-8383.68,-8289.585,-28595.025,3068.46,10374.435
1764769086.9847205,6485.13,2566.035,-30638.745,-8393.895,-8300.565,-28605.87,3059.28,10363.905
1764769086.9852395,6488.054999999999,2568.51,-30636.09,-8390.88,-8298.449999999999,-28604.295,3060.315,10366.155
1764769086.9852395,6475.23,2555.775,-30648.555,-8403.705,-8312.085,-28617.84,3048.525,10353.285
1764769086.9852395,6473.52,2553.93,-30650.58,-8405.955,-8314.199999999999,-28620.54,3046.455,10350.585
1764769086.9852395,6475.455,2555.28,-30649.365,-8404.965,-8313.57,-28620.0,3046.455,10351.17
1764769086.9852395,6475.094999999999,2555.685,-30648.375,-8404.47,-8312.895,-28620.36,3046.86,10352.07
1764769086.9852395,6482.34,2563.785,-30639.825,-8395.38,-8303.85,-28612.215,3053.88,10360.17
1764769086.9852395,6488.054999999999,2570.895,-30634.2,-8388.99,-8296.875,-28604.97,3060.765,10367.865
1764769086.9852395,6486.344999999999,2569.725,-30635.55,-8389.305,-8297.685,-28606.365,3060.63,10367.595
1764769087.0312982,6481.17,2563.875,-30641.265,-8395.875,-8304.255,-28614.285,3055.545,10361.295
1764769087.0312982,6481.62,2564.055,-30639.645,-8394.029999999999,-8301.645,-28610.64,3057.255,10362.195
1764769087.0312982,6490.62,2572.605,-30631.23,-8385.795,-8293.32,-28601.055,3065.04,10371.195
1764769087.0312982,6479.91,2559.285,-30645.72,-8399.789999999999,-8308.98,-28616.265,3052.98,10358.37
1764769087.0312982,6479.955,2559.555,-30645.27,-8398.44,-8307.99,-28616.4,3050.91,10357.245
1764769087.0312982,6485.085,2565.045,-30639.24,-8392.23,-8299.98,-28606.995,3056.175,10362.195
1764769087.0312982,6476.804999999999,2556.855,-30647.295,-8399.205,-8305.244999999999,-28611.72,3051.72,10355.355
1764769087.0312982,6474.105,2554.335,-30649.59,-8402.13,-8308.35,-28615.77,3050.055,10354.185
1764769087.0312982,6476.264999999999,2557.215,-30647.34,-8399.88,-8306.685,-28614.87,3052.08,10357.695
1764769087.0312982,6478.469999999999,2559.555,-30645.36,-8397.539999999999,-8304.75,-28613.97,3053.52,10359.54
1764769087.0312982,6484.905,2564.82,-30638.79,-8391.24,-8298.765,-28608.345,3059.82,10365.12
1764769087.0312982,6490.53,2570.085,-30633.615,-8385.975,-8293.32,-28604.115,3063.42,10369.845
1764769087.0312982,6491.115,2570.085,-30633.345,-8385.84,-8293.365,-28603.665,3062.61,10369.53
1764769087.0312982,6481.665,2559.015,-30643.56,-8395.74,-8303.49,-28613.61,3052.485,10358.64
1764769087.0323102,6488.235,2564.955,-30637.845,-8389.125,-8296.02,-28605.645,3059.37,10365.345
1764769087.0323102,6488.099999999999,2565.27,-30637.89,-8388.72,-8295.705,-28604.025,3060.36,10365.795
1764769087.0323102,6478.74,2556.81,-30646.98,-8397.539999999999,-8305.695,-28614.015,3051.675,10355.895
1764769087.0323102,6475.545,2554.11,-30648.645,-8399.43,-8307.18,-28616.535,3050.01,10353.645
1764769087.0323102,6476.085,2554.11,-30649.455,-8400.285,-8308.845,-28619.01,3050.505,10354.005
1764769087.0323102,6473.925,2551.95,-30651.03,-8401.635,-8310.779999999999,-28621.845,3047.94,10352.025
1764769087.0323102,6472.395,2551.095,-30652.56,-8403.029999999999,-8311.994999999999,-28622.16,3047.085,10351.125
1764769087.0323102,6474.78,2553.48,-30649.815,-8400.24,-8309.295,-28617.615,3049.155,10352.475
1764769087.0323102,6486.705,2565.135,-30638.745,-8388.9,-8298.09,-28606.23,3059.235,10363.905
1764769087.0323102,6478.785,2556.9,-30647.79,-8396.64,-8306.955,-28615.23,3051.72,10355.22
1764769087.078004,6478.605,2557.71,-30646.8,-8395.83,-8307.449999999999,-28616.175,3051.18,10354.68
1764769087.078004,6487.469999999999,2566.44,-30637.44,-8386.92,-8297.01,-28606.365,3058.785,10363.995
1764769087.078004,6485.67,2564.64,-30639.555,-8388.315,-8297.01,-28606.005,3059.28,10363.77
1764769087.078004,6477.974999999999,2557.98,-30646.665,-8395.38,-8305.11,-28614.24,3053.295,10355.985
1764769087.078004,6481.755,2562.3,-30641.895,-8390.16,-8299.98,-28609.65,3057.48,10361.385
1764769087.078004,6473.429999999999,2553.795,-30650.13,-8398.529999999999,-8307.494999999999,-28617.975,3050.955,10353.555
1764769087.078004,6469.335,2548.305,-30656.34,-8405.279999999999,-8314.695,-28624.635,3045.195,10347.885
1764769087.078004,6471.179999999999,2549.16,-30655.125,-8403.57,-8313.029999999999,-28623.24,3045.555,10348.74
1764769087.078004,6480.99,2558.835,-30645.09,-8393.85,-8302.455,-28612.08,3054.195,10358.28
1764769087.078004,6479.639999999999,2556.765,-30646.755,-8395.065,-8304.57,-28613.34,3051.0,10355.76
1764769087.078004,6479.639999999999,2555.955,-30647.025,-8395.38,-8304.84,-28613.16,3051.135,10354.95
1764769087.078004,6478.245,2554.605,-30648.33,-8396.82,-8305.425,-28614.285,3050.865,10353.915
1764769087.078004,6480.134999999999,2557.26,-30648.195,-8397.404999999999,-8306.82,-28616.22,3052.35,10356.3
1764769087.078004,6474.465,2552.58,-30652.65,-8401.994999999999,-8311.77,-28621.17,3048.705,10351.71
1764769087.078004,6482.655,2561.22,-30642.165,-8391.015,-8300.205,-28610.145,3056.13,10360.62
1764769087.078004,6487.11,2565.765,-30637.215,-8386.875,-8295.795,-28605.42,3060.945,10365.48
1764769087.078004,6488.955,2567.34,-30636.0,-8385.525,-8294.355,-28604.565,3062.61,10366.83
1764769087.078004,6486.929999999999,2564.73,-30637.53,-8387.64,-8296.515,-28606.905,3060.135,10364.175
1764769087.078004,6486.84,2564.055,-30638.43,-8388.449999999999,-8298.539999999999,-28608.165,3059.235,10363.635
1764769087.078004,6475.905,2553.03,-30650.4,-8399.789999999999,-8310.33,-28619.145,3048.66,10352.475
1764769087.078004,6476.085,2552.715,-30650.76,-8399.88,-8309.97,-28619.055,3048.66,10352.565
1764769087.078004,6478.785,2555.595,-30647.565,-8397.36,-8307.9,-28616.355,3051.225,10355.58
1764769087.078004,6478.83,2556.81,-30646.125,-8395.83,-8306.595,-28616.49,3052.08,10355.76
1764769087.078004,6487.56,2565.45,-30636.405,-8386.154999999999,-8295.525,-28606.14,3062.385,10365.93
1764769087.124942,6488.145,2566.845,-30635.955,-8385.795,-8295.705,-28606.59,3063.42,10367.505
1764769087.124942,6485.985,2566.485,-30636.72,-8387.145,-8298.09,-28609.38,3061.845,10366.65
1764769087.1254685,6476.895,2556.405,-30647.34,-8397.09,-8307.765,-28619.55,3053.115,10356.795
1764769087.1254685,6482.429999999999,2560.68,-30643.11,-8392.185,-8302.365,-28612.395,3057.525,10362.42
1764769087.1254685,6486.21,2563.425,-30640.005,-8388.99,-8298.404999999999,-28607.13,3061.26,10365.93
1764769087.1254685,6480.36,2557.71,-30645.495,-8394.435,-8304.975,-28615.365,3053.88,10359.135
1764769087.1254685,6477.255,2554.2,-30649.905,-8398.98,-8309.025,-28619.28,3050.01,10354.905
1764769087.1254685,6466.86,2544.21,-30660.21,-8409.42,-8320.095,-28629.045,3040.155,10344.285
1764769087.1254685,6466.41,2544.21,-30659.805,-8408.789999999999,-8318.654999999999,-28628.415,3040.2,10344.285
1764769087.1254685,6466.455,2544.21,-30659.535,-8408.97,-8319.015,-28629.0,3040.605,10344.555
1764769087.1254685,6463.889999999999,2542.995,-30660.66,-8410.545,-8320.59,-28631.07,3037.86,10342.17
1764769087.1254685,6459.03,2538.495,-30665.61,-8414.19,-8324.55,-28633.455,3034.575,10337.76
1764769087.1254685,6467.04,2546.055,-30658.77,-8406.63,-8316.945,-28623.915,3043.125,10346.805
1764769087.1254685,6474.87,2553.3,-30651.48,-8399.07,-8310.645,-28617.885,3050.145,10353.645
1764769087.1254685,6477.66,2556.09,-30648.6,-8395.515,-8307.315,-28614.825,3052.71,10355.805
1764769087.1254685,6466.185,2543.13,-30661.74,-8408.654999999999,-8320.545,-28627.965,3041.01,10343.16
1764769087.1254685,6465.06,2542.185,-30661.83,-8410.41,-8321.715,-28629.945,3039.345,10341.45
1764769087.1254685,6473.115,2550.825,-30653.775,-8402.31,-8314.47,-28623.015,3045.285,10349.46
1764769087.1254685,6478.605,2557.62,-30647.745,-8396.279999999999,-8307.945,-28618.38,3050.28,10355.13
1764769087.1254685,6480.45,2559.87,-30644.73,-8393.265,-8304.255,-28615.365,3053.88,10357.29
1764769087.1254685,6483.33,2562.48,-30641.85,-8390.16,-8300.385,-28611.18,3058.56,10361.61
1764769087.1254685,6484.185,2564.505,-30641.22,-8389.17,-8300.025,-28610.775,3059.73,10363.5
1764769087.1718583,6485.355,2565.045,-30640.455,-8388.72,-8300.07,-28611.45,3059.37,10364.085
1764769087.1718583,6486.57,2565.945,-30638.835,-8387.414999999999,-8298.99,-28610.64,3059.505,10364.76
1764769087.1718583,6487.74,2565.585,-30639.195,-8387.685,-8298.63,-28609.965,3058.965,10364.355
1764769087.1718583,6476.804999999999,2553.615,-30651.345,-8398.574999999999,-8310.33,-28622.205,3046.725,10351.755
1764769087.1718583,6469.514999999999,2545.56,-30658.95,-8406.27,-8319.105,-28630.53,3039.345,10343.205
1764769087.1718583,6468.344999999999,2544.57,-30660.345,-8407.395,-8319.96,-28632.42,3037.905,10341.945
1764769087.1718583,6469.11,2546.145,-30658.455,-8405.775,-8318.385,-28630.215,3040.11,10344.735
1764769087.1718583,6468.255,2546.28,-30657.195,-8405.369999999999,-8317.755,-28629.855,3040.38,10345.455
1764769087.1718583,6467.94,2546.28,-30658.545,-8406.494999999999,-8317.17,-28628.01,3042.18,10346.445
1764769087.1718583,6467.804999999999,2546.415,-30658.59,-8406.225,-8317.035,-28627.74,3043.125,10347.255
1764769087.1718583,6469.469999999999,2547.18,-30658.32,-8405.685,-8317.215,-28627.155,3044.385,10349.1
1764769087.1718583,6473.745,2550.78,-30654.27,-8400.555,-8311.23,-28621.89,3046.725,10352.745
1764769087.1723666,6485.535,2562.48,-30641.94,-8387.279999999999,-8297.324999999999,-28609.11,3056.13,10363.275
1764769087.1723666,6479.28,2555.505,-30648.69,-8394.255,-8303.895,-28615.005,3051.135,10356.705
1764769087.1723666,6480.36,2556.585,-30647.295,-8393.625,-8302.949999999999,-28612.44,3053.52,10357.785
1764769087.1723666,6482.88,2559.195,-30645.27,-8391.195,-8300.205,-28610.325,3055.725,10360.53
1764769087.1723666,6486.48,2563.335,-30640.86,-8385.705,-8294.355,-28604.07,3062.16,10365.66
1764769087.1723666,6497.325,2575.755,-30628.755,-8373.24,-8282.565,-28592.055,3071.835,10377.945
1764769087.1723666,6502.86,2582.055,-30622.77,-8367.525,-8276.67,-28587.15,3077.91,10383.975
1764769087.1723666,6499.304999999999,2576.835,-30627.405,-8372.205,-8279.955,-28589.985,3075.615,10380.105
1764769087.1723666,6498.179999999999,2575.575,-30628.62,-8373.51,-8280.855,-28590.075,3074.625,10378.395
1764769087.1723666,6498.134999999999,2575.125,-30628.44,-8374.14,-8281.755,-28590.975,3073.455,10377.225
1764769087.1723666,6503.535,2579.67,-30624.435,-8369.685,-8277.435,-28586.61,3077.46,10381.455
1764769087.1723666,6491.925,2566.44,-30636.9,-8382.42,-8290.215,-28599.165,3066.03,10368.27
1764769087.2189004,6493.634999999999,2568.105,-30635.685,-8380.98,-8288.369999999999,-28596.42,3068.28,10370.835
1764769087.2189004,6502.634999999999,2578.32,-30624.93,-8370.72,-8278.74,-28586.52,3077.37,10381.14
1764769087.2189004,6497.775,2573.955,-30628.665,-8373.824999999999,-8282.744999999999,-28590.255,3073.995,10377.81
1764769087.2189004,6501.014999999999,2578.95,-30623.625,-8368.244999999999,-8277.57,-28586.295,3077.145,10383.075
1764769087.2189004,6505.245,2582.595,-30620.43,-8365.77,-8276.039999999999,-28584.27,3081.285,10387.665
1764769087.2189004,6499.755,2577.015,-30626.28,-8371.89,-8281.485,-28590.705,3076.83,10381.68
1764769087.2189004,6501.554999999999,2578.995,-30624.84,-8370.765,-8279.91,-28589.22,3078.045,10383.345
1764769087.2189004,6511.455,2588.085,-30614.67,-8360.865,-8269.38,-28579.185,3087.045,10391.805
1764769087.2194068,6515.91,2592.45,-30611.16,-8356.23,-8265.69,-28575.09,3091.185,10396.395
1764769087.2194068,6501.06,2576.88,-30627.9,-8371.98,-8281.44,-28590.255,3076.29,10380.51
1764769087.2194068,6501.825,2577.51,-30627.405,-8372.16,-8280.225,-28588.14,3076.425,10380.195
1764769087.2194068,6508.035,2584.125,-30620.565,-8365.77,-8274.6,-28582.065,3081.555,10386.27
1764769087.2194068,6501.735,2577.87,-30626.82,-8371.755,-8281.035,-28588.59,3076.56,10379.97
1764769087.2194068,6505.56,2582.64,-30621.96,-8367.615,-8277.435,-28586.43,3079.62,10384.92
1764769087.2194068,6508.17,2586.645,-30619.215,-8365.545,-8276.22,-28587.285,3080.745,10387.62
1764769087.2194068,6509.07,2589.12,-30617.1,-8363.16,-8273.744999999999,-28586.565,3082.86,10388.97
1764769087.2194068,6507.719999999999,2586.51,-30620.475,-8365.095,-8274.51,-28585.62,3083.31,10388.205
1764769087.2194068,6509.565,2586.735,-30620.43,-8363.789999999999,-8271.99,-28580.67,3086.19,10389.78
1764769087.2194068,6510.33,2586.42,-30620.385,-8362.89,-8271.72,-28580.13,3086.055,10389.735
1764769087.2194068,6507.405,2582.91,-30623.58,-8366.67,-8275.14,-28582.515,3082.86,10386.18
1764769087.2194068,6505.875,2582.595,-30624.3,-8368.289999999999,-8277.615,-28586.88,3080.97,10383.705
1764769087.2194068,6508.304999999999,2586.87,-30620.115,-8364.24,-8275.23,-28584.27,3083.265,10386.765
1764769087.2194068,6498.855,2576.52,-30630.69,-8374.59,-8284.68,-28592.415,3076.245,10378.665
1764769087.2194068,6493.905,2570.895,-30636.315,-8379.855,-8288.19,-28595.385,3073.545,10374.885
1764769087.265326,6496.155,2574.405,-30633.12,-8377.335,-8285.625,-28594.71,3075.57,10377.135
1764769087.265326,6495.255,2573.505,-30633.795,-8379.09,-8287.74,-28597.59,3073.095,10375.335
1764769087.265326,6495.66,2573.235,-30634.695,-8379.045,-8287.74,-28596.735,3073.905,10375.245
1764769087.265326,6497.37,2574.405,-30633.615,-8376.885,-8285.039999999999,-28592.415,3075.705,10377.135
1764769087.265326,6507.945,2585.385,-30623.94,-8366.895,-8275.275,-28580.355,3085.65,10388.97
1764769087.265326,6501.78,2578.41,-30631.905,-8375.13,-8284.545,-28590.345,3078.18,10381.545
1764769087.265326,6511.094999999999,2588.535,-30621.105,-8362.89,-8271.315,-28578.465,3086.37,10390.095
1764769087.265326,6509.52,2586.195,-30622.815,-8364.375,-8273.97,-28580.985,3085.02,10388.385
1764769087.2658343,6505.83,2582.82,-30625.605,-8367.48,-8276.895,-28584.585,3082.5,10385.595
1764769087.2658343,6500.655,2577.96,-30630.555,-8372.25,-8282.34,-28590.66,3077.145,10380.465
1764769087.2658343,6500.835,2578.77,-30630.105,-8371.98,-8283.465,-28592.28,3077.91,10381.005
1764769087.2658343,6500.295,2579.22,-30629.97,-8370.449999999999,-8282.205,-28590.48,3079.26,10382.13
1764769087.2658343,6501.87,2579.985,-30627.945,-8368.965,-8279.865,-28586.115,3081.96,10384.515
1764769087.2658343,6508.844999999999,2585.79,-30620.7,-8362.17,-8271.765,-28578.195,3087.855,10390.95
1764769087.2658343,6516.495,2593.71,-30613.77,-8353.664999999999,-8265.69,-28572.48,3093.84,10398.015
1764769087.2658343,6515.235,2593.035,-30614.355,-8355.015,-8266.635,-28573.29,3092.445,10396.62
1764769087.2658343,6509.52,2585.97,-30621.42,-8362.845,-8272.89,-28580.67,3086.28,10389.96
1764769087.2658343,6511.005,2587.815,-30618.99,-8359.74,-8269.92,-28578.555,3086.82,10391.895
1764769087.2658343,6510.645,2587.815,-30618.945,-8359.965,-8271.27,-28580.265,3086.1,10391.355
1764769087.2658343,6502.545,2580.975,-30626.505,-8367.48,-8278.289999999999,-28587.465,3081.195,10384.65
1764769087.2658343,6502.59,2580.93,-30625.515,-8366.67,-8277.029999999999,-28586.07,3083.04,10385.37
1764769087.2658343,6509.61,2587.14,-30618.135,-8360.235,-8270.865,-28579.005,3088.935,10392.93
1764769087.2658343,6509.16,2586.42,-30619.17,-8361.945,-8272.619999999999,-28579.68,3087.36,10391.58
1764769087.2658343,6505.245,2581.605,-30624.255,-8366.85,-8277.029999999999,-28583.82,3082.635,10385.82
1764769087.3115792,6507.855,2583.585,-30621.96,-8365.095,-8274.42,-28581.66,3084.525,10387.62
1764769087.3115792,6502.455,2576.835,-30628.845,-8371.845,-8281.485,-28588.635,3077.46,10380.6
1764769087.3115792,6499.844999999999,2573.685,-30632.49,-8375.76,-8285.535,-28591.875,3075.075,10377.27
1764769087.3115792,6497.009999999999,2570.58,-30635.595,-8378.82,-8287.785,-28594.53,3072.06,10374.255
1764769087.3115792,6499.035,2573.415,-30632.67,-8375.94,-8284.949999999999,-28591.965,3075.39,10378.26
1764769087.3115792,6499.485,2573.955,-30631.275,-8375.085,-8284.545,-28592.505,3077.235,10379.43
1764769087.3115792,6507.36,2582.775,-30623.22,-8367.074999999999,-8276.31,-28585.125,3084.525,10387.89
1764769087.3115792,6508.62,2585.475,-30621.24,-8364.869999999999,-8274.285,-28582.965,3086.325,10390.23
1764769087.3115792,6515.91,2591.82,-30613.68,-8357.175,-8266.815,-28575.09,3093.705,10397.52
1764769087.3115792,6519.195,2594.565,-30611.385,-8354.52,-8263.935,-28571.625,3096.945,10399.545
1764769087.3115792,6519.285,2594.925,-30611.655,-8354.789999999999,-8264.295,-28571.355,3096.945,10400.445
1764769087.3115792,6506.054999999999,2580.615,-30626.37,-8369.64,-8279.055,-28586.07,3083.355,10386.225
1764769087.3115792,6504.344999999999,2578.41,-30627.36,-8370.81,-8279.145,-28585.26,3082.005,10384.335
1764769087.3115792,6503.535,2578.32,-30627.495,-8370.99,-8279.1,-28585.935,3080.835,10383.66
1764769087.3115792,6507.63,2583.405,-30622.86,-8366.13,-8274.914999999999,-28582.83,3085.245,10388.385
1764769087.3127842,6514.83,2591.595,-30614.04,-8357.22,-8265.555,-28575.045,3092.31,10396.935
1764769087.3127842,6510.195,2587.32,-30618.18,-8360.414999999999,-8267.76,-28576.62,3089.88,10392.705
1764769087.3127842,6507.81,2583.945,-30620.79,-8362.935,-8270.279999999999,-28577.655,3088.305,10390.68
1764769087.3127842,6511.815,2588.13,-30616.92,-8360.279999999999,-8268.75,-28576.53,3091.05,10394.595
1764769087.3127842,6521.985,2599.02,-30606.165,-8348.67,-8257.275,-28564.605,3099.735,10404.135
1764769087.3127842,6522.615,2599.29,-30605.985,-8347.949999999999,-8255.654999999999,-28561.545,3101.31,10404.045
1764769087.3127842,6509.115,2583.855,-30620.16,-8361.18,-8269.065,-28574.325,3087.9,10388.655
1764769087.3588605,6509.429999999999,2583.765,-30619.575,-8361.18,-8269.154999999999,-28573.335,3089.115,10388.88
1764769087.3588605,6514.695,2590.695,-30614.13,-8356.365,-8265.06,-28569.375,3096.045,10396.26
1764769087.3588605,6525.54,2603.835,-30601.215,-8342.055,-8250.795,-28556.73,3106.53,10409.535
1764769087.3593776,6522.57,2600.595,-30602.79,-8342.414999999999,-8250.84,-28557.36,3103.875,10406.925
1764769087.3593776,6510.105,2587.68,-30614.895,-8354.385,-8262.99,-28569.78,3092.625,10394.955
1764769087.3593776,6507.134999999999,2584.17,-30619.17,-8359.289999999999,-8267.625,-28573.965,3088.8,10391.13
1764769087.3593776,6511.32,2588.4,-30615.255,-8355.105,-8263.485,-28569.915,3092.355,10394.55
1764769087.3593776,6521.67,2599.695,-30604.725,-8344.17,-8253.404999999999,-28560.06,3101.625,10404.765
1764769087.3593776,6522.57,2598.93,-30605.265,-8343.945,-8253.404999999999,-28560.645,3100.86,10404.18
1764769087.3593776,6509.474999999999,2583.585,-30619.935,-8358.345,-8268.029999999999,-28574.595,3087.27,10389.825
1764769087.3593776,6514.155,2589.12,-30614.22,-8353.08,-8262.9,-28567.62,3092.58,10394.46
1764769087.3593776,6506.594999999999,2582.235,-30621.105,-8360.145,-8270.505,-28575.9,3085.785,10387.485
1764769087.3593776,6510.195,2587.41,-30616.38,-8354.52,-8264.34,-28571.22,3089.835,10392.795
1764769087.3593776,6505.38,2583.18,-30620.565,-8359.11,-8268.795,-28575.99,3086.235,10388.43
1764769087.3593776,6506.054999999999,2584.17,-30620.16,-8358.885,-8269.38,-28576.17,3087.045,10389.15
1764769087.3593776,6513.48,2591.865,-30613.455,-8352.09,-8262.63,-28568.7,3093.255,10397.295
1764769087.3593776,6512.67,2589.39,-30616.38,-8354.34,-8264.475,-28570.275,3091.545,10395.585
1764769087.3593776,6505.56,2580.885,-30624.12,-8361.09,-8270.324999999999,-28575.315,3087.135,10387.935
1764769087.3593776,6519.735,2595.285,-30609.54,-8346.33,-8255.295,-28561.095,3100.005,10402.155
1764769087.3593776,6511.275,2586.06,-30618.54,-8356.095,-8266.994999999999,-28573.245,3090.195,10391.85
1764769087.3593776,6511.05,2587.23,-30618.36,-8355.555,-8266.949999999999,-28574.055,3089.205,10391.355
1764769087.3593776,6519.33,2595.78,-30609.9,-8345.475,-8257.14,-28564.65,3096.585,10399.815
1764769087.3593776,6513.66,2590.065,-30615.75,-8351.145,-8261.55,-28568.745,3092.535,10393.92
1764769087.3593776,6509.61,2585.61,-30621.285,-8355.914999999999,-8263.845,-28569.24,3091.185,10391.67
1764769087.405322,6516.27,2593.71,-30614.13,-8348.715,-8256.96,-28562.76,3097.89,10398.96
1764769087.405322,6517.08,2595.015,-30613.23,-8348.085,-8256.869999999999,-28563.21,3099.015,10400.625
1764769087.405322,6519.96,2597.76,-30610.53,-8345.789999999999,-8254.26,-28560.105,3102.165,10403.55
1764769087.405322,6519.285,2596.905,-30611.43,-8346.735,-8256.015,-28562.175,3101.4,10401.93
1764769087.405322,6528.915,2605.005,-30603.78,-8338.949999999999,-8249.13,-28554.66,3107.205,10409.76
1764769087.405322,6526.844999999999,2602.26,-30605.805,-8341.02,-8251.38,-28558.17,3104.01,10407.735
1764769087.405322,6527.655,2603.385,-30605.265,-8340.615,-8250.615,-28557.135,3105.36,10408.32
1764769087.405322,6526.17,2602.53,-30606.525,-8341.515,-8251.92,-28557.27,3105.585,10407.555
1764769087.405322,6532.56,2610.63,-30598.11,-8333.145,-8242.38,-28548.63,3112.83,10416.24
1764769087.405322,6526.304999999999,2604.375,-30604.815,-8339.22,-8247.96,-28554.795,3108.96,10411.02
1764769087.405322,6532.38,2610.675,-30599.19,-8333.01,-8242.92,-28549.53,3113.37,10417.365
1764769087.405322,6528.195,2607.03,-30603.105,-8337.6,-8247.555,-28554.39,3108.33,10412.235
1764769087.405322,6518.16,2596.32,-30613.545,-8348.715,-8258.715,-28565.28,3099.15,10401.795
1764769087.405322,6520.59,2597.94,-30611.07,-8346.735,-8257.41,-28563.975,3100.23,10403.28
1764769087.405322,6530.49,2607.84,-30601.845,-8337.465,-8248.14,-28555.155,3107.655,10413.045
1764769087.405322,6521.085,2597.535,-30612.465,-8347.994999999999,-8258.85,-28566.27,3096.99,10401.93
1764769087.405322,6512.849999999999,2588.535,-30621.825,-8358.119999999999,-8270.055,-28576.575,3089.295,10392.705
1764769087.405322,6517.53,2593.17,-30617.28,-8353.8,-8265.914999999999,-28572.615,3094.02,10398.375
1764769087.405322,6509.34,2585.7,-30622.095,-8356.41,-8266.994999999999,-28574.955,3088.845,10390.32
1764769087.405322,6505.695,2582.955,-30624.615,-8358.975,-8268.525,-28576.395,3087.405,10388.16
1764769087.405322,6514.38,2591.235,-30616.515,-8350.83,-8259.975,-28567.305,3096.45,10398.42
1764769087.405322,6520.77,2597.445,-30610.53,-8345.744999999999,-8256.375,-28564.695,3100.68,10404.045
1764769087.405322,6522.435,2599.155,-30609.18,-8343.765,-8253.765,-28562.715,3102.93,10405.62
1764769087.405322,6513.344999999999,2588.445,-30620.115,-8354.07,-8263.89,-28573.02,3093.435,10394.865
1764769087.4514766,6517.844999999999,2591.91,-30616.245,-8349.795,-8260.695,-28568.565,3096.09,10398.51
1764769087.4514766,6509.384999999999,2582.685,-30624.84,-8359.335,-8270.64,-28578.465,3087.135,10388.385
1764769087.4514766,6517.575,2592.045,-30615.84,-8349.66,-8260.335,-28567.845,3096.09,10397.61
1764769087.4514766,6511.545,2585.655,-30622.005,-8355.69,-8266.949999999999,-28574.055,3090.42,10391.22
1764769087.4514766,6521.67,2597.085,-30610.845,-8345.025,-8257.185,-28564.335,3099.285,10402.11
1764769087.4514766,6525.81,2601.495,-30605.355,-8340.255,-8252.414999999999,-28560.555,3103.695,10406.52
1764769087.4514766,6524.955,2601.135,-30605.895,-8339.67,-8251.244999999999,-28561.365,3104.28,10405.98
1764769087.4514766,6522.884999999999,2599.245,-30607.965,-8341.515,-8253.404999999999,-28563.255,3103.11,10403.82
1764769087.4514766,6522.57,2599.605,-30607.11,-8341.244999999999,-8254.125,-28563.21,3102.3,10405.26
1764769087.4514766,6523.605,2600.82,-30606.165,-8340.84,-8253.449999999999,-28563.75,3102.57,10405.665
1764769087.4514766,6520.455,2596.86,-30609.855,-8344.845,-8257.455,-28567.305,3098.025,10400.31
1764769087.4514766,6505.56,2581.11,-30625.56,-8359.289999999999,-8272.845,-28581.165,3083.895,10384.02
1764769087.4514766,6513.48,2589.705,-30615.93,-8349.255,-8263.44,-28570.59,3092.535,10392.705
1764769087.4514766,6516.945,2593.395,-30611.34,-8345.295,-8260.289999999999,-28567.62,3096.63,10396.53
1764769087.4514766,6513.165,2590.29,-30614.22,-8348.805,-8263.664999999999,-28571.445,3094.65,10393.83
1764769087.4514766,6520.094999999999,2597.67,-30606.03,-8340.615,-8255.07,-28563.975,3100.95,10402.155
1764769087.4514766,6521.445,2598.84,-30605.4,-8339.67,-8253.539999999999,-28563.21,3102.255,10404.09
1764769087.4514766,6511.634999999999,2589.75,-30614.805,-8348.4,-8263.44,-28574.73,3092.58,10393.245
1764769087.4514766,6519.735,2597.625,-30606.12,-8339.445,-8256.15,-28568.34,3097.935,10400.31
1764769087.4514766,6516.495,2594.16,-30609.855,-8342.865,-8260.605,-28572.705,3094.56,10396.17
1764769087.4514766,6524.594999999999,2601.9,-30602.385,-8335.08,-8252.055,-28562.355,3101.94,10404.045
1764769087.4514766,6513.974999999999,2588.985,-30614.985,-8347.185,-8262.675,-28570.14,3091.41,10392.615
1764769087.4985478,6502.679999999999,2576.16,-30627.855,-8360.324999999999,-8274.69,-28581.66,3080.79,10380.915
1764769087.4985478,6500.745,2574.36,-30628.395,-8359.83,-8274.555,-28581.66,3080.52,10380.105
1764769087.4985478,6503.219999999999,2578.05,-30624.075,-8354.88,-8270.055,-28578.285,3083.535,10383.435
1764769087.4990582,6504.03,2579.85,-30622.32,-8353.305,-8268.164999999999,-28577.16,3086.01,10385.46
1764769087.4990582,6507.27,2584.08,-30618.81,-8349.119999999999,-8264.925,-28573.92,3089.835,10389.015
1764769087.4990582,6512.13,2589.03,-30612.42,-8342.64,-8259.164999999999,-28567.845,3094.425,10394.28
1764769087.4990582,6509.295,2585.835,-30615.165,-8345.654999999999,-8263.17,-28571.805,3091.725,10391.265
1764769087.4990582,6521.219999999999,2597.985,-30604.23,-8334.315,-8250.795,-28558.89,3102.39,10403.235
1764769087.4990582,6527.655,2603.97,-30598.065,-8327.789999999999,-8244.72,-28551.87,3109.68,10409.58
1764769087.4995663,6515.009999999999,2589.66,-30611.115,-8340.57,-8258.58,-28565.235,3096.72,10395.405
1764769087.4995663,6518.655,2593.485,-30606.48,-8335.89,-8254.26,-28561.23,3099.15,10399.05
1764769087.4995663,6513.344999999999,2588.67,-30610.53,-8340.029999999999,-8259.525,-28566.54,3093.885,10392.93
1764769087.4995663,6523.875,2600.505,-30599.01,-8329.14,-8247.285,-28554.21,3104.595,10405.53
1764769087.4995663,6525.945,2602.935,-30596.49,-8325.72,-8244.36,-28551.285,3108.735,10408.77
1764769087.4995663,6529.679999999999,2605.995,-30593.745,-8323.244999999999,-8242.74,-28550.16,3111.75,10412.685
1764769087.4995663,6523.92,2600.685,-30597.84,-8327.025,-8245.935,-28554.57,3104.82,10406.745
1764769087.4995663,6513.795,2590.695,-30606.57,-8335.215,-8254.395,-28563.795,3095.28,10395.09
1764769087.4995663,6519.42,2595.285,-30602.385,-8331.029999999999,-8250.84,-28561.005,3099.51,10399.77
1764769087.4995663,6526.259999999999,2599.56,-30599.415,-8327.744999999999,-8248.095,-28557.18,3103.065,10406.025
1764769087.4995663,6517.665,2590.155,-30607.74,-8336.34,-8256.195,-28564.065,3094.47,10396.98
1764769087.4995663,6510.599999999999,2583.405,-30614.22,-8341.965,-8260.65,-28568.52,3089.43,10389.78
1764769087.4995663,6520.32,2594.16,-30603.33,-8331.525,-8249.625,-28558.08,3098.52,10400.715
1764769087.4995663,6526.755,2601.18,-30596.625,-8325.18,-8243.324999999999,-28551.33,3106.035,10408.14
1764769087.4995663,6524.639999999999,2599.335,-30598.47,-8327.25,-8243.955,-28551.33,3106.485,10406.115
1764769087.547506,6529.77,2605.635,-30592.755,-8320.904999999999,-8237.115,-28544.625,3112.74,10412.28
1764769087.547506,6528.96,2604.6,-30593.88,-8322.255,-8239.005,-28546.2,3112.965,10411.47
1764769087.547506,6536.61,2612.25,-30586.635,-8314.92,-8231.49,-28538.775,3118.68,10418.4
1764769087.547506,6542.55,2618.325,-30580.83,-8309.295,-8225.865,-28533.51,3123.405,10423.845
1764769087.5480125,6543.045,2618.28,-30581.19,-8309.34,-8226.27,-28534.005,3123.45,10424.16
1764769087.5480125,6531.795,2605.635,-30593.88,-8321.49,-8239.095,-28547.145,3111.93,10411.965
1764769087.5480125,6533.73,2606.58,-30592.53,-8320.41,-8237.654999999999,-28545.12,3112.02,10413.18
1764769087.5480125,6523.92,2596.275,-30602.79,-8331.074999999999,-8248.23,-28555.47,3102.39,10402.605
1764769087.5480125,6526.71,2601.405,-30598.065,-8326.17,-8243.865,-28552.095,3105.36,10407.24
1764769087.5480125,6524.235,2600.145,-30598.83,-8327.25,-8244.494999999999,-28552.905,3105.54,10406.43
1764769087.5480125,6529.32,2605.68,-30594.465,-8322.705,-8239.77,-28547.55,3111.12,10412.685
1764769087.5480125,6525.134999999999,2600.37,-30599.865,-8327.699999999999,-8244.63,-28552.41,3106.305,10406.97
1764769087.5480125,6515.46,2589.57,-30610.305,-8338.14,-8254.845,-28563.345,3096.27,10395.9
1764769087.5480125,6521.67,2596.725,-30603.015,-8331.57,-8247.555,-28555.695,3102.795,10403.01
1764769087.5480125,6526.215,2600.46,-30598.425,-8327.205,-8243.369999999999,-28550.61,3107.205,10407.42
1764769087.5480125,6522.48,2595.78,-30603.015,-8332.515,-8249.445,-28555.965,3102.21,10402.02
1764769087.5480125,6521.264999999999,2595.24,-30604.725,-8334.18,-8250.84,-28557.045,3100.86,10399.95
1764769087.5480125,6517.665,2592.27,-30606.93,-8336.475,-8253.135,-28559.7,3097.53,10396.71
1764769087.5480125,6519.33,2594.43,-30604.005,-8333.82,-8250.84,-28558.305,3100.095,10399.86
1764769087.5480125,6523.02,2598.57,-30600.9,-8330.355,-8246.835,-28555.065,3104.28,10404.045
1764769087.5480125,6524.505,2600.82,-30598.695,-8329.185,-8244.765,-28552.815,3107.115,10406.79
1764769087.5480125,6517.17,2593.8,-30604.905,-8335.125,-8251.605,-28560.24,3099.915,10399.14
1764769087.5480125,6525.675,2602.935,-30597.345,-8327.115,-8243.865,-28551.78,3107.205,10408.095
1764769087.5480125,6528.78,2605.41,-30594.555,-8324.73,-8241.39,-28549.44,3110.085,10411.11
1764769087.594202,6525.495,2599.605,-30599.685,-8330.085,-8247.42,-28555.29,3104.19,10405.62
1764769087.594202,6515.955,2590.065,-30608.955,-8339.805,-8257.635,-28565.235,3092.85,10394.91
1764769087.594202,6514.56,2589.03,-30608.415,-8338.725,-8257.14,-28564.785,3092.535,10394.055
1764769087.594202,6509.745,2583.9,-30613.5,-8341.83,-8258.4,-28565.595,3090.735,10390.545
1764769087.594202,6502.455,2576.295,-30622.185,-8351.369999999999,-8268.75,-28575.045,3084.3,10383.12
1764769087.594202,6505.38,2580.975,-30616.83,-8346.869999999999,-8264.654999999999,-28571.58,3087.945,10387.035
1764769087.594202,6514.695,2592.045,-30606.165,-8336.88,-8253.9,-28561.995,3097.035,10398.285
1764769087.594202,6509.16,2585.16,-30612.33,-8343.539999999999,-8260.47,-28568.565,3092.4,10392.795
1764769087.594202,6511.094999999999,2586.06,-30610.08,-8341.47,-8259.345,-28566.765,3094.065,10394.055
1764769087.594202,6515.685,2590.47,-30606.48,-8337.33,-8255.835,-28562.805,3097.485,10397.52
1764769087.594202,6528.509999999999,2603.88,-30594.285,-8324.235,-8242.695,-28549.17,3108.105,10410.12
1764769087.594202,6527.565,2601.72,-30596.13,-8326.755,-8247.015,-28552.14,3106.125,10408.095
1764769087.594202,6522.344999999999,2595.285,-30601.125,-8331.39,-8251.11,-28555.83,3100.995,10402.02
1764769087.594202,6512.13,2586.105,-30608.955,-8339.715,-8259.255,-28565.055,3091.905,10391.625
1764769087.594202,6515.55,2589.525,-30606.165,-8336.52,-8255.43,-28560.78,3095.82,10396.035
1764769087.594202,6507.134999999999,2582.055,-30613.68,-8343.99,-8262.36,-28566.045,3091.41,10389.465
1764769087.594202,6506.91,2583.45,-30612.735,-8343.0,-8262.18,-28567.215,3091.275,10390.86
1764769087.594202,6510.285,2586.96,-30608.505,-8339.4,-8259.345,-28565.685,3093.57,10394.37
1764769087.594202,6518.16,2593.71,-30601.08,-8331.795,-8251.515,-28555.965,3100.545,10402.65
1764769087.594202,6519.105,2593.98,-30600.63,-8330.535,-8249.715,-28552.77,3102.84,10403.325
1764769087.594202,6523.335,2598.165,-30596.895,-8326.845,-8246.744999999999,-28550.88,3105.585,10406.295
1764769087.594202,6514.155,2587.86,-30606.165,-8336.43,-8257.635,-28562.22,3096.495,10395.675
1764769087.6413853,6515.685,2590.425,-30603.015,-8333.055,-8253.765,-28559.565,3098.97,10397.61
1764769087.6413853,6519.87,2595.78,-30598.245,-8327.654999999999,-8248.23,-28554.705,3103.02,10401.705
1764769087.6413853,6527.16,2604.51,-30589.56,-8319.015,-8240.715,-28546.605,3110.58,10411.155
1764769087.6413853,6520.95,2599.155,-30595.455,-8324.235,-8245.89,-28551.105,3106.845,10406.745
1764769087.6413853,6515.009999999999,2592.855,-30601.305,-8331.074999999999,-8252.19,-28558.395,3100.185,10400.22
1764769087.6413853,6512.94,2590.56,-30602.655,-8332.56,-8253.765,-28560.735,3097.62,10397.88
1764769087.6413853,6522.974999999999,2600.145,-30593.07,-8323.065,-8245.395,-28551.555,3105.675,10407.105
1764769087.6413853,6526.844999999999,2603.925,-30588.615,-8318.385,-8241.93,-28547.145,3109.77,10410.66
1764769087.6413853,6527.34,2603.43,-30588.48,-8317.89,-8241.705,-28546.83,3108.96,10410.12
1764769087.6413853,6524.325,2598.615,-30593.16,-8322.435,-8247.24,-28551.42,3103.785,10406.295
1764769087.6413853,6520.455,2595.42,-30595.95,-8325.765,-8249.85,-28555.38,3099.96,10402.335
1764769087.6413853,6512.264999999999,2587.545,-30603.33,-8332.965,-8256.645,-28562.445,3094.425,10394.865
1764769087.6413853,6508.485,2583.495,-30607.065,-8336.07,-8259.66,-28565.37,3091.545,10391.535
1764769087.6413853,6511.094999999999,2587.455,-30601.98,-8332.11,-8255.654999999999,-28562.22,3095.46,10395.405
1764769087.6413853,6512.715,2589.435,-30600.945,-8330.175,-8253.675,-28560.195,3098.07,10398.24
1764769087.6413853,6512.31,2589.66,-30600.09,-8329.095,-8252.64,-28559.655,3098.7,10398.105
1764769087.6413853,6518.16,2595.6,-30594.24,-8323.154999999999,-8247.105,-28553.94,3103.155,10403.325
1764769087.6413853,6512.895,2589.48,-30600.765,-8329.23,-8253.494999999999,-28559.88,3097.665,10396.17
1764769087.6413853,6520.905,2596.23,-30594.15,-8321.58,-8246.835,-28552.545,3102.93,10403.46
1764769087.6413853,6518.655,2592.63,-30597.03,-8324.46,-8249.625,-28555.605,3099.105,10400.13
1764769087.6413853,6516.81,2590.785,-30598.695,-8326.395,-8251.289999999999,-28558.035,3096.99,10397.385
1764769087.6413853,6516.585,2591.595,-30598.02,-8325.855,-8250.84,-28557.315,3098.16,10398.15
1764769087.6413853,6512.219999999999,2587.86,-30601.89,-8329.41,-8254.305,-28560.06,3095.73,10394.1
1764769087.6423905,6517.665,2594.52,-30595.005,-8321.58,-8246.205,-28551.87,3102.795,10401.66
1764769087.68824,6518.655,2595.96,-30592.98,-8320.05,-8244.855,-28551.42,3103.695,10403.64
1764769087.68824,6516.405,2593.53,-30595.365,-8322.705,-8248.635,-28556.46,3099.825,10399.68
1764769087.68824,6514.469999999999,2590.92,-30597.705,-8325.27,-8250.48,-28558.395,3098.475,10397.61
1764769087.68824,6518.205,2594.52,-30594.24,-8321.175,-8246.07,-28552.905,3102.345,10401.66
1764769087.68824,6520.545,2595.87,-30592.71,-8318.835,-8245.08,-28550.565,3104.685,10403.82
1764769087.68824,6512.4,2586.015,-30601.665,-8327.34,-8253.539999999999,-28559.34,3096.495,10395.405
1764769087.68824,6501.645,2574.72,-30613.68,-8339.49,-8266.365,-28572.705,3083.58,10382.805
1764769087.68824,6493.634999999999,2567.655,-30621.33,-8346.914999999999,-8275.095,-28581.795,3075.885,10374.57
1764769087.68824,6496.695,2571.39,-30617.235,-8342.64,-8270.235,-28577.475,3080.16,10378.71
1764769087.68824,6504.344999999999,2579.985,-30608.955,-8333.595,-8260.965,-28568.43,3088.485,10387.26
1764769087.68824,6506.865,2583.045,-30605.895,-8329.815,-8256.69,-28564.2,3092.895,10390.905
1764769087.68824,6507.36,2583.585,-30605.67,-8329.095,-8256.105,-28563.165,3093.795,10391.805
1764769087.68824,6503.445,2579.13,-30610.62,-8334.18,-8260.605,-28566.54,3091.95,10388.385
1764769087.68824,6506.235,2580.435,-30610.35,-8334.539999999999,-8261.775,-28567.98,3092.76,10390.095
1764769087.68824,6513.66,2588.265,-30601.575,-8324.64,-8251.92,-28558.08,3098.565,10396.575
1764769087.68824,6503.31,2578.095,-30610.935,-8333.19,-8260.38,-28567.17,3088.62,10385.235
1764769087.68824,6504.21,2578.815,-30611.565,-8332.92,-8260.244999999999,-28566.765,3090.15,10386.63
1764769087.68824,6509.295,2584.35,-30607.245,-8329.23,-8256.33,-28562.94,3094.695,10392.48
1764769087.6892557,6519.645,2596.5,-30594.6,-8316.494999999999,-8243.685,-28551.42,3105.45,10404.855
1764769087.6892557,6519.24,2596.725,-30595.32,-8317.98,-8245.485,-28553.715,3105.63,10405.62
1764769087.6892557,6509.655,2587.32,-30604.095,-8327.16,-8254.215,-28562.49,3097.71,10396.44
1764769087.6892557,6514.605,2592.405,-30598.38,-8321.715,-8250.074999999999,-28559.16,3100.725,10401.21
1764769087.6892557,6516.315,2593.935,-30597.57,-8320.994999999999,-8249.49,-28559.7,3101.31,10402.74
1764769087.6892557,6516.855,2593.845,-30597.255,-8319.555,-8248.095,-28558.305,3100.995,10402.785
1764769087.7323165,6515.28,2590.83,-30599.775,-8321.49,-8251.02,-28559.835,3098.385,10400.58
1764769087.7323165,6501.87,2577.24,-30613.995,-8335.17,-8264.385,-28571.805,3085.785,10386.495
1764769087.7323165,6503.625,2578.23,-30612.645,-8332.38,-8259.029999999999,-28564.875,3089.295,10389.825
1764769087.7323165,6499.08,2573.64,-30618.54,-8338.275,-8265.015,-28570.005,3086.01,10385.28
1764769087.7323165,6501.509999999999,2577.645,-30615.12,-8334.855,-8261.73,-28567.98,3089.07,10388.88
1764769087.7323165,6509.25,2587.005,-30605.76,-8326.305,-8252.955,-28560.195,3096.495,10397.7
1764769087.7323165,6510.195,2587.77,-30604.725,-8325.539999999999,-8251.244999999999,-28559.115,3097.17,10398.69
1764769087.7323165,6512.625,2590.245,-30601.26,-8322.255,-8247.869999999999,-28556.64,3099.87,10400.67
1764769087.7323165,6513.57,2591.235,-30600.54,-8321.58,-8248.455,-28556.73,3100.77,10401.21
1764769087.7323165,6516.54,2593.89,-30598.29,-8319.375,-8246.025,-28553.49,3103.335,10403.82
1764769087.7323165,6519.33,2596.905,-30595.005,-8316.539999999999,-8242.695,-28549.395,3106.08,10406.61
1764769087.7323165,6517.035,2595.195,-30597.03,-8318.789999999999,-8244.585,-28551.375,3103.56,10404.36
1764769087.7323165,6518.655,2596.185,-30596.58,-8318.205,-8243.505,-28550.34,3105.09,10405.395
1764769087.7323165,6517.889999999999,2595.555,-30596.355,-8318.295,-8244.0,-28552.095,3104.73,10405.17
1764769087.7323165,6511.41,2590.02,-30602.61,-8323.965,-8250.615,-28559.52,3099.06,10400.085
1764769087.7323165,6515.91,2595.375,-30597.21,-8318.97,-8245.305,-28554.615,3103.11,10405.26
1764769087.7323165,6513.66,2593.17,-30599.28,-8320.5,-8245.98,-28555.02,3103.245,10404.0
1764769087.7323165,6520.724999999999,2600.325,-30592.305,-8313.39,-8238.06,-28547.325,3110.085,10411.47
1764769087.7323165,6523.2,2602.62,-30590.28,-8312.67,-8238.15,-28547.145,3112.11,10414.305
1764769087.7323165,6523.605,2601.765,-30590.865,-8312.715,-8238.914999999999,-28546.74,3112.56,10413.855
1764769087.7323165,6519.78,2597.67,-30594.105,-8314.335,-8239.59,-28547.955,3107.655,10408.68
1764769087.7323165,6508.08,2584.755,-30605.805,-8326.35,-8252.055,-28560.6,3096.945,10395.72
1764769087.7823825,6517.395,2595.015,-30596.58,-8317.08,-8242.92,-28551.195,3106.08,10406.07
1764769087.7823825,6520.365,2598.435,-30593.385,-8314.965,-8240.805,-28548.99,3108.51,10408.905
1764769087.7823825,6517.035,2595.825,-30595.725,-8316.99,-8242.965,-28552.59,3106.17,10406.385
1764769087.7823825,6501.599999999999,2579.715,-30610.62,-8331.93,-8258.49,-28568.475,3092.31,10391.985
1764769087.7823825,6497.685,2575.26,-30615.255,-8336.025,-8262.945,-28572.795,3088.89,10388.07
1764769087.7823825,6501.195,2578.365,-30611.475,-8332.83,-8259.93,-28570.275,3091.545,10391.895
1764769087.7823825,6508.304999999999,2586.105,-30603.42,-8325.81,-8252.595,-28562.985,3097.08,10399.635
1764769087.7823825,6505.514999999999,2581.92,-30608.055,-8330.13,-8256.645,-28566.18,3094.92,10395.855
1764769087.7823825,6513.255,2590.02,-30600.135,-8321.985,-8247.914999999999,-28557.27,3102.48,10403.505
1764769087.7823825,6501.96,2576.88,-30613.005,-8334.404999999999,-8260.289999999999,-28569.06,3089.88,10389.69
1764769087.7823825,6499.17,2573.685,-30615.795,-8337.735,-8263.529999999999,-28572.705,3086.235,10385.685
1764769087.7823825,6505.92,2581.785,-30608.505,-8330.58,-8256.645,-28566.495,3091.995,10392.345
1764769087.7823825,6496.245,2572.785,-30617.73,-8339.039999999999,-8265.24,-28574.955,3084.975,10383.93
1764769087.7823825,6496.425,2573.415,-30617.325,-8337.779999999999,-8264.07,-28573.11,3086.685,10386.585
1764769087.7823825,6504.66,2583.36,-30607.515,-8327.61,-8254.305,-28563.345,3095.145,10396.035
1764769087.7823825,6497.46,2576.565,-30614.265,-8334.404999999999,-8262.135,-28570.86,3088.755,10388.655
1764769087.7823825,6496.02,2574.63,-30616.155,-8336.205,-8264.88,-28573.425,3087.405,10386.405
1764769087.7823825,6500.52,2578.41,-30612.42,-8332.38,-8260.92,-28568.88,3091.185,10390.32
1764769087.7823825,6511.724999999999,2589.705,-30601.395,-8320.994999999999,-8249.94,-28557.945,3101.13,10401.435
1764769087.7823825,6508.889999999999,2588.265,-30601.665,-8321.31,-8250.119999999999,-28558.305,3099.69,10399.23
1764769087.7823825,6500.969999999999,2578.995,-30611.34,-8330.715,-8259.705,-28567.935,3091.68,10390.635
1764769087.7823825,6503.804999999999,2582.775,-30608.055,-8326.395,-8256.869999999999,-28564.92,3093.21,10394.1
1764769087.7823825,6499.62,2579.085,-30611.475,-8329.5,-8260.695,-28569.33,3089.88,10390.365
1764769087.7823825,6505.29,2585.205,-30604.365,-8322.93,-8254.395,-28564.29,3095.73,10396.53
1764769087.8258488,6499.71,2579.535,-30610.35,-8328.869999999999,-8260.335,-28570.68,3089.835,10389.96
1764769087.8258488,6503.219999999999,2583.18,-30607.38,-8325.765,-8256.555,-28566.18,3092.58,10393.83
1764769087.8258488,6500.61,2579.895,-30610.485,-8328.779999999999,-8258.49,-28566.0,3091.275,10392.21
1764769087.8258488,6501.285,2579.67,-30610.08,-8328.465,-8258.67,-28565.28,3090.69,10391.895
1764769087.8258488,6507.27,2584.755,-30604.59,-8322.39,-8251.56,-28557.045,3097.71,10397.655
1764769087.8258488,6498.719999999999,2575.395,-30613.77,-8331.84,-8261.414999999999,-28566.9,3089.61,10387.98
1764769087.8258488,6498.179999999999,2574.675,-30614.085,-8332.02,-8260.92,-28567.305,3087.99,10387.26
1764769087.8263724,6507.855,2585.025,-30604.905,-8323.065,-8253.449999999999,-28559.295,3096.09,10397.655
1764769087.8263724,6511.05,2589.975,-30600.72,-8319.51,-8250.795,-28558.125,3098.7,10400.58
1764769087.8263724,6505.695,2585.205,-30604.455,-8322.795,-8254.35,-28563.615,3094.29,10394.82
1764769087.8263724,6509.835,2590.965,-30598.515,-8316.585,-8248.545,-28558.08,3099.06,10400.445
1764769087.8263724,6506.685,2586.915,-30601.395,-8319.285,-8248.994999999999,-28556.82,3098.385,10398.735
1764769087.8263724,6498.315,2577.735,-30610.845,-8328.105,-8257.095,-28563.525,3091.455,10389.825
1764769087.8263724,6498.045,2577.105,-30611.16,-8328.779999999999,-8258.355,-28565.145,3089.52,10388.88
1764769087.8263724,6508.17,2587.41,-30601.845,-8319.42,-8248.68,-28555.875,3097.08,10398.06
1764769087.8263724,6505.56,2582.91,-30605.715,-8322.93,-8251.065,-28557.18,3094.695,10394.865
1764769087.8263724,6502.724999999999,2578.95,-30609.09,-8325.9,-8254.395,-28559.97,3091.86,10391.22
1764769087.8263724,6500.79,2577.555,-30610.98,-8328.24,-8257.59,-28563.345,3090.645,10389.645
1764769087.8263724,6509.384999999999,2586.645,-30602.61,-8320.815,-8249.985,-28556.775,3099.15,10399.545
1764769087.8263724,6499.844999999999,2578.32,-30610.08,-8327.115,-8256.465,-28563.795,3090.96,10390.05
1764769087.8263724,6495.57,2574.36,-30613.59,-8330.13,-8260.38,-28569.15,3086.235,10385.505
1764769087.8263724,6498.585,2576.88,-30612.42,-8329.455,-8259.3,-28568.7,3087.945,10387.98
1764769087.8274112,6494.759999999999,2571.93,-30617.325,-8335.395,-8264.475,-28574.415,3083.985,10383.345
1764769087.8274112,6501.735,2578.815,-30609.9,-8327.654999999999,-8258.13,-28568.565,3088.755,10389.96
1764769087.8734648,6505.56,2581.785,-30607.47,-8324.145,-8255.61,-28564.92,3091.545,10393.11
1764769087.8734648,6500.115,2575.62,-30613.95,-8329.68,-8260.244999999999,-28569.33,3085.47,10386.855
1764769087.8734648,6496.695,2572.155,-30617.775,-8334.449999999999,-8264.43,-28573.965,3081.735,10383.075
1764769087.8734648,6487.11,2563.38,-30626.955,-8342.955,-8274.465,-28584.54,3073.32,10373.4
1764769087.8734648,6489.585,2566.35,-30624.39,-8340.164999999999,-8271.27,-28582.11,3075.885,10376.46
1764769087.8734648,6498.405,2576.655,-30614.085,-8331.119999999999,-8261.955,-28573.02,3085.02,10387.215
1764769087.8734648,6498.45,2576.565,-30614.355,-8331.39,-8262.27,-28573.29,3085.2,10387.71
1764769087.8734648,6493.365,2570.445,-30621.105,-8337.555,-8268.255,-28579.365,3080.61,10381.365
1764769087.8734648,6502.005,2578.905,-30613.14,-8329.23,-8259.435,-28571.31,3088.17,10389.465
1764769087.8734648,6501.42,2579.085,-30613.59,-8329.005,-8260.289999999999,-28571.94,3088.53,10389.105
1764769087.8734648,6509.34,2587.59,-30605.22,-8320.635,-8252.279999999999,-28563.21,3095.64,10397.655
1764769087.8734648,6496.785,2573.595,-30619.62,-8334.494999999999,-8265.555,-28577.34,3082.77,10383.795
1764769087.8734648,6497.009999999999,2574.135,-30619.845,-8334.675,-8265.69,-28577.79,3082.86,10383.93
1764769087.8734648,6497.865,2576.475,-30618.045,-8333.055,-8264.115,-28576.62,3083.715,10385.235
1764769087.8734648,6502.5,2581.155,-30613.23,-8327.115,-8257.949999999999,-28570.32,3089.16,10390.5
1764769087.8734648,6496.785,2574.855,-30619.62,-8333.19,-8263.755,-28576.035,3083.805,10384.56
1764769087.8734648,6503.759999999999,2583.135,-30611.205,-8324.64,-8254.664999999999,-28566.54,3091.905,10393.47
1764769087.8734648,6506.639999999999,2586.78,-30608.37,-8321.22,-8251.74,-28563.84,3095.37,10396.395
1764769087.8734648,6505.38,2585.52,-30610.125,-8322.84,-8252.55,-28563.975,3095.37,10396.035
1764769087.8734648,6497.37,2576.43,-30618.945,-8331.93,-8261.955,-28572.345,3087.27,10387.17
1764769087.8734648,6506.235,2584.395,-30610.98,-8323.605,-8254.619999999999,-28565.145,3093.525,10394.145
1764769087.8734648,6502.005,2579.715,-30615.84,-8328.555,-8260.38,-28570.185,3088.485,10389.105
1764769087.8734648,6491.61,2569.095,-30626.1,-8338.005,-8269.965,-28579.995,3079.17,10377.81
1764769087.8734648,6490.395,2568.555,-30626.325,-8338.904999999999,-8270.91,-28582.695,3078.225,10376.37
1764769087.919699,6498.63,2577.96,-30616.74,-8331.3,-8263.619999999999,-28575.495,3085.065,10385.73
1764769087.919699,6497.46,2576.925,-30616.965,-8331.164999999999,-8263.485,-28575.72,3085.02,10386.36
1764769087.919699,6496.11,2573.595,-30620.115,-8333.19,-8263.395,-28575.045,3085.965,10385.82
1764769087.919699,6495.344999999999,2572.695,-30621.735,-8334.135,-8263.845,-28574.82,3085.425,10384.155
1764769087.919699,6497.594999999999,2575.62,-30618.405,-8332.154999999999,-8262.0,-28572.165,3088.8,10386.585
1764769087.919699,6493.455,2570.985,-30623.58,-8336.97,-8268.75,-28579.455,3083.445,10381.59
1764769087.919699,6503.58,2581.83,-30613.365,-8327.205,-8258.58,-28569.195,3091.86,10391.535
1764769087.919699,6498.405,2576.115,-30618.495,-8331.885,-8263.935,-28575.225,3085.875,10385.235
1764769087.919699,6487.965,2564.955,-30630.42,-8343.315,-8275.77,-28586.475,3076.425,10373.49
1764769087.919699,6486.525,2564.595,-30630.87,-8343.72,-8275.545,-28587.915,3075.795,10372.41
1764769087.919699,6497.91,2578.095,-30617.64,-8329.949999999999,-8261.955,-28574.46,3087.54,10385.685
1764769087.919699,6501.24,2582.685,-30613.86,-8326.845,-8258.76,-28570.05,3093.255,10391.085
1764769087.919699,6494.219999999999,2575.89,-30620.25,-8332.695,-8265.15,-28576.845,3088.62,10384.515
1764769087.919699,6487.695,2568.78,-30625.2,-8337.375,-8269.02,-28581.345,3081.69,10377.18
1764769087.919699,6488.91,2570.535,-30624.21,-8336.205,-8267.76,-28579.905,3081.375,10377.405
1764769087.919699,6498.945,2579.04,-30616.695,-8328.869999999999,-8259.885,-28570.41,3091.095,10387.035
1764769087.919699,6503.985,2583.765,-30612.375,-8324.595,-8256.914999999999,-28567.845,3094.02,10390.68
1764769087.919699,6495.66,2575.62,-30619.575,-8331.57,-8264.744999999999,-28576.215,3085.695,10380.735
1764769087.919699,6501.78,2580.75,-30614.04,-8326.529999999999,-8259.615,-28570.59,3090.825,10386.54
1764769087.919699,6493.679999999999,2572.605,-30622.23,-8335.305,-8269.199999999999,-28579.41,3083.31,10378.845
1764769087.919699,6497.73,2577.96,-30617.1,-8329.949999999999,-8263.574999999999,-28574.19,3087.72,10384.515
1764769087.919699,6491.205,2572.11,-30623.31,-8334.99,-8268.93,-28580.67,3082.77,10378.62
1764769087.9668176,6493.5,2573.865,-30621.33,-8332.154999999999,-8265.645,-28577.025,3087.135,10381.86
1764769087.9668176,6499.349999999999,2580.255,-30615.12,-8325.539999999999,-8258.67,-28570.23,3092.535,10388.745
1764769087.9668176,6501.105,2583.045,-30612.555,-8322.84,-8257.05,-28568.655,3094.605,10390.41
1764769087.9668176,6498.495,2578.23,-30617.505,-8327.97,-8262.315,-28574.055,3090.51,10385.415
1764769087.9668176,6504.75,2584.17,-30611.925,-8322.345,-8256.555,-28568.385,3094.695,10389.96
1764769087.9668176,6491.655,2569.995,-30626.28,-8335.619999999999,-8269.47,-28581.165,3081.06,10375.695
1764769087.9668176,6497.145,2575.17,-30620.565,-8329.545,-8263.215,-28574.64,3086.19,10381.05
1764769087.9668176,6493.41,2572.29,-30623.94,-8333.73,-8268.66,-28581.03,3081.42,10376.955
1764769087.9668176,6499.08,2579.085,-30617.55,-8326.935,-8262.18,-28575.945,3086.46,10383.525
1764769087.9668176,6491.61,2571.75,-30623.895,-8333.505,-8268.074999999999,-28582.65,3081.645,10376.91
1764769087.9668176,6487.56,2567.025,-30628.395,-8337.645,-8269.695,-28583.37,3079.575,10374.525
1764769087.9668176,6490.08,2570.13,-30625.335,-8334.09,-8266.725,-28579.995,3081.195,10377.36
1764769087.9668176,6486.525,2565.54,-30630.015,-8338.77,-8273.295,-28587.105,3075.57,10371.375
1764769087.9668176,6493.23,2571.885,-30623.58,-8332.605,-8266.59,-28580.49,3080.925,10377.495
1764769087.9668176,6496.335,2574.765,-30621.645,-8330.355,-8264.07,-28577.16,3084.21,10380.51
1764769087.9668176,6486.21,2563.875,-30632.625,-8341.065,-8274.555,-28586.115,3074.895,10370.565
1764769087.9668176,6495.75,2574.765,-30621.375,-8329.545,-8262.72,-28574.415,3085.11,10381.32
1764769087.9668176,6492.645,2572.47,-30623.04,-8331.074999999999,-8264.654999999999,-28576.665,3083.76,10379.25
1764769087.9668176,6500.295,2581.02,-30615.39,-8323.244999999999,-8256.645,-28569.15,3090.96,10388.205
1764769087.9668176,6502.32,2583.81,-30613.005,-8320.949999999999,-8255.475,-28568.52,3092.805,10390.995
1764769087.9668176,6494.535,2576.835,-30620.115,-8328.914999999999,-8263.71,-28576.485,3087.09,10383.795
1764769087.9668176,6489.045,2571.795,-30624.975,-8333.055,-8267.67,-28581.075,3082.725,10379.25
1764769087.9668176,6492.24,2574.63,-30622.455,-8330.67,-8264.52,-28576.71,3085.38,10382.895
1764769087.9668176,6499.98,2582.685,-30614.175,-8323.515,-8257.365,-28569.42,3090.78,10389.915
1764769088.01263,6506.099999999999,2589.345,-30607.515,-8316.855,-8250.48,-28563.84,3097.035,10394.865
1764769088.01263,6498.63,2581.695,-30614.715,-8323.74,-8257.994999999999,-28571.445,3091.05,10386.675
1764769088.01263,6499.935,2582.91,-30613.095,-8321.67,-8254.8,-28568.115,3094.065,10388.7
1764769088.013679,6500.07,2583.54,-30613.68,-8321.805,-8253.404999999999,-28564.83,3096.27,10391.715
1764769088.013679,6506.955,2591.955,-30606.12,-8314.74,-8247.869999999999,-28559.745,3101.76,10399.095
1764769088.013679,6499.259999999999,2584.845,-30612.015,-8321.625,-8255.115,-28569.105,3094.92,10391.76
1764769088.013679,6500.655,2586.645,-30612.15,-8321.895,-8255.025,-28568.565,3096.225,10394.145
1764769088.013679,6506.775,2593.665,-30605.58,-8314.605,-8246.744999999999,-28559.43,3103.155,10400.31
1764769088.013679,6499.62,2586.15,-30611.52,-8319.824999999999,-8250.255,-28563.525,3096.72,10391.985
1764769088.013679,6507.0,2591.685,-30606.57,-8314.875,-8246.07,-28558.44,3100.635,10397.97
1764769088.013679,6512.58,2596.815,-30601.08,-8309.744999999999,-8241.119999999999,-28552.95,3106.35,10403.46
1764769088.013679,6508.17,2591.955,-30604.41,-8313.975,-8245.17,-28557.54,3101.31,10398.33
1764769088.013679,6505.29,2588.76,-30608.055,-8317.44,-8248.365,-28560.555,3098.475,10394.415
1764769088.013679,6501.105,2585.925,-30611.655,-8320.545,-8251.47,-28563.84,3095.955,10391.31
1764769088.014686,6495.344999999999,2580.795,-30617.73,-8326.98,-8258.31,-28570.725,3090.735,10385.685
1764769088.014686,6500.205,2586.06,-30611.79,-8322.21,-8254.035,-28566.765,3093.795,10390.275
1764769088.014686,6496.695,2582.19,-30614.895,-8325.539999999999,-8257.545,-28570.23,3091.095,10386.855
1764769088.014686,6493.275,2579.175,-30617.415,-8327.97,-8260.199999999999,-28572.66,3088.08,10383.705
1764769088.014686,6492.645,2577.42,-30619.305,-8328.914999999999,-8259.615,-28570.77,3087.81,10383.21
1764769088.014686,6497.594999999999,2582.325,-30613.77,-8323.335,-8254.305,-28565.055,3092.94,10387.935
1764769088.014686,6509.7,2594.34,-30603.24,-8313.345,-8244.315,-28554.84,3102.66,10398.96
1764769088.014686,6504.075,2588.13,-30608.955,-8318.565,-8250.119999999999,-28560.51,3096.72,10391.715
1764769088.014686,6511.05,2594.97,-30602.07,-8311.095,-8242.47,-28552.545,3103.515,10399.365
1764769088.014686,6502.679999999999,2586.42,-30610.215,-8319.33,-8250.84,-28560.96,3095.595,10389.915
1764769088.0613475,6502.23,2587.095,-30608.685,-8318.205,-8249.67,-28560.645,3095.73,10389.78
1764769088.0613475,6503.264999999999,2588.22,-30607.65,-8317.305,-8248.455,-28558.935,3097.08,10391.625
1764769088.0613475,6512.4,2597.805,-30598.74,-8309.43,-8239.365,-28550.43,3105.855,10401.975
1764769088.0613475,6504.615,2590.155,-30606.57,-8317.08,-8246.475,-28558.305,3099.51,10394.415
1764769088.0613475,6498.99,2583.54,-30612.735,-8323.065,-8252.279999999999,-28564.065,3093.255,10387.98
1764769088.0613475,6501.599999999999,2585.61,-30611.205,-8321.22,-8250.074999999999,-28560.105,3094.785,10388.745
1764769088.0613475,6511.679999999999,2594.655,-30602.205,-8312.085,-8240.085,-28549.395,3103.155,10397.97
1764769088.0613475,6505.425,2589.12,-30608.82,-8318.654999999999,-8246.835,-28555.92,3097.305,10390.59
1764769088.0613475,6511.95,2596.185,-30601.845,-8311.59,-8239.904999999999,-28549.035,3103.245,10397.97
1764769088.0613475,6510.195,2594.43,-30604.14,-8313.435,-8241.885,-28551.735,3100.95,10396.71
1764769088.0613475,6509.115,2593.53,-30604.86,-8313.84,-8243.145,-28553.625,3100.32,10396.08
1764769088.0613475,6511.905,2597.355,-30600.855,-8309.744999999999,-8239.32,-28550.52,3103.92,10399.365
1764769088.0613475,6514.695,2600.55,-30598.11,-8306.64,-8235.225,-28545.615,3108.825,10403.685
1764769088.0613475,6506.28,2590.695,-30608.055,-8316.27,-8243.414999999999,-28552.455,3102.66,10395.675
1764769088.0613475,6503.535,2586.78,-30612.195,-8320.59,-8247.779999999999,-28557.675,3098.07,10392.075
1764769088.0613475,6510.509999999999,2593.755,-30605.355,-8313.3,-8241.525,-28551.375,3104.91,10398.555
1764769088.0613475,6524.009999999999,2608.92,-30590.28,-8297.279999999999,-8226.404999999999,-28536.84,3117.78,10412.775
1764769088.0613475,6513.929999999999,2598.795,-30601.08,-8308.664999999999,-8237.43,-28547.1,3107.88,10401.795
1764769088.0613475,6511.905,2595.555,-30605.22,-8312.265,-8241.435,-28550.34,3104.685,10398.555
1764769088.0613475,6508.98,2592.855,-30607.92,-8315.685,-8246.115,-28556.55,3100.77,10394.28
1764769088.0613475,6510.465,2595.51,-30605.715,-8314.65,-8244.765,-28556.37,3101.4,10396.62
1764769088.0613475,6521.804999999999,2607.66,-30593.115,-8301.869999999999,-8231.625,-28543.86,3112.245,10409.22
1764769088.1087797,6524.009999999999,2610.765,-30590.955,-8297.865,-8226.945,-28536.255,3118.095,10413.72
1764769088.1087797,6519.96,2606.715,-30595.5,-8302.05,-8230.904999999999,-28540.035,3115.71,10410.075
1764769088.1087797,6514.695,2599.425,-30602.745,-8309.835,-8238.51,-28548.0,3109.005,10403.595
1764769088.1087797,6508.259999999999,2592.405,-30609.765,-8316.765,-8245.755,-28554.93,3102.795,10395.81
1764769088.1087797,6518.655,2602.395,-30599.325,-8305.965,-8236.17,-28545.57,3110.76,10405.53
1764769088.1087797,6517.71,2600.64,-30600.9,-8308.755,-8238.869999999999,-28548.765,3107.655,10403.1
1764769088.1087797,6519.735,2603.385,-30598.74,-8306.055,-8236.26,-28546.29,3110.895,10405.8
1764769088.1087797,6520.41,2604.69,-30597.57,-8305.38,-8234.685,-28545.39,3112.245,10407.465
1764769088.1087797,6521.445,2605.995,-30596.715,-8304.255,-8233.289999999999,-28545.3,3113.505,10409.085
1764769088.1087797,6510.69,2595.87,-30606.66,-8314.65,-8245.44,-28558.215,3103.38,10398.195
1764769088.1087797,6505.695,2590.695,-30612.105,-8320.005,-8250.795,-28563.12,3098.385,10392.66
1764769088.1087797,6505.155,2589.48,-30613.86,-8320.815,-8251.515,-28562.895,3098.835,10392.84
1764769088.1087797,6513.795,2598.255,-30605.58,-8313.705,-8244.855,-28556.19,3104.775,10401.48
1764769088.1087797,6512.445,2596.545,-30606.57,-8314.74,-8246.52,-28558.44,3103.245,10400.13
1764769088.1087797,6509.384999999999,2593.17,-30608.955,-8316.09,-8247.06,-28559.07,3100.14,10396.035
1764769088.1087797,6504.21,2587.5,-30615.795,-8321.895,-8254.755,-28566.495,3093.795,10389.69
1764769088.1087797,6494.895,2577.735,-30625.56,-8331.84,-8264.43,-28576.215,3085.56,10379.97
1764769088.1087797,6499.125,2583.495,-30620.88,-8327.789999999999,-8260.244999999999,-28571.94,3089.295,10384.695
1764769088.1087797,6502.23,2587.455,-30617.28,-8324.55,-8256.42,-28568.97,3092.76,10387.755
1764769088.1087797,6495.795,2581.425,-30622.365,-8328.914999999999,-8261.414999999999,-28574.55,3088.62,10382.49
1764769088.1097896,6498.0,2583.63,-30619.98,-8326.17,-8258.445,-28571.67,3091.005,10385.82
1764769088.1097896,6503.804999999999,2589.66,-30613.86,-8319.15,-8251.11,-28563.93,3095.955,10392.03
1764769088.1097896,6505.875,2590.695,-30612.915,-8318.115,-8250.525,-28563.66,3098.025,10394.01
1764769088.1097896,6508.349999999999,2592.045,-30611.97,-8317.574999999999,-8250.48,-28562.67,3100.14,10395.9
1764769088.1567168,6512.219999999999,2596.005,-30608.46,-8313.795,-8246.88,-28559.295,3102.57,10399.095
1764769088.1567168,6507.0,2590.47,-30613.365,-8317.395,-8250.84,-28563.03,3097.935,10393.065
1764769088.1567168,6499.755,2582.55,-30621.555,-8325.63,-8259.164999999999,-28570.455,3092.535,10385.865
1764769088.1567168,6496.695,2579.94,-30624.12,-8327.565,-8262.045,-28574.19,3089.295,10382.58
1764769088.1567168,6499.215,2583.27,-30620.61,-8324.19,-8258.4,-28571.625,3091.725,10385.28
1764769088.1567168,6506.91,2592.72,-30610.485,-8314.965,-8250.119999999999,-28563.12,3099.42,10394.055
1764769088.1567168,6509.16,2595.78,-30607.47,-8312.039999999999,-8247.42,-28560.06,3102.84,10398.06
1764769088.1567168,6498.719999999999,2585.07,-30618.18,-8322.345,-8258.039999999999,-28570.95,3092.895,10387.26
1764769088.1567168,6503.085,2588.445,-30614.58,-8318.115,-8254.215,-28565.595,3096.405,10391.535
1764769088.1567168,6501.599999999999,2585.7,-30617.28,-8320.5,-8256.465,-28567.44,3093.93,10388.97
1764769088.1567168,6500.52,2584.035,-30618.9,-8321.49,-8257.77,-28569.015,3091.23,10386.45
1764769088.1567168,6495.615,2580.435,-30622.77,-8324.505,-8261.055,-28571.985,3086.37,10380.78
1764769088.1567168,6495.795,2581.245,-30621.915,-8324.324999999999,-8260.74,-28571.58,3087.18,10381.635
1764769088.1567168,6495.795,2581.425,-30622.455,-8324.279999999999,-8260.515,-28572.12,3088.17,10381.77
1764769088.1567168,6491.205,2576.88,-30626.28,-8327.61,-8264.744999999999,-28576.62,3084.93,10377.855
1764769088.1567168,6497.19,2583.405,-30619.17,-8320.994999999999,-8258.175,-28570.41,3090.6,10385.1
1764769088.1567168,6496.695,2583.81,-30618.405,-8320.635,-8257.994999999999,-28569.87,3092.085,10385.685
1764769088.1567168,6505.335,2593.17,-30609.045,-8311.14,-8248.14,-28560.645,3100.725,10394.685
1764769088.1567168,6500.835,2588.31,-30614.4,-8316.63,-8253.585,-28565.82,3096.99,10389.195
1764769088.1567168,6501.915,2588.535,-30613.59,-8315.64,-8253.765,-28566.945,3097.035,10388.565
1764769088.1567168,6512.804999999999,2598.93,-30602.745,-8304.21,-8242.965,-28557.18,3105.225,10398.06
1764769088.1567168,6501.78,2587.545,-30613.995,-8315.145,-8254.125,-28567.485,3094.875,10386.945
1764769088.1567168,6507.495,2593.395,-30607.47,-8307.315,-8244.99,-28557.405,3102.345,10394.73
1764769088.1567168,6502.455,2588.76,-30611.79,-8311.68,-8248.275,-28560.555,3099.195,10390.815
1764769088.199923,6507.495,2595.24,-30606.48,-8305.92,-8243.369999999999,-28555.695,3103.38,10396.35
1764769088.199923,6498.495,2586.465,-30614.85,-8313.93,-8251.605,-28563.885,3096.18,10387.8
1764769088.199923,6504.165,2591.955,-30609.27,-8309.295,-8247.69,-28560.69,3100.545,10393.47
1764769088.199923,6509.88,2596.635,-30605.58,-8304.84,-8244.045,-28557.18,3105.135,10398.42
1764769088.199923,6509.745,2596.32,-30607.245,-8305.065,-8243.64,-28555.74,3104.955,10397.925
1764769088.199923,6509.16,2596.32,-30605.94,-8302.994999999999,-8240.49,-28552.815,3106.17,10397.835
1764769088.199923,6513.21,2600.28,-30601.53,-8298.765,-8237.34,-28549.215,3110.175,10401.705
1764769088.199923,6503.715,2589.03,-30614.265,-8313.84,-8253.539999999999,-28564.515,3099.33,10390.77
1764769088.199923,6504.21,2590.695,-30612.42,-8310.914999999999,-8249.895,-28561.59,3098.745,10390.59
1764769088.199923,6508.755,2595.78,-30606.57,-8304.705,-8242.965,-28554.885,3102.03,10395.135
1764769088.199923,6509.384999999999,2596.77,-30606.93,-8304.345,-8244.494999999999,-28556.28,3103.92,10397.295
1764769088.199923,6498.54,2585.97,-30617.595,-8315.01,-8256.195,-28568.43,3093.75,10386.27
1764769088.199923,6499.53,2586.465,-30615.795,-8313.84,-8253.945,-28566.36,3094.29,10387.485
1764769088.199923,6506.73,2593.485,-30608.64,-8306.595,-8244.945,-28555.155,3102.885,10395.81
1764769088.199923,6505.514999999999,2591.82,-30611.745,-8308.664999999999,-8247.869999999999,-28556.955,3101.445,10393.65
1764769088.199923,6514.02,2599.875,-30604.185,-8300.34,-8241.119999999999,-28550.97,3108.285,10401.525
1764769088.199923,6518.52,2604.375,-30600.045,-8295.39,-8236.17,-28545.795,3112.515,10405.26
1764769088.199923,6506.91,2591.73,-30611.655,-8307.09,-8247.779999999999,-28556.82,3101.4,10392.885
1764769088.199923,6512.625,2597.13,-30605.67,-8300.744999999999,-8242.515,-28552.77,3106.17,10398.555
1764769088.199923,6508.035,2591.505,-30610.89,-8307.494999999999,-8247.015,-28558.935,3102.39,10393.38
1764769088.199923,6508.349999999999,2593.71,-30609.81,-8305.83,-8244.99,-28556.775,3104.1,10395.585
1764769088.199923,6517.485,2605.23,-30598.515,-8295.39,-8234.505,-28546.245,3114.18,10405.98
1764769088.247233,6514.92,2603.205,-30600.045,-8298.27,-8236.845,-28549.665,3113.055,10404.36
1764769088.247233,6519.599999999999,2607.525,-30595.995,-8294.085,-8232.57,-28545.795,3116.34,10409.085
1764769088.247233,6518.61,2605.545,-30599.415,-8296.605,-8235.27,-28548.675,3113.91,10406.925
1764769088.247233,6511.094999999999,2597.4,-30607.83,-8305.154999999999,-8242.965,-28556.73,3106.215,10398.69
1764769088.247233,6515.054999999999,2600.46,-30604.455,-8302.455,-8239.41,-28552.41,3107.97,10401.705
1764769088.247233,6512.58,2598.075,-30607.695,-8306.1,-8242.154999999999,-28554.03,3106.08,10399.185
1764769088.247233,6504.929999999999,2589.93,-30616.065,-8315.279999999999,-8250.75,-28562.625,3099.51,10391.76
1764769088.247233,6500.745,2585.925,-30620.79,-8320.005,-8255.25,-28568.295,3094.65,10387.08
1764769088.247233,6507.945,2595.33,-30611.88,-8310.555,-8245.664999999999,-28559.52,3102.345,10395.18
1764769088.247233,6510.96,2599.11,-30606.615,-8306.505,-8240.94,-28554.975,3107.25,10399.725
1764769088.247233,6510.105,2598.435,-30607.92,-8308.529999999999,-8242.47,-28556.28,3106.305,10399.41
1764769088.247233,6498.134999999999,2586.195,-30621.015,-8322.57,-8257.77,-28571.58,3092.805,10386.63
1764769088.247233,6503.31,2591.1,-30616.83,-8317.845,-8254.529999999999,-28569.375,3095.145,10391.04
1764769088.247233,6507.855,2595.735,-30612.465,-8313.705,-8249.4,-28563.795,3099.33,10394.64
1764769088.247233,6512.67,2598.345,-30610.485,-8310.42,-8243.73,-28555.605,3105.18,10398.78
1764769088.247233,6510.285,2595.42,-30612.6,-8312.805,-8244.72,-28555.425,3103.875,10396.935
1764769088.247233,6508.349999999999,2593.26,-30614.265,-8314.92,-8246.744999999999,-28557.045,3102.39,10395.27
1764769088.247233,6499.395,2584.035,-30623.13,-8324.55,-8257.41,-28568.745,3093.12,10385.55
1764769088.247233,6507.99,2594.52,-30612.375,-8313.705,-8245.619999999999,-28557.72,3101.67,10395.0
1764769088.247233,6512.895,2600.82,-30605.715,-8307.99,-8238.465,-28549.935,3109.59,10401.93
1764769088.247233,6512.58,2600.235,-30607.56,-8309.43,-8239.095,-28549.53,3110.58,10402.2
1764769088.2479584,6507.99,2594.97,-30613.05,-8314.335,-8244.0,-28554.66,3106.08,10397.655
1764769088.2479584,6506.009999999999,2592.765,-30614.985,-8317.619999999999,-8246.789999999999,-28557.99,3103.2,10394.19
1764769088.2479584,6498.224999999999,2584.845,-30622.635,-8325.63,-8256.195,-28567.845,3094.155,10384.38
1764769088.2941256,6507.719999999999,2593.8,-30613.815,-8317.17,-8247.42,-28559.745,3101.625,10393.785
1764769088.2941256,6504.48,2589.03,-30618.45,-8321.58,-8251.289999999999,-28562.04,3098.61,10390.005
1764769088.2941256,6495.884999999999,2580.39,-30627.315,-8330.355,-8258.76,-28568.34,3092.49,10382.58
1764769088.2941256,6495.21,2579.49,-30628.395,-8331.525,-8260.065,-28570.545,3090.42,10381.905
1764769088.2941256,6506.73,2593.125,-30615.255,-8318.43,-8247.645,-28560.015,3100.905,10394.145
1764769088.2941256,6502.275,2588.985,-30620.43,-8325.539999999999,-8256.51,-28569.015,3096.855,10389.195
1764769088.2941256,6494.219999999999,2580.615,-30628.8,-8333.64,-8263.485,-28575.63,3089.295,10381.095
1764769088.2941256,6485.759999999999,2571.93,-30636.585,-8339.4,-8265.96,-28577.43,3082.77,10373.445
1764769088.2941256,6487.245,2572.56,-30636.18,-8338.32,-8264.52,-28574.865,3085.02,10374.435
1764769088.2941256,6492.554999999999,2577.825,-30631.23,-8334.315,-8261.595,-28572.21,3088.125,10378.755
1764769088.2941256,6505.29,2590.335,-30618.495,-8322.39,-8249.715,-28560.555,3098.745,10391.355
1764769088.2941256,6495.12,2580.3,-30629.025,-8333.055,-8260.74,-28570.995,3090.195,10380.78
1764769088.2941256,6497.325,2583.225,-30626.01,-8330.175,-8257.725,-28567.89,3092.445,10383.435
1764769088.2941256,6504.12,2590.38,-30618.63,-8323.47,-8250.345,-28561.14,3098.07,10390.815
1764769088.2941256,6499.259999999999,2586.78,-30623.31,-8327.43,-8253.765,-28563.57,3096.81,10387.395
1764769088.2941256,6499.844999999999,2588.31,-30622.23,-8325.855,-8252.055,-28562.4,3098.79,10389.465
1764769088.2941256,6503.94,2592.855,-30617.82,-8322.119999999999,-8248.41,-28559.835,3102.075,10394.235
1764769088.2941256,6505.2,2594.835,-30614.94,-8319.779999999999,-8245.125,-28557.45,3103.83,10395.855
1764769088.2941256,6505.245,2593.62,-30615.93,-8321.4,-8246.07,-28558.665,3102.255,10394.91
1764769088.2941256,6507.045,2595.06,-30614.94,-8320.32,-8244.855,-28557.045,3103.11,10395.945
1764769088.2941256,6516.315,2604.06,-30606.075,-8310.779999999999,-8235.404999999999,-28546.83,3111.57,10404.945
1764769088.2941256,6505.11,2591.19,-30617.28,-8322.75,-8248.365,-28558.98,3099.78,10391.985
1764769088.3408964,6499.17,2585.385,-30623.94,-8329.185,-8255.565,-28566.585,3093.345,10386.54
1764769088.3408964,6496.11,2583.54,-30625.65,-8330.94,-8256.465,-28568.655,3090.375,10383.345
1764769088.3408964,6500.565,2589.66,-30620.34,-8325.315,-8250.3,-28563.12,3095.46,10390.185
1764769088.3408964,6493.815,2583.045,-30627.27,-8332.92,-8258.265,-28571.085,3090.555,10384.11
1764769088.3408964,6496.695,2586.015,-30624.075,-8328.869999999999,-8254.305,-28566.72,3094.74,10386.765
1764769088.3408964,6507.585,2598.12,-30612.195,-8317.08,-8243.505,-28555.695,3105.135,10399.005
1764769088.3408964,6503.13,2591.685,-30618.63,-8322.93,-8248.68,-28560.87,3101.265,10393.11
1764769088.3408964,6504.21,2590.695,-30619.305,-8323.92,-8249.715,-28563.3,3099.06,10391.4
1764769088.3408964,6515.37,2603.025,-30607.155,-8312.49,-8238.195,-28550.97,3109.05,10403.1
1764769088.3408964,6511.23,2598.75,-30611.115,-8314.289999999999,-8239.275,-28550.745,3106.125,10399.635
1764769088.3408964,6513.3,2600.82,-30609.405,-8312.175,-8237.205,-28546.92,3109.455,10401.975
1764769088.3408964,6502.185,2589.57,-30620.7,-8324.775,-8248.904999999999,-28559.43,3099.195,10390.725
1764769088.3408964,6498.045,2584.575,-30625.38,-8328.96,-8253.765,-28565.19,3094.785,10386.315
1764769088.3408964,6496.514999999999,2583.945,-30625.74,-8329.095,-8254.485,-28566.54,3094.02,10385.37
1764769088.3408964,6499.98,2588.04,-30621.465,-8325.225,-8249.985,-28562.445,3097.89,10388.835
1764769088.3408964,6505.605,2593.44,-30616.335,-8318.97,-8243.369999999999,-28556.325,3102.84,10395.225
1764769088.3408964,6495.57,2582.595,-30627.405,-8330.13,-8255.115,-28567.71,3092.985,10384.11
1764769088.3408964,6492.69,2579.445,-30631.365,-8333.82,-8259.345,-28571.355,3089.07,10380.285
1764769088.3408964,6502.094999999999,2588.445,-30622.86,-8325.81,-8250.345,-28562.58,3096.27,10389.42
1764769088.3408964,6492.645,2579.67,-30630.645,-8334.27,-8259.57,-28571.985,3087.63,10379.07
1764769088.3408964,6497.054999999999,2584.8,-30626.28,-8329.59,-8253.494999999999,-28565.55,3092.67,10384.425
1764769088.3408964,6493.905,2582.37,-30629.295,-8332.605,-8256.779999999999,-28569.06,3090.51,10382.265
1764769088.3408964,6485.985,2575.755,-30635.19,-8339.4,-8263.664999999999,-28576.89,3084.12,10375.155
1764769088.3408964,6483.735,2573.235,-30638.52,-8343.9,-8269.02,-28581.525,3082.5,10373.67
1764769088.387896,6489.63,2579.76,-30632.13,-8336.565,-8261.19,-28574.37,3088.755,10380.78
1764769088.388404,6497.235,2588.175,-30623.13,-8326.89,-8250.615,-28564.155,3095.595,10389.195
1764769088.388404,6495.795,2585.88,-30625.83,-8329.77,-8253.855,-28567.215,3094.065,10386.945
1764769088.388404,6491.25,2580.57,-30632.085,-8336.115,-8261.055,-28573.515,3088.935,10380.51
1764769088.388404,6504.03,2592.36,-30619.755,-8323.92,-8248.5,-28560.6,3099.645,10392.705
1764769088.388404,6498.81,2586.51,-30625.74,-8329.949999999999,-8254.08,-28565.955,3092.985,10386.63
1764769088.388404,6490.889999999999,2579.265,-30633.075,-8337.69,-8262.855,-28575.45,3086.415,10378.98
1764769088.388404,6498.63,2588.535,-30624.39,-8329.23,-8254.08,-28567.35,3094.47,10388.025
1764769088.388404,6500.25,2590.65,-30622.545,-8327.205,-8250.705,-28564.155,3096.945,10390.455
1764769088.388404,6488.685,2579.22,-30633.03,-8337.06,-8259.705,-28572.57,3088.44,10380.105
1764769088.388404,6484.77,2575.665,-30637.08,-8341.065,-8263.529999999999,-28577.7,3084.57,10376.82
1764769088.388404,6485.759999999999,2576.115,-30637.35,-8341.605,-8264.88,-28579.905,3083.625,10377.09
1764769088.388404,6494.985,2584.665,-30629.25,-8333.505,-8256.195,-28570.77,3090.06,10385.28
1764769088.388404,6502.05,2591.19,-30622.59,-8326.845,-8249.94,-28563.21,3096.945,10391.085
1764769088.388404,6510.554999999999,2601.27,-30613.005,-8317.529999999999,-8239.994999999999,-28552.77,3106.71,10399.815
1764769088.388404,6498.495,2589.345,-30625.515,-8330.535,-8252.19,-28565.415,3096.045,10387.305
1764769088.388404,6498.405,2587.86,-30627.315,-8331.705,-8254.26,-28567.395,3095.28,10386.945
1764769088.388404,6500.34,2589.705,-30625.155,-8329.68,-8252.235,-28565.91,3096.63,10389.78
1764769088.388404,6507.134999999999,2598.165,-30615.93,-8320.635,-8243.279999999999,-28558.845,3104.1,10397.835
1764769088.388404,6514.38,2606.67,-30608.145,-8312.58,-8236.215,-28552.68,3111.345,10405.935
1764769088.388404,6507.36,2599.335,-30616.92,-8321.355,-8245.17,-28561.32,3105.405,10398.51
1764769088.388404,6503.715,2594.07,-30622.68,-8326.98,-8248.365,-28563.615,3102.66,10394.685
1764769088.388404,6507.675,2597.805,-30619.44,-8323.154999999999,-8243.145,-28557.405,3106.755,10399.005
1764769088.388404,6504.3,2594.43,-30622.14,-8325.585,-8246.025,-28559.52,3103.695,10395.765
1764769088.4310942,6509.655,2599.92,-30616.605,-8320.32,-8241.029999999999,-28553.535,3107.745,10400.58
1764769088.4310942,6500.925,2590.38,-30625.695,-8330.13,-8251.289999999999,-28564.965,3098.52,10390.635
1764769088.4310942,6507.045,2597.085,-30619.485,-8323.92,-8246.07,-28560.33,3103.065,10397.16
1764769088.4310942,6503.535,2594.7,-30621.735,-8327.295,-8249.13,-28564.02,3100.635,10394.82
1764769088.4310942,6510.15,2602.755,-30614.355,-8319.69,-8240.175,-28554.795,3108.87,10403.055
1764769088.4310942,6510.78,2603.52,-30613.815,-8319.24,-8238.465,-28552.5,3110.805,10404.495
1764769088.4310942,6505.02,2597.715,-30619.53,-8324.82,-8243.369999999999,-28557.45,3107.745,10399.455
1764769088.4310942,6505.785,2598.255,-30619.17,-8324.145,-8243.64,-28558.395,3107.61,10399.545
1764769088.4310942,6507.719999999999,2599.965,-30617.55,-8322.885,-8242.47,-28556.865,3108.645,10401.57
1764769088.4310942,6508.395,2600.415,-30617.235,-8322.705,-8241.615,-28555.65,3107.745,10401.3
1764769088.4310942,6518.969999999999,2611.665,-30606.39,-8310.645,-8230.365,-28543.365,3117.15,10412.01
1764769088.4310942,6514.335,2605.14,-30612.015,-8316.315,-8234.955,-28547.19,3111.885,10406.34
1764769088.4310942,6516.224999999999,2606.67,-30610.71,-8315.19,-8233.695,-28546.56,3113.55,10408.68
1764769088.4310942,6516.945,2608.2,-30609.18,-8314.38,-8232.345,-28546.02,3114.81,10410.39
1764769088.4310942,6522.75,2615.22,-30602.295,-8307.18,-8223.84,-28538.955,3122.28,10416.915
1764769088.4310942,6524.685,2618.055,-30599.37,-8304.57,-8222.13,-28536.39,3125.295,10419.435
1764769088.4310942,6517.259999999999,2610.09,-30607.83,-8312.76,-8230.77,-28544.22,3118.545,10411.92
1764769088.4310942,6516.495,2608.515,-30609.315,-8314.56,-8232.074999999999,-28546.425,3117.645,10410.66
1764769088.4310942,6525.495,2617.875,-30599.64,-8305.289999999999,-8222.715,-28536.435,3124.71,10419.48
1764769088.4310942,6528.554999999999,2620.485,-30596.49,-8301.735,-8219.07,-28532.115,3126.645,10422.0
1764769088.4310942,6532.245,2624.445,-30593.07,-8299.035,-8216.46,-28528.83,3130.515,10425.195
1764769088.4310942,6524.82,2616.75,-30600.99,-8306.865,-8224.605,-28537.515,3123.135,10416.78
1764769088.4779105,6516.0,2607.03,-30610.665,-8316.63,-8233.289999999999,-28546.335,3114.495,10406.79
1764769088.4779105,6521.625,2613.645,-30604.455,-8311.5,-8226.945,-28539.81,3120.93,10413.18
1764769088.4779105,6528.06,2621.61,-30597.255,-8304.164999999999,-8219.88,-28534.095,3127.95,10420.605
1764769088.4779105,6527.07,2620.71,-30598.47,-8305.335,-8220.195,-28535.355,3127.32,10419.93
1764769088.4779105,6520.185,2613.96,-30605.895,-8312.49,-8228.295,-28543.05,3120.75,10412.82
1764769088.4779105,6525.764999999999,2620.215,-30599.1,-8305.965,-8221.68,-28536.3,3125.88,10418.895
1764769088.4779105,6529.679999999999,2623.095,-30596.715,-8303.445,-8218.755,-28533.24,3129.48,10422.27
1764769088.4779105,6522.795,2615.31,-30605.715,-8312.895,-8228.565,-28542.24,3122.865,10413.585
1764769088.4779105,6518.745,2609.46,-30612.105,-8319.824999999999,-8235.72,-28548.45,3115.935,10408.455
1764769088.4779105,6502.365,2593.17,-30627.135,-8334.0,-8248.904999999999,-28562.22,3098.88,10390.5
1764769088.4779105,6503.04,2594.43,-30625.065,-8330.625,-8245.98,-28558.935,3100.68,10391.22
1764769088.4779105,6515.594999999999,2608.155,-30611.52,-8317.98,-8232.93,-28545.435,3113.955,10405.485
1764769088.4789305,6518.115,2612.43,-30607.47,-8314.695,-8229.914999999999,-28543.14,3118.095,10409.58
1764769088.4789305,6506.19,2601.225,-30619.08,-8327.61,-8242.965,-28557.945,3106.665,10398.555
1764769088.4789305,6506.594999999999,2602.575,-30618.495,-8326.755,-8242.695,-28559.385,3106.755,10399.635
1764769088.4789305,6499.98,2595.375,-30626.28,-8334.045,-8250.57,-28565.64,3100.905,10392.075
1764769088.4789305,6500.7,2594.88,-30626.28,-8333.279999999999,-8247.869999999999,-28561.185,3103.245,10392.84
1764769088.4789305,6504.12,2597.625,-30623.04,-8330.13,-8244.449999999999,-28557.0,3105.855,10395.72
1764769088.4789305,6516.134999999999,2610.36,-30609.72,-8317.305,-8232.435,-28545.345,3116.61,10407.285
1764769088.4789305,6513.344999999999,2607.66,-30613.23,-8320.725,-8235.404999999999,-28549.305,3112.335,10404.18
1764769088.4789305,6508.844999999999,2603.565,-30618.18,-8324.685,-8239.904999999999,-28553.49,3109.41,10400.13
1764769088.4789305,6512.445,2607.075,-30614.67,-8320.994999999999,-8236.619999999999,-28550.52,3111.885,10405.17
1764769088.4789305,6511.905,2608.155,-30613.455,-8321.13,-8236.08,-28552.23,3111.165,10405.485
1764769088.4789305,6506.009999999999,2602.845,-30618.45,-8326.619999999999,-8240.94,-28558.08,3105.81,10400.76
1764769088.527169,6498.719999999999,2595.6,-30626.64,-8334.63,-8249.039999999999,-28566.0,3099.6,10393.29
1764769088.527169,6505.245,2602.35,-30619.845,-8327.34,-8240.895,-28556.415,3106.755,10400.715
1764769088.527169,6504.929999999999,2600.55,-30621.69,-8329.095,-8242.92,-28558.845,3104.28,10399.455
1764769088.527169,6495.48,2588.895,-30632.445,-8340.119999999999,-8255.385,-28570.365,3093.075,10387.17
1764769088.527169,6493.634999999999,2584.665,-30636.0,-8343.09,-8258.67,-28572.165,3089.07,10384.11
1764769088.527169,6479.505,2569.68,-30650.67,-8358.029999999999,-8272.35,-28585.305,3074.445,10369.305
1764769088.527169,6475.634999999999,2566.755,-30653.505,-8360.01,-8275.005,-28588.275,3072.06,10365.435
1764769088.527169,6469.11,2561.31,-30658.59,-8366.58,-8281.755,-28595.16,3068.28,10360.485
1764769088.527169,6469.785,2562.885,-30656.79,-8364.869999999999,-8278.695,-28592.64,3071.16,10363.545
1764769088.527169,6470.37,2563.38,-30657.24,-8364.42,-8277.705,-28591.515,3072.735,10365.615
1764769088.527169,6475.995,2570.85,-30650.22,-8357.265,-8271.18,-28585.62,3079.8,10373.715
1764769088.527169,6481.889999999999,2577.555,-30643.74,-8351.82,-8265.285,-28579.095,3085.47,10379.205
1764769088.527169,6487.425,2582.055,-30638.745,-8347.41,-8261.055,-28575.18,3088.665,10383.255
1764769088.527169,6488.685,2582.235,-30637.755,-8346.33,-8260.199999999999,-28574.55,3089.025,10383.615
1764769088.527169,6496.469999999999,2588.805,-30630.24,-8339.31,-8253.449999999999,-28568.07,3094.38,10389.69
1764769088.527169,6484.815,2576.34,-30642.66,-8351.595,-8265.33,-28579.23,3083.49,10377.09
1764769088.527169,6490.395,2581.965,-30637.71,-8345.88,-8257.949999999999,-28571.265,3089.79,10383.435
1764769088.527169,6493.23,2586.87,-30633.345,-8341.515,-8252.775,-28566.09,3094.29,10387.98
1764769088.527169,6489.495,2583.09,-30638.16,-8347.365,-8260.065,-28572.255,3091.905,10384.56
1764769088.527169,6494.58,2588.715,-30633.255,-8342.055,-8253.72,-28566.135,3095.235,10389.78
1764769088.527169,6493.094999999999,2588.13,-30631.32,-8340.57,-8251.065,-28564.785,3094.11,10388.7
1764769088.527169,6488.505,2582.865,-30637.215,-8346.645,-8258.445,-28572.255,3088.62,10383.435
1764769088.5695765,6485.804999999999,2579.67,-30641.13,-8350.289999999999,-8262.449999999999,-28576.17,3085.11,10380.645
1764769088.5695765,6482.969999999999,2576.34,-30644.73,-8354.52,-8266.545,-28579.86,3081.6,10376.82
1764769088.5695765,6495.255,2588.85,-30631.995,-8342.505,-8252.955,-28565.865,3092.535,10388.205
1764769088.5695765,6495.12,2588.895,-30631.23,-8342.055,-8252.055,-28564.92,3092.85,10388.25
1764769088.5695765,6494.58,2590.11,-30630.645,-8341.47,-8252.01,-28565.055,3094.65,10389.825
1764769088.5695765,6503.985,2601.0,-30621.195,-8331.3,-8242.56,-28556.955,3103.11,10400.085
1764769088.5695765,6499.575,2596.725,-30625.38,-8335.755,-8246.52,-28561.14,3100.59,10395.27
1764769088.5695765,6501.42,2598.705,-30624.39,-8335.529999999999,-8245.529999999999,-28560.42,3103.425,10397.61
1764769088.5695765,6512.13,2610.945,-30612.825,-8323.335,-8232.93,-28549.125,3114.0,10410.075
1764769088.5695765,6509.61,2608.605,-30615.345,-8326.215,-8235.855,-28552.23,3111.12,10407.15
1764769088.5695765,6504.255,2601.99,-30622.05,-8333.1,-8243.19,-28559.385,3104.91,10400.13
1764769088.5695765,6513.525,2610.315,-30613.815,-8325.315,-8235.539999999999,-28551.6,3111.525,10408.185
1764769088.5695765,6513.344999999999,2610.405,-30614.715,-8325.9,-8235.404999999999,-28551.555,3111.57,10407.285
1764769088.5695765,6500.474999999999,2596.635,-30628.755,-8339.94,-8248.815,-28565.145,3099.645,10394.1
1764769088.5700836,6501.33,2597.31,-30628.53,-8339.49,-8249.355,-28564.74,3100.545,10395.675
1764769088.5700836,6504.84,2602.035,-30624.12,-8334.945,-8243.369999999999,-28558.305,3105.54,10401.435
1764769088.5700836,6501.509999999999,2598.84,-30627.63,-8338.41,-8246.07,-28561.815,3103.56,10397.385
1764769088.5700836,6501.014999999999,2599.02,-30628.395,-8339.445,-8245.98,-28561.995,3104.505,10397.79
1764769088.5700836,6506.054999999999,2604.645,-30623.49,-8333.414999999999,-8241.21,-28558.215,3108.96,10402.875
1764769088.5700836,6516.179999999999,2615.49,-30613.14,-8323.335,-8230.68,-28549.035,3117.825,10412.91
1764769088.5700836,6514.92,2613.285,-30615.57,-8325.585,-8232.525,-28549.98,3116.925,10411.38
1764769088.5700836,6519.509999999999,2616.66,-30612.6,-8320.904999999999,-8227.89,-28543.905,3120.66,10415.88
1764769088.5700836,6523.38,2621.205,-30608.865,-8316.045,-8224.289999999999,-28539.09,3124.845,10420.02
1764769088.5700836,6518.969999999999,2617.11,-30612.78,-8319.824999999999,-8228.025,-28543.545,3120.3,10415.385
1764769088.6160696,6516.27,2614.905,-30614.715,-8322.39,-8230.185,-28545.93,3118.14,10412.37
1764769088.6170745,6510.735,2609.73,-30620.25,-8328.555,-8235.315,-28551.825,3114.27,10407.285
1764769088.6170745,6520.005,2620.17,-30610.665,-8318.385,-8225.595,-28542.33,3123.36,10417.905
1764769088.6170745,6515.46,2617.065,-30613.32,-8320.5,-8228.835,-28545.93,3121.29,10414.305
1764769088.6170745,6513.075,2614.095,-30615.21,-8323.11,-8230.59,-28547.955,3119.895,10411.65
1764769088.6170745,6511.679999999999,2611.71,-30617.73,-8325.539999999999,-8231.895,-28547.865,3118.095,10410.435
1764769088.6170745,6516.36,2615.94,-30613.32,-8320.59,-8226.315,-28542.15,3121.515,10414.53
1764769088.6170745,6514.56,2613.42,-30615.795,-8324.279999999999,-8230.365,-28545.705,3119.355,10410.885
1764769088.6170745,6524.28,2623.005,-30606.165,-8314.154999999999,-8220.42,-28535.445,3127.995,10420.065
1764769088.6170745,6511.545,2608.83,-30620.205,-8328.33,-8234.369999999999,-28549.98,3115.08,10406.205
1764769088.6170745,6511.905,2609.37,-30620.07,-8328.33,-8234.1,-28549.305,3115.53,10406.79
1764769088.6170745,6516.719999999999,2614.185,-30614.85,-8322.84,-8228.205,-28543.68,3120.21,10411.785
1764769088.6170745,6528.42,2627.73,-30601.98,-8310.375,-8215.83,-28531.62,3131.55,10424.88
1764769088.6170745,6523.469999999999,2624.04,-30606.255,-8315.279999999999,-8220.869999999999,-28535.94,3128.67,10420.2
1764769088.6170745,6527.835,2627.505,-30602.34,-8311.5,-8217.27,-28533.555,3131.19,10424.385
1764769088.6170745,6527.925,2627.865,-30602.7,-8312.67,-8217.63,-28534.545,3131.37,10424.295
1764769088.6170745,6521.58,2620.71,-30610.125,-8320.455,-8226.09,-28541.79,3125.835,10416.915
1764769088.6170745,6518.474999999999,2616.795,-30612.915,-8322.3,-8228.205,-28542.87,3122.01,10413.135
1764769088.6170745,6524.415,2622.105,-30606.84,-8315.414999999999,-8221.5,-28535.895,3127.095,10419.66
1764769088.6170745,6511.86,2609.505,-30620.07,-8329.545,-8235.765,-28550.025,3114.315,10406.385
1764769088.6170745,6512.985,2612.385,-30617.37,-8327.475,-8234.055,-28548.855,3115.395,10407.96
1764769088.6170745,6507.134999999999,2607.615,-30622.5,-8332.785,-8240.265,-28556.55,3108.96,10402.11
1764769088.6593697,6515.594999999999,2616.84,-30613.5,-8324.369999999999,-8230.815,-28547.055,3117.06,10412.145
1764769088.6593697,6513.705,2614.905,-30615.93,-8326.395,-8232.074999999999,-28546.515,3117.69,10412.01
1764769088.6593697,6504.435,2604.465,-30625.29,-8335.08,-8240.895,-28554.93,3110.4,10402.47
1764769088.6593697,6510.599999999999,2610.54,-30619.08,-8329.005,-8234.82,-28549.395,3115.08,10408.545
1764769088.6593697,6514.11,2614.77,-30615.12,-8324.64,-8230.904999999999,-28545.885,3118.095,10412.91
1764769088.6603782,6508.665,2608.74,-30621.42,-8330.715,-8236.664999999999,-28551.915,3112.785,10405.215
1764769088.6603782,6516.675,2615.76,-30614.49,-8324.324999999999,-8229.779999999999,-28544.805,3118.725,10412.37
1764769088.6603782,6507.99,2605.32,-30624.57,-8334.315,-8239.86,-28554.48,3110.04,10403.01
1764769088.6603782,6516.36,2614.455,-30616.965,-8326.35,-8232.615,-28547.01,3117.87,10412.415
1764769088.6603782,6517.8,2617.47,-30612.915,-8321.49,-8226.945,-28542.24,3120.705,10414.305
1764769088.6603782,6512.804999999999,2613.06,-30616.65,-8325.855,-8231.445,-28547.685,3117.06,10408.725
1764769088.6603782,6511.86,2612.115,-30617.82,-8327.07,-8233.515,-28549.755,3116.205,10408.32
1764769088.6603782,6513.974999999999,2614.14,-30616.2,-8325.449999999999,-8231.355,-28547.955,3117.33,10410.39
1764769088.6603782,6522.57,2623.635,-30607.02,-8315.505,-8222.085,-28538.73,3125.205,10419.48
1764769088.6603782,6525.27,2626.02,-30604.14,-8312.67,-8219.925,-28535.85,3127.32,10421.01
1764769088.6603782,6527.745,2628.315,-30602.565,-8310.51,-8217.855,-28533.375,3129.66,10423.395
1764769088.6603782,6528.78,2629.62,-30601.845,-8309.205,-8217.72,-28532.475,3131.235,10424.745
1764769088.6603782,6515.775,2615.13,-30614.805,-8321.535,-8232.029999999999,-28545.93,3118.545,10411.02
1764769088.6603782,6515.865,2615.58,-30613.77,-8320.994999999999,-8232.345,-28545.975,3119.445,10411.83
1764769088.6603782,6522.21,2623.14,-30606.255,-8313.705,-8224.785,-28537.875,3125.52,10419.12
1764769088.6603782,6523.56,2625.435,-30603.6,-8310.824999999999,-8221.095,-28534.32,3128.715,10422.36
1764769088.6603782,6522.84,2625.525,-30603.105,-8310.869999999999,-8221.365,-28536.12,3128.625,10422.45
1764769088.706849,6523.83,2627.91,-30602.07,-8310.375,-8221.41,-28535.49,3129.48,10423.17
1764769088.706849,6519.42,2623.05,-30605.895,-8314.695,-8222.94,-28536.615,3126.51,10418.625
1764769088.706849,6515.594999999999,2618.1,-30610.305,-8318.654999999999,-8225.865,-28540.305,3122.685,10414.26
1764769088.706849,6507.764999999999,2609.73,-30618.63,-8327.789999999999,-8236.215,-28550.565,3113.775,10405.53
1764769088.706849,6516.764999999999,2618.415,-30610.8,-8320.32,-8227.26,-28540.62,3122.145,10414.485
1764769088.706849,6512.49,2613.195,-30615.615,-8325.494999999999,-8231.175,-28544.355,3117.06,10409.67
1764769088.706849,6507.45,2609.055,-30621.195,-8330.67,-8237.43,-28550.745,3113.055,10405.035
1764769088.706849,6513.795,2615.94,-30614.895,-8324.55,-8230.635,-28545.48,3118.545,10411.92
1764769088.706849,6511.32,2613.51,-30616.38,-8326.529999999999,-8231.58,-28547.64,3116.295,10409.4
1764769088.706849,6514.29,2617.02,-30612.465,-8323.02,-8227.305,-28543.05,3118.815,10413.855
1764769088.706849,6515.73,2619.18,-30611.475,-8321.58,-8226.18,-28540.8,3122.01,10416.285
1764769088.706849,6510.735,2613.87,-30616.83,-8326.89,-8230.365,-28545.21,3119.22,10410.885
1764769088.706849,6514.425,2617.47,-30613.77,-8323.92,-8227.935,-28543.14,3121.47,10413.63
1764769088.706849,6519.42,2622.87,-30609.225,-8319.015,-8223.705,-28539.405,3125.07,10418.58
1764769088.706849,6531.66,2635.605,-30597.66,-8307.225,-8211.824999999999,-28528.065,3135.105,10430.145
1764769088.706849,6523.605,2627.505,-30605.085,-8315.414999999999,-8218.71,-28533.24,3128.4,10422.765
1764769088.706849,6514.74,2618.505,-30614.085,-8326.26,-8227.98,-28541.745,3121.245,10414.035
1764769088.706849,6512.895,2617.56,-30614.985,-8327.07,-8228.43,-28542.465,3120.345,10413.0
1764769088.706849,6511.32,2617.02,-30616.29,-8328.24,-8228.565,-28543.545,3119.67,10412.235
1764769088.706849,6515.594999999999,2622.105,-30611.205,-8323.785,-8223.435,-28538.73,3123.675,10417.635
1764769088.706849,6510.78,2615.985,-30617.91,-8330.039999999999,-8228.88,-28543.5,3118.77,10413.045
1764769088.706849,6509.25,2614.05,-30620.205,-8332.244999999999,-8232.074999999999,-28544.94,3116.385,10410.93
1764769088.7528615,6509.7,2613.15,-30621.69,-8333.955,-8233.785,-28546.2,3114.585,10409.535
1764769088.7528615,6514.56,2617.47,-30617.415,-8330.039999999999,-8229.735,-28542.69,3116.88,10413.18
1764769088.7528615,6512.895,2615.76,-30618.855,-8331.57,-8231.805,-28544.535,3114.63,10410.615
1764769088.7528615,6504.255,2605.77,-30627.405,-8340.164999999999,-8240.265,-28553.715,3105.765,10400.805
1764769088.7528615,6493.455,2594.745,-30638.07,-8350.965,-8250.3,-28563.255,3097.395,10390.68
1764769088.7528615,6496.875,2599.74,-30633.885,-8347.32,-8245.215,-28557.81,3102.03,10395.585
1764769088.7528615,6505.245,2609.325,-30625.335,-8338.635,-8235.72,-28549.215,3110.31,10405.35
1764769088.7528615,6501.24,2604.915,-30629.835,-8344.89,-8241.3,-28555.38,3107.25,10402.02
1764769088.7528615,6509.474999999999,2613.87,-30621.015,-8336.205,-8232.164999999999,-28546.695,3115.035,10411.02
1764769088.7528615,6510.554999999999,2615.13,-30618.63,-8333.145,-8227.8,-28543.005,3116.52,10411.695
1764769088.7528615,6509.474999999999,2613.105,-30620.97,-8334.09,-8229.555,-28543.59,3115.845,10410.3
1764769088.7528615,6504.615,2606.625,-30627.855,-8340.345,-8236.98,-28550.205,3109.905,10404.27
1764769088.7538793,6516.9,2618.46,-30617.415,-8329.59,-8225.64,-28538.595,3119.85,10415.43
1764769088.7538793,6516.99,2618.505,-30616.155,-8328.645,-8224.02,-28536.84,3119.805,10414.755
1764769088.7538793,6516.495,2618.28,-30615.615,-8328.285,-8222.13,-28533.825,3121.875,10415.385
1764769088.7538793,6512.219999999999,2614.905,-30620.475,-8333.055,-8227.26,-28538.64,3120.03,10412.28
1764769088.7538793,6515.37,2619.63,-30616.38,-8329.095,-8223.84,-28535.67,3123.405,10416.24
1764769088.7538793,6519.554999999999,2623.455,-30612.915,-8326.17,-8220.51,-28533.555,3126.42,10420.335
1764769088.7538793,6517.395,2620.98,-30615.165,-8328.375,-8222.445,-28535.805,3124.26,10417.77
1764769088.7538793,6507.945,2611.395,-30623.805,-8337.42,-8230.77,-28544.22,3115.935,10407.78
1764769088.7538793,6515.55,2619.135,-30616.335,-8330.895,-8224.425,-28538.145,3122.505,10416.735
1764769088.7538793,6515.594999999999,2617.875,-30618.405,-8332.47,-8227.44,-28540.53,3120.705,10415.115
1764769088.7538793,6513.48,2615.445,-30620.835,-8334.99,-8229.914999999999,-28542.6,3118.455,10411.92
1764769088.7538793,6502.32,2604.87,-30630.78,-8344.8,-8240.039999999999,-28553.085,3109.185,10400.31
1764769088.7538793,6507.945,2611.17,-30624.165,-8338.32,-8233.785,-28546.92,3114.63,10407.33
1764769088.7538793,6510.375,2614.23,-30621.465,-8336.025,-8230.904999999999,-28543.545,3117.24,10411.515
1764769088.8000624,6510.42,2615.85,-30620.61,-8334.494999999999,-8230.14,-28543.23,3118.005,10412.505
1764769088.8000624,6499.259999999999,2604.87,-30631.68,-8345.25,-8240.94,-28555.515,3106.98,10400.805
1764769088.8000624,6497.325,2603.25,-30633.39,-8348.355,-8243.82,-28558.26,3105.45,10399.32
1764769088.8000624,6499.17,2604.51,-30632.13,-8347.725,-8241.525,-28555.11,3107.745,10401.345
1764769088.8000624,6504.795,2608.335,-30628.44,-8343.045,-8235.81,-28548.18,3112.83,10405.935
1764769088.8000624,6497.009999999999,2599.29,-30637.395,-8352.27,-8244.945,-28557.99,3104.685,10396.935
1764769088.8000624,6505.56,2609.82,-30628.8,-8344.574999999999,-8237.744999999999,-28550.97,3110.4,10405.53
1764769088.8000624,6496.155,2601.18,-30637.17,-8352.585,-8246.34,-28560.24,3102.255,10395.765
1764769088.8000624,6504.21,2608.83,-30628.845,-8344.44,-8238.24,-28553.49,3109.86,10403.82
1764769088.8000624,6499.844999999999,2603.61,-30633.21,-8349.48,-8242.83,-28558.935,3105.405,10399.68
1764769088.8000624,6506.955,2612.385,-30624.165,-8340.84,-8234.055,-28550.25,3112.65,10408.365
1764769088.8000624,6508.17,2613.06,-30623.58,-8339.445,-8232.39,-28546.425,3115.665,10410.39
1764769088.8000624,6502.634999999999,2606.895,-30630.555,-8346.06,-8237.789999999999,-28550.97,3111.885,10405.755
1764769088.8000624,6504.48,2609.325,-30628.845,-8344.755,-8237.565,-28551.555,3111.3,10406.61
1764769088.8000624,6499.665,2604.195,-30634.92,-8350.56,-8243.73,-28557.99,3105.135,10400.76
1764769088.8000624,6513.3,2617.83,-30621.87,-8336.565,-8228.925,-28542.24,3119.445,10415.385
1764769088.8000624,6518.025,2621.61,-30617.865,-8332.785,-8224.289999999999,-28537.425,3124.44,10419.39
1764769088.8000624,6504.435,2607.165,-30631.23,-8346.42,-8238.33,-28552.545,3110.175,10404.495
1764769088.8000624,6507.63,2611.395,-30627.18,-8343.36,-8235.18,-28549.755,3113.595,10408.23
1764769088.8000624,6500.52,2604.465,-30634.335,-8350.244999999999,-8243.055,-28557.765,3107.34,10401.525
1764769088.8000624,6504.57,2609.595,-30628.98,-8344.35,-8236.89,-28552.545,3111.885,10406.43
1764769088.8000624,6499.125,2605.005,-30634.92,-8350.965,-8243.91,-28559.88,3107.745,10402.11
1764769088.8496785,6507.764999999999,2613.825,-30625.92,-8342.055,-8235.18,-28551.6,3115.98,10410.93
1764769088.8496785,6507.27,2612.97,-30625.245,-8341.74,-8235.27,-28551.24,3115.44,10409.985
1764769088.8496785,6505.425,2610.81,-30628.215,-8344.98,-8238.735,-28554.165,3113.73,10408.32
1764769088.8496785,6496.245,2600.01,-30639.42,-8355.285,-8249.355,-28564.47,3104.01,10397.385
1764769088.8496785,6501.915,2605.41,-30633.795,-8348.535,-8242.335,-28556.955,3107.79,10402.515
1764769088.8496785,6490.755,2593.845,-30644.82,-8359.56,-8252.279999999999,-28566.945,3098.745,10391.85
1764769088.8496785,6490.755,2594.07,-30645.09,-8360.145,-8253.045,-28568.43,3097.98,10390.815
1764769088.8496785,6496.83,2601.27,-30637.8,-8352.765,-8247.105,-28563.165,3103.065,10397.79
1764769088.8511791,6489.585,2593.755,-30645.585,-8360.73,-8254.8,-28570.275,3096.585,10390.815
1764769088.8511791,6491.16,2596.545,-30642.255,-8357.715,-8251.605,-28567.215,3098.745,10393.2
1764769088.8511791,6486.3,2592.27,-30647.52,-8363.16,-8257.68,-28573.875,3094.38,10389.06
1764769088.8511791,6494.264999999999,2599.335,-30640.545,-8356.949999999999,-8252.145,-28568.295,3100.68,10396.17
1764769088.8511791,6496.2,2600.46,-30638.565,-8353.215,-8247.06,-28562.4,3101.94,10397.205
1764769088.8511791,6491.61,2595.51,-30642.615,-8356.275,-8249.85,-28564.74,3096.675,10391.445
1764769088.8511791,6493.094999999999,2597.31,-30642.3,-8355.869999999999,-8250.345,-28563.93,3098.52,10393.785
1764769088.8511791,6482.61,2585.79,-30653.55,-8367.119999999999,-8262.585,-28575.63,3088.71,10382.535
1764769088.8511791,6480.585,2584.755,-30654.945,-8369.19,-8264.34,-28577.475,3087.18,10380.555
1764769088.8511791,6477.165,2582.01,-30658.365,-8372.61,-8268.164999999999,-28581.66,3083.76,10376.91
1764769088.8511791,6477.12,2582.64,-30656.97,-8371.215,-8267.31,-28581.255,3084.12,10377.72
1764769088.8511791,6482.61,2588.805,-30650.895,-8364.555,-8260.199999999999,-28573.47,3089.52,10384.785
1764769088.8511791,6483.105,2589.885,-30650.175,-8364.24,-8259.615,-28572.615,3090.555,10385.82
1764769088.8511791,6474.42,2581.065,-30659.94,-8373.195,-8268.93,-28582.695,3081.735,10376.055
1764769088.8511791,6481.125,2587.41,-30653.595,-8366.715,-8262.63,-28575.9,3087.18,10382.535
1764769088.8511791,6476.49,2582.46,-30657.69,-8370.72,-8267.22,-28580.67,3082.905,10377.225
1764769088.8940265,6475.455,2581.47,-30658.32,-8372.205,-8268.705,-28580.58,3081.195,10376.505
1764769088.8974454,6461.505,2566.62,-30673.215,-8386.38,-8283.735,-28595.205,3066.75,10360.98
1764769088.8974454,6460.11,2564.955,-30675.24,-8387.324999999999,-8283.69,-28595.79,3065.895,10359.9
1764769088.8984442,6467.804999999999,2573.595,-30666.51,-8379.585,-8276.265,-28589.175,3072.645,10367.73
1764769088.8984442,6468.255,2575.845,-30663.99,-8375.94,-8273.52,-28586.745,3074.355,10369.8
1764769088.8984442,6467.085,2576.25,-30663.72,-8375.265,-8273.025,-28586.295,3075.345,10370.07
1764769088.8984442,6471.0,2580.84,-30659.85,-8371.755,-8269.38,-28583.145,3079.8,10374.03
1764769088.8984442,6475.23,2585.565,-30655.305,-8366.67,-8264.565,-28578.195,3084.75,10378.62
1764769088.8984442,6472.755,2580.93,-30659.94,-8370.585,-8268.21,-28579.545,3082.545,10375.695
1764769088.8984442,6474.33,2581.785,-30658.545,-8370.18,-8268.345,-28580.355,3082.86,10376.46
1764769088.8984442,6474.78,2582.955,-30658.005,-8369.369999999999,-8268.615,-28581.795,3081.465,10375.83
1764769088.8984442,6472.259999999999,2580.795,-30659.715,-8371.215,-8270.73,-28585.08,3077.955,10373.04
1764769088.8984442,6472.71,2581.875,-30658.995,-8370.855,-8269.92,-28584.27,3078.765,10373.895
1764769088.8984442,6467.895,2576.97,-30663.99,-8374.949999999999,-8272.17,-28584.81,3076.92,10371.33
1764769088.8984442,6460.785,2569.41,-30672.72,-8382.6,-8279.775,-28591.155,3072.015,10365.48
1764769088.8984442,6466.634999999999,2577.15,-30665.07,-8374.5,-8272.619999999999,-28583.73,3078.36,10373.445
1764769088.8984442,6469.155,2579.76,-30661.38,-8370.404999999999,-8269.065,-28582.38,3079.89,10374.75
1764769088.8984442,6461.28,2572.2,-30668.805,-8377.92,-8276.175,-28591.155,3072.105,10366.11
1764769088.8984442,6466.995,2577.87,-30663.54,-8372.97,-8270.82,-28584.9,3076.785,10371.825
1764769088.8984442,6468.03,2577.6,-30664.26,-8373.375,-8271.765,-28585.755,3075.345,10371.15
1764769088.8984442,6470.054999999999,2578.68,-30663.09,-8371.305,-8270.145,-28582.605,3077.055,10372.23
1764769088.8984442,6466.275,2574.36,-30667.095,-8375.76,-8274.6,-28587.195,3073.23,10368.63
1764769088.941249,6468.525,2576.565,-30664.71,-8373.645,-8272.664999999999,-28585.71,3074.58,10370.205
1764769088.941249,6466.995,2576.115,-30664.8,-8373.285,-8272.08,-28585.665,3076.11,10370.925
1764769088.941249,6456.645,2565.855,-30674.97,-8384.175,-8283.15,-28597.23,3066.93,10361.25
1764769088.941249,6454.304999999999,2565.09,-30675.42,-8385.975,-8285.625,-28599.975,3065.13,10359.99
1764769088.942258,6466.005,2577.78,-30664.26,-8374.095,-8272.664999999999,-28587.06,3076.785,10374.165
1764769088.942258,6470.235,2583.045,-30658.59,-8367.029999999999,-8264.744999999999,-28580.355,3080.745,10377.765
1764769088.942258,6467.849999999999,2579.985,-30661.605,-8370.0,-8268.525,-28583.64,3078.495,10374.345
1764769088.942258,6469.605,2579.76,-30662.235,-8371.755,-8269.965,-28585.755,3077.145,10374.66
1764769088.942258,6479.009999999999,2588.085,-30654.27,-8364.105,-8262.225,-28577.34,3084.705,10383.255
1764769088.942258,6471.315,2580.615,-30662.415,-8370.945,-8268.21,-28581.255,3078.855,10376.235
1764769088.942258,6463.035,2572.38,-30670.065,-8379.0,-8275.59,-28589.49,3072.06,10367.955
1764769088.942258,6461.955,2571.66,-30670.695,-8379.765,-8276.94,-28591.785,3071.52,10367.055
1764769088.942258,6461.91,2573.1,-30669.03,-8378.685,-8275.59,-28590.255,3072.87,10369.035
1764769088.942258,6458.58,2570.625,-30671.64,-8381.97,-8277.705,-28592.37,3070.125,10366.74
1764769088.942258,6460.02,2571.66,-30671.145,-8382.015,-8276.49,-28590.615,3071.43,10368.36
1764769088.942258,6468.75,2580.795,-30662.415,-8372.744999999999,-8266.904999999999,-28581.48,3079.62,10377.54
1764769088.942258,6473.16,2584.71,-30658.905,-8370.18,-8264.115,-28579.5,3081.87,10380.06
1764769088.942258,6474.06,2585.385,-30657.285,-8369.82,-8263.529999999999,-28579.41,3082.635,10380.42
1764769088.942258,6476.804999999999,2587.86,-30655.35,-8367.615,-8261.685,-28576.845,3084.48,10382.58
1764769088.942258,6468.525,2577.87,-30665.43,-8377.065,-8270.505,-28584.315,3076.92,10374.75
1764769088.942258,6468.344999999999,2577.375,-30665.565,-8377.02,-8269.47,-28581.975,3078.315,10375.785
1764769088.942258,6470.37,2581.785,-30661.335,-8373.555,-8265.195,-28578.915,3081.735,10378.44
1764769088.942258,6467.13,2578.77,-30664.8,-8378.505,-8269.065,-28582.695,3080.07,10376.235
1764769088.942258,6470.594999999999,2581.02,-30662.955,-8376.119999999999,-8267.039999999999,-28579.005,3083.175,10379.745
1764769088.942258,6464.429999999999,2574.63,-30669.75,-8382.914999999999,-8273.52,-28586.565,3077.01,10372.14
1764769088.942258,6459.03,2569.995,-30674.925,-8387.955,-8278.785,-28592.235,3070.62,10366.65
1764769088.987892,6465.735,2575.935,-30668.31,-8382.015,-8272.755,-28585.575,3075.525,10373.22
1764769088.987892,6466.679999999999,2576.52,-30668.67,-8382.195,-8272.89,-28585.26,3075.435,10373.625
1764769088.987892,6467.715,2576.205,-30668.805,-8382.105,-8272.305,-28584.945,3075.21,10373.355
1764769088.987892,6452.865,2561.13,-30684.015,-8397.585,-8288.279999999999,-28600.65,3060.63,10357.245
1764769088.987892,6451.469999999999,2560.275,-30685.77,-8399.789999999999,-8289.494999999999,-28601.865,3060.225,10356.435
1764769088.987892,6452.73,2562.795,-30682.755,-8397.404999999999,-8286.074999999999,-28599.48,3062.16,10359.0
1764769088.987892,6454.889999999999,2565.045,-30680.595,-8395.244999999999,-8283.06,-28596.87,3064.815,10361.745
1764769088.987892,6461.19,2572.56,-30672.63,-8388.494999999999,-8276.13,-28591.38,3071.25,10369.8
1764769088.987892,6455.655,2567.295,-30678.03,-8394.21,-8281.44,-28597.095,3066.48,10363.86
1764769088.989092,6463.44,2575.305,-30669.345,-8384.94,-8272.125,-28588.14,3073.41,10370.925
1764769088.989092,6466.86,2577.78,-30667.68,-8383.86,-8270.865,-28586.61,3075.39,10372.995
1764769088.989092,6460.02,2570.13,-30675.105,-8391.24,-8277.975,-28593.945,3069.495,10365.03
1764769088.989092,6465.645,2574.405,-30670.605,-8386.244999999999,-8272.44,-28586.745,3075.03,10371.15
1764769088.989092,6462.134999999999,2571.255,-30673.89,-8390.43,-8276.4,-28590.165,3070.71,10367.505
1764769088.989092,6462.45,2573.01,-30672.315,-8389.485,-8274.69,-28588.455,3072.825,10369.35
1764769088.989092,6457.005,2568.735,-30677.22,-8394.119999999999,-8280.27,-28594.08,3068.82,10365.21
1764769088.989092,6463.035,2575.98,-30670.56,-8387.19,-8274.285,-28588.365,3074.31,10372.59
1764769088.989092,6463.485,2575.71,-30670.515,-8387.82,-8274.69,-28589.445,3074.58,10372.59
1764769089.0317698,6465.78,2577.375,-30668.49,-8386.38,-8273.295,-28587.555,3077.235,10375.02
1764769089.0317698,6464.295,2576.385,-30668.715,-8386.83,-8273.025,-28587.87,3076.065,10373.355
1764769089.0328748,6462.99,2574.9,-30670.785,-8389.215,-8274.645,-28590.705,3075.165,10371.6
1764769089.0328748,6457.634999999999,2567.34,-30679.47,-8397.945,-8284.904999999999,-28600.65,3068.28,10364.445
1764769089.0328748,6461.235,2571.255,-30674.88,-8392.545,-8278.74,-28593.36,3071.16,10367.91
1764769089.0328748,6451.92,2563.56,-30681.675,-8398.845,-8285.625,-28599.975,3062.61,10359.045
1764769089.0328748,6458.804999999999,2570.985,-30673.665,-8391.33,-8278.65,-28592.82,3069.63,10367.37
1764769089.0328748,6453.36,2565.63,-30679.83,-8397.36,-8283.869999999999,-28597.5,3065.805,10362.87
