Timestamp,Channel1,Channel2,Channel3,Channel4,Channel5,Channel6,Channel7,Channel8
1764766824.6619575,-12175.38,-19099.71,-4328.28,-15569.28,-46921.185,-44548.155,-37649.52,-13762.53
1764766824.6619575,-12178.8,-19104.165,-4339.395,-15582.87,-46925.55,-44555.625,-37652.58,-13765.59
1764766824.6619575,-12172.365,-19098.225,-4341.24,-15585.975,-46920.555,-44552.925,-37646.415,-13758.705
1764766824.6619575,-12169.08,-19095.165,-4345.56,-15591.195,-46917.405,-44551.575,-37641.915,-13754.43
1764766824.6619575,-12166.65,-19097.28,-4354.02,-15598.035,-46914.615,-44551.89,-37637.64,-13751.73
1764766824.6619575,-12169.98,-19102.68,-4365.99,-15611.58,-46919.88,-44560.98,-37640.205,-13755.42
1764766824.6619575,-12164.265,-19091.475,-4360.815,-15614.055,-46919.61,-44565.255,-37638.315,-13751.55
1764766824.6619575,-12164.85,-19093.86,-4370.49,-15623.955,-46922.49,-44570.07,-37638.54,-13752.675
1764766824.6619575,-12166.92,-19098.18,-4381.965,-15637.275,-46926.855,-44574.345,-37638.585,-13753.17
1764766824.6619575,-12173.04,-19107.18,-4399.065,-15658.92,-46939.77,-44584.695,-37642.86,-13758.705
1764766824.6619575,-12170.565,-19106.28,-4404.195,-15662.88,-46936.215,-44588.295,-37640.655,-13756.59
1764766824.6619575,-12177.72,-19112.265,-4413.42,-15670.71,-46934.55,-44599.05,-37648.53,-13764.555
1764766824.6619575,-12171.96,-19108.08,-4417.155,-15679.755,-46936.71,-44598.06,-37641.78,-13759.065
1764766824.6619575,-12174.48,-19112.085,-4428.54,-15693.435,-46946.52,-44607.87,-37643.445,-13761.81
1764766824.6619575,-12166.92,-19106.46,-4432.679999999999,-15704.64,-46950.84,-44607.375,-37635.21,-13753.89
1764766824.6619575,-12166.245,-19108.89,-4450.815,-15737.13,-46982.925,-44612.145,-37627.92,-13749.93
1764766824.6619575,-12166.83,-19112.715,-4458.195,-15728.58,-46962.9,-44615.79,-37624.455,-13748.805
1764766824.6619575,-12170.52,-19108.125,-4441.05,-15690.015,-46913.985,-44623.26,-37641.69,-13758.48
1764766824.6619575,-12175.425,-19114.065,-4456.575,-15712.65,-46925.64,-44629.83,-37646.055,-13763.115
1764766824.6619575,-12168.09,-19109.745,-4463.865,-15728.67,-46937.43,-44632.35,-37637.91,-13755.015
1764766824.6619575,-12170.61,-19110.42,-4469.085,-15730.605,-46937.52,-44639.595,-37641.24,-13758.21
1764766824.6619575,-12171.24,-19113.435,-4479.615,-15743.205,-46946.43,-44643.96,-37639.575,-13757.04
1764766824.6619575,-12163.545,-19106.955,-4477.275,-15737.94,-46939.59,-44640.495,-37633.545,-13749.84
1764766824.6619575,-12162.285,-19105.605,-4478.49,-15738.795,-46939.905,-44642.97,-37631.655,-13748.085
1764766824.706673,-12162.78,-19107.945,-4486.905,-15747.255,-46941.975,-44645.355,-37629.765,-13747.23
1764766824.706673,-12169.44,-19114.875,-4496.94,-15756.39,-46947.69,-44654.58,-37637.1,-13755.42
1764766824.706673,-12163.32,-19109.61,-4497.66,-15756.255,-46944.225,-44651.115,-37631.88,-13749.84
1764766824.706673,-12162.69,-19108.665,-4498.74,-15756.165,-46942.74,-44653.275,-37630.98,-13748.985
1764766824.706673,-12165.93,-19112.085,-4504.23,-15761.61,-46945.215,-44655.795,-37631.79,-13751.01
1764766824.706673,-12169.71,-19118.115,-4514.715,-15773.265,-46952.91,-44661.645,-37634.76,-13755.6
1764766824.706673,-12162.825,-19112.04,-4512.06,-15772.59,-46951.065,-44660.97,-37630.305,-13749.21
1764766824.706673,-12165.48,-19115.595,-4519.395,-15781.455,-46957.005,-44666.73,-37632.015,-13750.605
1764766824.7076826,-12168.54,-19121.67,-4524.255,-15782.895,-46959.93,-44673.345,-37635.165,-13753.98
1764766824.7076826,-12171.645,-19120.77,-4526.55,-15790.455,-46973.565,-44682.345,-37638.18,-13756.59
1764766824.7076826,-12158.685,-19108.53,-4518.09,-15784.92,-46969.29,-44674.65,-37625.715,-13744.35
1764766824.7076826,-12159.72,-19111.905,-4525.514999999999,-15792.795,-46967.13,-44676.855,-37623.825,-13744.665
1764766824.7076826,-12161.565,-19115.82,-4533.21,-15806.88,-46975.95,-44679.33,-37622.97,-13745.34
1764766824.7076826,-12169.44,-19124.19,-4543.965,-15820.965,-46986.57,-44693.865,-37633.68,-13754.745
1764766824.7076826,-12166.11,-19124.055,-4544.865,-15815.115,-46984.545,-44693.28,-37627.29,-13749.795
1764766824.7076826,-12172.77,-19131.345,-4552.965,-15822.63,-46993.545,-44704.665,-37634.67,-13757.535
1764766824.7076826,-12176.01,-19135.215,-4557.735,-15831.81,-46998.45,-44706.51,-37636.515,-13760.415
1764766824.7076826,-12176.685,-19128.06,-4547.655,-15830.145,-47000.205,-44713.53,-37639.845,-13762.62
1764766824.7076826,-12174.57,-19124.46,-4545.45,-15828.75,-46999.08,-44716.14,-37640.205,-13761.63
1764766824.7076826,-12166.29,-19123.965,-4542.75,-15826.68,-46993.77,-44707.68,-37630.755,-13752.81
1764766824.7076826,-12164.265,-19124.01,-4542.48,-15832.575,-47001.87,-44709.345,-37627.245,-13750.605
1764766824.7076826,-12172.77,-19129.635,-4549.365,-15843.87,-47019.42,-44717.49,-37630.8,-13756.05
1764766824.7561865,-12176.37,-19137.69,-4559.22,-15856.29,-47024.235,-44725.455,-37634.58,-13759.74
1764766824.7561865,-12167.19,-19126.62,-4547.07,-15852.735,-47012.715,-44721.765,-37629.945,-13753.845
1764766824.7561865,-12164.985,-19123.65,-4542.705,-15853.86,-47015.145,-44720.73,-37627.605,-13752.765
1764766824.7561865,-12173.04,-19132.65,-4550.895,-15860.88,-47025.72,-44731.485,-37634.49,-13760.1
1764766824.7561865,-12173.625,-19134.405,-4554.09,-15868.89,-47033.145,-44734.095,-37633.815,-13760.145
1764766824.7561865,-12169.395,-19130.265,-4547.79,-15867.495,-47033.595,-44733.87,-37631.52,-13756.455
1764766824.7561865,-12173.985,-19135.62,-4554.495,-15879.555,-47043.27,-44742.69,-37635.84,-13760.37
1764766824.7561865,-12174.21,-19136.7,-4555.98,-15882.975,-47046.24,-44739.675,-37631.295,-13758.975
1764766824.7561865,-12166.605,-19128.645,-4546.62,-15875.145,-47038.905,-44734.185,-37623.195,-13750.38
1764766824.7561865,-12169.935,-19132.29,-4552.065,-15887.52,-47054.16,-44746.605,-37627.83,-13753.44
1764766824.7561865,-12162.375,-19126.395,-4547.115,-15889.95,-47061.045,-44741.295,-37617.615,-13745.34
1764766824.7561865,-12161.43,-19126.035,-4545.764999999999,-15891.39,-47066.58,-44746.47,-37618.695,-13745.43
1764766824.7561865,-12164.67,-19127.745,-4546.665,-15888.33,-47049.21,-44751.42,-37622.205,-13748.22
1764766824.7561865,-12167.685,-19130.67,-4549.095,-15894.63,-47055.195,-44754.255,-37623.465,-13750.02
1764766824.7561865,-12165.93,-19133.325,-4558.095,-15918.03,-47080.08,-44758.845,-37616.715,-13745.97
1764766824.7561865,-12165.795,-19129.545,-4549.23,-15908.625,-47068.605,-44765.865,-37625.085,-13748.535
1764766824.7561865,-12166.515,-19130.22,-4549.05,-15913.125,-47076.57,-44769.87,-37624.59,-13749.165
1764766824.7561865,-12169.755,-19134.99,-4553.865,-15923.52,-47089.665,-44777.025,-37624.905,-13751.235
1764766824.7561865,-12161.52,-19128.915,-4550.445,-15922.845,-47088.27,-44775.54,-37615.545,-13743.405
1764766824.7561865,-12170.7,-19136.97,-4553.865,-15932.07,-47102.49,-44788.41,-37623.87,-13752.9
1764766824.7561865,-12168.09,-19133.73,-4551.255,-15938.595,-47107.845,-44795.205,-37622.25,-13749.93
1764766824.7561865,-12157.245,-19122.84,-4540.77,-15931.215,-47103.3,-44795.52,-37613.97,-13739.805
1764766824.7561865,-12154.32,-19121.805,-4543.245,-15943.455,-47114.145,-44797.905,-37608.795,-13736.025
1764766824.7561865,-12161.745,-19129.365,-4553.865,-15961.23,-47127.96,-44811.945,-37615.32,-13742.865
1764766824.8012657,-12163.095,-19130.715,-4554.09,-15968.16,-47135.07,-44820.855,-37616.895,-13744.575
1764766824.8012657,-12160.89,-19130.13,-4554.855,-15970.86,-47139.975,-44828.73,-37615.275,-13743.855
1764766824.8012657,-12159.945,-19129.095,-4555.62,-15975.765,-47147.49,-44836.335,-37615.05,-13743.9
1764766824.8012657,-12158.415,-19127.61,-4557.42,-15985.62,-47152.305,-44840.655,-37612.575,-13741.65
1764766824.8012657,-12148.965,-19117.485,-4549.005,-15981.93,-47146.68,-44840.07,-37605.105,-13733.73
1764766824.8012657,-12147.255,-19116.765,-4550.445,-15989.445,-47156.76,-44847.09,-37602.81,-13732.2
1764766824.8012657,-12147.75,-19117.8,-4552.11,-15997.86,-47170.845,-44856.855,-37602.855,-13732.02
1764766824.8012657,-12147.345,-19118.205,-4554.855,-16006.23,-47170.755,-44862.48,-37602.72,-13731.21
1764766824.8012657,-12146.22,-19117.395,-4555.17,-16008.615,-47164.185,-44862.03,-37601.415,-13730.445
1764766824.8012657,-12147.165,-19118.295,-4555.215,-16009.92,-47170.215,-44867.205,-37601.64,-13730.94
1764766824.8012657,-12150.945,-19122.165,-4558.86,-16017.12,-47181.105,-44877.645,-37605.33,-13735.89
1764766824.8012657,-12144.42,-19116.09,-4554.764999999999,-16016.355,-47180.88,-44876.745,-37600.065,-13730.805
1764766824.8012657,-12144.105,-19116.495,-4555.44,-16018.425,-47185.245,-44879.67,-37597.995,-13730.58
1764766824.8012657,-12148.02,-19121.04,-4561.47,-16027.47,-47198.52,-44885.025,-37597.14,-13732.875
1764766824.8012657,-12140.595,-19113.12,-4555.889999999999,-16025.13,-47204.64,-44885.34,-37591.065,-13725.72
1764766824.8012657,-12144.42,-19118.52,-4564.08,-16037.28,-47207.655,-44897.445,-37599.615,-13730.58
1764766824.8012657,-12139.38,-19110.69,-4552.965,-16021.62,-47186.64,-44891.01,-37596.105,-13726.62
1764766824.8012657,-12135.015,-19110.105,-4559.04,-16036.29,-47208.15,-44892.585,-37585.17,-13720.77
1764766824.8012657,-12132.765,-19106.19,-4559.22,-16044.3,-47210.715,-44899.695,-37587.105,-13719.6
1764766824.8012657,-12132.54,-19103.445,-4550.49,-16027.605,-47194.065,-44901.225,-37590.57,-13720.68
1764766824.8012657,-12132.765,-19105.605,-4555.44,-16037.325,-47203.74,-44903.25,-37588.185,-13719.465
1764766824.8012657,-12135.87,-19105.83,-4552.92,-16034.265,-47206.755,-44913.105,-37594.935,-13723.92
1764766824.844733,-12142.935,-19113.03,-4562.639999999999,-16049.34,-47216.655,-44924.085,-37601.055,-13730.58
1764766824.8463228,-12134.43,-19102.905,-4555.17,-16048.035,-47214.72,-44923.05,-37594.8,-13723.38
1764766824.8463228,-12128.49,-19098.945,-4552.29,-16044.975,-47213.19,-44918.19,-37586.385,-13717.08
1764766824.8463228,-12130.92,-19099.755,-4549.23,-16037.145,-47208.33,-44922.24,-37590.39,-13720.095
1764766824.8463228,-12131.865,-19101.51,-4554.36,-16048.53,-47218.005,-44926.065,-37590.075,-13719.96
1764766824.8463228,-12137.04,-19106.955,-4561.335,-16057.485,-47228.22,-44931.465,-37593.72,-13725.36
1764766824.8463228,-12130.56,-19100.475,-4554.675,-16051.995,-47225.025,-44926.425,-37588.23,-13719.06
1764766824.8463228,-12129.75,-19098.315,-4553.55,-16052.085,-47229.345,-44928.99,-37589.805,-13718.565
1764766824.8463228,-12131.28,-19098.135,-4556.205,-16056.765,-47245.905,-44934.3,-37591.785,-13719.285
1764766824.8463228,-12141.495,-19111.59,-4569.165,-16064.64,-47239.065,-44940.42,-37600.515,-13729.905
1764766824.8463228,-12145.68,-19113.165,-4568.804999999999,-16056.855,-47215.755,-44935.695,-37604.88,-13734.36
1764766824.8463228,-12138.345,-19104.12,-4560.435,-16051.365,-47217.96,-44928.765,-37598.04,-13727.745
1764766824.8463228,-12129.165,-19095.75,-4552.74,-16047.855,-47220.705,-44920.08,-37586.655,-13717.8
1764766824.8463228,-12137.895,-19107.675,-4571.28,-16075.125,-47243.925,-44926.335,-37589.715,-13724.1
1764766824.8463228,-12137.13,-19109.79,-4573.665,-16063.74,-47230.155,-44920.845,-37586.34,-13721.265
1764766824.8463228,-12132.405,-19095.795,-4551.66,-16039.8,-47217.915,-44925.12,-37594.305,-13722.93
1764766824.8463228,-12135.42,-19094.895,-4548.645,-16042.545,-47220.525,-44928.765,-37601.82,-13728.015
1764766824.8463228,-12135.915,-19098.765,-4557.15,-16052.31,-47222.145,-44924.085,-37596.375,-13725.63
1764766824.8463228,-12141.36,-19104.255,-4560.48,-16049.52,-47218.815,-44928.045,-37604.97,-13733.145
1764766824.8463228,-12137.895,-19100.61,-4553.685,-16042.545,-47215.89,-44921.52,-37600.92,-13729.815
1764766824.848217,-12144.465,-19108.215,-4564.755,-16058.88,-47229.93,-44928.0,-37604.79,-13734.405
1764766824.848217,-12143.745,-19107.27,-4564.62,-16059.015,-47226.78,-44928.36,-37606.32,-13734.27
1764766824.848217,-12135.195,-19096.92,-4552.83,-16041.87,-47208.915,-44915.805,-37598.895,-13726.485
1764766824.848217,-12136.32,-19100.52,-4556.115,-16047.405,-47214.315,-44917.515,-37599.885,-13728.375
1764766824.8937783,-12142.89,-19106.1,-4561.29,-16055.145,-47222.37,-44927.415,-37608.795,-13735.665
1764766824.8937783,-12144.105,-19108.35,-4567.275,-16066.305,-47229.57,-44929.08,-37608.345,-13736.565
1764766824.8937783,-12144.15,-19108.08,-4563.945,-16062.435,-47227.14,-44925.84,-37604.115,-13735.665
1764766824.8944426,-12144.375,-19108.035,-4562.955,-16063.47,-47226.195,-44924.31,-37604.61,-13736.34
1764766824.8944426,-12143.25,-19105.38,-4558.679999999999,-16060.59,-47219.805,-44922.51,-37607.355,-13736.97
1764766824.8944426,-12136.77,-19099.575,-4553.955,-16054.875,-47215.26,-44919.045,-37600.92,-13730.76
1764766824.8944426,-12135.6,-19097.19,-4551.84,-16055.1,-47214.945,-44919.495,-37598.985,-13729.23
1764766824.8944426,-12131.865,-19094.04,-4550.31,-16057.395,-47214.63,-44916.84,-37596.06,-13726.305
1764766824.8944426,-12131.82,-19094.265,-4550.76,-16059.375,-47214.495,-44916.795,-37595.655,-13726.62
1764766824.8944426,-12141.675,-19104.03,-4561.065,-16074.855,-47228.625,-44927.28,-37602.945,-13735.845
1764766824.8944426,-12136.77,-19099.665,-4557.51,-16073.73,-47224.62,-44923.095,-37597.185,-13730.715
1764766824.8944426,-12141.945,-19103.535,-4560.03,-16077.42,-47225.385,-44929.35,-37602.54,-13736.25
1764766824.8947842,-12141.855,-19104.255,-4560.345,-16080.39,-47228.355,-44930.835,-37602.63,-13736.43
1764766824.8947842,-12136.545,-19099.395,-4554.63,-16077.78,-47231.415,-44927.37,-37597.14,-13731.21
1764766824.8947842,-12135.15,-19099.755,-4556.655,-16083.63,-47232.855,-44925.615,-37593.945,-13729.455
1764766824.8947842,-12133.89,-19101.015,-4560.075,-16088.805,-47238.48,-44929.125,-37592.64,-13728.24
1764766824.8947842,-12138.885,-19108.215,-4570.92,-16107.345,-47255.58,-44932.815,-37592.145,-13731.615
1764766824.8947842,-12132.855,-19098.99,-4562.28,-16094.655,-47228.94,-44920.935,-37588.32,-13727.34
1764766824.8947842,-12131.865,-19097.055,-4550.804999999999,-16066.98,-47200.14,-44914.545,-37591.65,-13727.115
1764766824.8947842,-12132.855,-19101.6,-4551.03,-16066.485,-47207.07,-44922.87,-37596.51,-13728.735
1764766824.8947842,-12138.795,-19107.99,-4564.125,-16080.48,-47221.83,-44930.025,-37600.2,-13733.82
1764766824.8947842,-12142.08,-19109.79,-4563.99,-16086.42,-47233.755,-44934.165,-37602.54,-13736.52
1764766824.8947842,-12136.815,-19098.045,-4548.014999999999,-16072.965,-47225.43,-44928.315,-37597.68,-13731.705
1764766824.8947842,-12136.5,-19100.79,-4552.11,-16071.3,-47226.195,-44928.18,-37598.22,-13732.29
1764766824.9392514,-12144.555,-19110.195,-4561.335,-16081.47,-47241.0,-44933.94,-37601.73,-13738.995
1764766824.9392514,-12142.44,-19110.42,-4560.165,-16083.405,-47254.995,-44931.015,-37595.07,-13735.98
1764766824.9392514,-12147.075,-19119.015,-4575.33,-16099.515,-47257.47,-44934.435,-37598.895,-13740.03
1764766824.9392514,-12143.655,-19111.905,-4557.599999999999,-16067.07,-47226.24,-44929.17,-37603.485,-13740.48
1764766824.9397738,-12141.9,-19111.14,-4555.125,-16064.73,-47231.1,-44919.855,-37596.735,-13736.34
1764766824.9397738,-12140.595,-19108.71,-4549.05,-16055.145,-47226.555,-44922.69,-37601.055,-13738.095
1764766824.9397738,-12141.045,-19108.08,-4544.19,-16044.345,-47224.665,-44925.57,-37602.495,-13739.22
1764766824.9397738,-12147.255,-19117.08,-4551.389999999999,-16045.245,-47230.02,-44922.555,-37603.485,-13741.605
1764766824.9397738,-12145.005,-19118.52,-4553.19,-16043.22,-47231.325,-44914.77,-37599.03,-13737.69
1764766824.9397738,-12149.1,-19118.88,-4550.804999999999,-16038.72,-47233.305,-44919.99,-37606.005,-13744.035
1764766824.9397738,-12140.64,-19107.0,-4536.945,-16026.66,-47229.345,-44912.88,-37601.505,-13738.005
1764766824.9397738,-12144.825,-19111.95,-4538.295,-16020.72,-47228.04,-44911.98,-37606.14,-13741.515
1764766824.9397738,-12147.66,-19116.405,-4540.995,-16018.515,-47231.055,-44909.865,-37606.095,-13742.325
1764766824.9397738,-12145.59,-19114.425,-4536.585,-16010.685,-47228.445,-44903.88,-37603.755,-13740.84
1764766824.9397738,-12139.605,-19107.945,-4527.9,-15999.075,-47222.46,-44894.655,-37596.96,-13734.0
1764766824.9397738,-12139.065,-19107.27,-4525.47,-15992.28,-47222.595,-44891.46,-37597.14,-13733.46
1764766824.9397738,-12139.65,-19107.315,-4524.525,-15984.315,-47220.93,-44890.56,-37597.68,-13733.64
1764766824.9397738,-12141.405,-19111.32,-4524.255,-15978.555,-47220.705,-44888.985,-37598.49,-13735.845
1764766824.9397738,-12144.42,-19111.68,-4521.51,-15974.955,-47223.315,-44888.67,-37601.865,-13738.59
1764766824.9397738,-12151.89,-19119.375,-4526.415,-15976.17,-47230.245,-44893.44,-37609.38,-13746.51
1764766824.9397738,-12145.095,-19112.13,-4518.045,-15962.715,-47222.145,-44883.225,-37602.945,-13738.545
1764766824.9397738,-12142.665,-19109.79,-4514.13,-15953.22,-47218.59,-44877.6,-37602.045,-13736.61
1764766824.9397738,-12147.255,-19114.02,-4516.065,-15951.24,-47221.335,-44878.95,-37606.59,-13741.83
1764766824.9397738,-12137.94,-19104.345,-4504.995,-15933.78,-47209.995,-44865.855,-37598.13,-13732.965
1764766824.9887817,-12137.445,-19103.895,-4502.025,-15925.14,-47208.285,-44862.525,-37597.455,-13732.605
1764766824.9887817,-12148.74,-19115.325,-4510.44,-15928.425,-47217.33,-44870.94,-37608.255,-13743.945
1764766824.9887817,-12149.415,-19115.37,-4508.639999999999,-15922.215,-47215.98,-44867.43,-37607.265,-13743.675
1764766824.9887817,-12148.2,-19112.625,-4504.905,-15912.765,-47212.335,-44861.985,-37606.095,-13742.82
1764766824.9887817,-12146.175,-19110.6,-4500.179999999999,-15902.505,-47208.24,-44856.855,-37605.015,-13741.47
1764766824.9887817,-12139.65,-19104.93,-4492.98,-15892.02,-47201.22,-44848.62,-37599.75,-13735.845
1764766824.9887817,-12142.62,-19107.225,-4494.24,-15890.715,-47204.505,-44849.115,-37601.91,-13738.41
1764766824.9887817,-12150.99,-19116.045,-4501.845,-15894.9,-47218.5,-44856.27,-37610.505,-13746.87
1764766824.9887817,-12145.095,-19109.79,-4492.98,-15883.605,-47222.91,-44849.43,-37606.275,-13741.515
1764766824.9887817,-12145.32,-19112.13,-4496.13,-15882.48,-47213.505,-44844.615,-37603.89,-13740.66
1764766824.9887817,-12149.595,-19115.55,-4496.985,-15873.525,-47190.645,-44842.725,-37611.45,-13746.645
1764766824.9887817,-12157.605,-19120.59,-4496.804999999999,-15866.28,-47195.73,-44849.07,-37619.19,-13754.79
1764766824.9887817,-12166.92,-19129.365,-4504.77,-15876.225,-47213.37,-44851.095,-37622.295,-13761.18
1764766824.9887817,-12162.195,-19125.72,-4501.845,-15865.515,-47206.845,-44845.155,-37620.63,-13758.795
1764766824.9887817,-12161.88,-19124.73,-4497.57,-15857.91,-47204.19,-44844.48,-37622.565,-13759.605
1764766824.9887817,-12170.52,-19132.65,-4505.264999999999,-15867.09,-47214.36,-44849.565,-37629.675,-13767.3
1764766824.9887817,-12169.44,-19131.615,-4503.33,-15858.315,-47210.58,-44847.09,-37630.845,-13767.39
1764766824.9887817,-12162.69,-19124.73,-4495.86,-15849.045,-47203.83,-44837.055,-37624.185,-13761.855
1764766824.9887817,-12162.78,-19125.855,-4497.03,-15850.35,-47209.77,-44837.865,-37623.87,-13761.18
1764766824.9887817,-12167.82,-19133.37,-4503.105,-15844.095,-47207.835,-44838.72,-37628.37,-13766.265
1764766824.9887817,-12166.695,-19132.875,-4501.62,-15840.945,-47211.795,-44836.965,-37626.03,-13764.78
1764766824.9887817,-12174.57,-19134.99,-4499.325,-15845.805,-47222.955,-44846.145,-37634.805,-13774.815
1764766825.0358486,-12172.815,-19130.085,-4492.53,-15837.12,-47209.635,-44840.475,-37633.68,-13774.14
1764766825.0358486,-12179.7,-19139.535,-4503.465,-15840.315,-47206.53,-44837.28,-37638.045,-13779.765
1764766825.0358486,-12174.57,-19131.615,-4490.73,-15821.955,-47198.115,-44836.335,-37639.08,-13776.615
1764766825.0358486,-12183.255,-19139.985,-4498.83,-15830.055,-47209.005,-44842.68,-37647.09,-13785.39
1764766825.0358486,-12183.39,-19142.19,-4502.07,-15834.51,-47215.755,-44841.555,-37647.63,-13786.38
1764766825.0358486,-12174.75,-19135.215,-4497.255,-15830.325,-47213.19,-44832.375,-37639.125,-13777.38
1764766825.0358486,-12173.445,-19134.18,-4495.139999999999,-15826.905,-47210.13,-44830.215,-37637.64,-13776.93
1764766825.0358486,-12173.265,-19133.145,-4491.855,-15818.85,-47203.83,-44827.56,-37638.9,-13778.01
1764766825.0358486,-12175.02,-19131.705,-4487.985,-15816.555,-47207.43,-44830.845,-37643.67,-13781.25
1764766825.0358486,-12181.545,-19139.85,-4498.38,-15831.36,-47223.585,-44831.88,-37643.265,-13784.94
1764766825.0358486,-12181.905,-19139.58,-4494.645,-15819.255,-47215.125,-44830.89,-37644.84,-13785.93
1764766825.0358486,-12182.04,-19136.115,-4486.185,-15802.065,-47197.89,-44833.68,-37652.94,-13788.9
1764766825.0358486,-12184.425,-19137.105,-4487.31,-15809.22,-47203.605,-44833.815,-37655.46,-13791.375
1764766825.0358486,-12186.495,-19141.29,-4491.855,-15814.755,-47221.74,-44837.55,-37655.235,-13791.78
1764766825.0358486,-12194.19,-19150.02,-4500.27,-15825.105,-47234.205,-44844.93,-37660.545,-13798.17
1764766825.0358486,-12191.04,-19145.07,-4494.24,-15814.35,-47207.655,-44836.11,-37659.915,-13796.415
1764766825.0358486,-12192.435,-19143.99,-4489.605,-15806.475,-47200.005,-44833.185,-37662.12,-13798.575
1764766825.0358486,-12195.81,-19148.265,-4494.105,-15814.305,-47213.1,-44837.82,-37664.145,-13801.095
1764766825.0358486,-12193.965,-19147.77,-4493.07,-15810.57,-47210.895,-44835.075,-37661.04,-13798.395
1764766825.0358486,-12203.955,-19158.255,-4503.33,-15821.055,-47220.57,-44842.725,-37670.265,-13808.115
1764766825.0358486,-12201.12,-19149.255,-4492.26,-15817.68,-47222.415,-44845.245,-37672.47,-13808.655
1764766825.0358486,-12198.51,-19146.015,-4488.12,-15814.845,-47222.145,-44842.995,-37670.175,-13806.99
1764766825.0368776,-12196.665,-19145.745,-4487.04,-15813.855,-47220.525,-44836.92,-37666.44,-13804.245
1764766825.0368776,-12191.895,-19140.3,-4479.705,-15806.43,-47210.76,-44832.24,-37664.64,-13799.925
1764766825.081682,-12196.935,-19145.7,-4483.215,-15810.39,-47215.305,-44836.605,-37670.355,-13804.965
1764766825.081682,-12198.465,-19147.5,-4484.429999999999,-15813.63,-47218.59,-44836.695,-37672.065,-13807.665
1764766825.081682,-12196.665,-19145.925,-4480.605,-15810.795,-47216.43,-44834.58,-37670.805,-13806.09
1764766825.081682,-12195.765,-19144.305,-4477.05,-15809.265,-47214.405,-44831.43,-37669.095,-13805.145
1764766825.081682,-12193.965,-19141.29,-4472.55,-15806.475,-47213.865,-44829.045,-37666.62,-13803.705
1764766825.081682,-12205.755,-19151.64,-4480.785,-15815.52,-47222.82,-44837.235,-37677.15,-13815.36
1764766825.081682,-12206.115,-19151.955,-4481.685,-15818.94,-47227.68,-44837.73,-37677.645,-13815.225
1764766825.081682,-12201.75,-19148.535,-4479.255,-15820.65,-47228.49,-44834.445,-37673.955,-13810.725
1764766825.0831585,-12209.715,-19153.8,-4478.804999999999,-15816.735,-47232.405,-44838.315,-37682.595,-13820.265
1764766825.0831585,-12210.39,-19155.87,-4482.855,-15823.26,-47238.57,-44838.54,-37681.29,-13820.76
1764766825.0831585,-12208.455,-19152.135,-4475.655,-15813.54,-47220.39,-44837.235,-37684.755,-13820.805
1764766825.0831585,-12206.205,-19149.57,-4471.245,-15808.455,-47207.565,-44825.04,-37681.02,-13818.33
1764766825.0831585,-12208.77,-19152.495,-4474.62,-15817.32,-47222.415,-44832.96,-37685.43,-13821.255
1764766825.0831585,-12203.64,-19145.115,-4464.09,-15806.79,-47216.97,-44827.515,-37682.415,-13817.565
1764766825.0831585,-12207.42,-19149.345,-4466.07,-15807.42,-47218.005,-44825.355,-37681.605,-13820.13
1764766825.0831585,-12216.42,-19157.58,-4473.675,-15815.79,-47227.23,-44831.34,-37688.445,-13827.69
1764766825.0831585,-12205.44,-19144.575,-4461.57,-15808.59,-47222.73,-44822.745,-37682.505,-13819.095
1764766825.0831585,-12202.965,-19144.26,-4459.365,-15803.37,-47217.87,-44816.13,-37679.04,-13816.665
1764766825.0831585,-12209.4,-19149.03,-4461.165,-15812.64,-47231.955,-44825.985,-37687.815,-13823.64
1764766825.0831585,-12213.18,-19153.08,-4465.17,-15809.22,-47223.315,-44827.515,-37691.01,-13827.195
1764766825.0831585,-12208.545,-19142.64,-4448.115,-15782.13,-47196.72,-44818.83,-37691.505,-13824.81
1764766825.0846658,-12210.03,-19143.585,-4449.915,-15787.17,-47205.855,-44819.01,-37693.53,-13826.655
1764766825.0846658,-12205.485,-19140.795,-4448.565,-15786.225,-47194.785,-44809.695,-37687.545,-13822.515
1764766825.0846658,-12211.38,-19146.33,-4451.58,-15789.375,-47197.575,-44811.945,-37692.765,-13828.32
1764766825.1258852,-12208.365,-19142.865,-4448.7,-15787.305,-47202.57,-44807.445,-37688.4,-13825.125
1764766825.1258852,-12211.245,-19146.15,-4451.264999999999,-15789.15,-47203.065,-44809.65,-37692.495,-13828.815
1764766825.1258852,-12218.4,-19151.37,-4454.145,-15791.445,-47206.305,-44814.555,-37698.57,-13835.745
1764766825.1258852,-12221.595,-19156.05,-4462.56,-15803.1,-47215.08,-44815.68,-37699.695,-13838.04
1764766825.1272247,-12219.165,-19155.015,-4463.73,-15807.51,-47227.32,-44819.415,-37699.74,-13835.43
1764766825.1272247,-12214.935,-19150.92,-4454.55,-15790.185,-47210.31,-44806.995,-37693.395,-13830.975
1764766825.1272247,-12216.24,-19149.525,-4447.98,-15781.32,-47198.97,-44807.895,-37699.56,-13834.98
1764766825.1272247,-12221.28,-19153.215,-4451.31,-15784.515,-47204.01,-44814.015,-37709.19,-13841.82
1764766825.1272247,-12216.24,-19148.49,-4445.415,-15776.145,-47198.205,-44807.175,-37703.295,-13836.195
1764766825.1272247,-12210.75,-19144.035,-4441.005,-15772.86,-47196.72,-44802.0,-37698.615,-13830.705
1764766825.1272247,-12212.37,-19145.52,-4443.12,-15775.47,-47199.645,-44800.965,-37698.39,-13832.01
1764766825.1272247,-12220.065,-19153.485,-4450.77,-15781.95,-47206.665,-44806.455,-37704.015,-13839.165
1764766825.1272247,-12211.56,-19145.745,-4443.795,-15777.27,-47204.64,-44798.085,-37693.35,-13829.4
1764766825.1272247,-12212.46,-19145.025,-4439.745,-15773.76,-47201.265,-44801.55,-37699.965,-13833.045
1764766825.1272247,-12210.705,-19146.6,-4444.56,-15780.645,-47199.195,-44788.77,-37692.36,-13828.23
1764766825.1272247,-12216.87,-19150.47,-4447.17,-15774.165,-47195.505,-44797.635,-37702.71,-13836.87
1764766825.1272247,-12210.525,-19140.84,-4432.815,-15754.86,-47186.28,-44795.7,-37702.755,-13832.955
1764766825.1272247,-12212.37,-19145.7,-4438.575,-15763.545,-47191.545,-44792.055,-37699.155,-13832.82
1764766825.1272247,-12220.335,-19154.79,-4445.865,-15764.58,-47191.545,-44795.295,-37705.185,-13839.39
1764766825.1272247,-12215.34,-19153.53,-4443.705,-15763.545,-47190.555,-44785.44,-37696.32,-13833.27
1764766825.1272247,-12211.515,-19139.58,-4429.215,-15756.03,-47187.855,-44786.88,-37699.605,-13833.0
1764766825.1272247,-12213.765,-19141.515,-4429.755,-15755.58,-47190.15,-44788.455,-37703.115,-13835.925
1764766825.172974,-12215.79,-19146.555,-4435.695,-15761.295,-47194.605,-44786.25,-37701.18,-13835.835
1764766825.172974,-12224.655,-19155.33,-4443.615,-15762.51,-47201.22,-44795.115,-37710.63,-13845.015
1764766825.172974,-12225.555,-19155.015,-4443.795,-15763.815,-47205.315,-44794.665,-37710.945,-13846.14
1764766825.172974,-12223.26,-19153.35,-4438.98,-15755.58,-47204.595,-44792.91,-37708.92,-13844.385
1764766825.172974,-12215.025,-19149.075,-4427.28,-15742.305,-47195.1,-44783.28,-37703.025,-13836.33
1764766825.172974,-12222.135,-19153.98,-4432.77,-15748.335,-47194.11,-44787.015,-37710.315,-13844.655
1764766825.172974,-12220.155,-19151.64,-4431.599999999999,-15744.465,-47179.35,-44777.97,-37706.355,-13842.45
1764766825.172974,-12223.575,-19155.195,-4435.514999999999,-15747.255,-47184.12,-44780.805,-37710.675,-13846.455
1764766825.172974,-12219.975,-19151.37,-4430.385,-15742.44,-47187.945,-44778.69,-37706.49,-13842.72
1764766825.172974,-12229.965,-19162.08,-4439.295,-15752.205,-47199.69,-44783.82,-37710.045,-13850.145
1764766825.172974,-12222.36,-19155.78,-4432.995,-15745.725,-47193.795,-44775.18,-37704.42,-13843.755
1764766825.172974,-12224.43,-19158.705,-4436.73,-15744.6,-47192.805,-44778.915,-37711.89,-13847.94
1764766825.172974,-12225.69,-19161.855,-4438.17,-15737.895,-47188.62,-44773.785,-37710.405,-13847.985
1764766825.172974,-12219.255,-19150.155,-4421.79,-15730.02,-47186.19,-44765.415,-37702.305,-13841.64
1764766825.172974,-12223.125,-19150.11,-4419.99,-15728.13,-47182.86,-44769.645,-37707.795,-13845.465
1764766825.172974,-12219.705,-19146.87,-4416.255,-15719.22,-47174.625,-44765.73,-37707.12,-13842.855
1764766825.172974,-12226.365,-19156.32,-4425.705,-15724.62,-47182.14,-44768.52,-37711.17,-13848.345
1764766825.172974,-12227.175,-19157.535,-4425.615,-15726.6,-47189.115,-44768.475,-37710.63,-13849.065
1764766825.172974,-12221.595,-19153.125,-4423.455,-15730.02,-47187.225,-44761.05,-37704.87,-13843.53
1764766825.172974,-12230.37,-19163.385,-4433.49,-15735.69,-47191.59,-44766.09,-37711.53,-13851.315
1764766825.172974,-12224.34,-19157.13,-4429.53,-15732.54,-47191.68,-44761.77,-37707.885,-13845.735
1764766825.172974,-12230.865,-19161.36,-4426.74,-15717.015,-47187.27,-44769.735,-37718.73,-13854.51
1764766825.172974,-12231.585,-19161.27,-4424.264999999999,-15713.415,-47177.46,-44765.28,-37718.55,-13854.015
1764766825.172974,-12226.23,-19157.535,-4420.62,-15707.115,-47161.395,-44755.065,-37713.015,-13848.705
1764766825.2207196,-12230.325,-19162.395,-4425.345,-15712.56,-47172.69,-44758.44,-37717.11,-13852.98
1764766825.2207196,-12231.315,-19165.005,-4428.63,-15716.97,-47177.955,-44758.62,-37717.92,-13853.97
1764766825.2207196,-12224.115,-19157.13,-4418.19,-15703.83,-47166.345,-44747.955,-37710.045,-13846.59
1764766825.2207196,-12221.73,-19153.89,-4414.77,-15700.545,-47164.635,-44744.04,-37706.49,-13844.205
1764766825.2207196,-12224.115,-19157.31,-4419.54,-15707.115,-47169.495,-44743.23,-37706.895,-13845.69
1764766825.2207196,-12231.18,-19165.545,-4426.695,-15708.015,-47175.075,-44751.915,-37715.445,-13853.52
1764766825.2207196,-12221.955,-19155.42,-4415.94,-15697.08,-47172.915,-44747.19,-37709.82,-13845.645
1764766825.2207196,-12222.54,-19157.355,-4417.29,-15698.16,-47165.445,-44741.475,-37707.93,-13845.735
1764766825.2207196,-12231.27,-19167.345,-4426.83,-15702.03,-47159.55,-44742.33,-37714.77,-13854.195
1764766825.2207196,-12232.08,-19166.985,-4426.605,-15699.87,-47162.34,-44745.03,-37719.18,-13856.49
1764766825.2212284,-12227.715,-19162.395,-4422.87,-15696.495,-47162.475,-44740.485,-37714.5,-13851.585
1764766825.2212284,-12222.405,-19158.57,-4420.44,-15695.145,-47159.19,-44732.655,-37706.94,-13844.97
1764766825.2212284,-12227.265,-19161.99,-4421.52,-15691.995,-47157.39,-44736.255,-37713.33,-13850.595
1764766825.2212284,-12222.405,-19156.77,-4415.355,-15683.895,-47149.155,-44727.255,-37706.445,-13844.655
1764766825.2222457,-12222.315,-19161.675,-4422.375,-15689.43,-47151.99,-44723.97,-37703.61,-13842.81
1764766825.2222457,-12230.82,-19169.73,-4428.45,-15694.74,-47160.045,-44733.735,-37712.97,-13851.945
1764766825.2222457,-12220.65,-19155.15,-4415.04,-15690.78,-47160.09,-44729.19,-37706.04,-13844.025
1764766825.2222457,-12225.42,-19162.44,-4420.8,-15689.295,-47159.505,-44728.29,-37706.31,-13848.165
1764766825.2222457,-12226.14,-19162.89,-4416.705,-15679.62,-47150.01,-44730.72,-37710.72,-13850.19
1764766825.2222457,-12225.42,-19162.17,-4416.93,-15682.545,-47152.755,-44729.415,-37710.63,-13849.245
1764766825.2222457,-12216.915,-19156.815,-4414.139999999999,-15679.8,-47152.215,-44719.02,-37701.405,-13840.02
1764766825.2222457,-12219.165,-19160.28,-4416.93,-15684.255,-47154.825,-44719.47,-37701.63,-13841.91
1764766825.2222457,-12212.82,-19151.46,-4405.724999999999,-15666.3,-47133.405,-44713.71,-37700.37,-13838.04
1764766825.2222457,-12211.29,-19149.93,-4404.555,-15663.285,-47132.775,-44710.155,-37698.84,-13836.735
1764766825.2682903,-12212.775,-19154.07,-4411.44,-15673.455,-47141.415,-44710.245,-37695.6,-13836.24
1764766825.2682903,-12225.06,-19165.905,-4421.474999999999,-15681.33,-47151.99,-44723.925,-37706.58,-13847.715
1764766825.2682903,-12220.785,-19160.055,-4415.355,-15673.995,-47153.205,-44720.64,-37703.925,-13844.115
1764766825.2682903,-12222.54,-19162.08,-4417.695,-15679.44,-47162.475,-44728.785,-37708.11,-13847.265
1764766825.2688062,-12226.095,-19167.435,-4425.3,-15689.925,-47157.93,-44724.69,-37707.345,-13849.245
1764766825.2688062,-12228.975,-19171.845,-4430.79,-15692.13,-47154.015,-44721.315,-37709.415,-13851.495
1764766825.2688062,-12225.69,-19166.85,-4423.365,-15680.79,-47150.73,-44728.47,-37712.07,-13851.18
1764766825.2688062,-12224.205,-19163.655,-4422.195,-15679.89,-47150.865,-44726.445,-37710.765,-13849.605
1764766825.2688062,-12219.12,-19159.29,-4419.0,-15676.38,-47149.83,-44719.92,-37703.43,-13842.405
1764766825.2688062,-12224.97,-19171.98,-4429.845,-15692.13,-47167.38,-44724.78,-37703.25,-13845.87
1764766825.2688062,-12217.5,-19161.99,-4419.09,-15682.455,-47167.605,-44724.105,-37698.075,-13839.885
1764766825.2688062,-12220.695,-19163.475,-4418.82,-15675.48,-47154.645,-44726.31,-37701.855,-13843.53
1764766825.2688062,-12225.915,-19168.515,-4422.42,-15675.39,-47146.14,-44727.795,-37707.3,-13850.145
1764766825.2688062,-12220.785,-19162.935,-4418.28,-15674.085,-47147.85,-44723.52,-37702.035,-13844.79
1764766825.2688062,-12223.8,-19168.245,-4426.92,-15688.35,-47164.005,-44728.245,-37701.0,-13846.59
1764766825.2688062,-12217.14,-19163.07,-4421.79,-15686.19,-47162.295,-44723.43,-37695.69,-13840.38
1764766825.2688062,-12214.485,-19158.975,-4417.83,-15684.615,-47161.935,-44725.23,-37696.275,-13838.985
1764766825.2688062,-12217.725,-19163.61,-4422.014999999999,-15687.45,-47164.545,-44727.705,-37697.265,-13840.965
1764766825.2688062,-12223.935,-19169.865,-4425.66,-15682.365,-47162.7,-44733.105,-37702.845,-13846.905
1764766825.2688062,-12222.18,-19168.335,-4421.745,-15679.665,-47157.795,-44732.25,-37703.88,-13845.87
1764766825.2688062,-12213.585,-19162.89,-4417.155,-15675.345,-47155.095,-44724.465,-37693.89,-13836.645
1764766825.2688062,-12214.53,-19164.195,-4421.655,-15684.165,-47173.455,-44731.395,-37694.385,-13837.005
1764766825.3157923,-12223.35,-19171.62,-4428.27,-15696.045,-47186.505,-44742.375,-37701.045,-13844.295
1764766825.3157923,-12227.22,-19167.75,-4420.17,-15685.83,-47166.615,-44743.86,-37708.335,-13849.335
1764766825.3157923,-12226.59,-19169.505,-4420.755,-15682.14,-47163.24,-44740.575,-37707.615,-13848.795
1764766825.3157923,-12226.365,-19171.305,-4425.255,-15688.035,-47173.545,-44741.835,-37705.23,-13847.535
1764766825.3157923,-12225.6,-19170.63,-4425.974999999999,-15690.285,-47176.785,-44742.465,-37705.545,-13847.175
1764766825.316821,-12222.945,-19169.685,-4428.764999999999,-15698.295,-47186.82,-44741.61,-37702.305,-13844.88
1764766825.316821,-12220.83,-19169.235,-4429.26,-15695.1,-47185.605,-44738.145,-37696.14,-13841.325
1764766825.316821,-12213.225,-19158.345,-4411.035,-15666.435,-47162.475,-44732.07,-37693.53,-13836.105
1764766825.316821,-12214.53,-19160.235,-4416.389999999999,-15681.42,-47174.445,-44731.845,-37692.765,-13836.69
1764766825.316821,-12227.445,-19175.13,-4432.185,-15694.02,-47179.845,-44736.705,-37701.27,-13848.66
1764766825.316821,-12221.37,-19165.455,-4415.445,-15666.03,-47161.89,-44733.915,-37701.0,-13844.115
1764766825.316821,-12221.28,-19166.58,-4415.58,-15663.33,-47163.96,-44733.915,-37699.785,-13842.315
1764766825.3173275,-12227.085,-19174.635,-4427.415,-15678.495,-47177.325,-44738.73,-37703.205,-13848.12
1764766825.3173275,-12223.845,-19166.13,-4418.73,-15675.12,-47177.775,-44739.63,-37706.175,-13850.145
1764766825.3173275,-12220.29,-19164.465,-4417.11,-15673.365,-47176.785,-44734.32,-37701.045,-13845.87
1764766825.3173275,-12226.14,-19171.215,-4419.54,-15673.725,-47187.315,-44738.82,-37707.03,-13850.73
1764766825.3173275,-12219.39,-19164.96,-4411.889999999999,-15660.27,-47175.84,-44732.745,-37701.495,-13845.015
1764766825.3173275,-12217.365,-19163.07,-4412.565,-15660.315,-47162.79,-44723.835,-37697.355,-13842.0
1764766825.3173275,-12217.14,-19162.71,-4410.675,-15655.5,-47158.695,-44721.72,-37697.58,-13843.08
1764766825.3173275,-12220.155,-19164.735,-4410.45,-15650.685,-47163.33,-44725.5,-37700.64,-13847.13
1764766825.3173275,-12219.705,-19164.24,-4410.405,-15655.365,-47168.955,-44721.9,-37699.425,-13846.59
1764766825.3173275,-12222.09,-19165.68,-4411.395,-15652.44,-47166.12,-44720.73,-37701.09,-13847.805
1764766825.3173275,-12222.405,-19166.265,-4410.855,-15646.86,-47165.94,-44722.665,-37702.71,-13848.66
1764766825.3173275,-12226.32,-19172.07,-4417.29,-15657.21,-47185.56,-44727.93,-37705.95,-13852.305
1764766825.359829,-12221.55,-19166.4,-4410.09,-15653.43,-47187.9,-44722.215,-37700.685,-13847.67
1764766825.359829,-12230.46,-19174.59,-4416.255,-15649.83,-47169.54,-44725.815,-37711.8,-13857.84
1764766825.359829,-12227.985,-19170.72,-4411.395,-15641.055,-47155.77,-44719.155,-37712.7,-13856.22
1764766825.359829,-12224.7,-19169.28,-4408.74,-15640.425,-47163.51,-44715.735,-37707.57,-13852.845
1764766825.359829,-12228.84,-19175.04,-4415.4,-15649.155,-47173.095,-44716.59,-37706.355,-13855.455
1764766825.359829,-12239.145,-19183.275,-4420.98,-15653.43,-47179.035,-44727.3,-37720.35,-13866.84
1764766825.360397,-12236.895,-19179.495,-4415.805,-15645.735,-47172.555,-44724.195,-37719.495,-13865.985
1764766825.360397,-12230.1,-19171.665,-4407.165,-15634.845,-47162.295,-44715.87,-37712.97,-13859.73
1764766825.361405,-12235.095,-19177.83,-4412.835,-15642.0,-47169.63,-44720.145,-37716.795,-13864.365
1764766825.361405,-12232.44,-19174.68,-4411.755,-15642.09,-47167.245,-44714.25,-37713.87,-13861.08
1764766825.361405,-12235.185,-19176.885,-4414.995,-15646.095,-47171.88,-44717.625,-37717.875,-13864.365
1764766825.361405,-12230.01,-19177.74,-4412.16,-15647.355,-47175.255,-44711.19,-37711.53,-13858.56
1764766825.361405,-12234.24,-19179.765,-4410.764999999999,-15640.2,-47167.02,-44712.315,-37717.83,-13864.365
1764766825.361405,-12226.005,-19166.67,-4393.125,-15617.925,-47149.74,-44705.34,-37713.06,-13857.57
1764766825.361908,-12223.35,-19165.95,-4396.455,-15627.195,-47158.155,-44700.165,-37706.085,-13854.015
1764766825.361908,-12226.23,-19170.135,-4403.34,-15639.39,-47170.665,-44701.02,-37706.49,-13855.95
1764766825.361908,-12229.83,-19175.67,-4412.745,-15648.795,-47174.13,-44700.48,-37709.1,-13857.885
1764766825.361908,-12223.8,-19166.13,-4397.49,-15622.875,-47149.155,-44694.675,-37711.215,-13854.735
1764766825.361908,-12228.345,-19170.315,-4401.495,-15631.695,-47169.63,-44700.705,-37711.89,-13857.615
1764766825.361908,-12230.1,-19171.08,-4399.47,-15630.93,-47178.315,-44702.64,-37713.825,-13859.37
1764766825.361908,-12228.12,-19168.02,-4395.645,-15625.53,-47161.44,-44696.34,-37714.32,-13859.145
1764766825.361908,-12223.17,-19166.445,-4397.13,-15619.77,-47140.245,-44683.02,-37707.435,-13853.52
1764766825.361908,-12224.835,-19168.065,-4395.24,-15615.945,-47140.245,-44685.81,-37711.8,-13856.67
1764766825.361908,-12217.23,-19160.055,-4386.195,-15598.665,-47125.395,-44678.655,-37706.985,-13850.19
1764766825.4068463,-12213.855,-19156.32,-4382.955,-15593.445,-47124.27,-44676.9,-37706.13,-13848.3
1764766825.4073606,-12217.545,-19158.21,-4382.865,-15599.79,-47131.38,-44675.775,-37705.14,-13850.235
1764766825.4073606,-12217.23,-19154.745,-4378.41,-15603.435,-47134.98,-44674.47,-37701.855,-13849.425
1764766825.4073606,-12226.32,-19164.015,-4387.635,-15609.375,-47139.885,-44681.715,-37711.035,-13858.155
1764766825.4073606,-12230.82,-19168.74,-4393.44,-15608.61,-47138.67,-44681.895,-37714.455,-13861.98
1764766825.4073606,-12230.505,-19172.565,-4399.695,-15613.155,-47141.955,-44682.075,-37715.31,-13861.98
1764766825.4073606,-12217.68,-19154.115,-4381.02,-15604.515,-47136.15,-44673.84,-37707.21,-13851.72
1764766825.4073606,-12218.265,-19152.585,-4378.5,-15599.34,-47130.615,-44672.58,-37707.525,-13852.215
1764766825.4073606,-12219.03,-19154.745,-4382.28,-15601.32,-47131.29,-44670.51,-37707.12,-13852.44
1764766825.4073606,-12222.9,-19162.215,-4391.639999999999,-15609.375,-47137.455,-44671.14,-37707.795,-13854.78
1764766825.4073606,-12218.76,-19157.13,-4382.055,-15597.0,-47128.59,-44663.22,-37701.81,-13849.875
1764766825.4073606,-12221.415,-19159.515,-4385.655,-15605.145,-47130.57,-44666.1,-37705.185,-13852.98
1764766825.4073606,-12226.32,-19163.475,-4388.715,-15604.29,-47133.72,-44677.035,-37715.22,-13860.045
1764766825.4073606,-12223.395,-19160.19,-4381.74,-15593.535,-47127.24,-44668.71,-37710.315,-13857.075
1764766825.408883,-12227.67,-19164.51,-4386.555,-15600.465,-47127.195,-44670.465,-37714.905,-13861.44
1764766825.408883,-12228.435,-19165.095,-4386.96,-15601.905,-47136.15,-44674.515,-37716.885,-13862.745
1764766825.408883,-12221.82,-19158.075,-4379.49,-15597.045,-47130.705,-44667.54,-37710.18,-13855.995
1764766825.408883,-12228.255,-19164.015,-4385.205,-15596.73,-47118.555,-44666.055,-37716.03,-13862.205
1764766825.408883,-12230.37,-19167.705,-4389.525,-15602.355,-47123.145,-44662.86,-37715.715,-13863.96
1764766825.408883,-12225.69,-19162.665,-4384.08,-15599.925,-47131.02,-44665.785,-37715.265,-13861.44
1764766825.408883,-12220.02,-19155.24,-4373.955,-15587.235,-47125.98,-44664.615,-37712.295,-13856.31
1764766825.408883,-12223.71,-19159.65,-4378.86,-15592.23,-47117.52,-44660.79,-37712.61,-13858.38
1764766825.4537127,-12220.02,-19155.78,-4374.315,-15588.0,-47110.14,-44654.31,-37708.515,-13854.69
1764766825.4537127,-12217.095,-19152.225,-4370.13,-15584.895,-47111.355,-44652.105,-37707.345,-13852.845
1764766825.4537127,-12216.195,-19151.865,-4370.264999999999,-15587.64,-47114.82,-44651.52,-37706.985,-13851.945
1764766825.4537127,-12223.17,-19159.29,-4377.465,-15596.82,-47125.62,-44656.695,-37711.845,-13857.345
1764766825.4537127,-12220.515,-19158.39,-4375.44,-15593.355,-47127.6,-44652.33,-37707.435,-13854.96
1764766825.4537127,-12218.04,-19155.105,-4371.03,-15588.945,-47116.71,-44647.155,-37707.57,-13854.105
1764766825.4537127,-12208.32,-19141.38,-4352.535,-15561.945,-47091.195,-44640.405,-37703.43,-13847.49
1764766825.4537127,-12209.49,-19140.975,-4356.045,-15568.065,-47098.89,-44640.765,-37702.755,-13847.85
1764766825.4537127,-12206.25,-19140.345,-4353.12,-15565.77,-47098.305,-44636.22,-37699.065,-13843.665
1764766825.4537127,-12209.355,-19146.915,-4356.675,-15570.09,-47101.455,-44635.815,-37700.145,-13845.375
1764766825.4537127,-12212.145,-19145.07,-4353.21,-15564.51,-47100.24,-44639.325,-37704.69,-13849.29
1764766825.4537127,-12211.065,-19143.765,-4353.345,-15563.655,-47099.7,-44637.03,-37703.655,-13848.48
1764766825.4537127,-12201.255,-19134.765,-4345.74,-15556.77,-47092.095,-44626.59,-37695.24,-13839.48
1764766825.4542377,-12199.995,-19132.065,-4341.15,-15548.49,-47086.065,-44625.465,-37696.14,-13839.345
1764766825.4542377,-12198.825,-19130.265,-4338.99,-15548.13,-47088.225,-44625.24,-37695.15,-13838.715
1764766825.4542377,-12205.665,-19138.545,-4349.79,-15564.645,-47105.64,-44628.03,-37696.23,-13843.215
1764766825.4542377,-12206.115,-19142.865,-4353.974999999999,-15563.52,-47097.765,-44619.66,-37693.755,-13842.36
1764766825.4542377,-12202.2,-19137.33,-4347.0,-15556.59,-47090.115,-44619.3,-37695.015,-13840.695
1764766825.4542377,-12190.095,-19118.88,-4328.235,-15546.915,-47088.045,-44617.32,-37691.235,-13832.46
1764766825.4542377,-12199.365,-19130.355,-4342.005,-15564.825,-47111.625,-44626.5,-37695.87,-13839.975
1764766825.4542377,-12198.645,-19129.23,-4334.805,-15541.47,-47090.52,-44620.92,-37694.295,-13838.805
1764766825.4542377,-12205.17,-19139.04,-4347.81,-15552.63,-47087.73,-44618.895,-37698.3,-13844.655
1764766825.4542377,-12202.245,-19135.98,-4345.29,-15543.855,-47076.93,-44616.195,-37700.145,-13843.845
1764766825.4542377,-12200.985,-19134.855,-4342.86,-15545.565,-47082.285,-44618.625,-37699.965,-13843.215
1764766825.5028214,-12202.38,-19129.77,-4335.255,-15549.615,-47089.98,-44621.28,-37701.585,-13845.375
1764766825.5028214,-12200.895,-19129.275,-4335.21,-15544.17,-47088.855,-44618.265,-37700.505,-13843.62
1764766825.5028214,-12195.495,-19126.08,-4333.139999999999,-15540.255,-47082.6,-44612.595,-37696.275,-13838.985
1764766825.5028214,-12187.305,-19117.575,-4322.52,-15527.655,-47065.23,-44600.265,-37687.185,-13830.705
1764766825.5028214,-12183.975,-19112.535,-4317.795,-15523.83,-47063.07,-44594.73,-37680.84,-13826.835
1764766825.5028214,-12193.47,-19122.165,-4325.94,-15532.2,-47079.81,-44608.77,-37692.945,-13837.365
1764766825.5028214,-12196.035,-19125.855,-4329.27,-15538.77,-47090.34,-44612.055,-37694.745,-13839.705
1764766825.5028214,-12196.755,-19127.34,-4334.4,-15546.42,-47086.605,-44609.445,-37693.98,-13840.245
1764766825.5028214,-12201.12,-19133.01,-4341.285,-15548.4,-47078.64,-44605.305,-37694.205,-13843.17
1764766825.5028214,-12199.275,-19128.87,-4333.455,-15533.685,-47074.635,-44608.59,-37697.13,-13843.53
1764766825.5028214,-12190.86,-19119.87,-4323.599999999999,-15526.305,-47069.955,-44598.915,-37690.29,-13834.935
1764766825.5028214,-12192.03,-19122.12,-4327.695,-15529.23,-47070.09,-44597.07,-37689.885,-13834.845
1764766825.5028214,-12198.105,-19126.89,-4329.09,-15530.175,-47072.88,-44602.065,-37698.21,-13842.225
1764766825.5028214,-12195.495,-19125.18,-4326.66,-15524.055,-47069.73,-44599.86,-37695.06,-13840.245
1764766825.5028214,-12185.595,-19116.315,-4321.71,-15521.58,-47065.635,-44591.67,-37685.475,-13830.66
1764766825.5028214,-12194.1,-19123.29,-4325.49,-15521.85,-47065.365,-44595.765,-37694.295,-13839.57
1764766825.5028214,-12187.755,-19115.595,-4314.195,-15507.945,-47053.845,-44587.53,-37688.985,-13833.72
1764766825.5028214,-12186.09,-19114.92,-4314.465,-15510.33,-47057.535,-44586.495,-37687.545,-13832.1
1764766825.5028214,-12186.36,-19117.08,-4319.145,-15518.925,-47069.01,-44585.82,-37685.745,-13831.605
1764766825.5028214,-12189.6,-19120.905,-4322.25,-15521.04,-47072.97,-44588.7,-37688.805,-13834.845
1764766825.5028214,-12196.53,-19125.45,-4326.03,-15520.59,-47067.705,-44598.24,-37697.535,-13843.53
1764766825.503843,-12195.405,-19122.615,-4327.605,-15519.375,-47055.285,-44588.88,-37694.97,-13843.44
1764766825.503843,-12188.295,-19118.565,-4320.27,-15510.555,-47050.515,-44582.265,-37690.11,-13836.105
1764766825.503843,-12185.64,-19119.06,-4316.715,-15509.565,-47051.415,-44578.26,-37685.835,-13832.415
1764766825.5482588,-12182.535,-19113.255,-4314.014999999999,-15508.665,-47052.18,-44575.695,-37681.695,-13830.165
1764766825.5482588,-12192.03,-19122.48,-4323.285,-15517.575,-47058.57,-44583.975,-37690.83,-13840.47
1764766825.5482588,-12191.445,-19120.815,-4321.44,-15518.34,-47059.74,-44583.255,-37690.47,-13839.75
1764766825.5482588,-12182.76,-19115.775,-4319.91,-15517.125,-47058.255,-44576.415,-37680.705,-13830.3
1764766825.5482588,-12180.42,-19112.13,-4315.139999999999,-15507.54,-47052.72,-44575.245,-37681.605,-13829.67
1764766825.5482588,-12179.52,-19109.7,-4311.315,-15501.915,-47049.03,-44573.67,-37683.45,-13829.355
1764766825.5482588,-12182.49,-19112.265,-4311.9,-15504.3,-47046.42,-44570.52,-37683.225,-13831.29
1764766825.5482588,-12187.215,-19115.46,-4311.81,-15500.97,-47040.705,-44573.985,-37690.56,-13838.31
1764766825.5482588,-12179.52,-19109.655,-4307.805,-15498.27,-47036.115,-44560.305,-37679.175,-13828.725
1764766825.5482588,-12173.22,-19107.045,-4307.849999999999,-15496.92,-47034.135,-44553.24,-37671.21,-13820.985
1764766825.5482588,-12171.78,-19105.38,-4304.07,-15492.375,-47032.695,-44555.13,-37672.245,-13820.67
1764766825.5482588,-12179.925,-19108.215,-4305.014999999999,-15501.015,-47045.07,-44566.74,-37683.855,-13831.29
1764766825.5482588,-12172.905,-19102.32,-4301.82,-15503.22,-47044.395,-44560.44,-37678.545,-13825.395
1764766825.5482588,-12174.93,-19105.605,-4305.51,-15503.31,-47049.93,-44560.44,-37677.24,-13825.98
1764766825.5482588,-12181.905,-19112.94,-4306.365,-15492.915,-47041.74,-44563.815,-37683.945,-13832.685
1764766825.5482588,-12179.115,-19109.925,-4305.15,-15491.295,-47025.765,-44557.38,-37683.18,-13830.75
1764766825.5482588,-12185.28,-19115.955,-4313.205,-15502.725,-47036.88,-44559.18,-37685.925,-13835.745
1764766825.5482588,-12180.645,-19113.84,-4315.455,-15511.23,-47045.385,-44554.455,-37677.825,-13829.58
1764766825.5482588,-12184.74,-19115.64,-4311.855,-15504.75,-47043.27,-44560.305,-37686.555,-13836.15
1764766825.5482588,-12176.55,-19104.93,-4295.07,-15484.905,-47037.87,-44552.61,-37681.38,-13829.805
1764766825.5482588,-12176.055,-19107.945,-4302.18,-15492.555,-47035.935,-44549.505,-37676.79,-13828.005
1764766825.5482588,-12186.9,-19118.295,-4310.415,-15495.435,-47028.69,-44557.245,-37688.13,-13838.13
1764766825.5482588,-12183.885,-19113.39,-4302.63,-15489.945,-47028.645,-44555.535,-37687.86,-13836.78
1764766825.5482588,-12174.615,-19105.605,-4297.77,-15491.565,-47031.3,-44543.79,-37675.44,-13827.33
1764766825.5943308,-12172.23,-19107.27,-4302.72,-15489.99,-47024.505,-44539.695,-37672.695,-13824.045
1764766825.5943308,-12175.47,-19108.755,-4300.065,-15476.175,-47016.765,-44546.265,-37682.19,-13830.435
1764766825.5943308,-12184.245,-19116.0,-4304.655,-15492.015,-47035.125,-44553.24,-37687.41,-13837.995
1764766825.5943308,-12187.89,-19117.08,-4306.724999999999,-15505.02,-47054.115,-44558.37,-37687.365,-13840.92
1764766825.5943308,-12184.74,-19117.665,-4311.45,-15506.055,-47053.215,-44552.475,-37681.695,-13836.465
1764766825.5943308,-12177.99,-19107.18,-4291.92,-15477.885,-47019.915,-44540.865,-37683.585,-13833.63
1764766825.5943308,-12174.93,-19105.605,-4292.37,-15478.695,-47017.35,-44534.745,-37678.77,-13829.895
1764766825.5943308,-12177.09,-19108.395,-4296.915,-15483.645,-47024.505,-44542.665,-37682.955,-13833.045
1764766825.5943308,-12183.795,-19114.47,-4300.605,-15484.68,-47028.645,-44550.09,-37690.065,-13840.245
1764766825.5943308,-12184.605,-19115.775,-4299.84,-15483.6,-47029.41,-44550.27,-37690.11,-13840.74
1764766825.5943308,-12180.915,-19112.67,-4297.59,-15483.6,-47029.545,-44546.13,-37686.24,-13836.825
1764766825.5943308,-12172.68,-19104.345,-4291.514999999999,-15475.815,-47021.805,-44536.185,-37678.005,-13828.365
1764766825.5943308,-12176.145,-19109.25,-4294.485,-15479.01,-47024.415,-44538.66,-37681.785,-13831.83
1764766825.5943308,-12177.27,-19109.205,-4291.965,-15477.255,-47023.065,-44536.905,-37681.245,-13832.235
1764766825.5943308,-12167.19,-19097.865,-4281.255,-15468.57,-47016.09,-44528.535,-37672.74,-13824.045
1764766825.5943308,-12167.82,-19099.53,-4285.44,-15472.44,-47020.995,-44530.02,-37673.82,-13825.08
1764766825.5943308,-12158.46,-19091.16,-4276.71,-15462.225,-47017.08,-44520.165,-37663.92,-13814.64
1764766825.5943308,-12159.36,-19090.08,-4272.03,-15455.115,-47019.195,-44523.09,-37666.395,-13816.215
1764766825.5943308,-12157.65,-19086.615,-4270.545,-15452.055,-47009.565,-44518.86,-37663.965,-13814.865
1764766825.5943308,-12165.615,-19096.785,-4278.24,-15457.77,-47003.04,-44523.225,-37672.02,-13822.605
1764766825.5953586,-12165.93,-19098.945,-4273.38,-15451.425,-46998.855,-44518.77,-37671.345,-13823.1
1764766825.5953586,-12162.87,-19094.67,-4273.065,-15455.25,-47007.495,-44516.385,-37667.295,-13819.995
1764766825.6418786,-12156.75,-19087.92,-4266.54,-15448.095,-46999.845,-44512.245,-37664.505,-13814.55
1764766825.6418786,-12166.92,-19098.27,-4274.955,-15454.8,-47005.965,-44517.6,-37671.615,-13824.405
1764766825.6418786,-12163.5,-19094.67,-4270.41,-15451.65,-47005.605,-44514.54,-37668.825,-13821.705
1764766825.6418786,-12166.875,-19099.395,-4275.9,-15456.69,-47009.925,-44516.97,-37671.435,-13824.36
1764766825.6418786,-12157.245,-19093.14,-4271.805,-15448.86,-47001.24,-44504.955,-37660.815,-13813.605
1764766825.6418786,-12156.21,-19087.155,-4264.47,-15445.125,-47002.05,-44507.43,-37663.515,-13815.18
1764766825.6418786,-12158.82,-19085.805,-4258.665,-15440.22,-47001.645,-44511.66,-37668.195,-13819.275
1764766825.6418786,-12157.245,-19086.615,-4262.04,-15440.175,-46999.395,-44503.74,-37663.29,-13815.855
1764766825.6418786,-12159.945,-19090.44,-4266.585,-15442.2,-47004.39,-44507.52,-37666.35,-13818.06
1764766825.6418786,-12158.73,-19089.72,-4266.135,-15440.49,-47003.4,-44505.495,-37663.695,-13816.08
1764766825.6418786,-12149.865,-19079.595,-4253.625,-15429.06,-46992.6,-44495.46,-37657.08,-13807.71
1764766825.6418786,-12148.245,-19079.505,-4252.68,-15427.845,-46991.835,-44491.905,-37654.605,-13806.315
1764766825.6418786,-12149.235,-19081.215,-4256.099999999999,-15432.66,-46993.68,-44491.5,-37654.695,-13806.405
1764766825.6418786,-12151.8,-19081.08,-4253.445,-15420.735,-46985.265,-44498.61,-37662.795,-13811.04
1764766825.6418786,-12140.55,-19069.11,-4241.07,-15408.585,-46978.965,-44487.0,-37650.69,-13799.88
1764766825.6418786,-12144.285,-19074.24,-4247.639999999999,-15418.305,-46989.9,-44485.2,-37648.215,-13801.68
1764766825.6418786,-12145.14,-19075.455,-4247.82,-15419.88,-46994.805,-44485.83,-37648.755,-13802.67
1764766825.6418786,-12147.795,-19077.615,-4251.555,-15422.535,-46993.995,-44489.97,-37653.03,-13804.92
1764766825.6418786,-12147.84,-19074.195,-4242.87,-15407.46,-46975.59,-44487.45,-37658.61,-13807.305
1764766825.6418786,-12149.55,-19076.625,-4244.76,-15411.195,-46980.09,-44485.605,-37657.44,-13808.835
1764766825.6418786,-12154.68,-19084.32,-4255.965,-15425.055,-46993.635,-44489.88,-37661.04,-13812.525
1764766825.6418786,-12151.44,-19083.015,-4254.3,-15413.67,-46982.88,-44486.775,-37661.535,-13811.085
1764766825.6418786,-12148.38,-19081.35,-4254.345,-15415.245,-46983.465,-44481.87,-37656.99,-13807.935
1764766825.6418786,-12146.58,-19074.42,-4243.724999999999,-15410.88,-46982.565,-44481.24,-37656.27,-13807.08
1764766825.6875205,-12138.885,-19061.55,-4228.514999999999,-15397.515,-46973.43,-44473.815,-37649.34,-13799.61
1764766825.6875205,-12140.28,-19065.78,-4234.139999999999,-15402.825,-46985.625,-44475.84,-37649.115,-13799.655
1764766825.6875205,-12142.98,-19070.19,-4238.82,-15404.265,-46987.605,-44478.495,-37651.365,-13802.715
1764766825.6875205,-12153.42,-19081.08,-4250.88,-15413.22,-46981.305,-44482.05,-37659.42,-13811.445
1764766825.6875205,-12155.265,-19081.53,-4249.305,-15409.935,-46983.42,-44482.68,-37663.29,-13814.19
1764766825.6875205,-12150.945,-19076.85,-4243.59,-15407.64,-46993.545,-44480.88,-37660.41,-13810.77
1764766825.6875205,-12142.305,-19067.895,-4233.645,-15393.06,-46969.74,-44468.685,-37650.465,-13802.22
1764766825.6875205,-12142.125,-19068.3,-4234.185,-15389.145,-46956.195,-44463.69,-37651.23,-13802.265
1764766825.6875205,-12144.015,-19069.29,-4236.75,-15395.895,-46966.815,-44468.46,-37654.515,-13804.065
1764766825.6875205,-12147.57,-19071.36,-4240.26,-15398.46,-46970.64,-44468.46,-37656.54,-13808.43
1764766825.6875205,-12136.23,-19064.205,-4230.405,-15384.465,-46959.21,-44456.175,-37643.895,-13796.37
1764766825.6875205,-12137.49,-19068.39,-4231.845,-15391.755,-46967.715,-44456.94,-37641.195,-13795.965
1764766825.6875205,-12139.83,-19065.645,-4230.945,-15390.225,-46964.745,-44459.505,-37645.515,-13798.89
1764766825.6875205,-12146.67,-19070.91,-4232.655,-15388.29,-46963.845,-44467.245,-37657.71,-13807.71
1764766825.6875205,-12141.9,-19068.93,-4234.905,-15393.645,-46966.365,-44461.89,-37650.42,-13802.22
1764766825.6875205,-12141.765,-19067.805,-4231.889999999999,-15386.265,-46961.415,-44461.665,-37652.13,-13803.615
1764766825.6875205,-12142.17,-19069.92,-4235.535,-15392.43,-46965.915,-44460.945,-37651.185,-13803.795
1764766825.6875205,-12149.055,-19075.545,-4238.82,-15392.79,-46968.435,-44467.11,-37659.69,-13811.355
1764766825.6875205,-12148.785,-19075.05,-4238.73,-15395.175,-46971.495,-44467.695,-37659.465,-13811.49
1764766825.6875205,-12145.275,-19073.835,-4240.665,-15400.575,-46975.635,-44463.465,-37654.74,-13808.43
1764766825.6875205,-12136.86,-19065.87,-4229.46,-15383.52,-46957.95,-44450.865,-37646.595,-13800.24
1764766825.6875205,-12136.41,-19063.755,-4222.845,-15372.81,-46951.515,-44450.82,-37648.89,-13800.6
1764766825.7372742,-12135.06,-19062.315,-4224.105,-15377.22,-46951.92,-44448.975,-37647.405,-13799.115
1764766825.7372742,-12137.94,-19065.375,-4226.67,-15379.11,-46948.455,-44448.48,-37649.52,-13802.445
1764766825.7372742,-12148.92,-19078.74,-4240.755,-15394.23,-46960.74,-44452.44,-37654.425,-13808.745
1764766825.7372742,-12145.5,-19072.17,-4235.175,-15395.715,-46965.465,-44456.085,-37656.81,-13808.475
1764766825.7372742,-12141.675,-19064.205,-4227.615,-15391.395,-46964.88,-44454.195,-37656.18,-13806.27
1764766825.7372742,-12139.605,-19063.665,-4224.87,-15383.025,-46959.39,-44449.83,-37653.705,-13803.795
1764766825.7372742,-12134.88,-19061.775,-4223.34,-15379.74,-46952.955,-44442.99,-37646.865,-13798.44
1764766825.7372742,-12140.235,-19065.555,-4225.545,-15382.89,-46948.905,-44445.915,-37653.93,-13804.47
1764766825.7372742,-12131.055,-19057.545,-4219.47,-15381.09,-46945.98,-44436.78,-37644.57,-13795.2
1764766825.7372742,-12129.345,-19056.24,-4216.139999999999,-15371.82,-46939.725,-44435.655,-37642.95,-13794.48
1764766825.7372742,-12127.32,-19053.99,-4213.62,-15370.38,-46940.22,-44432.955,-37638.63,-13792.725
1764766825.7372742,-12129.255,-19056.465,-4218.075,-15376.635,-46948.32,-44434.08,-37639.305,-13792.995
1764766825.7372742,-12135.33,-19061.28,-4222.845,-15382.215,-46958.985,-44442.495,-37647.9,-13799.34
1764766825.7372742,-12136.815,-19063.35,-4224.69,-15383.565,-46946.52,-44439.615,-37649.79,-13800.42
1764766825.7372742,-12129.84,-19056.015,-4217.355,-15375.735,-46933.29,-44426.97,-37642.05,-13793.085
1764766825.7372742,-12129.165,-19054.845,-4216.32,-15374.88,-46937.025,-44426.025,-37640.43,-13791.69
1764766825.7372742,-12133.62,-19059.48,-4220.595,-15380.325,-46944.135,-44431.02,-37644.75,-13796.055
1764766825.7372742,-12125.07,-19051.02,-4213.17,-15373.44,-46935.045,-44421.885,-37637.46,-13787.46
1764766825.7372742,-12122.82,-19048.77,-4209.48,-15367.14,-46930.725,-44421.93,-37636.47,-13786.155
1764766825.7372742,-12125.565,-19050.66,-4208.76,-15364.575,-46931.49,-44423.19,-37638.765,-13789.53
1764766825.7372742,-12129.57,-19057.095,-4217.895,-15376.05,-46939.41,-44423.28,-37638.09,-13792.14
1764766825.7372742,-12124.755,-19052.955,-4213.98,-15373.215,-46933.335,-44421.66,-37636.245,-13788.45
1764766825.7372742,-12122.91,-19049.04,-4208.49,-15371.325,-46937.97,-44420.625,-37636.245,-13786.74
1764766825.7372742,-12122.82,-19050.705,-4210.965,-15372.405,-46940.715,-44416.755,-37633.995,-13785.885
1764766825.7840323,-12121.965,-19054.845,-4219.92,-15372.855,-46931.49,-44418.195,-37634.04,-13785.615
1764766825.7840323,-12128.49,-19058.445,-4220.91,-15376.275,-46929.105,-44422.29,-37641.105,-13793.355
1764766825.7840323,-12126.78,-19048.815,-4208.175,-15372.72,-46931.715,-44418.51,-37638.27,-13791.87
1764766825.7840323,-12119.805,-19042.83,-4204.44,-15369.48,-46931.445,-44412.57,-37632.42,-13785.615
1764766825.7840323,-12110.985,-19040.67,-4201.155,-15366.42,-46928.295,-44403.435,-37622.88,-13775.67
1764766825.7840323,-12119.4,-19051.965,-4215.105,-15382.08,-46942.335,-44411.58,-37626.93,-13781.835
1764766825.7840323,-12115.89,-19043.595,-4203.315,-15361.155,-46920.06,-44407.665,-37628.37,-13781.565
1764766825.7840323,-12119.4,-19043.82,-4197.87,-15351.885,-46911.555,-44411.895,-37635.39,-13786.38
1764766825.7840323,-12117.105,-19043.505,-4200.57,-15361.695,-46928.295,-44410.815,-37630.305,-13782.24
1764766825.7840323,-12110.4,-19036.98,-4195.17,-15355.17,-46918.17,-44405.055,-37624.995,-13776.03
1764766825.7840323,-12112.605,-19039.905,-4198.005,-15356.295,-46913.94,-44403.84,-37625.895,-13778.595
1764766825.7840323,-12114.9,-19043.505,-4206.014999999999,-15370.83,-46929.6,-44403.39,-37623.69,-13778.955
1764766825.7845435,-12121.38,-19050.84,-4211.955,-15367.815,-46923.48,-44410.32,-37632.555,-13786.74
1764766825.7845435,-12121.29,-19050.345,-4207.275,-15359.445,-46920.465,-44414.595,-37636.38,-13788.63
1764766825.7845435,-12112.38,-19039.77,-4200.84,-15363.27,-46923.75,-44404.785,-37623.87,-13778.775
1764766825.7845435,-12116.565,-19046.25,-4207.139999999999,-15360.93,-46920.285,-44405.19,-37623.915,-13781.34
1764766825.7845435,-12123.225,-19050.21,-4206.24,-15354.54,-46918.035,-44414.955,-37636.02,-13789.755
1764766825.7845435,-12118.095,-19045.89,-4204.305,-15355.35,-46919.205,-44409.33,-37630.665,-13784.175
1764766825.7845435,-12121.38,-19050.48,-4211.415,-15364.125,-46928.295,-44412.93,-37633.23,-13787.19
1764766825.7845435,-12123.27,-19051.875,-4212.855,-15364.215,-46929.24,-44413.335,-37634.76,-13787.64
1764766825.7845435,-12119.085,-19047.105,-4205.925,-15356.88,-46921.365,-44405.73,-37628.73,-13782.24
1764766825.7845435,-12117.465,-19045.26,-4205.565,-15357.105,-46922.445,-44406.945,-37629.09,-13782.555
1764766825.7845435,-12118.95,-19047.78,-4208.94,-15360.345,-46925.865,-44409.78,-37631.16,-13784.4
1764766825.7845435,-12124.305,-19053.27,-4214.295,-15366.15,-46931.535,-44416.08,-37635.075,-13790.115
1764766825.8300126,-12120.84,-19050.705,-4212.315,-15365.655,-46931.94,-44412.12,-37630.44,-13786.065
1764766825.8300126,-12130.785,-19061.64,-4224.51,-15375.78,-46938.87,-44418.6,-37636.74,-13794.705
1764766825.8300126,-12131.415,-19063.395,-4225.77,-15372.855,-46936.53,-44420.265,-37636.02,-13794.975
1764766825.8305314,-12129.57,-19061.19,-4223.745,-15371.595,-46935.9,-44418.78,-37635.345,-13793.985
1764766825.8305314,-12125.88,-19052.19,-4215.375,-15367.68,-46934.1,-44421.57,-37638.405,-13792.59
1764766825.8305314,-12126.06,-19054.44,-4219.155,-15374.34,-46938.915,-44421.84,-37637.955,-13792.32
1764766825.8305314,-12119.355,-19048.545,-4213.08,-15367.23,-46930.185,-44413.965,-37630.44,-13784.805
1764766825.8305314,-12123.495,-19052.37,-4215.96,-15368.67,-46933.425,-44414.82,-37631.43,-13787.415
1764766825.8305314,-12134.295,-19063.44,-4227.525,-15383.295,-46953.045,-44422.155,-37636.65,-13796.325
1764766825.8305314,-12129.165,-19059.39,-4225.32,-15380.325,-46952.505,-44420.76,-37633.59,-13792.14
1764766825.8305314,-12116.565,-19045.08,-4209.21,-15362.37,-46932.075,-44412.21,-37625.94,-13781.25
1764766825.8305314,-12118.545,-19050.255,-4221.135,-15383.25,-46944.585,-44410.455,-37623.69,-13781.295
1764766825.8305314,-12124.35,-19055.565,-4226.67,-15391.215,-46949.895,-44416.575,-37630.755,-13786.65
1764766825.8305314,-12132.18,-19058.31,-4215.915,-15357.96,-46925.37,-44422.605,-37642.95,-13796.19
1764766825.8305314,-12122.82,-19049.355,-4209.03,-15354.765,-46915.605,-44413.245,-37633.905,-13787.46
1764766825.8305314,-12124.26,-19052.19,-4213.665,-15359.4,-46917.765,-44411.085,-37632.96,-13788.54
1764766825.8305314,-12128.985,-19056.33,-4216.724999999999,-15365.34,-46929.915,-44417.97,-37638.405,-13793.715
1764766825.8305314,-12134.88,-19062.99,-4224.33,-15379.965,-46944.045,-44421.93,-37641.06,-13797.27
1764766825.8310497,-12141.27,-19070.28,-4233.915,-15395.265,-46962.63,-44429.94,-37645.56,-13803.21
1764766825.8310497,-12132.99,-19062.09,-4227.12,-15385.68,-46954.17,-44423.775,-37639.305,-13796.685
1764766825.8310497,-12131.28,-19058.76,-4220.73,-15366.465,-46927.44,-44414.46,-37637.73,-13795.515
1764766825.8310497,-12138.93,-19063.71,-4220.055,-15363.045,-46929.915,-44421.885,-37647.225,-13805.235
1764766825.8310497,-12138.525,-19063.26,-4221.27,-15366.825,-46936.08,-44421.03,-37645.425,-13804.875
1764766825.8310497,-12138.795,-19064.205,-4221.675,-15367.23,-46938.015,-44419.005,-37646.01,-13804.83
1764766825.8785586,-12137.715,-19063.17,-4220.28,-15367.23,-46939.905,-44415.36,-37643.67,-13802.355
1764766825.8785586,-12128.715,-19053.27,-4213.215,-15356.79,-46929.24,-44403.57,-37636.83,-13794.48
1764766825.8785586,-12131.505,-19056.6,-4213.98,-15353.865,-46925.595,-44404.29,-37641.015,-13798.08
1764766825.8785586,-12126.015,-19054.17,-4207.23,-15347.79,-46919.61,-44397.405,-37636.155,-13793.49
1764766825.8785586,-12125.07,-19050.345,-4205.205,-15346.08,-46919.34,-44394.975,-37636.245,-13793.085
1764766825.8785586,-12125.565,-19050.93,-4204.395,-15343.785,-46920.105,-44395.515,-37635.84,-13793.76
1764766825.8785586,-12127.77,-19056.87,-4212.54,-15349.14,-46923.48,-44394.615,-37634.985,-13794.705
1764766825.8785586,-12132.81,-19060.65,-4217.76,-15351.48,-46924.065,-44397.585,-37641.105,-13799.43
1764766825.8785586,-12132.315,-19056.42,-4207.68,-15344.145,-46918.98,-44395.65,-37640.745,-13800.105
1764766825.8785586,-12128.04,-19047.6,-4198.095,-15341.94,-46918.665,-44391.42,-37635.255,-13795.965
1764766825.8785586,-12134.565,-19056.69,-4209.21,-15351.03,-46925.82,-44398.53,-37643.085,-13802.22
1764766825.8785586,-12134.7,-19057.32,-4208.895,-15348.825,-46923.3,-44398.665,-37645.47,-13803.165
1764766825.8785586,-12131.1,-19054.125,-4205.52,-15346.665,-46920.96,-44393.625,-37640.475,-13798.845
1764766825.8785586,-12137.895,-19062.315,-4213.215,-15355.44,-46930.59,-44397.9,-37644.885,-13804.875
1764766825.8785586,-12139.155,-19062.09,-4213.395,-15357.06,-46929.15,-44398.62,-37647.315,-13806.0
1764766825.8785586,-12138.12,-19058.985,-4208.94,-15350.58,-46923.615,-44398.395,-37647.945,-13805.595
1764766825.8785586,-12134.43,-19056.24,-4206.24,-15349.14,-46922.22,-44393.58,-37642.23,-13802.265
1764766825.8785586,-12144.465,-19066.68,-4215.06,-15360.39,-46935.945,-44403.48,-37651.14,-13812.255
1764766825.8785586,-12145.635,-19071.765,-4224.105,-15373.125,-46956.87,-44404.605,-37648.125,-13811.535
1764766825.8785586,-12144.015,-19071.0,-4226.445,-15380.865,-46961.37,-44404.29,-37645.155,-13809.15
1764766825.8785586,-12140.01,-19060.56,-4208.58,-15351.795,-46919.565,-44401.365,-37651.68,-13810.995
1764766825.8785586,-12136.635,-19054.935,-4199.94,-15343.065,-46905.39,-44393.895,-37648.935,-13808.07
1764766825.924467,-12141.63,-19064.61,-4214.115,-15363.585,-46925.865,-44394.705,-37648.35,-13810.005
1764766825.924467,-12136.68,-19056.915,-4207.68,-15360.66,-46927.755,-44392.365,-37644.66,-13805.64
1764766825.924467,-12141.045,-19063.665,-4214.655,-15360.435,-46922.445,-44391.555,-37645.965,-13809.105
1764766825.9249806,-12135.015,-19055.88,-4206.555,-15352.245,-46916.955,-44388.225,-37644.705,-13804.29
1764766825.9249806,-12136.455,-19060.695,-4216.455,-15371.28,-46935.81,-44388.81,-37642.005,-13803.66
1764766825.9249806,-12141.765,-19061.775,-4211.73,-15355.305,-46928.97,-44393.805,-37648.89,-13809.915
1764766825.9249806,-12143.7,-19062.045,-4208.085,-15344.82,-46912.095,-44389.305,-37651.275,-13812.48
1764766825.9249806,-12149.37,-19068.75,-4217.264999999999,-15352.83,-46918.98,-44397.315,-37658.34,-13818.465
1764766825.9249806,-12145.095,-19064.745,-4211.865,-15350.085,-46918.17,-44391.195,-37653.435,-13814.28
1764766825.9249806,-12146.31,-19064.34,-4210.245,-15348.78,-46917.99,-44393.13,-37656.63,-13816.71
1764766825.9249806,-12137.85,-19057.545,-4208.13,-15351.21,-46920.87,-44387.55,-37648.935,-13808.43
1764766825.9249806,-12140.955,-19063.485,-4213.62,-15354.99,-46922.895,-44385.39,-37647.855,-13810.185
1764766825.9249806,-12142.62,-19063.305,-4210.83,-15346.755,-46922.175,-44388.405,-37654.02,-13813.965
1764766825.9249806,-12148.02,-19069.02,-4216.995,-15354.765,-46929.15,-44396.415,-37658.79,-13819.545
1764766825.9249806,-12149.1,-19068.975,-4216.32,-15348.42,-46910.745,-44387.73,-37657.125,-13820.22
1764766825.9249806,-12152.97,-19071.81,-4216.095,-15346.89,-46914.57,-44391.69,-37661.31,-13825.26
1764766825.9249806,-12142.665,-19061.82,-4209.3,-15345.27,-46915.875,-44384.94,-37653.39,-13816.125
1764766825.9249806,-12145.455,-19065.645,-4215.42,-15352.56,-46920.06,-44384.85,-37652.985,-13817.97
1764766825.9249806,-12156.57,-19074.645,-4219.514999999999,-15349.905,-46919.88,-44395.155,-37665.54,-13829.265
1764766825.9249806,-12152.97,-19071.945,-4217.22,-15348.69,-46919.385,-44391.555,-37663.29,-13826.925
1764766825.9249806,-12157.695,-19075.68,-4224.014999999999,-15356.745,-46926.54,-44395.92,-37668.69,-13831.965
1764766825.9249806,-12161.34,-19078.83,-4227.705,-15359.715,-46929.51,-44396.28,-37672.02,-13835.43
1764766825.9249806,-12161.43,-19083.42,-4226.849999999999,-15358.905,-46928.205,-44394.435,-37670.625,-13833.99
1764766825.9249806,-12153.96,-19071.72,-4215.87,-15349.545,-46922.355,-44388.315,-37664.955,-13827.015
1764766825.9712048,-12155.67,-19074.24,-4221.27,-15357.825,-46931.94,-44389.755,-37663.065,-13828.545
1764766825.9712048,-12166.11,-19087.425,-4234.545,-15359.67,-46928.88,-44398.89,-37673.73,-13838.535
1764766825.9712048,-12167.19,-19089.18,-4235.13,-15358.005,-46929.465,-44398.755,-37675.395,-13839.975
1764766825.9712048,-12167.055,-19084.995,-4229.055,-15365.34,-46946.025,-44398.08,-37671.57,-13837.995
1764766825.9712048,-12166.11,-19080.945,-4225.905,-15363.54,-46941.48,-44398.125,-37672.065,-13837.995
1764766825.9712048,-12169.62,-19084.455,-4227.389999999999,-15354.63,-46923.39,-44398.575,-37679.49,-13843.125
1764766825.9712048,-12170.43,-19086.165,-4229.415,-15360.84,-46928.115,-44394.12,-37679.445,-13843.53
1764766825.9712048,-12168.495,-19084.905,-4228.74,-15356.205,-46926.945,-44393.49,-37678.59,-13841.505
1764766825.9712048,-12160.98,-19075.815,-4214.97,-15337.035,-46915.245,-44389.44,-37674.495,-13836.6
1764766825.9712048,-12167.46,-19082.43,-4222.71,-15354.27,-46933.11,-44393.13,-37676.835,-13840.965
1764766825.9712048,-12167.415,-19086.795,-4231.62,-15364.305,-46938.015,-44390.655,-37672.83,-13838.445
1764766825.9712048,-12178.575,-19097.685,-4240.08,-15364.44,-46942.65,-44401.815,-37685.16,-13850.46
1764766825.9712048,-12178.98,-19096.92,-4236.795,-15357.24,-46945.62,-44401.995,-37683.405,-13849.875
1764766825.9712048,-12174.93,-19095.795,-4235.94,-15353.055,-46935.27,-44395.56,-37677.915,-13844.565
1764766825.9712048,-12179.745,-19096.92,-4237.92,-15361.38,-46943.37,-44402.265,-37684.665,-13851.405
1764766825.9712048,-12178.485,-19090.755,-4230.9,-15354.585,-46941.84,-44407.305,-37691.64,-13852.62
1764766825.9712048,-12175.74,-19091.205,-4233.645,-15355.485,-46939.95,-44402.625,-37688.13,-13848.165
1764766825.9712048,-12170.7,-19090.665,-4229.91,-15349.725,-46937.16,-44395.965,-37681.605,-13843.17
1764766825.9712048,-12176.28,-19091.115,-4222.889999999999,-15340.995,-46940.94,-44401.545,-37687.05,-13850.37
1764766825.9712048,-12170.205,-19085.895,-4217.445,-15338.025,-46941.345,-44396.415,-37678.995,-13843.08
1764766825.9712048,-12171.78,-19087.83,-4217.805,-15334.425,-46926.405,-44394.165,-37681.965,-13845.105
1764766825.9712048,-12177.18,-19093.275,-4223.52,-15338.43,-46929.465,-44396.145,-37685.745,-13849.74
1764766825.9712048,-12180.6,-19097.28,-4228.514999999999,-15343.29,-46939.545,-44402.31,-37687.095,-13852.665
1764766825.9712048,-12177.18,-19093.14,-4222.17,-15335.73,-46933.785,-44395.785,-37684.035,-13849.38
1764766826.0175183,-12181.455,-19098.135,-4227.75,-15343.155,-46944.54,-44400.96,-37688.76,-13853.295
1764766826.0175183,-12174.39,-19092.24,-4222.8,-15338.79,-46941.615,-44391.78,-37681.56,-13846.365
1764766826.0175183,-12183.75,-19100.52,-4229.415,-15341.49,-46943.595,-44398.215,-37688.67,-13854.285
1764766826.0175183,-12187.8,-19102.95,-4228.695,-15339.195,-46942.83,-44402.715,-37695.015,-13859.325
1764766826.0175183,-12187.755,-19105.29,-4231.485,-15341.355,-46943.1,-44401.095,-37694.565,-13858.83
1764766826.0175183,-12184.74,-19101.465,-4225.815,-15332.58,-46940.04,-44400.285,-37693.17,-13856.985
1764766826.0175183,-12180.105,-19097.415,-4221.855,-15330.195,-46938.915,-44391.735,-37685.79,-13851.855
1764766826.0175183,-12186.855,-19104.165,-4229.37,-15341.22,-46954.395,-44396.505,-37691.28,-13857.03
1764766826.0175183,-12185.73,-19100.835,-4224.645,-15331.725,-46947.87,-44397.81,-37693.305,-13856.715
1764766826.0175183,-12179.745,-19096.245,-4220.639999999999,-15326.55,-46932.165,-44384.265,-37684.08,-13849.74
1764766826.0175183,-12181.095,-19100.205,-4226.04,-15333.615,-46934.46,-44382.555,-37685.34,-13852.035
1764766826.0175183,-12175.245,-19092.555,-4215.69,-15316.785,-46925.37,-44382.015,-37685.43,-13847.67
1764766826.0175183,-12177.99,-19091.88,-4214.925,-15314.04,-46926.99,-44383.995,-37687.95,-13849.605
1764766826.0175183,-12174.48,-19090.98,-4215.33,-15315.615,-46928.295,-44376.39,-37681.875,-13845.015
1764766826.0175183,-12180.24,-19100.025,-4217.4,-15313.365,-46928.385,-44381.34,-37687.635,-13851.27
1764766826.0175183,-12177.045,-19093.5,-4211.145,-15309.045,-46926.36,-44378.55,-37685.655,-13848.57
1764766826.0175183,-12171.15,-19088.415,-4207.815,-15305.76,-46919.925,-44370.72,-37679.58,-13841.775
1764766826.0175183,-12173.805,-19092.105,-4212.63,-15317.28,-46931.715,-44373.87,-37680.57,-13844.16
1764766826.0175183,-12178.395,-19098.63,-4223.205,-15329.61,-46948.005,-44375.805,-37680.165,-13847.67
1764766826.0175183,-12172.59,-19094.085,-4218.93,-15318.945,-46942.83,-44373.06,-37676.025,-13842.405
1764766826.0175183,-12174.48,-19088.82,-4204.44,-15294.555,-46912.005,-44378.37,-37689.75,-13848.48
1764766826.0175183,-12185.685,-19099.215,-4211.595,-15298.875,-46909.215,-44378.235,-37696.725,-13857.885
1764766826.0647647,-12181.5,-19096.65,-4210.605,-15303.105,-46918.935,-44373.195,-37690.155,-13853.205
1764766826.0647647,-12186.72,-19102.905,-4217.58,-15310.845,-46928.07,-44378.865,-37695.33,-13858.155
1764766826.0647647,-12187.08,-19104.03,-4218.12,-15312.33,-46929.87,-44379.585,-37696.77,-13859.01
1764766826.0647647,-12185.325,-19104.975,-4220.73,-15313.86,-46930.14,-44378.505,-37694.52,-13857.255
1764766826.0647647,-12179.79,-19102.455,-4222.08,-15308.55,-46923.255,-44370.27,-37687.59,-13851.54
1764766826.0647647,-12186.72,-19104.525,-4220.685,-15311.655,-46928.88,-44374.815,-37693.665,-13859.19
1764766826.0647647,-12179.79,-19091.88,-4204.17,-15301.71,-46921.32,-44367.795,-37687.05,-13852.62
1764766826.0647647,-12177.63,-19091.835,-4204.08,-15296.805,-46914.615,-44363.34,-37685.34,-13850.73
1764766826.0647647,-12176.82,-19091.52,-4205.16,-15298.56,-46917.63,-44363.34,-37684.395,-13849.29
1764766826.0647647,-12176.46,-19093.41,-4207.59,-15299.82,-46918.98,-44361.99,-37684.44,-13848.885
1764766826.0647647,-12176.955,-19094.175,-4207.545,-15299.595,-46915.83,-44361.405,-37685.52,-13849.74
1764766826.0647647,-12184.695,-19101.555,-4213.26,-15304.095,-46919.88,-44365.77,-37692.315,-13857.075
1764766826.0647647,-12179.16,-19100.385,-4214.43,-15304.95,-46919.52,-44358.03,-37685.43,-13850.595
1764766826.0647647,-12183.39,-19102.77,-4217.264999999999,-15308.28,-46924.74,-44364.06,-37690.605,-13855.455
1764766826.0647647,-12179.97,-19093.905,-4206.105,-15298.785,-46920.96,-44365.815,-37690.965,-13854.105
1764766826.0647647,-12191.4,-19107.9,-4218.795,-15310.89,-46924.785,-44373.825,-37700.01,-13864.77
1764766826.0647647,-12191.265,-19105.47,-4217.04,-15310.125,-46920.87,-44369.73,-37699.515,-13864.815
1764766826.0647647,-12183.255,-19098.99,-4209.615,-15301.305,-46913.895,-44361.63,-37692.315,-13857.03
1764766826.0647647,-12187.26,-19104.165,-4216.139999999999,-15311.205,-46922.895,-44365.725,-37695.555,-13860.18
1764766826.0647647,-12179.25,-19096.965,-4209.885,-15305.04,-46916.64,-44357.985,-37689.165,-13852.935
1764766826.0647647,-12180.105,-19096.515,-4209.165,-15303.33,-46912.815,-44355.465,-37688.13,-13852.305
1764766826.0647647,-12187.305,-19101.87,-4214.43,-15309.36,-46918.755,-44364.375,-37696.455,-13860.27
1764766826.0647647,-12183.435,-19098.54,-4211.685,-15306.21,-46915.965,-44363.385,-37694.835,-13858.02
1764766826.0647647,-12174.48,-19089.45,-4203.18,-15298.65,-46905.795,-44353.35,-37686.375,-13849.155
1764766826.112483,-12176.955,-19090.89,-4204.395,-15301.395,-46907.01,-44355.87,-37688.355,-13851.81
1764766826.112483,-12184.155,-19097.055,-4212.18,-15310.575,-46915.065,-44363.295,-37694.16,-13858.74
1764766826.112483,-12176.865,-19093.185,-4204.889999999999,-15302.88,-46906.695,-44354.565,-37686.24,-13851.855
1764766826.112483,-12177.675,-19095.3,-4206.915,-15306.615,-46909.575,-44356.815,-37687.455,-13853.115
1764766826.112483,-12186.495,-19101.915,-4216.455,-15316.695,-46918.305,-44365.95,-37697.355,-13862.43
1764766826.112483,-12186.54,-19102.095,-4216.995,-15318.27,-46917.495,-44364.105,-37697.355,-13862.07
1764766826.112483,-12178.395,-19094.49,-4209.974999999999,-15312.15,-46910.97,-44355.42,-37689.345,-13854.735
1764766826.112483,-12179.835,-19095.84,-4213.665,-15317.055,-46916.415,-44356.59,-37689.975,-13855.995
1764766826.112483,-12187.485,-19102.545,-4220.595,-15324.345,-46929.015,-44368.02,-37698.975,-13864.32
1764766826.112483,-12185.775,-19100.43,-4219.245,-15320.61,-46919.79,-44366.445,-37699.065,-13863.195
1764766826.112483,-12182.4,-19097.415,-4216.23,-15314.445,-46903.59,-44358.165,-37694.115,-13859.415
1764766826.112483,-12190.77,-19105.11,-4224.105,-15322.905,-46914.03,-44365.545,-37700.91,-13867.74
1764766826.112483,-12188.565,-19105.29,-4228.02,-15332.535,-46923.57,-44364.24,-37694.925,-13865.31
1764766826.112483,-12181.455,-19099.17,-4225.5,-15333.165,-46921.32,-44358.255,-37688.445,-13858.02
1764766826.112483,-12179.43,-19095.615,-4217.985,-15317.73,-46912.365,-44353.665,-37688.175,-13856.58
1764766826.112483,-12175.92,-19091.295,-4213.08,-15312.15,-46909.8,-44356.545,-37687.995,-13854.375
1764766826.112483,-12180.465,-19095.975,-4219.38,-15317.685,-46902.42,-44357.85,-37693.485,-13859.325
1764766826.112483,-12193.29,-19108.935,-4232.61,-15329.925,-46910.745,-44365.095,-37703.205,-13870.44
1764766826.112483,-12193.74,-19108.665,-4230.945,-15328.08,-46912.59,-44367.255,-37705.59,-13872.105
1764766826.112483,-12184.83,-19098.45,-4219.785,-15316.83,-46902.06,-44357.13,-37696.5,-13863.465
1764766826.112483,-12183.435,-19098.45,-4221.99,-15322.23,-46909.395,-44356.32,-37692.18,-13860.495
1764766826.112483,-12192.84,-19108.17,-4233.375,-15335.28,-46919.25,-44366.445,-37703.025,-13871.115
1764766826.1564322,-12196.53,-19113.795,-4242.825,-15347.07,-46921.005,-44365.005,-37703.61,-13873.14
1764766826.1564322,-12194.415,-19114.38,-4243.185,-15335.01,-46908.945,-44362.26,-37703.52,-13871.61
1764766826.1564322,-12183.39,-19101.87,-4226.94,-15317.91,-46895.985,-44355.195,-37698.12,-13863.195
1764766826.1564322,-12186.855,-19098.72,-4220.955,-15322.995,-46901.115,-44356.14,-37699.02,-13865.67
1764766826.1564322,-12192.03,-19106.46,-4231.62,-15335.775,-46915.29,-44360.91,-37703.43,-13869.675
1764766826.1564322,-12183.615,-19100.205,-4230.9,-15333.84,-46908.045,-44355.33,-37696.995,-13861.89
1764766826.1564322,-12190.365,-19104.525,-4232.565,-15331.68,-46903.68,-44360.955,-37704.105,-13868.865
1764766826.1564322,-12187.305,-19100.97,-4225.815,-15325.515,-46898.595,-44354.565,-37698.255,-13864.59
1764766826.1564322,-12188.205,-19102.095,-4228.514999999999,-15333.255,-46906.83,-44356.095,-37696.68,-13865.445
1764766826.1564322,-12195.855,-19111.23,-4242.599999999999,-15351.39,-46919.385,-44360.73,-37699.065,-13869.225
1764766826.1564322,-12202.605,-19123.335,-4255.065,-15355.35,-46921.275,-44363.745,-37702.125,-13874.04
1764766826.1564322,-12197.79,-19117.17,-4244.985,-15341.535,-46914.345,-44365.905,-37703.205,-13871.745
1764766826.1564322,-12182.58,-19095.12,-4221.54,-15331.005,-46915.515,-44363.07,-37696.725,-13860.45
1764766826.1564322,-12188.07,-19102.68,-4232.16,-15342.03,-46914.615,-44367.39,-37699.155,-13865.085
1764766826.1564322,-12186.945,-19105.29,-4237.47,-15348.6,-46911.465,-44360.595,-37693.71,-13861.845
1764766826.1564322,-12192.84,-19110.24,-4245.3,-15362.865,-46933.425,-44370.225,-37697.985,-13867.47
1764766826.1564322,-12196.08,-19112.355,-4246.155,-15358.095,-46923.345,-44376.615,-37702.08,-13871.205
1764766826.1564322,-12190.905,-19107.54,-4239.315,-15347.52,-46904.58,-44369.64,-37697.58,-13866.21
1764766826.1564322,-12189.195,-19106.1,-4238.19,-15346.845,-46906.29,-44368.695,-37695.375,-13864.23
1764766826.1564322,-12192.48,-19110.15,-4244.175,-15356.07,-46917.135,-44376.48,-37697.805,-13867.245
1764766826.1564322,-12194.685,-19111.725,-4249.17,-15362.91,-46922.4,-44384.94,-37701.315,-13870.35
1764766826.1564322,-12200.715,-19120.32,-4257.405,-15371.37,-46930.32,-44390.385,-37705.14,-13874.85
1764766826.203315,-12193.155,-19116.225,-4248.405,-15363.72,-46924.47,-44382.105,-37695.915,-13866.705
1764766826.203315,-12190.14,-19111.14,-4248.09,-15366.42,-46928.115,-44385.57,-37696.14,-13865.805
1764766826.2049477,-12194.1,-19115.55,-4253.985,-15373.53,-46933.965,-44392.005,-37699.29,-13868.955
1764766826.2049477,-12194.865,-19116.18,-4255.695,-15376.32,-46935.54,-44393.355,-37699.02,-13869.0
1764766826.2049477,-12191.715,-19114.875,-4256.595,-15379.695,-46937.61,-44391.555,-37693.08,-13865.13
1764766826.2049477,-12183.03,-19107.45,-4249.125,-15372.18,-46933.335,-44387.955,-37685.43,-13857.345
1764766826.2049477,-12182.58,-19106.73,-4246.875,-15370.155,-46931.445,-44390.79,-37686.33,-13856.985
1764766826.2049477,-12192.615,-19117.215,-4256.639999999999,-15381.81,-46942.245,-44402.67,-37695.24,-13866.705
1764766826.2049477,-12190.545,-19115.82,-4255.56,-15383.115,-46943.955,-44402.445,-37692.72,-13865.04
1764766826.2049477,-12188.835,-19114.785,-4255.875,-15384.825,-46946.43,-44402.13,-37689.435,-13861.8
1764766826.2049477,-12179.475,-19105.47,-4246.38,-15374.25,-46935.495,-44394.12,-37682.415,-13852.26
1764766826.2049477,-12175.605,-19102.545,-4243.59,-15374.115,-46937.79,-44391.555,-37679.4,-13849.02
1764766826.2049477,-12174.84,-19104.21,-4250.25,-15385.23,-46954.395,-44393.22,-37674.405,-13846.59
1764766826.2049477,-12176.01,-19104.75,-4248.9,-15382.665,-46950.795,-44393.58,-37675.215,-13848.435
1764766826.2049477,-12177.585,-19103.445,-4240.889999999999,-15362.64,-46924.515,-44389.755,-37678.995,-13850.595
1764766826.2049477,-12181.455,-19106.775,-4245.705,-15373.26,-46936.485,-44399.745,-37685.97,-13855.86
1764766826.20604,-12176.955,-19104.21,-4244.58,-15374.16,-46938.195,-44393.67,-37678.905,-13850.82
1764766826.20604,-12180.105,-19108.845,-4252.59,-15384.87,-46950.75,-44396.55,-37678.815,-13851.765
1764766826.20604,-12179.745,-19109.205,-4252.139999999999,-15379.38,-46944.765,-44395.155,-37677.78,-13852.08
1764766826.20604,-12183.795,-19110.915,-4246.38,-15366.24,-46942.83,-44401.32,-37685.925,-13858.785
1764766826.20604,-12178.62,-19107.585,-4245.795,-15374.385,-46965.42,-44397.36,-37674.855,-13850.64
1764766826.20604,-12181.995,-19113.615,-4255.47,-15385.5,-46972.575,-44400.735,-37678.41,-13852.89
1764766826.20604,-12177.18,-19103.445,-4238.19,-15353.46,-46932.165,-44395.875,-37684.395,-13852.845
1764766826.20604,-12179.52,-19107.54,-4239.54,-15344.19,-46918.215,-44386.965,-37684.08,-13854.42
1764766826.207308,-12184.785,-19112.58,-4244.445,-15350.715,-46933.605,-44394.39,-37689.57,-13859.685
1764766826.207308,-12175.74,-19102.77,-4234.815,-15340.59,-46927.755,-44386.02,-37680.93,-13851.405
1764766826.2471309,-12177.63,-19104.165,-4234.095,-15337.575,-46928.115,-44383.32,-37679.175,-13852.305
1764766826.2471309,-12191.76,-19116.99,-4245.389999999999,-15347.205,-46944.765,-44395.605,-37690.29,-13864.635
1764766826.2481506,-12194.235,-19121.805,-4252.23,-15355.53,-46959.93,-44396.145,-37689.57,-13866.75
1764766826.2481506,-12191.4,-19120.77,-4253.67,-15356.88,-46965.78,-44394.075,-37686.915,-13864.455
1764766826.2481506,-12183.525,-19114.965,-4245.12,-15333.885,-46934.595,-44382.06,-37681.605,-13857.975
1764766826.2481506,-12192.255,-19123.155,-4248.405,-15323.985,-46920.42,-44383.23,-37694.07,-13867.695
1764766826.2481506,-12195.63,-19124.595,-4248.405,-15329.88,-46929.33,-44381.61,-37692.405,-13869.135
1764766826.2481506,-12193.56,-19111.41,-4232.115,-15323.94,-46932.255,-44387.865,-37697.895,-13870.395
1764766826.2481506,-12190.815,-19112.13,-4235.22,-15323.76,-46934.64,-44383.59,-37694.79,-13867.065
1764766826.2481506,-12190.32,-19114.2,-4238.505,-15324.3,-46935.36,-44379.54,-37691.415,-13865.58
1764766826.2481506,-12184.515,-19109.475,-4232.16,-15314.355,-46927.53,-44372.475,-37684.35,-13859.415
1764766826.2481506,-12190.23,-19114.965,-4236.75,-15314.22,-46930.455,-44376.12,-37687.77,-13864.455
1764766826.2481506,-12198.42,-19122.3,-4244.94,-15326.865,-46943.415,-44384.265,-37696.815,-13873.14
1764766826.2481506,-12199.005,-19123.065,-4246.65,-15326.28,-46940.49,-44384.805,-37698.57,-13874.13
1764766826.2491412,-12191.805,-19116.18,-4239.09,-15314.49,-46931.94,-44377.245,-37691.73,-13865.67
1764766826.2491412,-12191.13,-19115.955,-4239.675,-15316.83,-46932.615,-44373.33,-37689.525,-13863.915
1764766826.2491412,-12195.675,-19118.07,-4240.98,-15315.84,-46933.92,-44377.875,-37695.69,-13870.17
1764766826.2491412,-12202.65,-19126.98,-4248.495,-15322.455,-46941.21,-44384.265,-37702.44,-13878.0
1764766826.2491412,-12195.54,-19126.485,-4243.815,-15319.755,-46935.945,-44375.805,-37693.845,-13868.37
1764766826.2491412,-12191.445,-19116.945,-4237.38,-15314.76,-46928.97,-44369.865,-37688.76,-13863.825
1764766826.2491412,-12192.165,-19114.74,-4234.23,-15307.875,-46926.81,-44371.665,-37690.605,-13865.13
1764766826.2491412,-12201.525,-19125.0,-4244.04,-15318.225,-46938.87,-44384.22,-37702.62,-13875.03
1764766826.2945812,-12196.395,-19121.58,-4242.599999999999,-15317.865,-46937.655,-44379.495,-37696.365,-13869.135
1764766826.2945812,-12196.62,-19122.435,-4244.49,-15320.88,-46940.715,-44378.73,-37695.15,-13869.54
1764766826.2945812,-12202.875,-19129.635,-4252.59,-15330.465,-46947.69,-44379.315,-37695.555,-13873.365
1764766826.2945812,-12196.8,-19120.995,-4242.915,-15319.53,-46934.505,-44373.015,-37693.98,-13869.045
1764766826.2945812,-12198.24,-19121.895,-4244.04,-15317.46,-46935.99,-44379.315,-37699.74,-13871.97
1764766826.2945812,-12198.465,-19123.695,-4249.62,-15323.67,-46941.39,-44377.065,-37697.94,-13871.925
1764766826.2945812,-12192.66,-19117.53,-4241.34,-15315.03,-46942.695,-44368.605,-37690.29,-13864.905
1764766826.2945812,-12190.995,-19116.045,-4241.7,-15316.65,-46941.345,-44370.81,-37690.11,-13862.88
1764766826.2945812,-12185.055,-19108.575,-4231.17,-15296.85,-46908.72,-44358.93,-37686.915,-13858.83
1764766826.2945812,-12188.745,-19110.78,-4231.305,-15297.3,-46908.765,-44358.93,-37690.02,-13861.755
1764766826.2945812,-12190.995,-19114.605,-4237.155,-15304.905,-46919.25,-44361.63,-37690.065,-13863.24
1764766826.2945812,-12196.395,-19119.87,-4240.665,-15305.58,-46922.76,-44366.265,-37695.465,-13869.045
1764766826.2945812,-12190.905,-19115.28,-4237.155,-15303.87,-46920.15,-44360.775,-37690.875,-13863.825
1764766826.2945812,-12197.205,-19123.29,-4245.255,-15312.825,-46926.945,-44365.905,-37695.33,-13870.62
1764766826.2945812,-12196.665,-19122.03,-4243.05,-15308.46,-46923.885,-44365.095,-37696.455,-13870.53
1764766826.2945812,-12189.735,-19114.155,-4235.355,-15300.855,-46917.0,-44357.94,-37690.38,-13864.005
1764766826.2945812,-12188.925,-19112.355,-4235.445,-15301.935,-46917.495,-44356.86,-37688.49,-13862.61
1764766826.2945812,-12193.47,-19116.855,-4240.08,-15308.685,-46924.65,-44359.065,-37691.28,-13867.29
1764766826.2945812,-12185.19,-19109.835,-4234.455,-15301.44,-46912.77,-44349.075,-37681.785,-13858.47
1764766826.2945812,-12186.99,-19109.475,-4231.889999999999,-15296.76,-46908.18,-44352.18,-37686.555,-13861.665
1764766826.296215,-12189.69,-19113.705,-4236.48,-15304.095,-46917.18,-44351.145,-37684.89,-13862.43
1764766826.296215,-12196.755,-19121.58,-4245.345,-15312.915,-46923.21,-44358.48,-37692.36,-13868.82
1764766826.296215,-12191.04,-19113.39,-4234.139999999999,-15300.18,-46913.76,-44354.79,-37691.055,-13865.13
1764766826.296215,-12189.465,-19113.48,-4236.84,-15307.425,-46922.265,-44350.245,-37686.42,-13863.555
1764766826.3407006,-12189.645,-19112.67,-4235.264999999999,-15305.535,-46920.15,-44351.64,-37689.21,-13864.995
1764766826.3407006,-12199.23,-19123.65,-4249.125,-15319.575,-46923.03,-44357.76,-37695.69,-13872.6
1764766826.3407006,-12201.615,-19125.9,-4250.205,-15315.705,-46914.255,-44354.34,-37698.165,-13874.22
1764766826.3407006,-12192.165,-19113.21,-4232.835,-15295.455,-46900.395,-44348.355,-37693.98,-13866.795
1764766826.3407006,-12194.235,-19116.315,-4236.12,-15304.14,-46910.115,-44348.67,-37691.64,-13866.975
1764766826.3407006,-12204.99,-19133.865,-4257.135,-15322.905,-46923.12,-44357.94,-37700.1,-13876.875
1764766826.3407006,-12201.75,-19128.87,-4253.22,-15314.715,-46918.035,-44360.595,-37702.845,-13876.245
1764766826.3407006,-12199.005,-19119.42,-4242.555,-15317.37,-46924.335,-44360.415,-37699.74,-13873.905
1764766826.3407006,-12197.52,-19120.635,-4239.315,-15324.255,-46928.115,-44353.665,-37693.845,-13870.935
1764766826.3407006,-12198.24,-19122.48,-4241.565,-15319.305,-46924.155,-44355.69,-37697.76,-13872.87
1764766826.3407006,-12195.72,-19117.71,-4235.31,-15304.185,-46909.17,-44353.665,-37698.93,-13871.43
1764766826.3407006,-12189.285,-19110.105,-4226.94,-15297.21,-46900.98,-44342.82,-37693.305,-13865.4
1764766826.3407006,-12186.135,-19110.33,-4231.395,-15305.715,-46911.24,-44343.315,-37689.615,-13861.53
1764766826.3407006,-12185.28,-19110.69,-4232.07,-15310.215,-46921.32,-44344.98,-37688.76,-13860.585
1764766826.3407006,-12196.575,-19116.945,-4235.805,-15310.755,-46913.13,-44351.91,-37697.265,-13871.52
1764766826.3407006,-12207.825,-19129.14,-4247.415,-15318.045,-46913.445,-44360.1,-37707.795,-13883.13
1764766826.3407006,-12199.005,-19121.22,-4241.295,-15316.29,-46913.13,-44352.27,-37699.605,-13874.67
1764766826.3407006,-12196.215,-19120.68,-4242.645,-15320.115,-46916.1,-44349.39,-37696.68,-13872.42
1764766826.3407006,-12196.395,-19120.32,-4239.27,-15315.75,-46916.415,-44348.94,-37696.23,-13872.105
1764766826.3407006,-12196.935,-19119.195,-4235.085,-15313.5,-46923.12,-44352.855,-37698.39,-13873.77
1764766826.3407006,-12203.19,-19125.54,-4241.88,-15320.655,-46926.45,-44359.605,-37705.59,-13880.745
1764766826.3407006,-12200.445,-19123.245,-4241.745,-15318.81,-46910.61,-44352.54,-37702.305,-13877.685
1764766826.3886063,-12203.1,-19125.495,-4243.59,-15322.275,-46913.895,-44353.71,-37704.465,-13880.52
1764766826.3886063,-12198.465,-19122.435,-4240.395,-15320.295,-46915.65,-44351.595,-37699.29,-13876.11
1764766826.3886063,-12189.735,-19112.895,-4231.08,-15312.465,-46911.24,-44345.565,-37690.92,-13867.155
1764766826.3886063,-12192.795,-19115.595,-4233.915,-15316.74,-46915.605,-44347.41,-37693.665,-13869.99
1764766826.3886063,-12198.06,-19119.915,-4238.82,-15320.745,-46915.83,-44353.44,-37700.73,-13876.245
1764766826.3886063,-12196.575,-19118.52,-4238.82,-15324.345,-46919.25,-44349.93,-37695.465,-13872.69
1764766826.3886063,-12202.02,-19126.395,-4247.73,-15335.955,-46927.755,-44352.27,-37696.41,-13876.875
1764766826.3886063,-12198.195,-19117.935,-4234.275,-15315.21,-46911.42,-44352.945,-37702.755,-13876.605
1764766826.3886063,-12202.29,-19123.155,-4241.34,-15322.815,-46922.715,-44357.715,-37704.87,-13880.475
1764766826.3886063,-12203.55,-19126.44,-4248.405,-15335.145,-46933.92,-44356.185,-37702.08,-13880.745
1764766826.3886063,-12203.19,-19125.36,-4244.985,-15330.735,-46920.555,-44350.425,-37702.755,-13881.24
1764766826.3886063,-12201.525,-19122.48,-4242.195,-15322.77,-46913.805,-44349.705,-37702.44,-13879.71
1764766826.3886063,-12188.835,-19107.855,-4226.175,-15307.155,-46903.23,-44340.345,-37693.98,-13868.415
1764766826.3886063,-12190.455,-19108.845,-4226.67,-15311.88,-46908.99,-44341.155,-37694.07,-13869.18
1764766826.3886063,-12195.225,-19114.515,-4232.25,-15315.03,-46912.005,-44345.205,-37696.995,-13873.32
1764766826.3886063,-12190.365,-19109.34,-4224.87,-15304.365,-46904.4,-44341.92,-37694.205,-13869.045
1764766826.3886063,-12191.715,-19112.04,-4230.09,-15312.87,-46911.06,-44342.82,-37694.565,-13869.72
1764766826.3886063,-12199.455,-19119.645,-4237.2,-15314.22,-46909.305,-44346.645,-37701.9,-13876.965
1764766826.3886063,-12196.17,-19115.955,-4230.72,-15307.875,-46906.74,-44342.145,-37698.435,-13873.455
1764766826.3886063,-12201.705,-19122.255,-4240.485,-15324.57,-46921.275,-44348.355,-37703.115,-13878.54
1764766826.3886063,-12200.13,-19120.725,-4239.81,-15323.67,-46919.43,-44349.3,-37703.34,-13878.045
1764766826.3886063,-12192.39,-19111.68,-4227.84,-15304.365,-46902.78,-44338.725,-37695.825,-13870.62
1764766826.4329548,-12186.315,-19106.865,-4223.565,-15302.25,-46901.295,-44329.14,-37687.545,-13864.095
1764766826.4329548,-12191.94,-19111.995,-4227.615,-15304.95,-46901.745,-44331.345,-37691.37,-13869.585
1764766826.4329548,-12202.29,-19121.265,-4237.155,-15313.95,-46912.725,-44340.93,-37698.48,-13878.9
1764766826.4329548,-12204.72,-19129.32,-4251.195,-15328.845,-46919.205,-44339.22,-37697.49,-13879.44
1764766826.4329548,-12191.85,-19114.605,-4229.73,-15307.47,-46903.77,-44338.41,-37696.68,-13872.015
1764766826.4329548,-12189.825,-19107.495,-4223.295,-15311.295,-46921.545,-44345.745,-37699.065,-13871.745
1764766826.4329548,-12202.155,-19122.93,-4237.2,-15315.795,-46918.17,-44348.76,-37708.065,-13883.13
1764766826.4329548,-12203.37,-19124.73,-4234.68,-15304.32,-46895.895,-44340.255,-37708.515,-13884.345
1764766826.4329548,-12194.19,-19116.045,-4226.31,-15299.01,-46892.205,-44331.39,-37699.605,-13875.165
1764766826.4329548,-12196.98,-19119.24,-4230.495,-15305.49,-46901.34,-44335.53,-37700.64,-13877.19
1764766826.4329548,-12190.275,-19116.0,-4230.045,-15301.26,-46897.155,-44329.14,-37692.855,-13870.35
1764766826.4329548,-12190.86,-19117.215,-4231.44,-15302.52,-46898.325,-44331.39,-37695.105,-13871.61
1764766826.4329548,-12194.19,-19114.83,-4224.96,-15304.5,-46901.79,-44334.63,-37697.895,-13875.255
1764766826.4329548,-12196.53,-19114.2,-4224.014999999999,-15304.77,-46902.195,-44335.665,-37700.28,-13877.325
1764766826.4329548,-12200.445,-19121.76,-4233.15,-15311.7,-46909.53,-44339.985,-37705.455,-13881.42
1764766826.4329548,-12198.51,-19120.725,-4233.96,-15311.745,-46908.585,-44337.42,-37702.935,-13878.63
1764766826.4329548,-12189.735,-19110.555,-4223.88,-15301.44,-46898.595,-44328.375,-37696.23,-13869.63
1764766826.4329548,-12190.14,-19111.185,-4223.07,-15300.405,-46898.055,-44329.14,-37695.465,-13870.89
1764766826.434018,-12191.76,-19112.805,-4225.185,-15303.465,-46900.845,-44330.4,-37695.78,-13872.195
1764766826.434018,-12189.645,-19112.445,-4226.264999999999,-15302.07,-46900.215,-44328.645,-37694.655,-13870.62
1764766826.434018,-12186.585,-19111.68,-4224.24,-15301.305,-46906.965,-44328.825,-37692.63,-13868.145
1764766826.434018,-12188.88,-19109.79,-4223.34,-15304.455,-46912.815,-44332.695,-37694.7,-13870.08
1764766826.434018,-12196.53,-19117.71,-4230.495,-15308.19,-46906.695,-44334.045,-37699.11,-13876.245
1764766826.434018,-12193.605,-19114.335,-4227.57,-15303.735,-46899.405,-44327.52,-37695.87,-13873.23
1764766826.4810877,-12197.16,-19117.395,-4229.73,-15304.77,-46899.765,-44332.47,-37700.64,-13877.865
1764766826.4810877,-12192.795,-19113.75,-4226.67,-15302.16,-46898.55,-44328.015,-37697.31,-13873.545
1764766826.4810877,-12198.465,-19119.555,-4232.655,-15307.785,-46907.01,-44333.775,-37702.575,-13878.405
1764766826.4810877,-12200.805,-19122.795,-4235.76,-15310.485,-46909.71,-44336.34,-37705.635,-13881.465
1764766826.4810877,-12199.185,-19121.76,-4234.32,-15309.63,-46908.36,-44335.89,-37705.455,-13880.52
1764766826.4810877,-12194.37,-19115.73,-4228.065,-15304.32,-46902.6,-44329.905,-37699.695,-13875.705
1764766826.4810877,-12185.865,-19106.595,-4219.245,-15295.095,-46893.42,-44320.365,-37691.145,-13866.57
1764766826.4810877,-12192.21,-19113.705,-4226.445,-15302.34,-46900.89,-44328.015,-37698.3,-13873.455
1764766826.4810877,-12187.845,-19110.33,-4222.44,-15298.785,-46896.345,-44324.325,-37694.52,-13869.63
1764766826.4810877,-12195.18,-19118.07,-4228.695,-15304.23,-46902.195,-44329.68,-37700.1,-13876.605
1764766826.4810877,-12190.545,-19114.11,-4224.33,-15300.315,-46898.055,-44324.955,-37696.275,-13872.87
1764766826.4810877,-12196.17,-19118.97,-4228.965,-15305.58,-46903.005,-44329.86,-37700.595,-13877.28
1764766826.4810877,-12191.85,-19114.11,-4224.915,-15301.215,-46899.315,-44326.44,-37696.5,-13873.365
1764766826.4810877,-12194.55,-19116.09,-4227.255,-15304.095,-46902.645,-44328.915,-37699.2,-13875.975
1764766826.4810877,-12203.73,-19125.09,-4235.58,-15313.365,-46910.97,-44337.24,-37706.715,-13884.435
1764766826.4810877,-12201.48,-19122.3,-4233.465,-15310.665,-46907.325,-44333.01,-37703.79,-13881.69
1764766826.4810877,-12190.545,-19110.78,-4222.845,-15299.865,-46896.39,-44321.94,-37693.08,-13870.395
1764766826.4810877,-12192.885,-19113.3,-4225.005,-15302.07,-46898.055,-44323.2,-37694.43,-13873.41
1764766826.4810877,-12199.95,-19121.13,-4232.745,-15309.81,-46904.895,-44329.095,-37698.93,-13879.395
1764766826.4810877,-12197.655,-19122.255,-4235.085,-15309.945,-46904.04,-44328.645,-37696.32,-13876.515
1764766826.4810877,-12201.84,-19124.19,-4237.11,-15316.38,-46912.77,-44337.78,-37703.295,-13882.095
1764766826.4810877,-12200.175,-19118.25,-4230.63,-15314.22,-46912.23,-44338.185,-37705.455,-13882.365
1764766826.4810877,-12197.61,-19117.305,-4230.045,-15310.17,-46905.84,-44331.75,-37701.405,-13878.99
1764766826.4810877,-12197.205,-19117.71,-4230.0,-15309.495,-46904.58,-44329.815,-37699.02,-13877.73
1764766826.5277283,-12191.625,-19111.905,-4225.275,-15304.5,-46898.955,-44324.19,-37693.26,-13871.655
1764766826.5277283,-12190.32,-19111.005,-4225.545,-15303.375,-46897.515,-44322.705,-37692.135,-13871.295
1764766826.5277283,-12194.955,-19116.18,-4231.08,-15309.495,-46903.365,-44328.645,-37696.5,-13876.065
1764766826.5277283,-12203.055,-19124.325,-4240.349999999999,-15319.305,-46912.905,-44337.645,-37705.14,-13883.985
1764766826.5277283,-12199.545,-19121.04,-4239.27,-15321.87,-46916.325,-44340.66,-37705.275,-13881.735
1764766826.5277283,-12197.88,-19117.26,-4236.974999999999,-15319.08,-46911.78,-44336.07,-37704.87,-13880.97
1764766826.5277283,-12199.05,-19116.495,-4235.04,-15312.465,-46900.35,-44321.715,-37700.505,-13882.14
1764766826.5277283,-12195.72,-19117.98,-4235.94,-15310.845,-46899.27,-44320.455,-37693.395,-13877.55
1764766826.5277283,-12198.06,-19124.865,-4240.845,-15315.21,-46904.94,-44326.575,-37695.105,-13876.29
1764766826.5277283,-12199.05,-19124.505,-4241.52,-15316.83,-46905.3,-44329.185,-37697.445,-13877.685
1764766826.5277283,-12195.495,-19117.485,-4235.715,-15311.475,-46901.835,-44327.565,-37697.85,-13876.56
1764766826.5277283,-12199.23,-19119.78,-4239.45,-15315.075,-46907.505,-44334.405,-37702.305,-13879.215
1764766826.5277283,-12190.77,-19111.815,-4233.69,-15312.915,-46905.795,-44332.38,-37695.555,-13871.52
1764766826.5277283,-12193.245,-19115.505,-4240.53,-15322.905,-46914.66,-44338.275,-37701.09,-13875.795
1764766826.5277283,-12189.69,-19116.81,-4242.645,-15315.03,-46897.47,-44317.89,-37694.295,-13870.845
1764766826.5277283,-12199.455,-19130.85,-4257.585,-15320.79,-46903.05,-44327.79,-37698.165,-13878.945
1764766826.5277283,-12208.86,-19135.305,-4254.389999999999,-15316.74,-46902.87,-44332.56,-37700.19,-13885.38
1764766826.5277283,-12201.795,-19122.75,-4243.455,-15317.505,-46906.56,-44336.385,-37702.71,-13881.555
1764766826.5277283,-12192.66,-19116.045,-4240.035,-15310.44,-46897.335,-44327.07,-37693.755,-13871.88
1764766826.5277283,-12196.44,-19123.02,-4247.865,-15315.84,-46900.305,-44329.815,-37695.87,-13874.94
1764766826.5277283,-12190.77,-19117.53,-4243.545,-15311.16,-46894.5,-44323.56,-37688.58,-13867.965
1764766826.5277283,-12186.135,-19114.38,-4244.805,-15312.24,-46897.155,-44327.88,-37687.995,-13863.87
1764766826.5277283,-12182.58,-19116.27,-4249.44,-15313.185,-46895.94,-44325.63,-37683.18,-13860.405
1764766826.5277283,-12190.68,-19123.695,-4254.21,-15314.22,-46896.12,-44327.16,-37685.25,-13866.93
1764766826.5705593,-12194.595,-19127.475,-4256.415,-15318.18,-46899.315,-44331.39,-37690.245,-13870.44
1764766826.5705593,-12189.33,-19125.045,-4256.415,-15318.855,-46900.62,-44331.705,-37686.24,-13865.13
1764766826.5705593,-12188.205,-19126.71,-4260.195,-15322.23,-46901.565,-44330.535,-37683.54,-13863.735
1764766826.5705593,-12190.275,-19125.99,-4259.88,-15322.455,-46904.13,-44335.035,-37684.845,-13866.48
1764766826.5705593,-12192.84,-19128.645,-4263.93,-15327.18,-46908.36,-44338.995,-37688.805,-13869.36
1764766826.5705593,-12187.89,-19121.67,-4257.27,-15318.99,-46897.965,-44329.815,-37684.575,-13866.21
1764766826.5705593,-12177.09,-19115.145,-4255.245,-15319.53,-46898.955,-44330.13,-37677.645,-13858.785
1764766826.5705593,-12182.67,-19116.765,-4256.73,-15322.635,-46902.105,-44331.075,-37672.47,-13859.415
1764766826.5705593,-12179.97,-19114.875,-4257.495,-15324.345,-46903.455,-44331.615,-37671.795,-13856.31
1764766826.5705593,-12184.605,-19119.24,-4264.74,-15332.805,-46911.195,-44339.985,-37675.395,-13860.63
1764766826.5705593,-12172.815,-19108.665,-4257.27,-15327.045,-46904.985,-44334.99,-37668.24,-13850.64
1764766826.5705593,-12172.05,-19108.125,-4259.79,-15331.14,-46906.605,-44336.79,-37666.89,-13849.965
1764766826.5705593,-12171.06,-19107.09,-4261.815,-15334.515,-46907.73,-44339.94,-37667.7,-13848.705
1764766826.5705593,-12178.44,-19113.66,-4270.905,-15341.535,-46910.88,-44345.205,-37675.17,-13854.915
1764766826.5705593,-12174.525,-19110.105,-4272.705,-15345.63,-46915.335,-44350.605,-37670.355,-13852.08
1764766826.5705593,-12171.06,-19106.505,-4274.055,-15349.59,-46918.395,-44356.05,-37668.015,-13848.3
1764766826.5705593,-12161.565,-19098.18,-4269.06,-15343.155,-46906.425,-44345.745,-37657.62,-13839.165
1764766826.5705593,-12157.47,-19095.75,-4271.22,-15346.305,-46907.1,-44349.885,-37653.435,-13835.565
1764766826.5705593,-12152.07,-19089.81,-4271.04,-15347.52,-46904.895,-44351.955,-37649.25,-13830.93
1764766826.5705593,-12155.76,-19094.355,-4280.264999999999,-15357.105,-46908.54,-44359.74,-37652.985,-13835.655
1764766826.5719578,-12154.635,-19093.23,-4279.815,-15357.42,-46904.265,-44360.865,-37646.28,-13830.39
1764766826.5719578,-12153.78,-19093.725,-4288.86,-15373.755,-46916.82,-44378.64,-37651.95,-13832.145
1764766826.6181982,-12144.915,-19087.155,-4291.02,-15380.1,-46915.515,-44381.52,-37646.505,-13824.54
1764766826.6181982,-12150.405,-19095.93,-4307.805,-15402.15,-46930.635,-44400.015,-37651.59,-13826.43
1764766826.6181982,-12138.435,-19081.53,-4300.29,-15398.595,-46921.365,-44397.135,-37651.59,-13820.31
1764766826.6181982,-12135.96,-19073.52,-4299.615,-15399.405,-46915.695,-44397.99,-37674.54,-13831.29
1764766826.6181982,-12142.395,-19084.05,-4319.19,-15421.95,-46932.84,-44421.705,-37692.81,-13829.895
1764766826.6181982,-12148.92,-19105.74,-4355.099999999999,-15463.08,-46968.705,-44464.455,-37663.02,-13797.135
1764766826.6181982,-12140.505,-19101.645,-4362.165,-15470.73,-46969.2,-44465.445,-37604.115,-13779.72
1764766826.6181982,-12146.22,-19089.81,-4354.065,-15460.065,-46951.605,-44453.655,-37618.65,-13834.935
1764766826.6181982,-12147.885,-19097.37,-4373.37,-15479.73,-46966.41,-44472.87,-37646.37,-13828.95
1764766826.6181982,-12143.385,-19098.09,-4387.139999999999,-15495.705,-46981.26,-44498.97,-37656.855,-13824.72
1764766826.6181982,-12125.655,-19084.77,-4387.005,-15499.35,-46986.795,-44514.495,-37651.5,-13808.115
1764766826.6197407,-12103.695,-19051.065,-4359.78,-15468.795,-46954.08,-44484.75,-37644.525,-13806.045
1764766826.6197407,-12112.11,-19056.465,-4371.075,-15474.105,-46953.36,-44493.795,-37668.555,-13808.34
1764766826.6197407,-12134.97,-19096.47,-4424.895,-15527.115,-47003.805,-44552.655,-37686.96,-13802.49
1764766826.6197407,-12150.945,-19124.865,-4470.345,-15568.11,-47041.29,-44586.72,-37667.565,-13812.075
1764766826.6197407,-12133.935,-19097.55,-4446.764999999999,-15537.6,-47008.665,-44569.89,-37669.635,-13832.595
1764766826.6197407,-12145.995,-19105.56,-4457.34,-15541.515,-47009.43,-44583.93,-37662.795,-13840.695
1764766826.6197407,-12161.16,-19127.34,-4485.915,-15565.635,-47026.755,-44588.52,-37662.615,-13831.515
1764766826.6197407,-12144.645,-19120.455,-4486.59,-15561.765,-47020.41,-44587.62,-37659.645,-13792.5
1764766826.6197407,-12137.175,-19117.305,-4495.095,-15567.93,-47027.925,-44612.1,-37674.63,-13794.525
1764766826.6197407,-12122.055,-19102.095,-4488.345,-15555.42,-47013.345,-44588.61,-37619.415,-13782.105
1764766826.6197407,-12134.835,-19106.865,-4502.34,-15564.78,-47022.84,-44595.54,-37581.345,-13809.105
1764766826.6197407,-12129.39,-19099.62,-4504.455,-15562.755,-47018.43,-44597.205,-37613.025,-13829.805
1764766826.6197407,-12124.08,-19099.665,-4514.94,-15574.905,-47037.42,-44625.015,-37659.69,-13816.485
1764766826.6685166,-12116.07,-19090.98,-4515.075,-15576.255,-47044.665,-44649.585,-37679.355,-13811.76
1764766826.6685166,-12122.055,-19097.64,-4525.965,-15577.92,-47037.87,-44648.775,-37634.625,-13807.125
1764766826.6685166,-12132.675,-19117.71,-4554.135,-15595.65,-47045.52,-44639.82,-37572.795,-13796.325
1764766826.6685166,-12138.165,-19127.295,-4574.79,-15614.1,-47065.365,-44677.665,-37608.795,-13804.245
1764766826.6685166,-12140.1,-19130.445,-4588.02,-15624.18,-47075.445,-44695.035,-37624.05,-13808.565
1764766826.6685166,-12136.32,-19127.385,-4596.615,-15625.98,-47079.0,-44695.8,-37624.14,-13807.17
1764766826.6685166,-12130.335,-19123.065,-4606.02,-15622.2,-47089.125,-44701.335,-37621.89,-13802.355
1764766826.6685166,-12119.31,-19115.1,-4610.429999999999,-15612.84,-47096.415,-44708.76,-37616.49,-13792.32
1764766826.6685166,-12118.995,-19117.395,-4626.72,-15615.81,-47115.405,-44721.9,-37618.74,-13791.105
1764766826.6685166,-12113.145,-19114.02,-4639.32,-15621.345,-47128.185,-44726.715,-37614.24,-13784.13
1764766826.6685166,-12113.73,-19117.845,-4660.11,-15641.64,-47148.03,-44740.71,-37618.02,-13785.705
1764766826.6685166,-12105.0,-19110.735,-4671.224999999999,-15655.365,-47155.815,-44745.795,-37612.53,-13778.955
1764766826.6685166,-12100.455,-19108.89,-4688.73,-15675.795,-47169.99,-44754.615,-37609.74,-13772.88
1764766826.6685166,-12107.295,-19118.655,-4716.945,-15705.09,-47193.255,-44775.135,-37616.535,-13778.415
1764766826.6685166,-12100.005,-19113.93,-4730.804999999999,-15719.4,-47200.545,-44781.255,-37609.875,-13770.495
1764766826.6685166,-12105.315,-19122.165,-4756.05,-15751.8,-47216.61,-44799.66,-37615.185,-13774.68
1764766826.6685166,-12102.93,-19122.39,-4774.23,-15776.46,-47225.34,-44813.115,-37614.015,-13772.385
1764766826.6685166,-12092.895,-19115.505,-4784.985,-15790.5,-47225.52,-44818.11,-37606.77,-13765.545
1764766826.6685166,-12097.53,-19122.525,-4810.59,-15815.52,-47238.255,-44837.145,-37611.0,-13769.64
1764766826.6685166,-12098.07,-19125.99,-4832.955,-15833.88,-47246.76,-44853.255,-37611.09,-13768.245
1764766826.6685166,-12089.16,-19120.185,-4846.905,-15840.495,-47246.13,-44863.155,-37605.51,-13758.93
1764766826.6685166,-12088.89,-19122.48,-4870.62,-15852.915,-47253.015,-44882.325,-37608.75,-13758.165
1764766826.7117517,-12082.77,-19119.33,-4887.945,-15856.605,-47249.955,-44888.265,-37598.805,-13751.145
1764766826.7117517,-12094.245,-19133.235,-4923.54,-15875.82,-47261.43,-44907.345,-37599.255,-13760.46
1764766826.7127578,-12091.32,-19133.73,-4947.84,-15883.47,-47264.625,-44923.05,-37598.49,-13757.49
1764766826.7127578,-12080.475,-19125.945,-4964.849999999999,-15882.435,-47259.675,-44931.645,-37592.73,-13747.455
1764766826.7127578,-12081.42,-19130.175,-4993.785,-15891.48,-47262.645,-44946.54,-37590.39,-13746.915
1764766826.7127578,-12090.915,-19143.54,-5031.945,-15907.725,-47271.33,-44966.745,-37595.61,-13754.7
1764766826.7127578,-12089.43,-19144.44,-5060.25,-15916.455,-47273.985,-44982.63,-37593.63,-13752.225
1764766826.7127578,-12079.125,-19138.005,-5083.245,-15918.3,-47270.115,-44991.72,-37585.215,-13741.785
1764766826.7127578,-12081.645,-19145.07,-5119.02,-15933.645,-47279.25,-45014.265,-37587.555,-13743.945
1764766826.7127578,-12079.98,-19146.105,-5149.665,-15943.59,-47280.915,-45029.79,-37586.07,-13741.965
1764766826.7127578,-12074.175,-19142.955,-5177.745,-15947.82,-47276.28,-45038.295,-37575.225,-13733.595
1764766826.7127578,-12079.755,-19153.665,-5221.395,-15970.05,-47289.915,-45065.79,-37579.05,-13737.915
1764766826.7127578,-12080.34,-19158.705,-5261.49,-15988.5,-47298.015,-45088.065,-37578.42,-13736.835
1764766826.7127578,-12074.94,-19157.22,-5295.87,-16000.065,-47298.69,-45104.58,-37576.935,-13733.055
1764766826.7127578,-12073.14,-19158.12,-5331.42,-16011.495,-47297.79,-45119.88,-37573.2,-13730.49
1764766826.7127578,-12069.72,-19159.245,-5368.275,-16027.065,-47305.89,-45142.695,-37570.14,-13726.215
1764766826.7127578,-12061.575,-19156.455,-5403.15,-16039.44,-47305.215,-45155.115,-37558.89,-13715.64
1764766826.7127578,-12064.005,-19164.42,-5448.915,-16060.815,-47311.605,-45177.93,-37561.095,-13717.08
1764766826.7127578,-12057.03,-19160.055,-5481.36,-16068.735,-47304.135,-45186.93,-37553.04,-13709.745
1764766826.7127578,-12050.145,-19157.4,-5517.27,-16081.335,-47302.785,-45202.32,-37547.145,-13702.815
1764766826.7127578,-12052.35,-19166.22,-5565.51,-16105.23,-47310.12,-45225.99,-37547.82,-13704.03
1764766826.7127578,-12057.84,-19179.09,-5620.094999999999,-16137.27,-47325.015,-45257.49,-37552.32,-13708.17
1764766826.7127578,-12049.11,-19169.28,-5649.03,-16143.345,-47315.565,-45269.1,-37543.185,-13700.97
1764766826.7127578,-12041.595,-19167.75,-5688.675,-16159.5,-47311.47,-45283.32,-37538.01,-13692.42
1764766826.7595327,-12039.66,-19172.115,-5736.105,-16184.655,-47315.205,-45301.77,-37531.755,-13690.575
1764766826.7595327,-12038.04,-19172.385,-5778.09,-16207.875,-47320.605,-45328.41,-37531.665,-13689.99
1764766826.7595327,-12044.115,-19185.345,-5835.87,-16242.12,-47331.63,-45358.065,-37533.87,-13691.565
1764766826.7595327,-12036.195,-19183.185,-5881.905,-16268.49,-47336.22,-45383.445,-37532.655,-13685.355
1764766826.7595327,-12041.82,-19193.715,-5937.84,-16302.555,-47343.69,-45411.345,-37533.6,-13690.575
1764766826.7595327,-12037.68,-19194.21,-5987.115,-16333.02,-47347.335,-45435.555,-37528.47,-13684.185
1764766826.7595327,-12027.51,-19187.505,-6029.19,-16356.33,-47342.52,-45448.74,-37513.53,-13671.855
1764766826.7595327,-12025.71,-19193.085,-6086.07,-16394.715,-47352.06,-45480.645,-37517.715,-13671.945
1764766826.7595327,-12027.87,-19198.08,-6142.094999999999,-16431.84,-47357.73,-45508.68,-37517.04,-13672.305
1764766826.7595327,-12023.955,-19199.79,-6198.3,-16470.18,-47366.055,-45535.815,-37512.225,-13666.5
1764766826.7595327,-12016.305,-19196.19,-6250.005,-16504.29,-47368.215,-45558.72,-37504.395,-13660.47
1764766826.7595327,-12005.28,-19188.0,-6297.3,-16530.93,-47359.395,-45573.48,-37494.27,-13651.065
1764766826.7595327,-11997.585,-19187.19,-6356.34,-16571.07,-47363.085,-45599.355,-37489.995,-13644.27
1764766826.7595327,-12003.12,-19196.82,-6425.145,-16623.54,-47379.105,-45635.67,-37492.92,-13649.265
1764766826.760564,-11997.585,-19186.65,-6468.57,-16645.995,-47364.48,-45649.26,-37482.075,-13646.745
1764766826.760564,-11990.295,-19197.54,-6549.795,-16713.899999999998,-47393.37,-45696.195,-37477.71,-13632.3
1764766826.760564,-11978.64,-19194.21,-6612.389999999999,-16762.995,-47404.665,-45732.015,-37472.94,-13619.34
1764766826.760564,-11966.85,-19190.295,-6669.855,-16802.55,-47405.295,-45761.13,-37474.515,-13616.685
1764766826.760564,-11973.555,-19192.68,-6734.79,-16851.78,-47409.795,-45783.765,-37463.67,-13618.665
1764766826.760564,-11984.94,-19195.11,-6796.62,-16894.305,-47407.86,-45816.705,-37468.71,-13623.705
1764766826.760564,-11979.315,-19194.39,-6863.94,-16948.395,-47418.165,-45855.09,-37465.83,-13619.07
1764766826.760564,-11968.83,-19190.295,-6924.24,-16996.815,-47421.225,-45884.97,-37455.66,-13607.235
1764766826.8056743,-11954.655,-19183.23,-6985.215,-17049.51,-47423.25,-45914.265,-37444.59,-13593.375
1764766826.8056743,-11953.395,-19181.52,-7049.115,-17107.829999999998,-47431.755,-45952.02,-37443.195,-13592.565
1764766826.8056743,-11947.68,-19176.435,-7112.429999999999,-17167.454999999998,-47440.44,-45988.425,-37439.685,-13587.93
1764766826.8056743,-11942.19,-19171.08,-7173.99,-17228.7,-47449.575,-46026.27,-37435.455,-13582.575
1764766826.8056743,-11934.855,-19161.09,-7227.495,-17277.795,-47445.795,-46055.07,-37427.805,-13575.465
1764766826.806183,-11938.05,-19164.825,-7300.844999999999,-17349.48,-47465.19,-46103.94,-37433.43,-13579.83
1764766826.806183,-11929.77,-19156.365,-7361.82,-17409.285,-47471.31,-46140.93,-37428.03,-13572.945
1764766826.806183,-11916.765,-19143.225,-7418.7,-17467.875,-47474.055,-46174.905,-37418.49,-13561.56
1764766826.8525288,-11913.345,-19143.09,-7489.665,-17543.114999999998,-47491.29,-46220.625,-37417.77,-13559.4
1764766826.8525288,-11902.23,-19133.865,-7550.639999999999,-17611.785,-47499.39,-46259.73,-37408.815,-13548.555
1764766826.8525288,-11894.13,-19127.115,-7615.934999999999,-17687.024999999998,-47512.71,-46304.415,-37402.605,-13541.445
1764766826.8525288,-11893.365,-19127.295,-7687.755,-17771.535,-47534.535,-46358.595,-37403.64,-13541.445
1764766826.8525288,-11886.795,-19120.32,-7754.219999999999,-17851.094999999998,-47550.69,-46408.545,-37399.995,-13536.18
1764766826.8525288,-11875.32,-19109.43,-7818.12,-17927.46,-47563.425,-46454.94,-37391.31,-13526.145
1764766826.8525288,-11864.07,-19098.495,-7881.84,-18003.87,-47574.99,-46500.75,-37380.51,-13515.3
1764766826.8525288,-11865.555,-19100.565,-7957.755,-18093.465,-47598.93,-46561.05,-37383.615,-13517.865
1764766826.8525288,-11851.785,-19087.83,-8018.37,-18169.245,-47608.425,-46606.14,-37372.005,-13505.625
1764766826.8525288,-11848.68,-19086.165,-8090.28,-18258.165,-47630.34,-46663.065,-37370.655,-13504.095
1764766826.8525288,-11839.86,-19078.02,-8155.215,-18342.72,-47648.655,-46716.48,-37364.31,-13497.3
1764766826.8525288,-11826.72,-19065.78,-8216.1,-18422.055,-47664.765,-46766.025,-37354.14,-13486.995
1764766826.8525288,-11809.395,-19047.735,-8272.529999999999,-18492.39,-47676.825,-46810.89,-37342.395,-13473.63
1764766826.8525288,-11802.42,-19040.31,-8339.805,-18569.745,-47701.44,-46864.125,-37341.63,-13473.27
1764766826.8525288,-11791.35,-19035.945,-8409.33,-18643.185,-47721.87,-46912.005,-37329.975,-13459.815
1764766826.8525288,-11787.39,-19026.945,-8467.199999999999,-18704.16,-47736.315,-46965.015,-37325.115,-13452.39
1764766826.8525288,-11771.28,-19016.28,-8532.09,-18778.815,-47771.235,-47022.57,-37317.51,-13438.845
1764766826.8525288,-11764.35,-19012.86,-8600.535,-18852.705,-47802.06,-47074.095,-37304.955,-13435.965
1764766826.8525288,-11760.435,-19017.855,-8679.69,-18939.78,-47851.29,-47148.345,-37301.265,-13429.8
1764766826.8525288,-11763.135,-19008.405,-8735.895,-19004.04,-47888.235,-47215.98,-37302.03,-13432.995
1764766826.8525288,-11744.64,-18989.595,-8788.14,-19061.955,-47926.575,-47279.385,-37292.22,-13415.94
1764766826.8525288,-11735.955,-18992.34,-8866.44,-19141.155,-47981.07,-47346.795,-37287.72,-13409.37
1764766826.8525288,-11717.235,-18972.27,-8915.355,-19189.62,-48007.575,-47394.99,-37268.865,-13395.555
1764766826.8525288,-11711.115,-18959.895,-8969.22,-19242.18,-48037.995,-47454.3,-37260.765,-13388.94
1764766826.8525288,-11713.545,-18972.045,-9057.6,-19335.645,-48106.215,-47537.19,-37261.845,-13389.12
1764766826.8525288,-11694.96,-18955.08,-9112.815,-19394.145,-48141.045,-47596.365,-37249.74,-13372.695
1764766826.8525288,-11682.18,-18942.345,-9164.115,-19445.58,-48167.64,-47644.02,-37238.58,-13362.075
1764766826.8525288,-11690.19,-18952.515,-9224.82,-19508.175,-48209.85,-47700.675,-37238.22,-13369.455
1764766826.8525288,-11687.355,-18952.38,-9260.055,-19546.785,-48235.14,-47737.305,-37238.985,-13367.205
1764766826.8525288,-11685.555,-18951.3,-9274.68,-19566.585,-48245.715,-47755.035,-37241.73,-13368.69
1764766826.8525288,-11686.995,-18952.2,-9276.57,-19578.51,-48251.88,-47763.09,-37243.8,-13370.805
1764766826.8525288,-11687.58,-18952.155,-9263.205,-19579.905,-48253.815,-47761.065,-37245.96,-13372.425
1764766826.8525288,-11699.55,-18963.405,-9249.93,-19584.495,-48261.195,-47762.46,-37258.245,-13385.61
1764766826.8525288,-11707.92,-18972.675,-9230.355,-19584.81,-48265.02,-47758.365,-37267.065,-13394.97
1764766826.8525288,-11706.705,-18971.37,-9201.825,-19579.005,-48262.68,-47749.905,-37268.91,-13394.79
1764766826.8525288,-11708.73,-18971.145,-9177.75,-19577.79,-48261.555,-47744.055,-37272.33,-13398.705
1764766826.8525288,-11716.83,-18978.39,-9162.99,-19584.36,-48265.605,-47743.695,-37277.955,-13406.445
1764766826.8525288,-11732.22,-18993.24,-9159.885,-19601.82,-48280.905,-47755.8,-37292.805,-13422.195
1764766826.8998835,-11734.965,-18995.445,-9147.42,-19609.92,-48286.575,-47759.265,-37297.53,-13426.695
1764766826.8998835,-11737.845,-18998.64,-9136.44,-19618.335,-48292.605,-47762.235,-37301.94,-13431.015
1764766826.8998835,-11744.28,-19005.03,-9129.825,-19627.47,-48299.445,-47767.365,-37308.015,-13438.215
1764766826.8998835,-11747.43,-19007.595,-9120.78,-19632.6,-48305.295,-47770.92,-37311.84,-13441.275
1764766826.8998835,-11748.465,-19010.79,-9113.355,-19638.99,-48313.215,-47775.51,-37314.495,-13443.12
1764766826.8998835,-11747.88,-19010.43,-9103.365,-19640.745,-48315.825,-47774.295,-37313.775,-13442.04
1764766826.8998835,-11741.805,-19005.165,-9088.02,-19638.135,-48314.295,-47768.625,-37307.52,-13436.19
1764766826.8998835,-11742.705,-19007.19,-9078.48,-19640.07,-48319.515,-47769.615,-37309.095,-13436.865
1764766826.8998835,-11746.71,-19013.58,-9072.945,-19643.175,-48328.605,-47772.405,-37314.675,-13440.87
1764766826.8998835,-11755.755,-19024.425,-9072.18,-19648.62,-48341.295,-47776.95,-37322.91,-13449.825
1764766826.8998835,-11750.58,-19018.125,-9055.845,-19636.38,-48339.855,-47767.365,-37317.105,-13445.01
1764766826.8998835,-11751.435,-19022.445,-9055.485,-19641.105,-48358.44,-47775.42,-37322.19,-13447.26
1764766826.8998835,-11750.76,-19027.62,-9053.28,-19638.765,-48362.22,-47770.515,-37316.97,-13444.2
1764766826.8998835,-11757.465,-19026.135,-9041.67,-19624.365,-48361.23,-47767.86,-37326.78,-13454.73
1764766826.8998835,-11757.24,-19032.03,-9045.765,-19622.07,-48370.005,-47764.395,-37327.77,-13459.185
1764766826.8998835,-11760.84,-19042.155,-9058.185,-19634.76,-48402.315,-47790.9,-37333.98,-13459.725
1764766826.8998835,-11768.67,-19049.22,-9065.115,-19639.125,-48425.04,-47810.07,-37342.755,-13462.425
1764766826.8998835,-11772.855,-19059.93,-9077.22,-19644.795,-48438.63,-47804.265,-37328.085,-13461.075
1764766826.8998835,-11771.28,-19049.67,-9062.505,-19627.875,-48442.32,-47807.055,-37324.305,-13459.68
1764766826.8998835,-11775.06,-19053.945,-9063.09,-19628.505,-48461.94,-47822.76,-37336.05,-13466.205
1764766826.8998835,-11767.05,-19048.905,-9054.63,-19620.225,-48468.15,-47820.78,-37330.065,-13460.31
1764766826.8998835,-11770.92,-19053.585,-9056.07,-19623.69,-48484.17,-47830.77,-37333.26,-13463.775
1764766826.8998835,-11766.42,-19050.12,-9048.285,-19618.425,-48490.965,-47833.38,-37329.84,-13460.04
1764766826.8998835,-11770.92,-19053.72,-9047.655,-19621.935,-48502.305,-47842.02,-37333.08,-13465.08
1764766826.945949,-11765.385,-19048.635,-9037.845,-19618.56,-48505.86,-47843.595,-37327.455,-13459.455
1764766826.945949,-11766.51,-19050.03,-9034.335,-19623.42,-48515.22,-47851.335,-37329.48,-13461.03
1764766826.945949,-11774.7,-19058.04,-9036.45,-19634.355,-48530.745,-47866.86,-37338.03,-13469.13
1764766826.945949,-11768.22,-19051.605,-9021.87,-19628.01,-48528.045,-47863.755,-37333.035,-13464.27
1764766826.945949,-11766.105,-19049.265,-9008.64,-19624.185,-48528.765,-47864.7,-37330.875,-13462.38
1764766826.945949,-11770.2,-19051.2,-9000.81,-19625.085,-48531.69,-47868.165,-37334.79,-13467.33
1764766826.9470172,-11772.855,-19052.505,-8991.359999999999,-19624.455,-48531.825,-47869.515,-37337.94,-13471.155
1764766826.9470172,-11775.42,-19054.755,-8980.065,-19623.96,-48529.26,-47869.515,-37341.315,-13474.215
1764766826.9470172,-11785.77,-19063.89,-8974.17,-19629.855,-48534.48,-47876.85,-37352.79,-13484.655
1764766826.9470172,-11791.215,-19068.345,-8961.21,-19628.145,-48532.77,-47876.04,-37359.99,-13491.405
1764766826.9470172,-11793.105,-19067.13,-8941.32,-19621.89,-48524.67,-47868.795,-37362.465,-13494.105
1764766826.9470172,-11794.005,-19065.105,-8919.404999999999,-19615.545,-48514.59,-47860.74,-37364.04,-13496.085
1764766826.9470172,-11795.715,-19064.205,-8899.244999999999,-19611.405,-48506.76,-47856.465,-37365.885,-13497.795
1764766826.9470172,-11797.335,-19062.855,-8879.175,-19608.57,-48500.01,-47853.765,-37368.09,-13499.055
1764766826.9470172,-11793.24,-19055.475,-8855.279999999999,-19602.18,-48488.355,-47846.79,-37365.255,-13495.68
1764766826.9480157,-11802.825,-19062.36,-8847.27,-19610.37,-48491.505,-47854.98,-37376.595,-13506.795
1764766826.9480157,-11799.54,-19056.69,-8828.73,-19607.445,-48480.21,-47850.705,-37374.255,-13504.455
1764766826.9480157,-11806.29,-19062.27,-8822.34,-19619.595,-48479.445,-47856.42,-37381.23,-13512.195
1764766826.9480157,-11805.615,-19059.075,-8809.244999999999,-19628.73,-48475.44,-47860.2,-37383.12,-13514.22
1764766826.9480157,-11801.925,-19052.505,-8793.27,-19636.47,-48469.815,-47863.44,-37381.995,-13512.375
1764766826.9480157,-11795.265,-19042.92,-8772.885,-19639.395,-48458.97,-47862.36,-37377.54,-13506.93
1764766826.9480157,-11800.17,-19044.405,-8763.75,-19653.525,-48459.42,-47873.43,-37382.94,-13512.42
1764766826.990565,-11791.485,-19032.615,-8742.42,-19656.99,-48448.98,-47873.07,-37375.605,-13504.23
1764766826.990565,-11785.815,-19025.865,-8725.275,-19666.395,-48445.065,-47878.74,-37372.86,-13500.315
1764766826.990565,-11786.715,-19023.705,-8711.73,-19678.905,-48444.57,-47889.81,-37377.99,-13502.925
1764766826.990565,-11797.74,-19034.055,-8708.67,-19702.755,-48450.375,-47904.255,-37386.54,-13514.13
1764766826.990565,-11801.385,-19030.095,-8688.105,-19711.98,-48443.715,-47906.775,-37382.445,-13518.27
1764766826.9910812,-11790.18,-19016.91,-8659.529999999999,-19719.27,-48436.515,-47911.185,-37379.43,-13508.19
1764766826.9910812,-11786.355,-19010.79,-8636.445,-19733.895,-48433.59,-47918.7,-37379.07,-13505.76
