Timestamp,Channel1,Channel2,Channel3,Channel4,Channel5,Channel6,Channel7,Channel8
1764505177.1590214,20639.97,-13773.24,-11386.35,-18687.69,-30277.035,-53323.65,-26584.74,-27220.005
1764505177.1590214,20630.655,-13782.105,-11395.215,-18696.915,-30285.81,-53331.345,-26596.305,-27229.59
1764505177.1590214,20636.55,-13774.815,-11388.15,-18689.535,-30279.78,-53327.25,-26595.765,-27226.71
1764505177.1590214,20640.645,-13772.385,-11385.765,-18687.105,-30277.98,-53325.45,-26589.78,-27221.04
1764505177.1590214,20641.68,-13770.09,-11382.57,-18684.045,-30275.595,-53323.065,-26588.25,-27220.59
1764505177.1978748,20643.12,-13768.11,-11380.635,-18682.335,-30273.705,-53321.67,-26588.88,-27220.725
1764505177.1978748,20643.93,-13767.57,-11380.77,-18682.695,-30274.38,-53323.47,-26589.42,-27220.77
1764505177.1978748,20645.235,-13766.04,-11380.005,-18682.47,-30274.515,-53324.955,-26590.23,-27218.925
1764505177.1978748,20640.735,-13770.315,-11383.155,-18684.81,-30276.63,-53325.405,-26593.695,-27223.11
1764505177.1978748,20634.57,-13776.48,-11388.735,-18690.12,-30281.805,-53329.905,-26600.31,-27228.465
1764505177.1978748,20638.17,-13772.565,-11385.315,-18686.925,-30280.185,-53327.88,-26598.105,-27225.45
1764505177.1978748,20638.71,-13771.845,-11384.505,-18686.34,-30279.105,-53327.43,-26599.68,-27225.9
1764505177.1978748,20643.345,-13766.13,-11377.665,-18680.13,-30273.12,-53322.03,-26594.505,-27221.04
1764505177.1978748,20639.43,-13770.45,-11381.175,-18683.37,-30275.595,-53323.65,-26596.89,-27225.225
1764505177.1978748,20632.5,-13779.72,-11391.615,-18692.865,-30284.64,-53330.13,-26592.12,-27227.88
1764505177.1978748,20634.165,-13776.525,-11388.465,-18690.39,-30282.435,-53330.4,-26598.555,-27227.97
1764505177.1978748,20642.76,-13764.6,-11375.64,-18677.655,-30271.275,-53321.895,-26603.19,-27223.065
1764505177.1978748,20647.215,-13760.37,-11371.59,-18673.695,-30267.18,-53316.045,-26594.46,-27218.88
1764505177.1978748,20638.53,-13772.25,-11383.02,-18686.07,-30278.43,-53324.28,-26581.365,-27221.715
1764505177.1978748,20635.335,-13775.4,-11385.81,-18688.77,-30281.715,-53327.88,-26588.565,-27223.92
1764505177.1978748,20630.25,-13780.08,-11390.94,-18692.235,-30284.505,-53329.68,-26596.98,-27230.13
1764505177.1978748,20635.11,-13776.75,-11387.43,-18689.175,-30280.59,-53325.54,-26589.915,-27224.865
1764505177.1978748,20637.72,-13772.835,-11384.055,-18685.89,-30278.07,-53325.135,-26591.445,-27224.415
1764505177.1978748,20635.155,-13776.39,-11387.25,-18688.95,-30281.67,-53328.6,-26595.27,-27227.925
1764505177.1978748,20635.47,-13776.39,-11387.07,-18688.32,-30280.68,-53328.555,-26595.495,-27227.115
1764505177.1978748,20636.505,-13774.815,-11385.27,-18686.295,-30279.465,-53326.89,-26594.955,-27225.99
1764505177.1978748,20638.08,-13773.555,-11383.2,-18685.08,-30277.845,-53324.865,-26593.29,-27224.28
1764505177.1978748,20642.13,-13769.595,-11379.6,-18681.255,-30274.065,-53321.04,-26589.105,-27220.5
1764505177.1978748,20642.355,-13769.415,-11379.015,-18680.94,-30273.48,-53321.22,-26589.78,-27220.095
1764505177.2437618,20646.63,-13763.52,-11373.795,-18675.405,-30269.745,-53319.465,-26591.58,-27218.115
1764505177.2437618,20648.475,-13759.245,-11368.53,-18669.87,-30265.38,-53317.08,-26598.105,-27220.275
1764505177.2437618,20640.96,-13769.19,-11378.565,-18679.725,-30271.995,-53319.42,-26590.905,-27222.885
1764505177.2437618,20631.735,-13780.845,-11391.075,-18692.415,-30283.155,-53328.24,-26589.33,-27227.16
1764505177.2437618,20635.335,-13775.94,-11385.63,-18687.78,-30279.24,-53326.305,-26592.435,-27226.125
1764505177.2437618,20644.02,-13765.86,-11375.46,-18677.52,-30270.465,-53319.33,-26589.24,-27219.375
1764505177.2437618,20637.36,-13772.88,-11382.165,-18683.55,-30276.405,-53324.145,-26590.14,-27224.28
1764505177.2437618,20636.505,-13773.465,-11383.605,-18685.305,-30278.34,-53324.82,-26590.365,-27224.19
1764505177.2437618,20641.59,-13769.64,-11379.42,-18681.615,-30274.92,-53321.265,-26589.42,-27219.87
1764505177.2437618,20639.7,-13771.575,-11381.13,-18683.145,-30275.685,-53321.85,-26586.72,-27221.445
1764505177.2437618,20645.145,-13764.6,-11374.56,-18677.655,-30271.185,-53321.535,-26587.98,-27217.8
1764505177.2437618,20646.855,-13762.08,-11371.59,-18675.315,-30269.34,-53320.41,-26589.465,-27217.305
1764505177.2437618,20645.955,-13762.8,-11371.005,-18672.795,-30266.235,-53313.48,-26586.72,-27217.44
1764505177.2437618,20640.195,-13770.09,-11378.205,-18680.265,-30273.255,-53320.77,-26590.815,-27221.175
1764505177.2437618,20636.46,-13774.05,-11382.03,-18683.955,-30276.045,-53322.39,-26587.395,-27222.795
1764505177.2437618,20637.18,-13771.845,-11380.14,-18681.12,-30273.12,-53320.14,-26587.935,-27223.245
1764505177.2437618,20636.505,-13772.7,-11381.445,-18682.56,-30275.01,-53322.255,-26586.945,-27223.155
1764505177.2437618,20638.575,-13769.415,-11378.52,-18679.095,-30272.49,-53320.59,-26589.195,-27222.255
1764505177.2437618,20643.525,-13764.87,-11374.29,-18675.135,-30269.34,-53317.8,-26592.03,-27217.98
1764505177.2437618,20644.83,-13763.745,-11372.67,-18674.415,-30268.62,-53317.305,-26590.14,-27216.72
1764505177.2437618,20641.32,-13767.705,-11376.765,-18678.555,-30273.075,-53322.03,-26583.165,-27217.62
1764505177.2437618,20632.23,-13778.19,-11387.115,-18688.86,-30280.59,-53325.675,-26584.245,-27224.64
1764505177.2437618,20638.215,-13769.235,-11377.98,-18680.085,-30272.715,-53320.23,-26586.99,-27221.265
1764505177.2437618,20637.81,-13769.415,-11378.07,-18679.545,-30272.49,-53320.23,-26586.315,-27222.12
1764505177.2885568,20635.875,-13772.475,-11380.365,-18682.155,-30275.46,-53323.74,-26590.86,-27224.19
1764505177.2885568,20641.68,-13768.38,-11376.675,-18678.555,-30272.445,-53320.23,-26585.145,-27216.0
1764505177.2885568,20642.895,-13767.75,-11376.495,-18678.195,-30272.13,-53319.645,-26583.03,-27215.73
1764505177.2885568,20643.705,-13765.68,-11373.975,-18675.54,-30269.655,-53317.62,-26584.83,-27217.08
1764505177.2885568,20647.17,-13760.82,-11369.16,-18670.005,-30264.84,-53313.255,-26580.87,-27213.48
1764505177.2885568,20645.91,-13763.52,-11371.905,-18672.84,-30267.405,-53315.415,-26579.79,-27213.39
1764505177.2885568,20646.27,-13764.195,-11372.22,-18674.1,-30268.89,-53316.495,-26580.105,-27212.715
1764505177.2885568,20646.945,-13762.395,-11371.14,-18672.615,-30267.495,-53315.775,-26580.645,-27212.76
1764505177.2885568,20645.235,-13762.98,-11371.725,-18673.425,-30268.125,-53317.665,-26584.47,-27214.425
1764505177.2885568,20648.745,-13758.93,-11367.585,-18670.14,-30263.715,-53314.695,-26585.64,-27212.22
1764505177.2885568,20648.07,-13758.165,-11366.955,-18669.15,-30262.905,-53313.975,-26584.245,-27212.94
1764505177.2885568,20652.84,-13752.765,-11360.97,-18663.255,-30257.37,-53308.98,-26574.075,-27208.125
1764505177.2885568,20649.87,-13757.895,-11365.56,-18668.61,-30261.87,-53314.155,-26581.635,-27211.005
1764505177.2885568,20645.19,-13763.52,-11372.355,-18674.82,-30267.045,-53316.54,-26585.01,-27213.03
1764505177.2885568,20650.86,-13758.165,-11367.135,-18669.42,-30261.825,-53309.205,-26570.07,-27206.505
1764505177.2885568,20652.525,-13755.87,-11363.985,-18666.63,-30259.845,-53308.71,-26567.82,-27204.93
1764505177.2885568,20647.89,-13759.74,-11367.675,-18670.23,-30263.58,-53313.525,-26575.695,-27210.015
1764505177.2885568,20649.87,-13758.345,-11366.325,-18668.655,-30262.59,-53311.905,-26577.18,-27209.16
1764505177.2885568,20647.665,-13760.64,-11368.53,-18669.915,-30265.245,-53315.1,-26584.38,-27213.345
1764505177.2885568,20644.56,-13764.51,-11372.67,-18673.605,-30268.035,-53316.09,-26580.645,-27214.245
1764505177.2885568,20644.29,-13764.6,-11372.445,-18673.335,-30268.485,-53317.125,-26585.235,-27216.45
1764505177.2885568,20642.265,-13766.94,-11374.695,-18675.045,-30270.825,-53318.61,-26581.32,-27216.945
1764505177.3354945,20644.335,-13765.05,-11372.49,-18673.74,-30268.62,-53316.405,-26575.74,-27214.65
1764505177.3354945,20645.145,-13763.79,-11371.005,-18672.75,-30268.125,-53316.99,-26579.52,-27215.37
1764505177.3354945,20651.175,-13758.39,-11365.47,-18667.935,-30262.77,-53312.085,-26573.49,-27209.205
1764505177.3354945,20650.275,-13758.84,-11365.74,-18667.665,-30262.365,-53311.905,-26578.53,-27211.5
1764505177.3354945,20645.46,-13763.07,-11369.52,-18670.77,-30265.29,-53314.47,-26582.805,-27215.28
1764505177.3354945,20646.135,-13762.305,-11368.845,-18669.87,-30263.985,-53313.615,-26581.545,-27214.155
1764505177.3354945,20649.87,-13759.29,-11365.695,-18667.26,-30261.69,-53312.895,-26584.92,-27213.165
1764505177.3354945,20650.23,-13759.515,-11366.64,-18668.97,-30264.075,-53317.62,-26586.135,-27212.22
1764505177.3354945,20653.47,-13755.96,-11362.905,-18666.315,-30261.195,-53314.56,-26581.815,-27208.305
1764505177.3354945,20646.9,-13762.26,-11368.35,-18670.32,-30263.895,-53314.29,-26584.92,-27214.515
1764505177.3354945,20637.81,-13773.645,-11379.375,-18681.795,-30274.47,-53321.94,-26577.855,-27217.395
1764505177.3354945,20648.745,-13760.73,-11366.73,-18669.6,-30262.905,-53311.275,-26575.605,-27209.7
1764505177.3354945,20654.955,-13752.945,-11359.08,-18661.59,-30255.525,-53303.985,-26571.87,-27205.11
1764505177.3354945,20645.055,-13764.69,-11370.69,-18672.75,-30266.28,-53314.245,-26576.955,-27213.3
1764505177.3354945,20643.615,-13766.13,-11372.58,-18675.045,-30268.485,-53316.765,-26580.69,-27215.505
1764505177.3354945,20645.685,-13764.24,-11371.05,-18672.975,-30265.38,-53315.325,-26584.02,-27215.19
1764505177.3354945,20643.12,-13767.03,-11372.85,-18675.315,-30267.63,-53317.575,-26585.235,-27218.07
1764505177.3354945,20645.775,-13763.34,-11369.34,-18671.895,-30264.48,-53314.92,-26583.345,-27214.515
1764505177.3354945,20645.64,-13762.845,-11368.53,-18671.175,-30264.39,-53314.83,-26584.965,-27214.74
1764505177.3354945,20640.555,-13769.37,-11375.505,-18677.43,-30271.095,-53319.96,-26583.615,-27217.71
1764505177.3354945,20644.47,-13766.445,-11372.895,-18675.135,-30268.26,-53315.73,-26577.405,-27212.58
1764505177.3365018,20647.62,-13762.575,-11368.215,-18671.04,-30263.895,-53312.625,-26578.845,-27210.915
1764505177.3811684,20647.845,-13762.395,-11367.99,-18670.59,-30263.805,-53312.31,-26578.89,-27211.05
1764505177.3811684,20644.11,-13765.905,-11371.77,-18674.415,-30268.215,-53316.54,-26582.805,-27215.145
1764505177.3811684,20646.405,-13763.52,-11368.44,-18671.4,-30265.065,-53313.795,-26579.79,-27212.49
1764505177.3811684,20645.685,-13764.87,-11369.34,-18672.48,-30265.56,-53314.425,-26580.465,-27214.065
1764505177.3811684,20649.42,-13760.685,-11365.74,-18669.06,-30261.825,-53311.23,-26577.585,-27210.105
1764505177.3811684,20646.81,-13763.34,-11368.035,-18671.355,-30264.03,-53314.155,-26580.78,-27213.39
1764505177.3811684,20647.305,-13762.53,-11366.82,-18670.59,-30262.725,-53312.94,-26581.32,-27213.795
1764505177.3811684,20651.085,-13757.58,-11361.915,-18665.415,-30258.315,-53309.52,-26580.78,-27211.095
1764505177.3811684,20653.155,-13755.195,-11358.81,-18662.76,-30256.065,-53308.665,-26578.98,-27208.665
1764505177.3811684,20658.33,-13750.47,-11354.355,-18659.52,-30252.555,-53306.1,-26577.675,-27202.95
1764505177.3811684,20658.735,-13750.605,-11353.635,-18658.035,-30250.665,-53302.725,-26579.61,-27203.805
1764505177.3811684,20643.345,-13768.29,-11370.51,-18673.515,-30265.29,-53314.2,-26583.255,-27216.72
1764505177.3811684,20635.335,-13777.65,-11381.13,-18683.955,-30274.65,-53321.895,-26579.475,-27221.4
1764505177.3811684,20644.02,-13767.975,-11372.265,-18675.45,-30266.19,-53314.38,-26577.315,-27215.46
1764505177.3811684,20645.955,-13763.925,-11368.485,-18672.03,-30263.535,-53312.67,-26581.41,-27216.0
1764505177.3811684,20649.15,-13761.63,-11366.055,-18670.455,-30262.5,-53313.12,-26580.285,-27211.5
1764505177.3811684,20658.96,-13750.785,-11354.355,-18658.395,-30251.16,-53304.255,-26578.44,-27205.515
1764505177.3811684,20653.92,-13755.15,-11358.99,-18661.635,-30253.32,-53303.04,-26582.4,-27209.295
1764505177.3811684,20637.27,-13775.805,-11380.86,-18682.875,-30275.145,-53321.76,-26584.38,-27217.98
1764505177.3811684,20637.675,-13776.84,-11381.22,-18683.73,-30276.045,-53322.255,-26581.77,-27218.655
1764505177.3811684,20653.02,-13758.165,-11361.915,-18665.19,-30258.315,-53308.17,-26582.265,-27209.52
1764505177.3811684,20647.845,-13763.7,-11367.585,-18670.905,-30262.77,-53312.445,-26578.62,-27213.3
1764505177.3811684,20645.775,-13767.39,-11371.275,-18674.145,-30264.885,-53312.13,-26570.655,-27212.13
1764505177.3811684,20650.05,-13761.36,-11364.705,-18667.8,-30259.395,-53308.755,-26577.135,-27210.465
1764505177.4248073,20653.335,-13757.31,-11360.385,-18663.885,-30256.83,-53307.855,-26577.81,-27208.35
1764505177.4248073,20648.7,-13761.72,-11365.47,-18668.07,-30261.465,-53311.14,-26578.845,-27212.04
1764505177.4248073,20653.155,-13757.355,-11360.295,-18663.75,-30257.28,-53306.64,-26577.63,-27208.125
1764505177.4248073,20651.175,-13759.515,-11362.455,-18666.495,-30258.765,-53308.08,-26578.485,-27209.88
1764505177.4248073,20649.78,-13760.055,-11363.445,-18666.63,-30258.72,-53308.485,-26577.27,-27210.87
1764505177.4248073,20649.015,-13763.07,-11366.325,-18668.79,-30261.645,-53310.015,-26574.165,-27208.98
1764505177.4248073,20650.005,-13761.765,-11365.47,-18667.62,-30260.565,-53309.565,-26573.895,-27208.17
1764505177.4248073,20650.005,-13760.865,-11364.255,-18666.72,-30259.44,-53308.845,-26575.47,-27209.205
1764505177.4248073,20650.59,-13761.045,-11364.255,-18667.215,-30260.16,-53308.89,-26576.505,-27208.755
1764505177.4248073,20649.15,-13761.99,-11365.515,-18668.52,-30260.88,-53310.78,-26579.115,-27210.69
1764505177.4248073,20649.96,-13761.54,-11364.525,-18667.26,-30258.99,-53309.385,-26578.08,-27210.42
1764505177.4248073,20653.11,-13758.345,-11361.33,-18663.615,-30255.615,-53306.235,-26577.315,-27209.205
1764505177.4266424,20653.29,-13758.345,-11361.555,-18663.57,-30256.29,-53306.415,-26576.55,-27209.52
1764505177.4266424,20649.33,-13762.53,-11366.28,-18668.475,-30260.25,-53310.33,-26573.625,-27211.41
1764505177.4266424,20654.91,-13756.68,-11360.115,-18662.76,-30255.12,-53304.03,-26569.44,-27205.29
1764505177.4266424,20652.435,-13758.93,-11362.59,-18664.335,-30257.1,-53306.775,-26577.315,-27208.98
1764505177.4266424,20653.965,-13756.86,-11359.665,-18662.13,-30255.615,-53307.585,-26581.77,-27210.465
1764505177.4266424,20654.37,-13754.25,-11355.345,-18658.98,-30253.095,-53307.27,-26584.605,-27211.32
1764505177.4266424,20647.98,-13763.25,-11365.47,-18669.375,-30262.23,-53312.985,-26580.555,-27213.12
1764505177.4266424,20649.42,-13762.17,-11365.875,-18669.915,-30261.96,-53310.78,-26572.185,-27209.205
1764505177.4266424,20656.08,-13753.89,-11356.965,-18661.455,-30253.545,-53305.245,-26568.0,-27204.705
1764505177.4266424,20654.685,-13755.555,-11358.045,-18662.085,-30254.13,-53303.22,-26567.595,-27206.325
1764505177.4266424,20646.36,-13764.96,-11367.99,-18670.815,-30262.23,-53309.88,-26575.74,-27213.21
1764505177.4266424,20646.405,-13764.69,-11367.315,-18670.545,-30261.825,-53311.23,-26579.16,-27214.02
1764505177.474655,20649.87,-13761.36,-11364.21,-18667.305,-30258.99,-53308.575,-26574.705,-27210.375
1764505177.474655,20652.66,-13758.615,-11361.69,-18664.92,-30256.965,-53306.64,-26573.805,-27208.755
1764505177.474655,20653.515,-13757.625,-11360.7,-18664.02,-30257.055,-53306.1,-26574.48,-27207.765
1764505177.474655,20648.745,-13761.99,-11364.615,-18667.89,-30261.015,-53310.06,-26579.295,-27212.13
1764505177.474655,20648.88,-13761.495,-11363.58,-18666.81,-30259.755,-53309.34,-26578.8,-27211.905
1764505177.474655,20649.96,-13760.325,-11362.455,-18665.1,-30257.595,-53307.945,-26577.765,-27210.42
1764505177.474655,20648.07,-13762.845,-11365.515,-18667.35,-30259.89,-53310.015,-26580.015,-27212.895
1764505177.474655,20649.6,-13761.99,-11363.94,-18665.82,-30258.045,-53307.99,-26578.665,-27211.905
1764505177.474655,20646.945,-13764.105,-11365.695,-18668.205,-30260.61,-53310.015,-26581.095,-27213.93
1764505177.474655,20647.305,-13764.96,-11366.28,-18669.87,-30262.095,-53311.095,-26580.915,-27212.895
1764505177.474655,20652.435,-13760.055,-11361.69,-18664.74,-30256.245,-53306.145,-26577.765,-27208.665
1764505177.474655,20651.985,-13759.965,-11361.195,-18664.47,-30256.065,-53306.91,-26581.905,-27209.52
1764505177.474655,20657.52,-13752.315,-11352.78,-18656.685,-30249.18,-53302.68,-26584.83,-27206.685
1764505177.474655,20667.195,-13741.155,-11342.16,-18647.505,-30242.07,-53300.565,-26588.97,-27201.87
1764505177.4762015,20662.605,-13750.11,-11351.475,-18657.585,-30251.205,-53305.695,-26573.985,-27201.105
1764505177.4762015,20647.485,-13766.67,-11366.955,-18669.915,-30259.98,-53304.165,-26560.17,-27210.15
1764505177.4762015,20646.405,-13765.86,-11367.045,-18668.7,-30260.385,-53308.215,-26576.595,-27215.19
1764505177.4762015,20649.15,-13763.79,-11365.38,-18668.115,-30259.215,-53308.17,-26575.965,-27211.455
1764505177.4762015,20647.035,-13767.66,-11368.89,-18672.93,-30263.445,-53312.04,-26573.67,-27210.465
1764505177.4762015,20644.65,-13769.91,-11370.465,-18674.73,-30265.785,-53315.145,-26581.455,-27214.38
1764505177.4762015,20648.34,-13766.22,-11367.225,-18670.905,-30263.22,-53312.265,-26581.23,-27213.165
1764505177.4762015,20653.38,-13760.64,-11361.735,-18665.73,-30257.37,-53305.56,-26573.445,-27207.855
1764505177.4762015,20654.685,-13759.335,-11360.295,-18664.065,-30255.615,-53303.985,-26572.725,-27206.415
1764505177.4762015,20650.68,-13763.07,-11363.535,-18667.17,-30258.63,-53307.36,-26579.7,-27212.535
1764505177.5203974,20652.165,-13761.45,-11361.96,-18665.82,-30257.01,-53306.1,-26579.655,-27212.265
1764505177.5209055,20655.315,-13758.255,-11358.585,-18662.94,-30253.005,-53302.95,-26577.585,-27210.645
1764505177.5209055,20657.61,-13755.24,-11355.795,-18660.915,-30250.17,-53300.52,-26573.895,-27207.09
1764505177.5209055,20657.745,-13758.165,-11360.205,-18665.145,-30255.075,-53304.03,-26571.33,-27201.645
1764505177.5209055,20659.68,-13756.14,-11358.585,-18663.075,-30253.455,-53301.555,-26569.755,-27199.53
1764505177.5209055,20658.96,-13756.545,-11358.225,-18662.31,-30252.915,-53301.33,-26572.86,-27202.59
1764505177.5209055,20662.155,-13753.305,-11354.805,-18658.44,-30249.63,-53297.73,-26569.845,-27199.935
1764505177.5209055,20664.855,-13750.92,-11351.745,-18655.155,-30247.425,-53295.795,-26569.485,-27198.18
1764505177.5209055,20670.795,-13741.56,-11342.34,-18646.155,-30239.955,-53291.115,-26573.85,-27196.47
1764505177.5224392,20675.16,-13734.36,-11334.285,-18638.055,-30232.62,-53286.93,-26576.595,-27196.335
1764505177.5224392,20665.485,-13750.605,-11350.935,-18654.57,-30246.84,-53293.32,-26560.395,-27196.065
1764505177.5224392,20650.32,-13769.055,-11368.89,-18672.57,-30262.455,-53304.12,-26564.895,-27205.065
1764505177.5224392,20648.16,-13769.955,-11369.52,-18673.29,-30264.12,-53308.26,-26579.07,-27211.995
1764505177.5224392,20655.72,-13761.45,-11360.52,-18664.65,-30256.38,-53302.545,-26578.305,-27207.45
1764505177.5234747,20659.41,-13758.03,-11357.415,-18661.905,-30253.545,-53299.62,-26574.84,-27203.49
1764505177.5234747,20663.01,-13754.205,-11353.455,-18657.765,-30248.685,-53295.03,-26569.17,-27199.395
1764505177.5234747,20661.705,-13754.79,-11354.625,-18658.305,-30249.495,-53294.85,-26568.045,-27199.98
1764505177.5234747,20659.635,-13757.13,-11356.2,-18660.105,-30251.88,-53298.045,-26572.14,-27202.815
1764505177.5234747,20662.83,-13754.385,-11354.04,-18657.045,-30249.18,-53295.66,-26570.25,-27200.79
1764505177.5234747,20660.355,-13756.545,-11356.245,-18658.62,-30251.79,-53298.18,-26573.22,-27203.04
1764505177.5234747,20663.73,-13752.315,-11351.79,-18654.57,-30248.19,-53294.67,-26569.08,-27199.98
1764505177.5234747,20664.675,-13751.145,-11350.44,-18654.165,-30246.75,-53294.265,-26568.405,-27199.305
1764505177.5234747,20665.035,-13750.785,-11350.035,-18653.85,-30246.795,-53295.795,-26569.98,-27200.07
1764505177.5234747,20664.045,-13751.64,-11350.35,-18654.84,-30247.47,-53296.695,-26571.51,-27200.205
1764505177.5665915,20665.08,-13750.785,-11349.99,-18653.58,-30246.12,-53294.535,-26568.36,-27199.215
1764505177.5665915,20657.025,-13758.66,-11358.045,-18660.465,-30253.005,-53301.69,-26573.13,-27206.91
1764505177.5665915,20657.385,-13758.12,-11356.965,-18659.97,-30252.69,-53301.24,-26572.5,-27206.1
1764505177.5665915,20665.395,-13749.345,-11348.055,-18651.015,-30244.23,-53293.32,-26566.875,-27198.855
1764505177.5665915,20678.535,-13733.1,-11331.765,-18634.275,-30228.93,-53282.655,-26571.15,-27192.24
1764505177.5665915,20675.43,-13735.44,-11335.5,-18636.66,-30232.35,-53286.525,-26579.295,-27195.3
1764505177.5665915,20660.805,-13755.33,-11355.84,-18657.0,-30250.665,-53298.405,-26562.195,-27199.395
1764505177.5665915,20659.86,-13756.95,-11356.92,-18659.655,-30252.195,-53298.765,-26559.0,-27199.98
1764505177.5665915,20657.655,-13758.21,-11357.28,-18660.33,-30252.42,-53298.99,-26563.905,-27202.545
1764505177.5665915,20660.355,-13755.285,-11353.815,-18656.37,-30250.26,-53297.73,-26565.165,-27198.99
1764505177.5665915,20659.905,-13754.88,-11354.085,-18656.505,-30249.72,-53297.64,-26569.485,-27201.555
1764505177.5665915,20662.695,-13751.505,-11350.845,-18653.76,-30246.39,-53295.12,-26566.065,-27198.315
1764505177.5665915,20662.29,-13751.055,-11350.485,-18653.4,-30246.705,-53296.02,-26570.745,-27199.44
1764505177.5665915,20664.135,-13748.94,-11347.65,-18650.79,-30243.465,-53293.05,-26570.115,-27198.18
1764505177.5665915,20666.475,-13746.915,-11345.22,-18648.945,-30241.17,-53290.395,-26562.465,-27193.86
1764505177.5665915,20663.685,-13750.38,-11349.225,-18652.59,-30245.94,-53294.49,-26561.925,-27195.57
1764505177.5665915,20664.99,-13748.58,-11347.92,-18651.195,-30244.275,-53292.69,-26562.105,-27195.255
1764505177.5665915,20664.675,-13748.67,-11347.74,-18651.375,-30244.23,-53292.24,-26563.32,-27196.155
1764505177.5665915,20661.57,-13752.945,-11350.98,-18654.705,-30248.055,-53296.38,-26567.955,-27200.295
1764505177.5665915,20665.26,-13748.175,-11345.85,-18649.8,-30243.24,-53292.33,-26565.75,-27197.19
1764505177.568245,20668.14,-13744.575,-11343.465,-18646.83,-30240.27,-53289.18,-26561.475,-27193.86
1764505177.568245,20669.58,-13742.64,-11341.35,-18644.805,-30237.75,-53287.515,-26561.43,-27193.725
1764505177.616573,20665.98,-13748.04,-11346.345,-18649.755,-30243.375,-53293.095,-26570.52,-27197.145
1764505177.616573,20660.94,-13754.52,-11352.915,-18656.415,-30249.18,-53297.82,-26573.76,-27201.24
1764505177.616573,20664.135,-13749.12,-11347.2,-18650.295,-30242.745,-53290.755,-26564.175,-27197.64
1764505177.616573,20668.185,-13744.665,-11342.43,-18645.57,-30238.065,-53287.74,-26561.835,-27194.265
1764505177.616573,20670.435,-13743.495,-11340.945,-18644.13,-30237.255,-53286.3,-26560.44,-27192.51
1764505177.616573,20659.95,-13756.77,-11353.815,-18657.54,-30250.62,-53297.505,-26568.405,-27200.25
1764505177.616573,20661.075,-13756.05,-11353.365,-18656.82,-30249.855,-53296.875,-26566.92,-27198.36
1764505177.616573,20662.785,-13754.34,-11351.655,-18654.93,-30247.515,-53293.32,-26562.015,-27196.695
1764505177.616573,20664.27,-13752.18,-11349.855,-18653.13,-30245.355,-53292.69,-26564.535,-27196.2
1764505177.616573,20663.595,-13752.27,-11349.945,-18653.175,-30245.49,-53293.995,-26566.83,-27197.505
1764505177.616573,20668.68,-13747.23,-11345.22,-18648.63,-30241.35,-53289.45,-26564.085,-27193.59
1764505177.616573,20665.44,-13750.02,-11348.145,-18651.015,-30243.24,-53291.385,-26564.985,-27195.975
1764505177.616573,20665.08,-13750.83,-11348.775,-18651.69,-30243.78,-53290.44,-26563.68,-27195.615
1764505177.616573,20661.525,-13753.62,-11350.395,-18653.085,-30245.445,-53292.465,-26569.305,-27200.025
1764505177.616573,20663.28,-13752.765,-11349.315,-18652.23,-30245.355,-53294.715,-26572.32,-27200.97
1764505177.616573,20663.37,-13754.745,-11350.44,-18653.94,-30246.39,-53294.76,-26569.44,-27199.62
1764505177.616573,20666.88,-13749.93,-11345.76,-18649.44,-30241.62,-53288.325,-26561.79,-27194.895
1764505177.616573,20667.42,-13749.165,-11344.995,-18648.81,-30240.765,-53288.37,-26560.26,-27194.85
1764505177.616573,20663.01,-13753.215,-11349.36,-18652.23,-30245.085,-53292.915,-26566.155,-27199.17
1764505177.616573,20669.13,-13745.385,-11341.665,-18644.58,-30238.245,-53287.155,-26566.065,-27193.77
1764505177.616573,20677.23,-13737.96,-11333.97,-18637.92,-30230.64,-53280.765,-26563.815,-27187.11
1764505177.616573,20671.47,-13745.295,-11341.35,-18644.805,-30237.39,-53285.355,-26558.1,-27190.845
1764505177.616573,20661.66,-13756.005,-11352.285,-18655.155,-30248.145,-53294.445,-26562.33,-27198.54
1764505177.616573,20662.02,-13755.69,-11351.655,-18655.335,-30247.74,-53294.58,-26564.31,-27199.395
1764505177.6638727,20670.255,-13746.915,-11342.79,-18646.92,-30239.055,-53286.795,-26560.08,-27192.195
1764505177.664879,20674.44,-13741.83,-11337.345,-18641.295,-30235.23,-53284.005,-26560.665,-27190.125
1764505177.664879,20676.96,-13738.95,-11334.87,-18638.82,-30233.925,-53283.915,-26562.645,-27188.55
1764505177.664879,20671.56,-13745.385,-11341.71,-18646.83,-30240.045,-53289.315,-26560.395,-27191.07
1764505177.664879,20663.1,-13754.34,-11350.935,-18655.245,-30246.165,-53291.16,-26558.325,-27197.865
1764505177.664879,20661.75,-13754.655,-11351.295,-18654.615,-30245.355,-53291.07,-26565.93,-27200.25
1764505177.664879,20663.1,-13753.35,-11350.17,-18653.49,-30244.77,-53292.465,-26567.28,-27199.89
1764505177.664879,20670.795,-13743.9,-11340.54,-18643.68,-30235.59,-53284.59,-26561.115,-27192.78
1764505177.664879,20673.0,-13741.065,-11336.94,-18641.07,-30233.43,-53283.465,-26559.315,-27189.99
1764505177.664879,20668.995,-13748.355,-11344.725,-18648.675,-30240.99,-53287.38,-26555.535,-27188.37
1764505177.664879,20674.53,-13740.57,-11337.255,-18641.16,-30234.015,-53282.295,-26553.96,-27185.355
1764505177.664879,20673.18,-13741.155,-11337.03,-18641.88,-30233.61,-53283.195,-26559.54,-27188.82
1764505177.664879,20659.455,-13756.545,-11352.87,-18657.0,-30247.11,-53295.165,-26565.48,-27199.485
1764505177.664879,20663.28,-13750.335,-11346.66,-18650.7,-30242.745,-53292.105,-26569.98,-27198.765
1764505177.664879,20663.235,-13750.38,-11346.255,-18650.52,-30242.565,-53292.015,-26569.935,-27200.745
1764505177.664879,20658.42,-13759.785,-11355.345,-18659.52,-30249.945,-53297.595,-26565.165,-27201.69
1764505177.664879,20660.895,-13756.32,-11352.195,-18655.92,-30247.065,-53295.705,-26565.165,-27199.755
1764505177.664879,20666.295,-13748.715,-11343.87,-18648.63,-30240.72,-53290.665,-26566.83,-27195.795
1764505177.664879,20668.095,-13747.05,-11341.17,-18646.29,-30238.29,-53288.505,-26567.595,-27195.345
1764505177.664879,20665.98,-13748.895,-11343.105,-18647.46,-30239.28,-53289.945,-26561.565,-27196.11
1764505177.664879,20663.055,-13752.765,-11347.785,-18651.555,-30242.745,-53292.51,-26558.595,-27196.875
1764505177.664879,20657.7,-13759.965,-11355.615,-18658.53,-30249.72,-53297.595,-26563.455,-27200.835
1764505177.7088645,20661.255,-13754.43,-11350.17,-18653.355,-30245.67,-53295.3,-26569.395,-27200.295
1764505177.7088645,20659.23,-13756.095,-11351.295,-18654.705,-30247.38,-53296.92,-26568.99,-27202.68
1764505177.7094011,20659.275,-13755.375,-11350.935,-18654.66,-30247.155,-53296.92,-26566.47,-27201.015
1764505177.7094011,20663.325,-13751.1,-11346.84,-18651.195,-30242.925,-53291.655,-26562.105,-27196.2
1764505177.7094011,20662.2,-13752.36,-11347.695,-18651.825,-30244.05,-53292.465,-26563.095,-27197.235
1764505177.7094011,20667.555,-13746.24,-11341.755,-18645.525,-30237.93,-53287.92,-26561.34,-27193.86
1764505177.7094011,20668.365,-13746.015,-11341.62,-18645.975,-30237.93,-53288.82,-26560.98,-27192.87
1764505177.7094011,20665.305,-13749.795,-11345.31,-18649.575,-30240.675,-53289.9,-26559.945,-27195.21
1764505177.7094011,20664.495,-13750.065,-11344.905,-18649.575,-30240.72,-53289.9,-26560.755,-27195.975
1764505177.710939,20664.27,-13749.795,-11344.5,-18648.99,-30241.305,-53291.43,-26566.605,-27196.875
1764505177.710939,20662.245,-13752.18,-11346.255,-18650.385,-30243.375,-53293.59,-26567.82,-27199.44
1764505177.710939,20664.315,-13750.155,-11344.14,-18647.37,-30240.765,-53289.405,-26557.92,-27196.11
1764505177.710939,20670.525,-13744.125,-11339.1,-18642.33,-30234.645,-53282.88,-26553.015,-27190.17
1764505177.710939,20664.585,-13750.065,-11345.22,-18648.765,-30241.35,-53290.53,-26561.88,-27195.795
1764505177.710939,20659.995,-13754.745,-11350.08,-18653.58,-30245.625,-53293.32,-26561.655,-27199.125
1764505177.710939,20660.175,-13753.98,-11349.09,-18652.635,-30244.5,-53293.185,-26563.275,-27199.17
1764505177.7119524,20665.755,-13748.445,-11343.06,-18647.73,-30239.055,-53288.46,-26560.44,-27195.03
1764505177.7124636,20665.8,-13748.265,-11342.115,-18646.515,-30238.47,-53288.145,-26565.3,-27196.29
1764505177.7124636,20667.105,-13744.98,-11338.335,-18642.825,-30234.78,-53285.355,-26566.83,-27195.48
1764505177.7124636,20662.065,-13752.045,-11345.49,-18650.835,-30242.745,-53291.115,-26560.755,-27196.38
1764505177.7124636,20663.235,-13751.595,-11346.795,-18651.285,-30242.88,-53290.305,-26555.895,-27194.535
1764505177.7124636,20661.75,-13752.045,-11345.58,-18650.07,-30242.07,-53290.125,-26562.645,-27198.675
1764505177.7124636,20657.655,-13755.645,-11348.505,-18652.68,-30244.455,-53292.465,-26571.69,-27203.355
1764505177.7124636,20660.175,-13753.17,-11346.84,-18651.42,-30243.105,-53291.205,-26567.595,-27198.9
1764505177.756812,20659.32,-13754.7,-11348.595,-18653.175,-30244.905,-53291.115,-26559.225,-27198.09
1764505177.756812,20664.81,-13749.39,-11343.78,-18648.63,-30240.09,-53285.715,-26557.92,-27193.905
1764505177.756812,20667.33,-13746.915,-11341.935,-18647.685,-30240.135,-53287.605,-26560.845,-27193.05
1764505177.756812,20666.16,-13747.545,-11342.88,-18648.18,-30241.26,-53289.9,-26563.815,-27194.58
1764505177.756812,20668.635,-13744.125,-11339.055,-18643.59,-30236.13,-53284.905,-26563.68,-27192.915
1764505177.756812,20662.425,-13751.505,-11345.895,-18650.205,-30242.16,-53289.495,-26567.28,-27197.955
1764505177.7583437,20660.04,-13755.195,-11348.82,-18653.715,-30245.445,-53291.205,-26565.255,-27200.565
1764505177.7583437,20657.475,-13756.545,-11350.08,-18655.155,-30246.57,-53291.52,-26563.14,-27201.6
1764505177.7583437,20662.29,-13750.65,-11343.915,-18649.17,-30241.755,-53291.025,-26566.965,-27198.405
1764505177.7583437,20664.945,-13748.67,-11341.08,-18646.65,-30239.91,-53289.225,-26566.785,-27196.245
1764505177.7583437,20661.21,-13755.6,-11347.965,-18653.4,-30244.185,-53289.36,-26557.965,-27196.425
1764505177.7583437,20660.805,-13756.185,-11348.325,-18653.94,-30244.725,-53290.89,-26559.72,-27198.0
1764505177.7583437,20662.92,-13753.575,-11345.76,-18651.015,-30242.295,-53288.775,-26562.555,-27197.505
1764505177.7583437,20664.27,-13751.73,-11344.815,-18650.52,-30240.9,-53287.83,-26561.61,-27196.65
1764505177.7583437,20662.83,-13753.26,-11346.21,-18651.555,-30243.555,-53290.755,-26563.59,-27198.09
1764505177.7583437,20663.82,-13753.62,-11345.445,-18652.005,-30243.69,-53291.16,-26564.13,-27196.875
1764505177.7583437,20664.945,-13752.72,-11344.68,-18651.15,-30243.06,-53290.665,-26563.545,-27196.965
1764505177.7583437,20661.705,-13755.42,-11347.515,-18653.04,-30245.715,-53294.535,-26570.385,-27201.195
1764505177.7583437,20660.085,-13756.635,-11348.325,-18653.895,-30246.21,-53294.85,-26571.24,-27201.51
1764505177.7583437,20659.68,-13758.165,-11350.305,-18655.29,-30246.975,-53293.86,-26565.075,-27199.17
1764505177.7583437,20665.125,-13752.225,-11344.59,-18649.305,-30241.215,-53288.55,-26562.78,-27195.12
1764505177.7583437,20663.82,-13753.98,-11346.165,-18651.51,-30242.745,-53289.27,-26562.33,-27196.425
1764505177.7583437,20664.585,-13753.305,-11344.86,-18650.295,-30242.34,-53289.045,-26562.69,-27196.515
1764505177.7583437,20660.985,-13756.005,-11347.245,-18652.905,-30245.31,-53293.005,-26568.45,-27201.78
1764505177.8027942,20662.245,-13754.385,-11345.31,-18650.34,-30242.835,-53290.215,-26569.26,-27201.33
1764505177.8027942,20664.18,-13754.7,-11345.895,-18651.42,-30243.33,-53289.855,-26568.0,-27198.09
1764505177.8027942,20667.105,-13752.315,-11344.005,-18649.935,-30241.89,-53289.0,-26562.33,-27194.535
1764505177.8027942,20665.08,-13754.52,-11345.895,-18651.195,-30243.105,-53289.405,-26560.62,-27195.57
1764505177.8027942,20654.37,-13765.815,-11357.685,-18662.265,-30253.275,-53300.205,-26571.24,-27205.92
1764505177.803809,20659.905,-13758.84,-11350.53,-18655.83,-30248.595,-53297.82,-26574.93,-27203.445
1764505177.803809,20664.315,-13753.395,-11345.535,-18651.51,-30245.625,-53295.795,-26573.94,-27200.43
1764505177.803809,20660.67,-13757.445,-11348.82,-18654.48,-30247.335,-53293.59,-26565.21,-27200.565
1764505177.803809,20657.61,-13761.27,-11351.43,-18656.595,-30247.83,-53291.07,-26564.4,-27202.455
1764505177.803809,20652.435,-13767.165,-11357.01,-18662.445,-30253.905,-53299.17,-26576.415,-27209.16
1764505177.803809,20654.1,-13765.905,-11356.605,-18660.87,-30253.095,-53298.09,-26570.88,-27206.64
1764505177.803809,20661.57,-13756.995,-11347.74,-18652.275,-30244.95,-53290.215,-26565.165,-27199.935
1764505177.803809,20664.63,-13753.62,-11345.085,-18649.845,-30242.79,-53288.145,-26565.705,-27198.495
1764505177.803809,20656.08,-13763.205,-11354.94,-18660.33,-30252.735,-53298.27,-26573.085,-27205.02
1764505177.803809,20654.37,-13764.825,-11356.47,-18661.14,-30253.545,-53298.765,-26570.925,-27205.65
1764505177.803809,20661.03,-13757.715,-11349.045,-18653.4,-30245.94,-53292.915,-26567.145,-27200.79
1764505177.803809,20663.73,-13754.655,-11345.94,-18651.195,-30243.375,-53290.62,-26566.515,-27199.665
1764505177.803809,20663.685,-13755.06,-11346.03,-18651.51,-30242.97,-53289.765,-26565.165,-27198.45
1764505177.803809,20664.18,-13754.88,-11345.535,-18650.205,-30242.07,-53288.955,-26562.87,-27197.37
1764505177.803809,20660.895,-13757.67,-11348.73,-18652.59,-30244.725,-53291.88,-26565.12,-27200.295
1764505177.803809,20659.23,-13759.47,-11351.61,-18655.38,-30247.92,-53294.715,-26566.74,-27201.195
1764505177.803809,20657.7,-13760.82,-11351.97,-18656.19,-30248.73,-53296.065,-26571.42,-27204.255
1764505177.803809,20660.535,-13756.275,-11347.695,-18651.375,-30245.175,-53292.645,-26570.79,-27202.68
1764505177.803809,20660.895,-13757.58,-11348.865,-18652.59,-30246.03,-53291.97,-26567.19,-27200.655
1764505177.8480985,20660.04,-13758.57,-11350.08,-18654.345,-30247.245,-53292.105,-26561.61,-27200.07
1764505177.8480985,20657.16,-13760.685,-11352.6,-18656.37,-30249.585,-53295.48,-26567.1,-27204.57
1764505177.8480985,20656.62,-13760.955,-11352.33,-18656.64,-30249.45,-53295.03,-26567.19,-27204.345
1764505177.8480985,20656.485,-13761.18,-11352.555,-18656.46,-30249.315,-53294.67,-26566.785,-27204.93
1764505177.8480985,20658.555,-13758.795,-11350.125,-18654.795,-30247.785,-53293.815,-26566.47,-27203.94
1764505177.8480985,20656.89,-13759.92,-11351.7,-18656.64,-30249.945,-53295.12,-26565.75,-27204.885
1764505177.8480985,20661.12,-13756.05,-11347.92,-18652.14,-30245.85,-53291.52,-26566.515,-27201.465
1764505177.8480985,20658.33,-13758.165,-11348.82,-18653.13,-30246.795,-53294.085,-26577.675,-27205.605
1764505177.8480985,20657.43,-13758.975,-11349.27,-18653.04,-30247.65,-53295.615,-26577.81,-27206.19
1764505177.8480985,20657.205,-13759.605,-11350.26,-18654.3,-30248.955,-53294.715,-26567.505,-27204.03
1764505177.8480985,20662.47,-13753.98,-11344.185,-18648.81,-30242.205,-53286.12,-26557.065,-27198.99
1764505177.8480985,20664.855,-13750.83,-11340.63,-18645.795,-30238.74,-53284.905,-26558.595,-27198.315
1764505177.8480985,20653.47,-13763.835,-11354.22,-18659.205,-30252.195,-53297.595,-26569.035,-27206.46
1764505177.8480985,20649.33,-13766.58,-11356.83,-18661.995,-30255.03,-53300.07,-26572.905,-27210.15
1764505177.8480985,20651.76,-13765.32,-11356.2,-18660.195,-30251.88,-53296.245,-26562.645,-27204.795
1764505177.8480985,20652.03,-13764.87,-11355.57,-18659.655,-30252.555,-53298.63,-26568.54,-27206.055
1764505177.8480985,20650.455,-13766.58,-11357.235,-18661.545,-30254.31,-53300.07,-26571.87,-27209.385
1764505177.8480985,20651.13,-13765.995,-11356.155,-18660.69,-30253.455,-53298.99,-26570.745,-27208.395
1764505177.8480985,20652.21,-13764.42,-11355.75,-18659.745,-30252.6,-53298.54,-26569.395,-27207.135
1764505177.8480985,20651.985,-13764.555,-11356.2,-18659.43,-30252.78,-53299.53,-26570.61,-27208.305
1764505177.8480985,20652.57,-13763.475,-11354.625,-18658.935,-30251.97,-53298.0,-26570.745,-27207.45
1764505177.8499625,20652.39,-13762.98,-11354.625,-18658.8,-30252.06,-53298.09,-26569.935,-27207.495
1764505177.89946,20655.585,-13759.47,-11351.565,-18655.695,-30248.595,-53295.66,-26567.82,-27204.39
1764505177.89946,20651.625,-13764.33,-11356.02,-18660.645,-30253.005,-53301.015,-26573.895,-27209.475
1764505177.89946,20651.805,-13764.015,-11355.165,-18659.655,-30252.195,-53299.17,-26572.41,-27208.845
1764505177.89946,20648.385,-13766.805,-11358.045,-18661.77,-30254.175,-53301.555,-26576.055,-27212.49
1764505177.89946,20651.94,-13762.98,-11354.625,-18658.26,-30251.25,-53299.44,-26574.975,-27209.79
1764505177.89946,20656.935,-13758.705,-11350.53,-18654.975,-30247.83,-53294.355,-26569.62,-27203.805
1764505177.89946,20652.03,-13764.285,-11355.12,-18660.24,-30251.655,-53298.045,-26570.745,-27207.9
1764505177.89946,20645.37,-13771.98,-11363.04,-18667.17,-30259.17,-53304.525,-26572.68,-27214.965
1764505177.89946,20650.815,-13766.625,-11358.09,-18661.995,-30254.13,-53299.575,-26568.27,-27208.8
1764505177.89946,20651.4,-13766.04,-11356.65,-18661.23,-30253.32,-53299.845,-26571.33,-27208.53
1764505177.89946,20658.735,-13757.625,-11347.155,-18652.905,-30245.04,-53292.555,-26565.93,-27202.05
1764505177.89946,20661.435,-13755.195,-11344.77,-18650.43,-30242.835,-53290.98,-26562.69,-27199.305
1764505177.89946,20657.52,-13758.84,-11348.73,-18653.535,-30246.39,-53295.03,-26568.63,-27203.445
1764505177.89946,20651.535,-13764.87,-11353.815,-18658.755,-30251.205,-53298.315,-26577.945,-27211.23
1764505177.89946,20652.57,-13765.005,-11354.895,-18659.925,-30252.42,-53299.845,-26579.205,-27210.015
1764505177.89946,20651.31,-13767.165,-11356.965,-18661.545,-30254.67,-53301.69,-26576.505,-27209.565
1764505177.89946,20650.05,-13768.155,-11357.37,-18662.4,-30255.075,-53302.32,-26575.155,-27210.87
1764505177.89946,20654.46,-13764.24,-11353.545,-18657.855,-30250.8,-53296.785,-26571.69,-27207.72
1764505177.89946,20659.455,-13759.155,-11349.315,-18653.625,-30246.705,-53293.095,-26566.875,-27202.23
1764505177.89946,20657.025,-13760.64,-11350.89,-18655.38,-30248.37,-53296.245,-26567.955,-27204.525
1764505177.89946,20650.86,-13766.13,-11355.66,-18659.7,-30252.825,-53300.34,-26573.445,-27211.905
1764505177.89946,20648.97,-13769.91,-11360.025,-18664.605,-30257.055,-53303.13,-26573.355,-27211.365
1764505177.89946,20658.915,-13761.045,-11351.34,-18656.775,-30248.595,-53296.83,-26567.37,-27201.42
1764505177.89946,20655.045,-13763.97,-11353.23,-18658.35,-30249.81,-53297.145,-26571.015,-27205.965
1764505177.942361,20655.54,-13763.16,-11351.79,-18657.045,-30247.965,-53293.365,-26570.745,-27205.92
1764505177.942361,20654.19,-13764.69,-11353.32,-18658.305,-30250.08,-53296.47,-26573.985,-27208.17
1764505177.942361,20655.135,-13763.745,-11352.735,-18657.045,-30249.09,-53295.03,-26571.87,-27207.09
1764505177.942361,20655.315,-13763.925,-11352.78,-18657.54,-30249.765,-53295.705,-26572.77,-27206.46
1764505177.942361,20658.51,-13759.965,-11348.415,-18653.94,-30246.93,-53293.725,-26574.84,-27205.2
1764505177.942361,20664.585,-13752.765,-11340.585,-18646.605,-30239.73,-53289.99,-26574.03,-27201.555
1764505177.942361,20665.26,-13753.665,-11340.9,-18646.74,-30239.595,-53288.28,-26570.43,-27200.07
1764505177.942361,20651.085,-13772.79,-11360.79,-18666.18,-30257.19,-53301.915,-26573.175,-27209.79
1764505177.944729,20654.01,-13768.965,-11357.415,-18662.76,-30253.77,-53299.395,-26571.6,-27206.955
1764505177.944729,20657.205,-13764.195,-11352.33,-18657.765,-30250.395,-53297.28,-26575.065,-27206.145
1764505177.944729,20655.63,-13765.77,-11353.815,-18659.07,-30252.06,-53298.765,-26578.89,-27208.71
1764505177.944729,20654.91,-13767.57,-11355.435,-18660.375,-30251.52,-53296.83,-26575.56,-27209.07
1764505177.944729,20658.96,-13763.79,-11351.34,-18655.875,-30246.84,-53292.42,-26570.565,-27204.795
1764505177.944729,20657.115,-13764.555,-11351.475,-18656.19,-30247.875,-53294.67,-26575.83,-27207.09
1764505177.944729,20656.755,-13765.68,-11352.51,-18657.585,-30249.63,-53297.64,-26581.59,-27209.88
1764505177.944729,20655.855,-13768.29,-11355.39,-18660.105,-30251.43,-53296.56,-26570.34,-27207.09
1764505177.944729,20658.15,-13765.59,-11353.59,-18658.305,-30250.305,-53295.795,-26572.095,-27206.505
1764505177.944729,20657.43,-13766.805,-11353.815,-18658.485,-30250.08,-53295.39,-26574.255,-27208.17
1764505177.944729,20659.5,-13764.96,-11351.97,-18656.28,-30248.73,-53292.42,-26573.535,-27206.055
1764505177.944729,20656.08,-13767.975,-11355.615,-18660.105,-30253.32,-53297.235,-26577.18,-27208.98
1764505177.944729,20654.235,-13769.28,-11356.515,-18661.05,-30254.04,-53299.89,-26581.905,-27212.22
1764505177.944729,20661.525,-13760.505,-11347.065,-18652.995,-30245.265,-53292.645,-26580.78,-27209.07
1764505177.944729,20667.915,-13755.51,-11341.215,-18648.045,-30239.865,-53286.84,-26572.32,-27202.68
1764505177.944729,20660.22,-13765.815,-11352.96,-18658.71,-30249.855,-53294.625,-26572.545,-27205.83
1764505177.9893365,20651.985,-13774.32,-11361.96,-18666.72,-30257.64,-53301.42,-26577.315,-27212.58
1764505177.9893365,20654.01,-13771.845,-11359.575,-18665.055,-30255.705,-53299.215,-26576.145,-27210.465
1764505177.9893365,20654.82,-13770.27,-11357.73,-18662.76,-30253.05,-53297.505,-26577.315,-27211.095
1764505177.9893365,20653.65,-13773.015,-11358.855,-18665.01,-30254.265,-53299.17,-26578.98,-27212.265
1764505177.9893365,20658.735,-13768.47,-11354.22,-18661.14,-30250.44,-53295.3,-26574.84,-27207.675
1764505177.9893365,20655.36,-13771.53,-11357.235,-18664.38,-30253.95,-53298.765,-26579.7,-27211.725
1764505177.9893365,20654.1,-13771.935,-11357.595,-18664.245,-30253.95,-53298.855,-26581.815,-27213.12
1764505177.9893365,20654.685,-13770.45,-11356.785,-18662.985,-30252.825,-53297.28,-26581.635,-27212.985
1764505177.9893365,20658.735,-13765.95,-11352.555,-18658.98,-30249.405,-53293.59,-26578.35,-27210.195
1764505177.9893365,20657.52,-13766.76,-11352.375,-18658.98,-30249.315,-53293.905,-26580.105,-27212.31
1764505177.9893365,20661.705,-13762.665,-11347.875,-18654.39,-30245.175,-53289.765,-26574.435,-27206.19
1764505177.9893365,20672.28,-13752.54,-11337.84,-18644.04,-30234.735,-53279.19,-26561.475,-27192.915
1764505177.9893365,20676.195,-13746.6,-11332.125,-18637.605,-30227.85,-53273.52,-26560.89,-27191.79
1764505177.9893365,20670.345,-13754.61,-11339.775,-18645.525,-30235.815,-53282.295,-26572.68,-27201.195
1764505177.9893365,20664.495,-13763.475,-11349.54,-18656.46,-30247.245,-53293.77,-26581.86,-27207.045
1764505177.9893365,20655.765,-13772.655,-11359.98,-18666.225,-30256.785,-53303.625,-26590.41,-27214.74
1764505177.9893365,20656.395,-13773.015,-11359.845,-18666.36,-30255.57,-53300.34,-26580.105,-27211.545
1764505177.9893365,20654.28,-13774.32,-11359.98,-18665.775,-30254.355,-53296.56,-26575.38,-27214.83
1764505177.990355,20658.96,-13766.355,-11352.15,-18658.485,-30248.415,-53292.51,-26578.395,-27212.67
1764505177.990355,20660.58,-13765.185,-11350.08,-18657.0,-30246.975,-53290.665,-26576.46,-27207.99
1764505177.990355,20659.5,-13768.425,-11353.95,-18660.87,-30251.43,-53295.12,-26572.59,-27202.68
1764505177.990355,20662.02,-13764.69,-11350.755,-18657.405,-30249.09,-53292.87,-26571.015,-27201.555
1764505178.037928,20660.175,-13765.095,-11350.755,-18657.99,-30248.865,-53293.095,-26576.685,-27206.46
1764505178.037928,20656.485,-13768.065,-11352.87,-18660.915,-30251.79,-53297.19,-26584.245,-27211.185
1764505178.037928,20667.915,-13755.24,-11339.505,-18647.55,-30238.83,-53284.23,-26570.07,-27204.57
1764505178.0389278,20670.345,-13751.865,-11336.94,-18644.805,-30236.67,-53280.09,-26566.56,-27206.55
1764505178.0389278,20675.61,-13744.035,-11328.345,-18635.31,-30226.005,-53270.415,-26570.34,-27203.76
1764505178.0389278,20669.67,-13752.675,-11336.67,-18643.095,-30232.62,-53275.77,-26572.815,-27201.87
1764505178.0389278,20658.06,-13772.7,-11358.18,-18665.325,-30255.57,-53296.74,-26568.99,-27199.08
1764505178.0389278,20652.39,-13778.19,-11364.705,-18671.535,-30262.05,-53302.095,-26573.22,-27204.84
1764505178.0389278,20659.68,-13766.895,-11353.59,-18659.925,-30250.665,-53293.095,-26579.07,-27205.155
1764505178.0389278,20662.605,-13763.43,-11348.73,-18654.75,-30245.895,-53289.945,-26580.69,-27205.155
1764505178.0389278,20670.615,-13750.02,-11334.375,-18639.675,-30229.785,-53273.88,-26563.185,-27199.305
1764505178.0389278,20677.77,-13738.995,-11321.82,-18628.2,-30216.915,-53259.885,-26543.52,-27193.95
1764505178.0389278,20674.215,-13745.07,-11328.03,-18635.04,-30223.665,-53266.68,-26548.92,-27198.045
1764505178.0389278,20655.72,-13771.71,-11356.47,-18663.255,-30252.105,-53295.345,-26579.97,-27213.39
1764505178.0399303,20644.83,-13787.91,-11374.785,-18683.145,-30274.965,-53317.98,-26611.785,-27218.34
1764505178.0399303,20650.32,-13782.87,-11370.06,-18678.06,-30269.25,-53310.69,-26591.31,-27206.64
1764505178.0399303,20654.64,-13775.445,-11361.33,-18669.105,-30258.855,-53300.565,-26577.225,-27205.29
1764505178.0399303,20656.17,-13769.82,-11354.49,-18662.175,-30250.89,-53292.42,-26573.985,-27204.795
1764505178.0399303,20660.58,-13764.285,-11348.415,-18655.245,-30245.31,-53288.415,-26573.265,-27204.795
1764505178.0399303,20660.625,-13763.025,-11346.975,-18653.13,-30243.015,-53287.65,-26574.12,-27206.1
1764505178.0399303,20661.885,-13765.32,-11350.035,-18656.37,-30245.805,-53288.775,-26570.475,-27201.42
1764505178.0399303,20666.835,-13760.955,-11345.22,-18652.815,-30242.925,-53285.76,-26569.89,-27195.975
1764505178.0399303,20666.43,-13757.805,-11342.295,-18649.845,-30240.36,-53284.365,-26579.115,-27205.74
1764505178.0399303,20655.855,-13768.83,-11352.735,-18659.655,-30249.45,-53290.98,-26585.1,-27217.08
1764505178.0827198,20663.1,-13761.945,-11345.94,-18652.32,-30242.295,-53284.95,-26575.11,-27206.955
1764505178.0832596,20660.625,-13767.93,-11353.23,-18659.835,-30250.26,-53292.555,-26572.905,-27201.735
1764505178.0832596,20656.125,-13773.33,-11358.18,-18664.245,-30255.12,-53297.1,-26577.45,-27205.875
1764505178.0832596,20658.51,-13769.01,-11352.96,-18659.745,-30249.585,-53292.15,-26578.935,-27207.585
1764505178.0832596,20660.94,-13764.69,-11348.82,-18655.47,-30245.49,-53288.595,-26578.62,-27206.865
1764505178.0832596,20663.28,-13759.875,-11344.005,-18650.385,-30240.27,-53284.185,-26577.495,-27208.62
1764505178.0832596,20665.755,-13757.715,-11341.44,-18647.82,-30237.615,-53280.99,-26574.39,-27206.55
1764505178.0832596,20669.31,-13755.69,-11338.74,-18645.84,-30235.005,-53278.695,-26568.72,-27199.44
1764505178.0832596,20667.465,-13761.63,-11345.58,-18653.04,-30242.295,-53285.49,-26566.695,-27193.815
1764505178.0832596,20662.515,-13767.12,-11350.755,-18659.205,-30248.505,-53290.845,-26569.71,-27197.73
1764505178.0832596,20662.11,-13765.5,-11348.82,-18656.82,-30246.12,-53288.37,-26573.58,-27201.42
1764505178.0832596,20665.98,-13760.955,-11344.68,-18651.825,-30241.89,-53284.095,-26571.015,-27198.315
1764505178.0832596,20668.545,-13756.815,-11340.27,-18647.865,-30238.245,-53281.8,-26571.825,-27197.73
1764505178.0832596,20669.445,-13756.005,-11339.1,-18647.28,-30237.705,-53281.98,-26574.075,-27198.18
1764505178.0832596,20673.675,-13751.91,-11336.085,-18643.05,-30232.89,-53276.535,-26565.525,-27192.645
1764505178.0832596,20668.455,-13756.455,-11339.865,-18646.2,-30235.995,-53278.38,-26564.58,-27197.37
1764505178.0832596,20664.855,-13758.435,-11341.35,-18647.91,-30237.525,-53280.045,-26568.225,-27201.195
1764505178.0832596,20663.865,-13761.72,-11345.22,-18650.52,-30240.495,-53280.72,-26563.32,-27199.35
1764505178.0832596,20667.375,-13758.615,-11341.98,-18648.225,-30237.84,-53279.145,-26566.515,-27198.405
1764505178.0832596,20665.98,-13760.37,-11343.51,-18650.07,-30239.865,-53282.385,-26573.715,-27200.79
1764505178.0832596,20658.51,-13768.515,-11351.34,-18657.72,-30247.515,-53290.305,-26579.52,-27206.145
1764505178.0832596,20661.03,-13764.96,-11348.01,-18654.075,-30243.78,-53287.02,-26573.76,-27204.255
1764505178.132059,20671.335,-13750.29,-11333.07,-18639.315,-30229.605,-53274.42,-26567.1,-27197.19
1764505178.132059,20674.845,-13746.24,-11329.695,-18635.85,-30226.14,-53271.0,-26563.545,-27194.94
1764505178.132059,20672.865,-13750.92,-11334.96,-18640.8,-30230.955,-53274.33,-26560.62,-27198.09
1764505178.133118,20659.5,-13767.345,-11350.845,-18656.73,-30245.895,-53288.145,-26573.76,-27210.285
1764505178.133118,20656.035,-13768.29,-11351.205,-18657.495,-30247.83,-53291.385,-26586.99,-27215.235
1764505178.133118,20655.495,-13768.965,-11351.25,-18657.18,-30247.335,-53290.08,-26580.645,-27211.68
1764505178.133118,20652.165,-13777.83,-11360.79,-18666.855,-30256.92,-53298.855,-26575.92,-27203.4
1764505178.1341045,20654.91,-13772.655,-11355.57,-18661.905,-30252.24,-53294.985,-26576.64,-27205.515
1764505178.1341045,20657.295,-13769.82,-11352.285,-18658.89,-30248.64,-53291.34,-26574.525,-27206.19
1764505178.1341045,20654.505,-13772.655,-11354.265,-18661.455,-30250.845,-53293.68,-26577.135,-27209.52
1764505178.1341045,20658.6,-13767.48,-11349.18,-18656.145,-30245.895,-53289.09,-26572.365,-27206.28
1764505178.1341045,20659.5,-13765.815,-11347.2,-18654.345,-30244.5,-53288.28,-26573.355,-27205.785
1764505178.1341045,20658.15,-13766.985,-11349.09,-18655.92,-30246.48,-53290.755,-26576.91,-27208.215
1764505178.1341045,20653.155,-13772.295,-11353.32,-18661.005,-30250.665,-53294.85,-26582.805,-27215.28
1764505178.1341045,20660.22,-13763.835,-11344.32,-18652.275,-30242.295,-53287.92,-26586.45,-27212.67
1764505178.1341045,20667.735,-13755.87,-11337.57,-18645.255,-30235.32,-53280.495,-26572.365,-27204.075
1764505178.1341045,20666.61,-13759.83,-11341.665,-18650.16,-30241.35,-53285.76,-26554.455,-27196.29
1764505178.1341045,20658.06,-13769.865,-11353.23,-18661.59,-30252.42,-53295.57,-26564.94,-27200.97
1764505178.1341045,20656.035,-13769.595,-11351.97,-18658.395,-30247.47,-53288.73,-26568.9,-27206.1
1764505178.1341045,20656.62,-13768.695,-11350.935,-18657.135,-30246.345,-53290.08,-26571.825,-27207.72
1764505178.1341045,20663.28,-13761.18,-11343.15,-18650.43,-30240.72,-53285.22,-26567.145,-27201.735
1764505178.1341045,20666.925,-13756.95,-11338.245,-18646.605,-30236.13,-53281.395,-26567.685,-27199.395
1764505178.1341045,20656.53,-13766.04,-11347.83,-18656.055,-30245.13,-53291.25,-26580.42,-27209.745
1764505178.1341045,20647.08,-13776.57,-11357.775,-18665.82,-30253.77,-53297.145,-26575.875,-27214.2
1764505178.1341045,20655.45,-13769.055,-11350.845,-18659.07,-30246.12,-53288.505,-26562.78,-27204.795
1764505178.13511,20662.29,-13763.88,-11346.345,-18653.85,-30243.24,-53287.965,-26565.705,-27199.665
1764505178.1795871,20658.42,-13766.805,-11348.73,-18655.92,-30245.625,-53289.405,-26577.18,-27206.28
1764505178.1795871,20651.895,-13772.565,-11353.095,-18660.42,-30249.675,-53293.14,-26583.48,-27214.2
1764505178.1795871,20655.405,-13770.315,-11351.61,-18658.845,-30247.83,-53291.79,-26570.745,-27206.955
1764505178.1795871,20653.38,-13773.15,-11355.705,-18662.85,-30251.655,-53295.21,-26570.655,-27207.72
1764505178.1795871,20655.63,-13768.29,-11350.53,-18657.855,-30246.615,-53291.025,-26574.705,-27210.465
1764505178.1795871,20661.705,-13761.27,-11343.6,-18650.61,-30240.9,-53285.67,-26573.535,-27208.17
1764505178.1795871,20659.275,-13763.97,-11345.76,-18653.535,-30243.195,-53287.47,-26572.365,-27208.575
1764505178.1795871,20656.575,-13769.145,-11349.72,-18658.215,-30247.47,-53291.79,-26570.295,-27205.065
1764505178.1795871,20655.315,-13770.81,-11352.465,-18660.555,-30251.115,-53295.705,-26573.625,-27204.255
1764505178.1795871,20654.37,-13770.27,-11352.735,-18659.61,-30249.495,-53293.185,-26571.87,-27207.315
1764505178.1795871,20653.245,-13771.305,-11353.23,-18660.33,-30250.17,-53292.78,-26572.5,-27208.935
1764505178.1795871,20651.985,-13771.26,-11353.14,-18660.87,-30249.9,-53293.815,-26575.065,-27210.87
1764505178.1795871,20657.34,-13765.005,-11346.615,-18654.21,-30242.7,-53288.235,-26571.69,-27207.99
1764505178.1795871,20660.445,-13762.08,-11344.05,-18651.51,-30239.595,-53285.22,-26569.305,-27204.12
1764505178.1795871,20655.945,-13768.74,-11351.07,-18658.71,-30247.2,-53292.69,-26574.345,-27205.515
1764505178.1795871,20649.6,-13775.895,-11357.955,-18665.19,-30253.365,-53298.855,-26577.36,-27212.22
1764505178.1795871,20648.88,-13776.12,-11357.415,-18665.145,-30253.545,-53300.34,-26576.595,-27213.885
1764505178.1795871,20652.21,-13771.935,-11353.5,-18660.96,-30249.72,-53296.2,-26574.705,-27211.635
1764505178.1795871,20651.31,-13772.025,-11353.545,-18661.23,-30250.395,-53297.595,-26577.18,-27212.31
1764505178.1795871,20653.335,-13769.775,-11351.115,-18659.295,-30248.055,-53296.965,-26578.71,-27211.32
1764505178.1795871,20656.08,-13767.615,-11348.73,-18657.09,-30245.265,-53292.42,-26572.59,-27207.945
1764505178.1795871,20653.56,-13769.865,-11351.16,-18658.845,-30247.425,-53294.715,-26572.32,-27210.015
1764505178.2232146,20651.4,-13772.52,-11353.995,-18661.185,-30250.62,-53298.675,-26580.015,-27213.885
1764505178.2232146,20651.22,-13772.295,-11353.59,-18660.78,-30249.315,-53296.245,-26576.505,-27212.31
1764505178.2242346,20653.785,-13770.27,-11350.53,-18658.215,-30245.985,-53291.745,-26570.79,-27209.565
1764505178.2242346,20653.83,-13770.315,-11350.395,-18658.17,-30245.895,-53291.745,-26572.455,-27209.835
1764505178.2242346,20653.83,-13768.92,-11348.595,-18656.91,-30245.445,-53292.645,-26578.305,-27212.355
1764505178.2242346,20654.91,-13768.11,-11348.46,-18656.28,-30245.58,-53293.005,-26578.215,-27211.725
1764505178.2242346,20654.64,-13770.495,-11351.835,-18659.655,-30249.81,-53295.615,-26570.79,-27207.9
1764505178.2242346,20655.045,-13770.585,-11351.07,-18658.44,-30248.505,-53293.005,-26568.09,-27207.945
1764505178.2242346,20654.955,-13770.81,-11350.17,-18659.16,-30247.695,-53292.285,-26569.755,-27209.025
1764505178.2247474,20650.68,-13775.49,-11354.265,-18663.345,-30252.015,-53296.155,-26575.965,-27214.11
1764505178.2247474,20653.47,-13771.8,-11350.935,-18659.34,-30248.145,-53293.365,-26576.73,-27213.12
1764505178.2247474,20657.79,-13766.355,-11345.22,-18654.03,-30242.34,-53288.55,-26572.005,-27207.9
1764505178.2247474,20657.7,-13767.84,-11346.795,-18656.505,-30244.5,-53291.52,-26572.185,-27206.01
1764505178.2247474,20657.655,-13769.415,-11348.46,-18657.9,-30246.165,-53292.015,-26571.195,-27205.65
1764505178.2247474,20656.44,-13770.45,-11348.82,-18658.395,-30246.12,-53291.7,-26571.42,-27207.99
1764505178.2247474,20655.585,-13770.72,-11348.235,-18658.35,-30245.625,-53291.34,-26574.255,-27209.52
1764505178.2247474,20664.18,-13760.1,-11338.02,-18648.315,-30237.12,-53284.455,-26576.28,-27204.12
1764505178.2247474,20669.265,-13753.575,-11330.37,-18639.54,-30229.965,-53279.37,-26568.09,-27198.225
1764505178.2247474,20664.135,-13762.44,-11339.685,-18648.585,-30236.985,-53281.125,-26550.045,-27197.775
1764505178.2247474,20658.51,-13769.28,-11346.48,-18655.155,-30243.33,-53287.83,-26563.32,-27207.045
1764505178.2247474,20645.73,-13783.815,-11361.69,-18670.5,-30258.63,-53302.77,-26580.555,-27219.915
1764505178.2262554,20640.285,-13788.855,-11367.135,-18676.755,-30264.975,-53309.025,-26594.19,-27226.17
1764505178.2262554,20646.36,-13783.95,-11361.87,-18671.895,-30259.89,-53303.445,-26581.23,-27215.19
1764505178.22727,20652.03,-13778.28,-11355.84,-18665.64,-30254.445,-53297.64,-26577.135,-27211.32
1764505178.2702334,20653.605,-13775.805,-11353.545,-18663.39,-30253.185,-53296.425,-26578.26,-27211.995
1764505178.2702334,20655.27,-13773.69,-11351.475,-18660.24,-30250.935,-53294.895,-26578.71,-27211.59
1764505178.2702334,20657.835,-13770.27,-11347.92,-18656.955,-30247.515,-53292.87,-26574.975,-27208.8
1764505178.2707422,20664.225,-13763.16,-11340.81,-18650.61,-30241.62,-53289.045,-26571.465,-27203.715
1764505178.2707422,20665.485,-13764.465,-11341.89,-18652.59,-30243.33,-53290.53,-26574.885,-27203.58
1764505178.2707422,20654.64,-13776.975,-11352.6,-18663.03,-30252.645,-53295.435,-26577.045,-27211.77
1764505178.2707422,20647.98,-13783.005,-11359.17,-18667.98,-30256.515,-53297.73,-26583.345,-27218.61
1764505178.2707422,20651.895,-13778.73,-11355.66,-18664.605,-30253.77,-53297.145,-26586.36,-27217.035
1764505178.2707422,20655.63,-13773.465,-11349.72,-18659.52,-30249.63,-53293.095,-26583.57,-27216.45
1764505178.2707422,20652.03,-13776.3,-11352.555,-18662.49,-30251.475,-53294.67,-26582.67,-27221.4
1764505178.2707422,20654.145,-13776.255,-11352.96,-18662.49,-30251.565,-53294.895,-26581.77,-27217.53
1764505178.2707422,20657.7,-13775.04,-11350.665,-18660.915,-30249.9,-53295.615,-26582.805,-27212.805
1764505178.2707422,20653.515,-13782.195,-11358.585,-18669.42,-30258.405,-53302.77,-26583.705,-27212.22
1764505178.2707422,20656.62,-13776.48,-11353.14,-18662.715,-30252.195,-53295.57,-26580.78,-27211.815
1764505178.273249,20657.205,-13776.795,-11353.05,-18661.995,-30250.575,-53292.015,-26571.195,-27210.15
1764505178.273249,20657.205,-13775.49,-11352.015,-18660.51,-30249.63,-53292.24,-26574.03,-27210.915
1764505178.273249,20663.37,-13768.65,-11345.67,-18654.93,-30244.275,-53289.045,-26571.33,-27205.425
1764505178.273249,20660.085,-13772.565,-11349.675,-18659.88,-30248.64,-53292.915,-26572.41,-27207.63
1764505178.273249,20655.675,-13776.345,-11352.87,-18663.075,-30250.755,-53294.49,-26576.235,-27212.22
1764505178.273249,20660.22,-13772.205,-11348.145,-18658.89,-30246.03,-53289.81,-26572.095,-27208.665
1764505178.273249,20663.46,-13766.265,-11343.375,-18652.545,-30240.54,-53284.59,-26569.17,-27208.305
1764505178.273249,20661.345,-13767.615,-11344.545,-18653.58,-30242.565,-53287.335,-26575.515,-27212.31
1764505178.3175008,20659.95,-13771.215,-11347.56,-18657.27,-30246.345,-53291.565,-26576.82,-27212.04
1764505178.3175008,20660.13,-13774.185,-11349.855,-18659.25,-30248.37,-53292.195,-26570.475,-27206.91
1764505178.3175008,20661.03,-13773.51,-11348.91,-18658.665,-30248.19,-53292.195,-26570.61,-27205.605
1764505178.3175008,20661.345,-13773.33,-11348.01,-18658.17,-30247.29,-53291.61,-26573.22,-27207.855
1764505178.3175008,20658.645,-13774.995,-11350.26,-18660.33,-30249.54,-53293.41,-26575.965,-27210.6
1764505178.3175008,20661.03,-13771.98,-11347.245,-18657.27,-30246.885,-53291.43,-26577.45,-27209.7
1764505178.3175008,20672.19,-13759.785,-11334.69,-18645.345,-30234.87,-53281.305,-26573.895,-27200.205
1764505178.3175008,20672.505,-13761.045,-11335.455,-18646.56,-30235.41,-53281.71,-26573.625,-27200.655
1764505178.3175008,20652.435,-13783.725,-11358.675,-18668.34,-30256.065,-53298.765,-26577.495,-27215.505
1764505178.3175008,20654.28,-13782.105,-11356.335,-18666.27,-30253.185,-53295.795,-26574.12,-27212.76
1764505178.3175008,20662.785,-13771.44,-11345.13,-18655.515,-30243.69,-53290.89,-26578.395,-27208.71
1764505178.3175008,20669.895,-13763.745,-11338.47,-18648.09,-30236.625,-53284.68,-26570.835,-27200.745
1764505178.3185203,20674.035,-13759.83,-11335.32,-18644.895,-30232.8,-53280.54,-26563.23,-27195.435
1764505178.3185203,20663.685,-13770.855,-11345.265,-18655.47,-30241.935,-53286.795,-26567.91,-27206.685
1764505178.3185203,20660.895,-13772.34,-11345.49,-18657.09,-30243.285,-53287.11,-26574.39,-27212.94
1764505178.3185203,20664.45,-13768.92,-11342.205,-18654.03,-30240.855,-53285.4,-26573.4,-27209.52
1764505178.3185203,20668.725,-13766.58,-11339.37,-18651.105,-30238.74,-53283.645,-26566.335,-27201.105
1764505178.3185203,20665.305,-13771.305,-11344.32,-18656.1,-30244.41,-53290.215,-26568.495,-27200.205
1764505178.3185203,20661.885,-13773.87,-11347.02,-18659.115,-30247.695,-53293.68,-26573.94,-27206.145
1764505178.3185203,20663.28,-13772.7,-11345.94,-18657.99,-30245.985,-53290.575,-26570.745,-27204.48
1764505178.3185203,20669.13,-13766.265,-11339.595,-18651.285,-30240.0,-53284.545,-26565.48,-27199.755
1764505178.3185203,20673.045,-13762.305,-11335.14,-18646.785,-30235.455,-53279.955,-26559.9,-27196.065
1764505178.3185203,20669.085,-13765.995,-11339.19,-18649.8,-30238.92,-53284.68,-26567.82,-27200.115
1764505178.3185203,20662.38,-13771.44,-11344.5,-18655.02,-30243.555,-53289.135,-26574.93,-27206.37
1764505178.3668747,20660.895,-13772.7,-11345.22,-18655.74,-30243.87,-53289.225,-26573.265,-27207.405
1764505178.3668747,20665.44,-13768.29,-11340.945,-18651.33,-30239.82,-53286.66,-26571.33,-27203.58
1764505178.3668747,20667.645,-13765.77,-11338.245,-18648.63,-30237.12,-53283.015,-26569.845,-27201.915
1764505178.3668747,20671.02,-13760.685,-11333.565,-18644.265,-30233.43,-53279.64,-26570.295,-27199.71
1764505178.3668747,20661.66,-13771.26,-11344.545,-18655.74,-30244.815,-53290.305,-26576.19,-27206.73
1764505178.3668747,20668.32,-13764.69,-11337.84,-18648.765,-30240.135,-53287.56,-26572.095,-27200.79
1764505178.3668747,20671.02,-13760.955,-11333.205,-18644.535,-30235.365,-53282.565,-26566.83,-27197.73
1764505178.3668747,20665.08,-13769.19,-11341.53,-18651.42,-30238.47,-53277.885,-26556.57,-27198.0
1764505178.3668747,20665.17,-13767.66,-11339.595,-18649.8,-30237.165,-53280.225,-26565.795,-27200.97
1764505178.367887,20673.72,-13756.05,-11327.265,-18638.325,-30225.69,-53270.505,-26558.64,-27193.455
1764505178.367887,20678.22,-13752.135,-11323.215,-18634.005,-30222.765,-53267.31,-26551.395,-27187.425
1764505178.367887,20671.2,-13759.695,-11330.865,-18642.825,-30232.08,-53276.805,-26558.37,-27195.705
1764505178.367887,20662.47,-13773.105,-11346.12,-18658.26,-30246.84,-53291.34,-26571.645,-27202.815
1764505178.367887,20654.73,-13780.89,-11354.535,-18666.72,-30254.895,-53298.855,-26582.58,-27209.025
1764505178.367887,20660.49,-13773.645,-11346.48,-18657.54,-30245.805,-53290.62,-26570.655,-27203.31
1764505178.367887,20664.36,-13769.055,-11341.935,-18652.14,-30240.855,-53286.075,-26569.53,-27200.745
1764505178.367887,20668.635,-13764.465,-11337.525,-18647.685,-30237.03,-53281.89,-26566.92,-27196.065
1764505178.367887,20669.625,-13764.195,-11337.03,-18647.955,-30236.67,-53281.575,-26565.525,-27195.255
1764505178.367887,20672.865,-13760.595,-11332.98,-18643.455,-30233.25,-53278.02,-26561.52,-27192.645
1764505178.367887,20670.21,-13762.98,-11335.32,-18645.345,-30235.86,-53281.035,-26566.155,-27195.885
1764505178.367887,20669.535,-13763.745,-11336.04,-18646.155,-30235.815,-53280.495,-26565.525,-27196.335
1764505178.367887,20668.005,-13765.68,-11338.245,-18648.27,-30237.795,-53280.945,-26564.445,-27197.19
1764505178.4115152,20670.345,-13763.565,-11335.005,-18646.065,-30235.14,-53279.46,-26563.995,-27196.245
1764505178.4115152,20672.505,-13761.765,-11332.53,-18643.86,-30232.395,-53277.165,-26562.24,-27194.94
1764505178.4115152,20668.95,-13765.095,-11335.77,-18647.145,-30235.59,-53281.08,-26566.38,-27197.595
1764505178.4115152,20672.91,-13759.785,-11331.45,-18643.05,-30231.27,-53276.94,-26565.345,-27194.445
1764505178.4115152,20672.19,-13759.425,-11331.765,-18642.825,-30231.09,-53277.57,-26568.99,-27196.515
1764505178.4115152,20666.97,-13765.32,-11337.165,-18648.495,-30236.22,-53282.475,-26569.98,-27199.35
1764505178.4115152,20669.445,-13762.89,-11334.195,-18644.94,-30233.025,-53278.245,-26563.905,-27195.525
1764505178.4115152,20673.18,-13760.595,-11331.045,-18642.69,-30231.54,-53277.255,-26564.94,-27192.78
1764505178.4125297,20668.545,-13764.78,-11336.13,-18646.56,-30235.905,-53281.215,-26568.54,-27199.305
1764505178.4125297,20671.155,-13759.605,-11330.82,-18641.205,-30230.37,-53275.86,-26570.655,-27199.395
1764505178.4125297,20675.88,-13752.63,-11323.8,-18634.365,-30223.98,-53270.865,-26565.3,-27196.47
1764505178.4125297,20675.43,-13755.465,-11327.22,-18638.01,-30227.445,-53272.395,-26555.85,-27190.305
1764505178.4125297,20671.695,-13759.695,-11331.45,-18641.34,-30229.695,-53271.225,-26554.68,-27190.89
1764505178.4125297,20668.05,-13763.97,-11336.04,-18645.705,-30234.33,-53280.045,-26571.555,-27196.83
1764505178.4130406,20668.815,-13764.33,-11336.58,-18646.38,-30234.555,-53279.865,-26563.545,-27192.24
1764505178.4130406,20672.325,-13761.135,-11333.07,-18643.23,-30230.73,-53274.33,-26550.855,-27188.415
1764505178.4130406,20677.23,-13755.735,-11327.715,-18638.325,-30226.14,-53271.72,-26553.195,-27186.075
1764505178.4130406,20668.14,-13764.24,-11336.625,-18646.56,-30234.96,-53278.065,-26558.055,-27193.995
1764505178.4130406,20662.425,-13769.235,-11341.89,-18651.69,-30240.18,-53282.205,-26565.345,-27198.63
1764505178.4130406,20669.67,-13761.135,-11334.15,-18643.905,-30232.485,-53275.545,-26560.845,-27192.195
1764505178.4140513,20675.07,-13754.475,-11326.68,-18636.705,-30225.69,-53269.92,-26555.085,-27186.48
1764505178.4140513,20671.2,-13756.59,-11328.075,-18637.74,-30226.14,-53269.02,-26553.645,-27189.405
1764505178.4140513,20672.91,-13753.665,-11325.78,-18635.715,-30224.385,-53268.075,-26552.34,-27187.29
1764505178.4140513,20666.88,-13759.965,-11331.585,-18641.925,-30231.945,-53277.795,-26566.515,-27195.48
1764505178.4578035,20668.32,-13759.425,-11331.315,-18641.745,-30232.17,-53278.11,-26566.155,-27195.03
1764505178.4578035,20670.66,-13758.705,-11330.775,-18640.575,-30230.1,-53272.575,-26553.645,-27189.72
1764505178.4578035,20674.125,-13754.43,-11326.41,-18636.525,-30225.105,-53268.705,-26552.025,-27186.615
1764505178.4578035,20671.605,-13757.31,-11328.84,-18639.18,-30226.725,-53271.945,-26557.02,-27189.54
1764505178.4578035,20668.41,-13760.1,-11332.44,-18642.555,-30231.495,-53277.075,-26563.185,-27193.095
1764505178.4578035,20671.785,-13755.15,-11327.76,-18637.38,-30227.04,-53273.115,-26561.205,-27190.665
1764505178.4578035,20671.155,-13755.375,-11326.905,-18636.615,-30225.6,-53271.945,-26561.7,-27192.105
1764505178.4578035,20672.55,-13752.27,-11322.18,-18632.655,-30221.955,-53268.57,-26563.455,-27194.445
1764505178.4578035,20677.185,-13745.745,-11315.655,-18626.13,-30216.915,-53266.545,-26563.545,-27192.51
1764505178.4578035,20670.57,-13754.115,-11323.485,-18633.555,-30223.17,-53270.01,-26554.68,-27190.395
1764505178.4578035,20668.23,-13761.315,-11331.18,-18640.395,-30229.02,-53271.81,-26544.555,-27183.645
1764505178.4578035,20662.515,-13766.31,-11336.625,-18645.795,-30236.265,-53279.82,-26555.76,-27191.7
1764505178.4578035,20670.48,-13754.295,-11324.295,-18633.915,-30224.43,-53269.425,-26556.165,-27191.52
1764505178.4578035,20674.26,-13749.255,-11318.355,-18628.695,-30219.255,-53265.195,-26554.32,-27189.63
1764505178.4578035,20668.23,-13757.265,-11327.04,-18636.615,-30226.77,-53272.395,-26557.155,-27191.295
1764505178.4578035,20657.385,-13772.61,-11342.43,-18652.23,-30240.99,-53284.23,-26557.785,-27193.995
1764505178.4578035,20659.77,-13769.73,-11339.46,-18649.215,-30238.965,-53283.24,-26560.26,-27194.625
1764505178.4578035,20661.93,-13765.77,-11336.04,-18645.255,-30235.095,-53279.955,-26561.565,-27195.57
1764505178.4578035,20664.855,-13762.62,-11332.17,-18641.88,-30230.955,-53277.48,-26559.945,-27192.825
1764505178.4578035,20667.06,-13759.515,-11328.66,-18638.82,-30227.355,-53273.79,-26556.885,-27190.17
1764505178.4578035,20664.63,-13760.955,-11330.505,-18639.675,-30228.57,-53274.33,-26558.28,-27192.285
1764505178.4588149,20669.49,-13758.03,-11327.04,-18636.57,-30226.365,-53273.025,-26555.58,-27190.35
1764505178.4588149,20672.37,-13754.97,-11323.215,-18632.25,-30222.81,-53269.29,-26552.025,-27187.245
1764505178.4588149,20675.655,-13749.525,-11318.175,-18626.22,-30216.645,-53264.07,-26545.365,-27182.205
1764505178.5067534,20674.98,-13749.21,-11316.87,-18625.005,-30215.475,-53263.935,-26546.67,-27185.355
1764505178.5067534,20668.725,-13755.915,-11322.945,-18631.8,-30222.315,-53271.855,-26555.895,-27194.445
1764505178.5067534,20655.315,-13772.61,-11340.585,-18649.665,-30240.27,-53288.235,-26576.64,-27206.505
1764505178.5067534,20655.99,-13774.32,-11342.565,-18651.915,-30241.755,-53288.73,-26582.49,-27203.76
1764505178.5067534,20664.99,-13763.295,-11331.405,-18640.125,-30230.865,-53278.29,-26566.605,-27195.615
1764505178.5067534,20661.93,-13768.02,-11337.12,-18644.805,-30235.59,-53280.9,-26559.27,-27194.13
1764505178.5067534,20658.645,-13771.125,-11339.82,-18648.27,-30238.83,-53283.42,-26561.835,-27195.84
1764505178.5067534,20667.42,-13761.405,-11330.19,-18638.64,-30230.145,-53277.255,-26556.84,-27189.945
1764505178.5067534,20670.03,-13758.03,-11326.95,-18634.905,-30226.23,-53274.51,-26556.165,-27188.325
1764505178.5067534,20657.52,-13770.63,-11338.92,-18647.145,-30238.155,-53284.77,-26567.865,-27201.195
1764505178.5067534,20657.835,-13770.63,-11338.605,-18647.28,-30238.02,-53283.915,-26566.065,-27199.665
1764505178.5067534,20665.755,-13761.9,-11329.29,-18638.37,-30230.055,-53278.47,-26562.24,-27192.51
1764505178.5067534,20668.095,-13759.515,-11327.355,-18636.21,-30227.985,-53276.67,-26560.89,-27190.665
1764505178.5067534,20663.145,-13765.23,-11334.195,-18642.69,-30233.61,-53279.505,-26561.88,-27194.355
1764505178.5067534,20659.905,-13768.38,-11336.985,-18645.075,-30236.94,-53284.68,-26572.77,-27200.25
1764505178.5067534,20663.82,-13763.61,-11331.54,-18640.44,-30231.81,-53281.08,-26571.78,-27197.595
1764505178.5067534,20663.865,-13764.015,-11331.135,-18640.215,-30229.065,-53276.715,-26562.69,-27194.49
1764505178.5067534,20654.37,-13777.065,-11344.725,-18654.12,-30242.07,-53287.515,-26565.525,-27202.365
1764505178.5067534,20659.995,-13770.045,-11336.58,-18646.785,-30235.545,-53282.07,-26568.9,-27199.845
1764505178.5067534,20656.845,-13772.61,-11339.595,-18650.385,-30240.18,-53286.435,-26573.04,-27203.04
1764505178.5067534,20659.86,-13770.045,-11338.425,-18649.035,-30239.145,-53286.48,-26569.62,-27200.07
1764505178.5067534,20662.515,-13766.625,-11335.185,-18644.67,-30234.33,-53280.855,-26566.47,-27197.73
1764505178.5525262,20661.57,-13768.47,-11336.445,-18646.065,-30235.23,-53279.865,-26561.97,-27196.515
1764505178.5535278,20662.47,-13766.805,-11334.42,-18644.355,-30233.925,-53280.45,-26567.73,-27197.01
1764505178.5535278,20660.49,-13768.74,-11335.68,-18645.21,-30235.545,-53282.25,-26572.95,-27199.17
1764505178.5535278,20660.805,-13768.155,-11334.915,-18644.895,-30234.465,-53282.25,-26568.81,-27197.865
1764505178.5535278,20659.275,-13769.91,-11336.715,-18646.83,-30237.165,-53284.77,-26564.805,-27198.99
1764505178.5535278,20659.185,-13770.225,-11336.715,-18647.055,-30237.255,-53285.355,-26570.115,-27200.115
1764505178.5535278,20662.92,-13765.68,-11331.495,-18642.555,-30232.17,-53280.675,-26564.805,-27195.39
1764505178.5535278,20658.96,-13770.36,-11337.03,-18647.505,-30236.265,-53281.8,-26561.34,-27197.505
1764505178.5535278,20662.29,-13768.11,-11335.32,-18645.525,-30234.42,-53280.45,-26561.79,-27195.48
1764505178.5535278,20661.165,-13769.055,-11335.59,-18645.795,-30235.275,-53281.935,-26565.255,-27197.955
1764505178.5535278,20663.595,-13766.355,-11332.575,-18642.51,-30232.485,-53279.37,-26564.805,-27195.705
1764505178.554524,20665.71,-13762.935,-11328.705,-18638.91,-30229.47,-53277.48,-26567.73,-27197.37
1764505178.554524,20669.67,-13757.355,-11322.945,-18633.24,-30224.025,-53272.35,-26569.35,-27197.28
1764505178.554524,20664.99,-13762.26,-11327.13,-18637.515,-30227.895,-53277.03,-26572.05,-27200.79
1764505178.554524,20665.305,-13762.395,-11328.03,-18638.46,-30228.795,-53278.965,-26563.905,-27196.425
1764505178.554524,20662.155,-13770.09,-11336.94,-18647.55,-30237.705,-53285.355,-26558.865,-27191.25
1764505178.5555203,20659.5,-13773.24,-11339.37,-18649.665,-30237.93,-53281.35,-26555.715,-27191.745
1764505178.5555203,20663.37,-13765.68,-11331.135,-18642.105,-30231.495,-53278.74,-26560.89,-27193.365
1764505178.5555203,20663.19,-13763.925,-11328.165,-18640.125,-30230.28,-53279.19,-26567.685,-27197.28
1764505178.5555203,20664.225,-13765.005,-11330.19,-18641.295,-30230.415,-53277.66,-26566.785,-27195.255
1764505178.5565195,20661.255,-13770.045,-11335.905,-18645.84,-30234.87,-53280.27,-26561.97,-27195.615
1764505178.5565195,20656.98,-13773.915,-11338.92,-18650.07,-30238.02,-53283.915,-26564.67,-27200.565
1764505178.5565195,20659.995,-13769.055,-11334.42,-18645.795,-30234.33,-53281.08,-26564.355,-27198.63
1764505178.557526,20658.96,-13770.135,-11336.13,-18647.91,-30235.365,-53283.24,-26566.155,-27199.215
1764505178.557526,20663.1,-13765.14,-11331.27,-18643.095,-30231.765,-53280.495,-26565.84,-27195.39
1764505178.557526,20659.77,-13768.2,-11331.9,-18644.445,-30233.43,-53280.765,-26563.59,-27196.92
1764505178.5999846,20659.23,-13770.27,-11333.745,-18646.515,-30235.05,-53282.16,-26561.88,-27198.045
1764505178.5999846,20659.05,-13770.63,-11334.645,-18647.145,-30235.905,-53284.365,-26566.605,-27200.205
1764505178.5999846,20663.055,-13765.23,-11329.74,-18641.745,-30231.09,-53281.035,-26567.37,-27200.88
1764505178.6009817,20661.57,-13766.13,-11329.785,-18642.15,-30230.865,-53281.035,-26573.76,-27206.145
1764505178.6009817,20660.76,-13767.3,-11330.865,-18643.275,-30231.765,-53281.305,-26574.255,-27203.985
1764505178.6009817,20656.395,-13771.98,-11336.175,-18647.82,-30236.805,-53287.155,-26576.325,-27203.985
1764505178.6009817,20651.22,-13778.64,-11342.88,-18653.94,-30241.755,-53289.855,-26572.59,-27202.905
1764505178.6009817,20653.92,-13777.065,-11341.215,-18653.355,-30240.36,-53287.65,-26562.69,-27198.27
1764505178.602023,20662.785,-13767.525,-11330.91,-18643.725,-30231.315,-53279.28,-26550.99,-27188.685
1764505178.602023,20674.26,-13752.135,-11314.755,-18626.67,-30215.16,-53264.34,-26544.195,-27180.0
1764505178.602023,20673.36,-13754.115,-11317.77,-18630.0,-30218.13,-53268.165,-26550.36,-27184.5
1764505178.602023,20657.16,-13776.165,-11340.765,-18652.995,-30240.045,-53288.28,-26568.27,-27199.89
1764505178.602023,20651.355,-13782.015,-11345.76,-18658.215,-30245.895,-53293.68,-26580.195,-27208.125
1764505178.602023,20659.365,-13772.295,-11335.635,-18648.18,-30235.59,-53285.175,-26572.275,-27200.835
1764505178.6030295,20658.24,-13773.645,-11337.12,-18649.62,-30236.76,-53285.13,-26568.495,-27200.565
1764505178.6030295,20655.045,-13776.21,-11339.28,-18651.96,-30238.695,-53285.94,-26568.9,-27203.49
1764505178.6030295,20655.405,-13776.255,-11339.37,-18651.78,-30238.875,-53286.03,-26571.06,-27204.48
1764505178.6040294,20659.86,-13771.485,-11335.68,-18647.37,-30235.41,-53283.645,-26568.045,-27200.295
1764505178.6040294,20660.715,-13770.945,-11333.97,-18647.055,-30235.005,-53282.7,-26565.165,-27198.81
1764505178.6040294,20658.645,-13772.115,-11333.925,-18647.595,-30234.645,-53284.095,-26571.24,-27204.66
1764505178.6040294,20662.47,-13766.04,-11328.03,-18641.07,-30228.795,-53278.515,-26567.865,-27204.75
1764505178.6040294,20662.875,-13765.77,-11326.815,-18640.08,-30228.165,-53277.615,-26571.645,-27205.335
1764505178.6490686,20666.205,-13761.945,-11323.035,-18637.29,-30225.015,-53276.715,-26573.04,-27200.745
1764505178.6490686,20662.605,-13768.425,-11331.315,-18645.255,-30232.935,-53283.825,-26569.44,-27197.19
1764505178.6490686,20659.86,-13774.95,-11338.605,-18651.015,-30239.505,-53287.56,-26562.015,-27194.31
1764505178.6490686,20657.925,-13774.77,-11337.39,-18650.43,-30237.84,-53286.57,-26564.355,-27198.945
1764505178.6490686,20660.76,-13770.855,-11332.935,-18646.065,-30234.015,-53281.8,-26561.25,-27199.08
1764505178.6490686,20658.96,-13774.995,-11337.39,-18651.15,-30239.865,-53285.67,-26563.23,-27199.575
1764505178.6490686,20664.945,-13769.505,-11332.17,-18645.75,-30235.005,-53281.17,-26561.16,-27194.67
1764505178.6490686,20663.73,-13770.675,-11332.08,-18646.2,-30233.835,-53280.585,-26558.37,-27195.48
1764505178.6490686,20666.115,-13768.695,-11329.56,-18644.49,-30231.18,-53277.03,-26554.905,-27192.825
1764505178.6490686,20663.055,-13770.99,-11331.855,-18646.605,-30234.375,-53280.855,-26563.32,-27197.775
1764505178.6490686,20660.4,-13774.275,-11334.375,-18649.215,-30238.155,-53284.32,-26566.335,-27201.105
1764505178.6490686,20662.11,-13772.385,-11333.115,-18647.64,-30237.57,-53284.59,-26563.77,-27199.125
1764505178.6490686,20664.81,-13769.325,-11329.965,-18644.895,-30234.465,-53282.655,-26563.005,-27197.73
1764505178.6490686,20660.355,-13772.115,-11332.35,-18646.74,-30234.375,-53280.09,-26565.165,-27202.005
1764505178.6490686,20661.705,-13769.685,-11328.705,-18641.655,-30231.72,-53278.56,-26567.28,-27202.41
1764505178.6490686,20659.68,-13774.365,-11333.88,-18647.325,-30236.715,-53283.15,-26566.785,-27202.32
1764505178.6490686,20665.53,-13771.26,-11332.53,-18646.47,-30235.815,-53281.89,-26559.72,-27195.03
1764505178.6490686,20668.635,-13766.49,-11327.4,-18641.25,-30232.44,-53280.765,-26559.045,-27194.085
1764505178.6490686,20667.195,-13765.68,-11325.24,-18639.315,-30230.505,-53279.145,-26569.755,-27199.125
1764505178.6490686,20655.315,-13777.56,-11336.49,-18649.485,-30239.865,-53285.625,-26580.735,-27211.77
1764505178.6490686,20656.62,-13776.57,-11336.04,-18649.125,-30239.055,-53284.455,-26569.17,-27208.755
1764505178.6490686,20659.14,-13774.545,-11334.96,-18648.315,-30237.48,-53282.43,-26558.64,-27201.87
1764505178.6937492,20657.475,-13777.965,-11338.875,-18651.555,-30241.395,-53286.795,-26563.32,-27200.61
1764505178.6937492,20659.68,-13776.48,-11336.94,-18649.755,-30240.135,-53286.66,-26564.355,-27199.395
1764505178.6937492,20662.83,-13771.665,-11331.9,-18645.21,-30235.14,-53282.295,-26561.88,-27198.225
1764505178.6937492,20660.805,-13772.7,-11333.16,-18646.515,-30236.22,-53284.095,-26564.67,-27201.06
1764505178.6937492,20659.005,-13775.22,-11335.59,-18648.27,-30238.245,-53285.985,-26567.235,-27203.58
1764505178.6937492,20661.705,-13772.52,-11331.855,-18644.58,-30234.51,-53283.555,-26571.015,-27202.5
1764505178.6937492,20664.405,-13768.605,-11327.445,-18641.475,-30230.055,-53278.38,-26566.065,-27199.98
1764505178.6937492,20660.67,-13772.655,-11330.91,-18644.355,-30233.025,-53280.405,-26566.38,-27202.275
1764505178.6937492,20663.235,-13768.29,-11327.31,-18639.855,-30229.695,-53278.065,-26564.445,-27197.28
1764505178.6937492,20665.08,-13766.715,-11326.185,-18638.37,-30227.985,-53275.23,-26550.045,-27191.835
1764505178.6937492,20670.84,-13761.18,-11320.425,-18633.555,-30222.405,-53268.57,-26544.645,-27189.18
1764505178.6937492,20662.29,-13771.44,-11331.09,-18644.49,-30232.845,-53280.765,-26562.195,-27202.545
1764505178.6937492,20650.815,-13785.12,-11345.895,-18659.43,-30247.065,-53294.22,-26573.625,-27211.725
1764505178.6937492,20647.44,-13787.82,-11348.1,-18663.075,-30250.935,-53296.92,-26577.675,-27213.795
1764505178.6937492,20654.595,-13779.765,-11339.82,-18654.795,-30243.51,-53290.17,-26571.465,-27207.945
1764505178.6937492,20657.655,-13776.435,-11336.85,-18650.52,-30240.09,-53286.615,-26568.0,-27205.065
1764505178.6937492,20662.02,-13772.115,-11332.485,-18645.795,-30235.815,-53282.205,-26563.32,-27200.745
1764505178.6937492,20657.7,-13776.615,-11335.86,-18650.205,-30239.28,-53286.93,-26568.54,-27205.695
1764505178.6937492,20656.35,-13777.29,-11337.255,-18650.34,-30239.73,-53288.37,-26570.07,-27207.045
1764505178.6937492,20654.01,-13779.945,-11340.45,-18653.13,-30242.43,-53289.405,-26569.485,-27208.215
1764505178.694744,20655.945,-13777.515,-11337.93,-18650.97,-30240.045,-53286.615,-26568.99,-27207.045
1764505178.694744,20661.66,-13770.63,-11330.64,-18643.455,-30233.025,-53281.035,-26569.35,-27204.03
1764505178.694744,20667.96,-13762.755,-11323.71,-18636.615,-30226.5,-53276.58,-26568.585,-27201.555
1764505178.694744,20662.02,-13767.975,-11328.57,-18641.925,-30231.405,-53281.755,-26568.135,-27207.63
1764505178.7385845,20655.495,-13774.59,-11333.925,-18647.37,-30235.545,-53284.59,-26569.665,-27212.535
1764505178.7385845,20656.53,-13776.795,-11336.94,-18650.25,-30236.895,-53283.915,-26567.235,-27205.065
1764505178.7385845,20658.915,-13776.705,-11336.985,-18650.79,-30238.29,-53285.805,-26566.92,-27200.25
1764505178.7385845,20659.95,-13774.635,-11334.96,-18648.135,-30236.175,-53283.42,-26565.615,-27202.05
1764505178.7385845,20663.235,-13771.08,-11330.955,-18644.445,-30232.575,-53279.37,-26559.18,-27197.775
1764505178.7385845,20660.085,-13774.095,-11333.43,-18647.19,-30235.68,-53282.61,-26560.215,-27201.24
1764505178.7385845,20656.305,-13777.515,-11337.03,-18651.465,-30239.415,-53286.57,-26564.355,-27205.155
1764505178.7385845,20659.32,-13772.745,-11332.08,-18646.515,-30235.545,-53285.04,-26565.03,-27204.255
1764505178.7385845,20659.545,-13772.205,-11331.945,-18646.155,-30236.04,-53284.95,-26562.825,-27203.04
1764505178.7385845,20656.62,-13778.1,-11338.605,-18652.005,-30240.63,-53284.995,-26561.475,-27201.285
1764505178.7385845,20659.905,-13773.915,-11333.79,-18646.47,-30236.22,-53281.8,-26563.59,-27199.935
1764505178.7385845,20660.4,-13772.835,-11332.395,-18645.39,-30235.59,-53282.385,-26565.255,-27201.33
1764505178.7385845,20665.755,-13765.455,-11325.735,-18638.235,-30229.02,-53277.03,-26562.465,-27196.875
1764505178.7385845,20663.64,-13766.94,-11327.13,-18639.63,-30230.055,-53276.625,-26559.63,-27198.045
1764505178.7385845,20662.74,-13768.02,-11328.57,-18640.89,-30231.72,-53278.155,-26556.75,-27198.27
1764505178.7385845,20664.27,-13767.075,-11326.77,-18640.44,-30230.955,-53279.1,-26559.99,-27196.92
1764505178.7395842,20666.205,-13764.69,-11323.305,-18636.75,-30226.95,-53275.365,-26566.02,-27196.515
1764505178.7395842,20658.015,-13772.25,-11330.82,-18643.95,-30233.565,-53280.945,-26574.03,-27206.28
1764505178.7395842,20655.045,-13774.59,-11333.61,-18646.38,-30236.535,-53282.79,-26569.395,-27210.69
1764505178.7395842,20658.105,-13772.88,-11331.99,-18644.265,-30233.52,-53280.0,-26566.38,-27206.685
1764505178.7395842,20659.365,-13773.33,-11332.44,-18645.165,-30233.34,-53280.855,-26563.905,-27200.835
1764505178.7395842,20653.335,-13782.33,-11342.34,-18654.84,-30243.735,-53290.305,-26566.83,-27201.69
1764505178.787233,20658.285,-13775.805,-11335.23,-18647.19,-30237.39,-53284.095,-26563.59,-27198.99
1764505178.787233,20660.985,-13772.115,-11331.855,-18643.23,-30233.565,-53280.945,-26564.445,-27198.81
1764505178.787233,20662.92,-13768.11,-11327.13,-18638.64,-30228.075,-53276.4,-26564.94,-27197.865
1764505178.787233,20658.735,-13773.15,-11332.17,-18643.59,-30232.125,-53279.28,-26565.345,-27200.655
1764505178.787233,20652.975,-13779.72,-11339.28,-18650.745,-30240.045,-53286.3,-26564.22,-27203.13
1764505178.787233,20655.36,-13776.705,-11336.175,-18648.27,-30237.93,-53284.635,-26563.905,-27202.14
1764505178.787233,20662.605,-13768.245,-11328.525,-18640.8,-30230.73,-53280.405,-26563.815,-27197.1
1764505178.787233,20664.0,-13765.86,-11325.915,-18637.695,-30228.57,-53280.855,-26570.61,-27198.81
1764505178.787233,20662.11,-13767.345,-11326.77,-18638.775,-30227.94,-53278.155,-26569.755,-27200.97
1764505178.787233,20665.305,-13764.195,-11323.89,-18636.12,-30224.61,-53272.845,-26557.065,-27196.65
1764505178.787233,20666.835,-13763.835,-11324.07,-18635.625,-30224.79,-53272.485,-26550.315,-27195.84
1764505178.7882698,20666.61,-13762.44,-11321.595,-18632.25,-30221.28,-53269.29,-26552.115,-27195.93
1764505178.7882698,20676.06,-13753.62,-11311.65,-18623.115,-30212.325,-53261.19,-26538.93,-27182.07
1764505178.7882698,20673.945,-13757.49,-11315.88,-18628.155,-30217.41,-53266.41,-26540.145,-27181.845
1764505178.7882698,20651.67,-13784.58,-11344.05,-18655.965,-30243.69,-53290.53,-26560.665,-27203.58
1764505178.7882698,20641.86,-13794.345,-11353.545,-18666.315,-30255.435,-53303.85,-26588.385,-27219.33
1764505178.7882698,20649.06,-13784.13,-11342.88,-18656.145,-30244.995,-53294.49,-26579.97,-27212.445
1764505178.7882698,20653.785,-13779.36,-11337.84,-18651.06,-30239.19,-53287.695,-26571.645,-27206.685
1764505178.789264,20653.2,-13779.765,-11337.705,-18652.05,-30239.73,-53288.325,-26573.49,-27207.765
1764505178.789264,20654.685,-13777.875,-11335.95,-18649.71,-30237.84,-53286.615,-26571.24,-27206.685
1764505178.789264,20659.725,-13773.285,-11331.945,-18645.165,-30234.195,-53282.34,-26564.22,-27201.195
1764505178.7897775,20655.72,-13778.685,-11336.67,-18650.43,-30239.145,-53287.02,-26568.27,-27204.345
1764505178.7897775,20657.745,-13775.175,-11332.755,-18646.02,-30235.68,-53284.68,-26570.745,-27203.805
1764505178.7897775,20660.22,-13771.17,-11329.245,-18641.43,-30232.575,-53281.62,-26570.7,-27202.86
1764505178.7897775,20660.355,-13772.205,-11330.145,-18643.14,-30232.395,-53281.44,-26564.355,-27200.07
1764505178.7897775,20662.47,-13769.865,-11327.22,-18640.44,-30228.93,-53278.335,-26562.015,-27198.0
1764505178.8312876,20660.265,-13773.06,-11330.64,-18643.545,-30232.8,-53280.72,-26564.265,-27200.745
1764505178.8312876,20658.555,-13773.105,-11331.27,-18643.725,-30233.115,-53281.53,-26569.89,-27205.65
1764505178.8312876,20662.245,-13768.695,-11327.085,-18638.865,-30228.435,-53278.47,-26571.24,-27207.27
1764505178.8312876,20669.445,-13762.035,-11319.525,-18632.07,-30221.595,-53270.64,-26560.89,-27197.19
1764505178.8312876,20664.27,-13770.765,-11328.84,-18641.43,-30230.19,-53276.265,-26554.995,-27194.805
1764505178.8312876,20661.03,-13776.48,-11333.25,-18647.19,-30235.455,-53283.33,-26557.92,-27194.31
1764505178.832301,20659.365,-13777.515,-11333.925,-18647.055,-30236.535,-53283.87,-26560.08,-27196.335
1764505178.8326013,20662.29,-13773.285,-11330.73,-18644.4,-30233.16,-53279.64,-26561.34,-27195.435
1764505178.8326013,20659.635,-13774.77,-11331.09,-18646.2,-30235.725,-53284.32,-26570.97,-27200.115
1764505178.8335042,20659.23,-13774.32,-11330.055,-18644.22,-30234.69,-53284.275,-26570.835,-27201.78
1764505178.8335042,20660.715,-13773.24,-11329.875,-18643.365,-30233.43,-53283.645,-26563.32,-27198.675
1764505178.8335042,20666.43,-13769.1,-11324.88,-18638.19,-30226.545,-53274.015,-26551.26,-27191.25
1764505178.8335042,20667.42,-13767.165,-11322.405,-18635.535,-30225.015,-53272.305,-26554.905,-27192.195
1764505178.8335042,20662.56,-13772.925,-11328.795,-18641.25,-30230.64,-53276.67,-26562.825,-27197.73
1764505178.8335042,20658.195,-13777.56,-11333.52,-18646.74,-30235.185,-53280.855,-26569.395,-27202.95
1764505178.8350143,20662.74,-13772.16,-11327.4,-18641.385,-30230.145,-53278.245,-26571.465,-27200.97
1764505178.8350143,20665.26,-13769.55,-11324.115,-18637.425,-30226.815,-53275.995,-26569.44,-27198.54
1764505178.8350143,20662.56,-13773.285,-11329.155,-18641.7,-30229.785,-53277.795,-26562.195,-27199.53
1764505178.8350143,20663.415,-13772.43,-11329.245,-18642.195,-30230.325,-53278.92,-26563.545,-27198.585
1764505178.8360295,20660.805,-13775.85,-11332.305,-18644.895,-30233.25,-53281.53,-26567.64,-27202.05
1764505178.8360295,20660.58,-13776.165,-11331.81,-18645.255,-30233.43,-53282.52,-26570.97,-27203.13
1764505178.836733,20660.13,-13776.48,-11332.26,-18645.39,-30233.205,-53280.585,-26567.865,-27202.41
1764505178.876502,20660.67,-13775.22,-11329.74,-18643.365,-30231.315,-53278.965,-26571.555,-27202.545
1764505178.876502,20660.49,-13773.825,-11327.76,-18642.285,-30231.18,-53280.495,-26572.14,-27203.445
1764505178.876502,20658.555,-13776.39,-11330.37,-18644.985,-30233.43,-53280.855,-26564.085,-27203.04
1764505178.8775167,20659.185,-13775.13,-11329.155,-18643.41,-30231.945,-53279.73,-26563.995,-27202.365
1764505178.8775167,20661.615,-13773.015,-11327.58,-18641.43,-30229.605,-53277.48,-26563.905,-27198.45
1764505178.8775167,20656.71,-13779.36,-11334.285,-18648.36,-30236.49,-53284.905,-26570.88,-27202.59
1764505178.8775167,20659.095,-13776.345,-11331.675,-18645.795,-30233.88,-53281.665,-26564.265,-27200.475
1764505178.8775167,20659.68,-13775.4,-11330.415,-18644.805,-30232.8,-53280.855,-26560.8,-27200.34
1764505178.8775167,20657.745,-13777.155,-11331.765,-18646.2,-30234.42,-53282.88,-26564.22,-27203.175
1764505178.8775167,20661.525,-13772.61,-11326.815,-18641.025,-30229.965,-53279.1,-26567.64,-27204.435
1764505178.8775167,20659.32,-13774.59,-11328.345,-18641.565,-30230.865,-53279.46,-26571.33,-27207.54
1764505178.8775167,20660.805,-13772.25,-11325.645,-18639.585,-30228.795,-53277.345,-26567.46,-27203.4
1764505178.8775167,20666.565,-13768.695,-11322.495,-18637.02,-30226.455,-53274.24,-26559.945,-27193.185
1764505178.8775167,20667.96,-13768.74,-11322.0,-18637.02,-30226.545,-53274.285,-26559.315,-27190.62
1764505178.8775167,20664.585,-13771.215,-11323.845,-18639.18,-30228.75,-53277.615,-26565.03,-27196.155
1764505178.8775167,20655.315,-13781.835,-11334.015,-18648.765,-30238.02,-53285.895,-26569.845,-27203.445
1764505178.8775167,20656.17,-13779.495,-11332.755,-18648.0,-30236.04,-53284.275,-26568.495,-27203.13
1764505178.8775167,20662.74,-13771.665,-11324.655,-18639.855,-30227.58,-53276.22,-26562.6,-27197.055
1764505178.8775167,20674.26,-13758.525,-11310.615,-18625.59,-30213.495,-53263.305,-26548.83,-27184.77
1764505178.8775167,20673.81,-13759.29,-11312.37,-18626.805,-30215.385,-53264.385,-26549.82,-27186.93
1764505178.8775167,20668.14,-13768.335,-11321.595,-18636.84,-30224.97,-53272.755,-26556.12,-27193.005
1764505178.8775167,20656.62,-13782.15,-11336.175,-18652.635,-30239.955,-53288.145,-26579.115,-27206.865
1764505178.9227762,20655.405,-13780.98,-11335.77,-18650.565,-30239.055,-53286.75,-26583.03,-27208.395
1764505178.9227762,20654.415,-13782.87,-11337.03,-18651.06,-30239.865,-53286.93,-26574.705,-27207.0
1764505178.9227762,20656.755,-13780.53,-11335.005,-18649.08,-30237.165,-53284.455,-26569.845,-27204.975
1764505178.9227762,20661.57,-13775.04,-11330.01,-18644.175,-30232.62,-53280.315,-26566.695,-27201.24
1764505178.9227762,20660.715,-13775.265,-11329.965,-18644.715,-30232.98,-53281.215,-26567.505,-27201.78
1764505178.9227762,20663.19,-13771.98,-11326.68,-18641.16,-30229.605,-53277.345,-26563.095,-27199.215
1764505178.9227762,20666.835,-13767.615,-11322.405,-18636.3,-30225.555,-53273.565,-26563.32,-27197.865
1764505178.9227762,20665.755,-13768.74,-11323.62,-18637.2,-30226.905,-53275.5,-26568.405,-27200.79
1764505178.9227762,20667.645,-13767.39,-11321.1,-18635.4,-30224.475,-53272.665,-26561.7,-27198.09
1764505178.9227762,20670.12,-13763.925,-11317.32,-18631.935,-30221.595,-53270.64,-26557.56,-27192.69
1764505178.9227762,20662.29,-13771.98,-11324.52,-18638.37,-30229.02,-53278.92,-26563.185,-27198.18
1764505178.9227762,20656.98,-13779.63,-11332.35,-18646.02,-30233.97,-53280.765,-26557.83,-27199.44
1764505178.924796,20660.805,-13776.075,-11330.19,-18644.58,-30232.53,-53279.28,-26560.665,-27195.435
1764505178.924796,20662.92,-13772.16,-11325.06,-18639.81,-30229.38,-53278.965,-26572.545,-27200.565
1764505178.924796,20662.245,-13772.97,-11325.24,-18640.305,-30229.245,-53277.48,-26567.73,-27201.645
1764505178.9257915,20660.94,-13773.24,-11325.6,-18640.17,-30228.705,-53276.355,-26561.745,-27200.205
1764505178.9257915,20657.16,-13777.02,-11328.795,-18643.545,-30232.17,-53280.0,-26564.445,-27202.41
1764505178.9261584,20658.735,-13776.03,-11328.255,-18642.555,-30231.72,-53280.945,-26566.965,-27202.005
1764505178.9261584,20664.63,-13769.055,-11322.18,-18636.255,-30225.96,-53275.23,-26560.62,-27195.795
1764505178.9261584,20658.87,-13775.13,-11327.355,-18641.88,-30230.37,-53278.245,-26566.11,-27202.545
1764505178.9261584,20656.215,-13778.19,-11330.64,-18644.67,-30232.845,-53279.91,-26569.755,-27206.19
1764505178.9267888,20655.585,-13779.495,-11332.305,-18646.695,-30236.49,-53283.51,-26568.855,-27204.615
1764505178.9267888,20659.455,-13774.995,-11327.355,-18641.745,-30232.305,-53281.665,-26570.295,-27202.095
1764505178.9267888,20652.84,-13781.34,-11333.07,-18646.695,-30237.57,-53286.21,-26578.62,-27208.845
1764505178.9699004,20655.405,-13779.765,-11331.405,-18645.66,-30235.23,-53284.275,-26571.735,-27204.615
1764505178.9699004,20660.4,-13775.085,-11326.77,-18642.105,-30231.27,-53283.195,-26568.405,-27201.285
1764505178.9699004,20657.655,-13778.19,-11330.28,-18645.795,-30234.285,-53283.915,-26566.29,-27203.445
1764505178.9699004,20656.35,-13778.28,-11330.19,-18644.85,-30231.945,-53279.415,-26565.48,-27204.84
1764505178.9699004,20656.215,-13777.605,-11328.705,-18643.815,-30230.82,-53279.685,-26568.72,-27204.75
1764505178.9699004,20657.565,-13776.615,-11328.66,-18643.005,-30230.82,-53278.38,-26561.52,-27201.465
1764505178.9699004,20657.88,-13776.255,-11328.435,-18642.69,-30229.605,-53278.065,-26562.555,-27202.23
1764505178.9699004,20655.36,-13779.27,-11331.045,-18645.84,-30233.025,-53282.25,-26565.705,-27204.57
1764505178.9699004,20658.825,-13776.21,-11327.895,-18642.555,-30230.055,-53279.28,-26562.24,-27200.88
1764505178.9699004,20658.06,-13777.965,-11329.65,-18644.355,-30232.17,-53281.305,-26566.2,-27201.24
1764505178.9699004,20655.81,-13780.53,-11332.035,-18646.29,-30235.05,-53284.185,-26568.495,-27203.265
1764505178.9699004,20658.285,-13776.345,-11327.49,-18642.15,-30231.72,-53282.07,-26570.79,-27202.905
1764505178.9714508,20657.16,-13777.425,-11328.255,-18642.69,-30231.495,-53281.53,-26571.645,-27205.425
1764505178.9714508,20652.48,-13782.465,-11333.925,-18647.73,-30236.265,-53286.885,-26575.38,-27213.3
1764505178.9714508,20653.38,-13782.015,-11332.71,-18646.83,-30234.78,-53284.995,-26574.885,-27214.29
1764505178.9714508,20659.095,-13776.435,-11327.355,-18641.88,-30230.055,-53278.74,-26567.595,-27205.335
1764505178.9714508,20657.34,-13781.475,-11332.98,-18647.055,-30235.725,-53284.725,-26564.625,-27200.34
1764505178.9714508,20655.27,-13783.14,-11334.78,-18648.765,-30237.12,-53287.56,-26568.54,-27201.735
1764505178.9714508,20658.105,-13779.495,-11330.37,-18644.625,-30232.395,-53282.88,-26570.61,-27202.815
1764505178.9714508,20652.255,-13786.245,-11337.03,-18650.88,-30238.29,-53287.155,-26572.365,-27208.395
1764505178.9714508,20651.355,-13787.955,-11338.83,-18652.68,-30239.955,-53288.37,-26571.87,-27207.72
1764505178.9714508,20653.56,-13783.77,-11335.68,-18648.765,-30237.345,-53286.03,-26574.885,-27209.61
1764505178.9714508,20659.455,-13775.67,-11326.59,-18639.855,-30229.155,-53278.29,-26571.735,-27207.18
1764505178.9714508,20660.76,-13774.41,-11324.34,-18637.92,-30227.94,-53277.12,-26570.655,-27205.38
1764505179.016646,20658.645,-13778.775,-11328.84,-18642.42,-30232.44,-53280.0,-26566.245,-27201.465
1764505179.016646,20663.91,-13773.87,-11324.61,-18637.695,-30228.075,-53275.77,-26559.405,-27192.15
1764505179.016646,20670.12,-13764.33,-11315.16,-18626.94,-30217.365,-53265.555,-26548.695,-27186.075
1764505179.016646,20667.555,-13767.3,-11318.49,-18630.72,-30220.695,-53269.245,-26553.645,-27191.07
1764505179.016646,20656.845,-13780.44,-11331.54,-18645.03,-30234.87,-53284.905,-26570.655,-27203.76
1764505179.0176413,20646.09,-13791.195,-11342.295,-18654.39,-30245.58,-53295.165,-26585.64,-27214.92
1764505179.0176413,20649.33,-13788.54,-11339.64,-18651.69,-30241.98,-53289.045,-26571.015,-27208.485
1764505179.0176413,20650.32,-13787.505,-11338.56,-18651.465,-30240.765,-53287.29,-26571.465,-27208.305
1764505179.0176413,20648.745,-13786.605,-11337.3,-18649.89,-30239.865,-53288.01,-26578.395,-27212.13
1764505179.0176413,20652.165,-13781.97,-11331.99,-18645.03,-30234.465,-53283.195,-26574.615,-27209.07
1764505179.0176413,20658.6,-13776.165,-11326.995,-18639.765,-30228.84,-53278.155,-26566.56,-27202.23
1764505179.0176413,20663.955,-13772.88,-11323.53,-18636.975,-30226.41,-53275.635,-26559.135,-27193.77
1764505179.0176413,20664.495,-13773.555,-11324.52,-18637.47,-30226.995,-53276.22,-26558.865,-27193.275
1764505179.0176413,20656.17,-13780.575,-11330.685,-18642.78,-30232.44,-53280.495,-26566.695,-27201.195
1764505179.0176413,20652.345,-13784.715,-11335.14,-18647.055,-30237.39,-53285.715,-26572.77,-27205.83
1764505179.0176413,20656.485,-13780.17,-11330.37,-18642.69,-30232.35,-53283.15,-26570.295,-27202.275
1764505179.0176413,20656.935,-13780.665,-11329.47,-18642.555,-30231.315,-53281.215,-26568.315,-27202.14
1764505179.0176413,20654.28,-13783.005,-11331.855,-18644.67,-30233.7,-53283.195,-26568.495,-27204.615
1764505179.0186396,20659.32,-13776.84,-11326.5,-18639.495,-30229.02,-53279.415,-26565.57,-27199.89
1764505179.0186396,20657.655,-13778.055,-11327.85,-18640.26,-30230.91,-53282.295,-26570.745,-27202.14
1764505179.0186396,20660.76,-13773.87,-11323.17,-18636.12,-30226.14,-53278.695,-26569.89,-27199.755
1764505179.0186396,20661.885,-13772.88,-11321.37,-18634.905,-30224.745,-53276.715,-26567.1,-27198.81
1764505179.0627432,20659.77,-13776.345,-11325.105,-18639.0,-30229.155,-53279.19,-26562.33,-27197.46
1764505179.0627432,20661.39,-13773.42,-11322.675,-18636.255,-30226.32,-53275.095,-26560.26,-27195.795
1764505179.0627432,20658.78,-13775.805,-11324.925,-18638.28,-30228.435,-53277.03,-26565.21,-27200.43
1764505179.0627432,20654.685,-13780.575,-11329.38,-18642.42,-30232.62,-53281.575,-26566.83,-27203.13
1764505179.0627432,20658.735,-13776.12,-11325.78,-18638.955,-30228.21,-53276.895,-26560.62,-27199.35
1764505179.0627432,20662.155,-13770.585,-11320.02,-18633.96,-30223.53,-53272.845,-26562.33,-27198.81
1764505179.0627432,20664.855,-13767.975,-11316.375,-18630.18,-30220.29,-53270.19,-26563.5,-27197.865
1764505179.0627432,20666.385,-13767.705,-11316.87,-18630.855,-30221.28,-53272.485,-26559.27,-27193.905
1764505179.0627432,20661.795,-13773.96,-11322.9,-18637.65,-30228.795,-53280.63,-26562.69,-27194.13
1764505179.0627432,20651.085,-13785.165,-11333.52,-18646.92,-30236.76,-53284.68,-26566.2,-27203.22
1764505179.0627432,20655.18,-13779.9,-11328.21,-18641.115,-30231.675,-53280.495,-26568.495,-27201.96
1764505179.0627432,20662.155,-13770.99,-11319.39,-18632.745,-30224.34,-53275.23,-26571.78,-27198.09
1764505179.0627432,20665.35,-13768.2,-11317.545,-18630.855,-30222.225,-53272.53,-26563.59,-27192.645
1764505179.0627432,20659.005,-13775.49,-11324.25,-18639.045,-30229.155,-53277.525,-26558.145,-27195.705
1764505179.0627432,20653.155,-13781.565,-11329.92,-18643.95,-30232.17,-53278.29,-26555.715,-27199.8
1764505179.0627432,20659.545,-13774.05,-11322.27,-18636.705,-30226.68,-53273.565,-26553.33,-27195.93
1764505179.0627432,20667.735,-13765.05,-11312.73,-18627.57,-30217.635,-53265.375,-26548.83,-27188.91
1764505179.0627432,20667.285,-13767.075,-11315.97,-18630.225,-30220.245,-53268.03,-26549.55,-27188.505
1764505179.0627432,20664.945,-13770.0,-11318.805,-18633.375,-30223.53,-53271.54,-26557.695,-27191.79
1764505179.0627432,20662.245,-13772.115,-11320.065,-18634.545,-30225.15,-53273.52,-26561.295,-27194.58
1764505179.0627432,20668.095,-13765.545,-11313.63,-18628.11,-30218.13,-53266.635,-26553.645,-27188.91
1764505179.0627432,20669.085,-13765.545,-11313.9,-18628.2,-30218.265,-53266.545,-26552.07,-27187.695
1764505179.06581,20669.49,-13765.815,-11313.315,-18628.29,-30218.805,-53266.59,-26550.765,-27187.695
1764505179.06581,20668.455,-13765.68,-11313.225,-18628.38,-30218.715,-53268.57,-26555.31,-27189.495
1764505179.1138742,20665.755,-13768.2,-11316.42,-18630.945,-30221.595,-53272.35,-26560.8,-27193.59
1764505179.1138742,20668.5,-13764.78,-11312.91,-18627.21,-30218.535,-53269.02,-26553.105,-27190.125
1764505179.1138742,20672.28,-13762.53,-11310.885,-18624.69,-30215.115,-53264.115,-26547.615,-27184.635
1764505179.1138742,20661.795,-13774.41,-11322.585,-18635.94,-30225.78,-53273.655,-26561.025,-27194.265
1764505179.1138742,20662.785,-13774.32,-11322.36,-18634.995,-30225.69,-53274.06,-26558.055,-27193.905
1764505179.1138742,20666.52,-13770.0,-11318.31,-18631.215,-30222.27,-53271.0,-26555.445,-27191.43
1764505179.1138742,20669.58,-13765.95,-11314.17,-18627.435,-30217.545,-53266.545,-26552.61,-27188.19
1764505179.1138742,20668.86,-13767.39,-11316.105,-18628.02,-30218.04,-53267.355,-26553.555,-27188.64
1764505179.1138742,20670.84,-13765.545,-11314.485,-18626.58,-30216.33,-53265.96,-26552.565,-27187.92
1764505179.1138742,20669.895,-13766.49,-11314.89,-18627.66,-30217.005,-53266.68,-26552.61,-27188.145
1764505179.1138742,20670.03,-13768.02,-11315.655,-18628.2,-30218.715,-53266.545,-26554.95,-27187.65
1764505179.1138742,20672.19,-13763.745,-11311.74,-18624.195,-30215.655,-53264.61,-26555.58,-27186.93
1764505179.1138742,20682.72,-13751.64,-11299.59,-18611.595,-30203.055,-53252.595,-26538.21,-27174.375
1764505179.1138742,20692.17,-13740.57,-11288.07,-18600.075,-30190.95,-53240.895,-26531.82,-27167.22
1764505179.1138742,20684.61,-13747.815,-11294.865,-18607.14,-30197.25,-53245.44,-26537.535,-27175.455
1764505179.1138742,20676.105,-13761.225,-11309.58,-18621.99,-30212.505,-53259.03,-26540.055,-27179.505
1764505179.1138742,20658.6,-13782.87,-11331.72,-18643.77,-30236.04,-53282.07,-26564.58,-27196.83
1764505179.1138742,20662.02,-13777.065,-11325.6,-18637.065,-30228.84,-53276.22,-26563.365,-27195.165
1764505179.1138742,20671.785,-13766.85,-11314.89,-18626.49,-30217.86,-53266.77,-26554.59,-27186.39
1764505179.1138742,20672.91,-13764.465,-11310.975,-18623.655,-30215.79,-53266.455,-26556.93,-27186.12
1764505179.1138742,20674.665,-13761.72,-11308.365,-18621.765,-30213.855,-53263.395,-26554.005,-27183.645
1764505179.1138742,20668.95,-13767.48,-11315.88,-18628.29,-30218.895,-53264.835,-26547.3,-27184.77
1764505179.114886,20666.79,-13769.19,-11317.995,-18629.865,-30220.605,-53266.5,-26550.225,-27188.01
1764505179.114886,20670.75,-13764.42,-11312.055,-18624.915,-30216.105,-53263.17,-26551.44,-27185.445
1764505179.114886,20671.875,-13762.755,-11309.985,-18622.98,-30214.53,-53263.35,-26555.445,-27185.085
1764505179.114886,20669.76,-13765.59,-11313.045,-18625.905,-30216.96,-53266.77,-26555.715,-27186.57
1764505179.159151,20673.18,-13764.105,-11312.055,-18624.33,-30215.205,-53263.665,-26545.905,-27182.79
1764505179.159151,20673.495,-13763.79,-11310.795,-18622.89,-30214.35,-53261.19,-26543.88,-27182.565
1764505179.159151,20671.875,-13764.915,-11312.595,-18624.51,-30215.655,-53262.9,-26547.03,-27184.005
1764505179.1601586,20669.04,-13766.76,-11315.07,-18627.255,-30219.03,-53267.895,-26554.815,-27187.605
1764505179.1601586,20669.175,-13765.815,-11313.495,-18625.68,-30218.445,-53267.085,-26555.76,-27187.515
1764505179.1601586,20668.995,-13767.525,-11314.35,-18626.94,-30218.805,-53266.005,-26550.54,-27187.245
1764505179.1601586,20670.075,-13766.13,-11313.09,-18626.31,-30217.77,-53264.655,-26549.145,-27185.94
1764505179.1611693,20672.865,-13762.08,-11309.31,-18622.26,-30214.08,-53262.36,-26550.405,-27184.23
1764505179.1611693,20679.93,-13753.89,-11300.85,-18614.115,-30206.07,-53255.34,-26545.905,-27178.245
1764505179.1616778,20678.94,-13755.645,-11302.11,-18615.375,-30206.43,-53254.845,-26540.955,-27177.705
1764505179.1616778,20671.74,-13764.78,-11311.92,-18625.005,-30215.565,-53263.125,-26546.085,-27183.555
1764505179.1616778,20667.33,-13768.065,-11315.925,-18628.29,-30218.445,-53266.77,-26550.72,-27187.83
1764505179.1616778,20669.13,-13765.545,-11313.495,-18625.59,-30216.195,-53264.97,-26550.855,-27186.12
1764505179.1626933,20673.945,-13760.415,-11307.555,-18620.325,-30211.74,-53259.885,-26549.37,-27182.34
1764505179.1626933,20675.07,-13759.245,-11305.305,-18618.93,-30210.345,-53258.805,-26548.515,-27181.845
1764505179.1626933,20673.9,-13760.91,-11307.87,-18620.865,-30212.37,-53262.18,-26546.22,-27182.34
1764505179.1626933,20670.66,-13764.015,-11310.93,-18623.34,-30213.9,-53263.17,-26546.22,-27185.22
1764505179.1637087,20676.42,-13757.22,-11303.235,-18616.005,-30207.105,-53257.365,-26544.015,-27181.395
1764505179.1637087,20674.395,-13761.045,-11308.095,-18620.415,-30210.885,-53260.245,-26543.565,-27181.53
1764505179.1637087,20671.335,-13763.34,-11310.84,-18623.385,-30213.36,-53261.82,-26544.24,-27182.385
1764505179.1637087,20677.455,-13756.095,-11303.145,-18615.42,-30206.025,-53255.565,-26540.01,-27177.705
1764505179.1637087,20674.08,-13759.245,-11306.34,-18618.84,-30209.265,-53258.895,-26541.495,-27181.215
1764505179.2043197,20672.235,-13761.225,-11309.04,-18621.45,-30212.46,-53261.685,-26542.035,-27182.655
1764505179.2043197,20670.66,-13763.655,-11310.39,-18623.295,-30214.53,-53263.755,-26545.365,-27184.005
1764505179.2043197,20674.035,-13759.29,-11306.115,-18618.93,-30210.57,-53261.595,-26544.78,-27181.215
1764505179.2043197,20680.47,-13752.315,-11299.455,-18612.63,-30205.44,-53258.13,-26539.74,-27176.265
1764505179.2043197,20673.99,-13757.805,-11304.63,-18616.725,-30208.14,-53257.815,-26541.45,-27183.33
1764505179.2043197,20665.935,-13764.78,-11310.93,-18622.575,-30212.325,-53259.57,-26551.305,-27193.365
1764505179.2043197,20674.26,-13755.645,-11301.57,-18613.305,-30204.63,-53254.89,-26546.895,-27186.345
1764505179.2043197,20671.11,-13760.82,-11307.105,-18618.795,-30209.355,-53259.3,-26542.305,-27182.295
1764505179.2053468,20673.135,-13762.395,-11309.445,-18620.955,-30211.335,-53259.75,-26536.14,-27174.015
1764505179.2053468,20672.82,-13761.36,-11308.185,-18620.37,-30210.57,-53260.425,-26541.945,-27178.56
1764505179.2053468,20673.945,-13758.75,-11305.26,-18617.94,-30208.995,-53259.84,-26543.43,-27179.505
1764505179.2053468,20676.555,-13756.005,-11302.29,-18614.07,-30206.25,-53256.87,-26538.705,-27176.67
1764505179.2063894,20672.595,-13760.37,-11306.97,-18618.885,-30210.66,-53259.84,-26536.23,-27179.73
1764505179.2063894,20674.485,-13757.4,-11303.865,-18616.365,-30207.735,-53257.23,-26536.725,-27177.48
1764505179.2063894,20674.71,-13756.725,-11302.695,-18615.645,-30206.745,-53256.915,-26538.435,-27177.12
1764505179.2063894,20675.835,-13755.78,-11301.975,-18613.98,-30205.575,-53256.69,-26539.29,-27176.49
1764505179.2063894,20677.95,-13752.99,-11299.86,-18611.055,-30203.505,-53254.98,-26540.145,-27177.165
1764505179.207386,20679.435,-13750.38,-11296.62,-18607.995,-30200.625,-53252.46,-26540.28,-27177.255
1764505179.207386,20678.58,-13752.27,-11299.41,-18610.155,-30202.74,-53254.35,-26545.32,-27177.255
1764505179.207386,20679.615,-13750.965,-11298.465,-18609.345,-30202.155,-53254.35,-26543.835,-27177.84
1764505179.207386,20669.895,-13762.215,-11309.13,-18619.875,-30211.38,-53260.245,-26539.155,-27185.22
1764505179.207386,20669.67,-13761.315,-11308.095,-18618.48,-30211.065,-53261.19,-26542.665,-27186.39
1764505179.252857,20673.135,-13758.93,-11305.935,-18617.04,-30209.985,-53259.165,-26540.01,-27179.955
1764505179.252857,20668.86,-13763.79,-11310.66,-18621.72,-30214.215,-53262.945,-26548.605,-27181.17
1764505179.252857,20665.71,-13765.86,-11312.37,-18622.8,-30215.79,-53266.32,-26550.855,-27186.03
1764505179.252857,20667.465,-13764.465,-11310.615,-18620.64,-30212.505,-53261.37,-26537.265,-27181.395
1764505179.2538524,20670.255,-13761.855,-11307.555,-18617.13,-30209.13,-53256.87,-26535.78,-27180.045
1764505179.2538524,20668.41,-13764.78,-11311.02,-18620.82,-30212.775,-53260.29,-26538.615,-27181.17
1764505179.2538524,20668.815,-13764.105,-11310.795,-18620.82,-30213.675,-53262.765,-26544.24,-27182.115
1764505179.2538524,20667.06,-13764.825,-11311.515,-18621.225,-30214.395,-53264.52,-26550.855,-27186.75
1764505179.2538524,20666.385,-13765.725,-11313.315,-18623.07,-30215.25,-53265.105,-26546.94,-27182.97
1764505179.2538524,20669.445,-13764.645,-11312.145,-18622.08,-30214.62,-53262.99,-26543.88,-27179.91
1764505179.2538524,20671.83,-13761.45,-11308.86,-18618.435,-30210.66,-53259.48,-26544.33,-27180.045
1764505179.2538524,20673.18,-13759.38,-11306.475,-18616.23,-30209.175,-53258.13,-26544.915,-27179.685
1764505179.2538524,20664.36,-13770.09,-11316.6,-18626.175,-30219.345,-53268.165,-26552.655,-27187.65
1764505179.2538524,20662.695,-13772.025,-11317.725,-18627.435,-30219.345,-53268.705,-26551.395,-27188.19
1764505179.2538524,20668.635,-13764.465,-11310.57,-18620.505,-30212.955,-53263.17,-26550.18,-27183.645
1764505179.2538524,20669.85,-13762.935,-11309.22,-18619.695,-30211.83,-53261.775,-26550.225,-27182.925
1764505179.2538524,20671.695,-13763.205,-11308.95,-18619.875,-30212.325,-53260.875,-26544.24,-27179.955
1764505179.2538524,20665.305,-13769.685,-11315.655,-18626.715,-30218.985,-53267.13,-26548.515,-27186.21
1764505179.2548652,20668.59,-13764.825,-11310.84,-18622.17,-30214.305,-53262.945,-26547.12,-27184.365
1764505179.2548652,20680.38,-13750.11,-11296.26,-18606.69,-30198.87,-53248.275,-26531.28,-27171.225
1764505179.2548652,20681.01,-13749.255,-11293.785,-18605.52,-30197.79,-53247.375,-26528.805,-27170.775
1764505179.2548652,20676.06,-13757.4,-11302.155,-18613.35,-30206.34,-53256.195,-26536.77,-27177.84
1764505179.2548652,20667.42,-13768.74,-11315.25,-18626.22,-30219.165,-53270.595,-26557.065,-27187.515
1764505179.2548652,20655.36,-13780.215,-11325.78,-18636.795,-30230.595,-53282.115,-26579.205,-27200.745
1764505179.29885,20653.695,-13782.375,-11329.02,-18639.765,-30231.765,-53281.35,-26568.045,-27199.53
1764505179.29885,20659.005,-13776.885,-11323.89,-18634.635,-30225.195,-53274.195,-26555.715,-27193.32
1764505179.2993586,20663.73,-13770.495,-11317.455,-18628.74,-30219.75,-53269.92,-26555.265,-27190.62
1764505179.2993586,20662.335,-13772.7,-11319.255,-18630.36,-30221.505,-53270.955,-26554.545,-27191.115
1764505179.2993586,20662.02,-13773.645,-11319.12,-18630.855,-30221.235,-53270.64,-26553.96,-27190.665
1764505179.2993586,20660.355,-13775.58,-11320.83,-18632.745,-30223.035,-53272.845,-26558.82,-27193.995
1764505179.2993586,20660.445,-13775.49,-11320.29,-18631.8,-30223.53,-53272.755,-26559.18,-27194.04
1764505179.2993586,20661.345,-13773.78,-11318.895,-18629.685,-30222.18,-53271.63,-26558.64,-27193.095
1764505179.2993586,20664.585,-13770.72,-11315.07,-18626.31,-30218.85,-53269.605,-26558.505,-27191.295
1764505179.2993586,20661.795,-13774.095,-11318.985,-18630.495,-30223.08,-53273.115,-26558.55,-27193.275
1764505179.3479004,20669.85,-13765.95,-11311.56,-18623.835,-30218.445,-53271.045,-26554.14,-27186.21
1764505179.3479004,20675.205,-13758.525,-11302.425,-18615.6,-30209.805,-53262.675,-26548.065,-27181.215
1764505179.3479004,20668.635,-13764.87,-11308.185,-18619.74,-30211.695,-53260.965,-26551.485,-27187.47
1764505179.3479004,20655.585,-13781.43,-11325.51,-18637.155,-30226.23,-53273.025,-26561.88,-27198.45
1764505179.3479004,20658.105,-13779.225,-11323.395,-18635.22,-30224.565,-53270.73,-26561.565,-27196.83
1764505179.3479004,20659.095,-13778.145,-11323.305,-18634.905,-30225.735,-53273.205,-26556.075,-27195.615
1764505179.3479004,20657.88,-13779.99,-11325.42,-18635.49,-30226.815,-53272.8,-26553.465,-27195.885
1764505179.3479004,20656.485,-13780.305,-11325.42,-18635.13,-30227.58,-53274.375,-26559.585,-27198.045
1764505179.3479004,20656.89,-13778.415,-11323.62,-18633.555,-30225.87,-53274.42,-26564.13,-27198.27
1764505179.3479004,20657.7,-13778.19,-11322.54,-18632.34,-30224.52,-53273.565,-26565.435,-27198.405
1764505179.3479004,20659.365,-13777.605,-11321.415,-18631.575,-30223.845,-53272.17,-26557.56,-27194.94
1764505179.3479004,20660.13,-13775.895,-11320.02,-18630.315,-30223.89,-53272.62,-26559.855,-27194.985
1764505179.3479004,20665.575,-13769.955,-11314.8,-18624.87,-30218.535,-53267.445,-26556.66,-27190.98
1764505179.3479004,20657.61,-13778.28,-11322.81,-18633.105,-30226.185,-53274.375,-26558.1,-27196.29
1764505179.3479004,20661.84,-13774.77,-11318.85,-18629.235,-30222.54,-53270.415,-26554.545,-27192.24
1764505179.3479004,20664.36,-13771.845,-11316.24,-18627.12,-30219.795,-53268.21,-26553.06,-27189.855
1764505179.3479004,20663.865,-13772.115,-11317.32,-18627.615,-30219.93,-53269.47,-26555.895,-27191.52
1764505179.3479004,20660.22,-13776.255,-11321.19,-18630.99,-30223.62,-53272.98,-26561.34,-27194.895
1764505179.3479004,20661.12,-13775.4,-11319.93,-18630.315,-30222.585,-53272.17,-26559.315,-27194.67
1764505179.3479004,20659.32,-13777.47,-11322.18,-18633.15,-30224.52,-53273.295,-26558.235,-27196.83
1764505179.3479004,20665.17,-13771.755,-11316.555,-18628.155,-30219.57,-53268.21,-26555.445,-27190.485
1764505179.3479004,20669.31,-13766.355,-11311.065,-18623.61,-30214.755,-53264.925,-26554.23,-27187.11
1764505179.3479004,20665.035,-13772.025,-11316.735,-18628.11,-30220.965,-53270.235,-26558.415,-27191.88
1764505179.3479004,20661.57,-13775.085,-11319.39,-18630.63,-30222.63,-53271.18,-26559.0,-27197.865
1764505179.3479004,20667.105,-13768.29,-11312.235,-18623.115,-30215.205,-53264.745,-26558.595,-27197.235
1764505179.3489437,20667.285,-13767.21,-11310.03,-18620.73,-30212.865,-53263.215,-26559.27,-27196.695
1764505179.3489437,20670.66,-13765.32,-11308.275,-18619.425,-30210.84,-53261.82,-26553.825,-27189.0
1764505179.3489437,20666.205,-13773.915,-11318.22,-18629.775,-30221.82,-53271.99,-26550.81,-27185.58
1764505179.3489437,20660.445,-13780.305,-11323.755,-18635.49,-30227.4,-53277.345,-26554.005,-27191.565
1764505179.3489437,20654.46,-13785.255,-11328.795,-18640.44,-30231.27,-53279.64,-26563.005,-27199.53
1764505179.3489437,20655.495,-13783.95,-11327.49,-18640.035,-30230.46,-53279.73,-26565.345,-27199.845
1764505179.3489437,20664.045,-13773.6,-11316.69,-18628.47,-30220.2,-53271.18,-26559.99,-27194.04
1764505179.3489437,20662.605,-13774.365,-11316.78,-18629.235,-30219.84,-53268.66,-26556.3,-27195.255
1764505179.3489437,20662.785,-13774.635,-11317.365,-18630.18,-30219.885,-53268.12,-26557.02,-27195.39
1764505179.3489437,20661.93,-13775.22,-11318.58,-18631.35,-30221.505,-53269.875,-26560.62,-27196.38
1764505179.3489437,20662.695,-13776.345,-11319.48,-18631.935,-30222.63,-53270.775,-26557.335,-27193.725
1764505179.3933425,20660.22,-13780.08,-11323.44,-18636.165,-30227.175,-53275.545,-26557.695,-27192.24
1764505179.3933425,20662.02,-13775.265,-11318.535,-18631.98,-30223.26,-53273.295,-26561.295,-27193.32
1764505179.3933425,20668.185,-13767.435,-11310.3,-18623.43,-30213.09,-53264.565,-26559.9,-27193.455
1764505179.3933425,20668.725,-13765.545,-11308.095,-18620.595,-30211.515,-53263.935,-26562.87,-27194.22
1764505179.3948965,20662.605,-13771.98,-11314.44,-18627.57,-30218.49,-53270.415,-26563.005,-27196.065
1764505179.3948965,20659.635,-13777.92,-11320.515,-18634.32,-30222.855,-53273.07,-26558.865,-27193.59
1764505179.3948965,20660.625,-13779.81,-11321.55,-18635.265,-30223.305,-53271.315,-26550.27,-27188.19
1764505179.3948965,20672.46,-13764.6,-11306.07,-18619.335,-30208.095,-53258.895,-26547.705,-27181.89
1764505179.3948965,20675.88,-13760.145,-11301.435,-18614.385,-30203.865,-53255.025,-26546.355,-27180.63
1764505179.3948965,20668.23,-13771.935,-11314.17,-18627.975,-30216.645,-53266.41,-26547.075,-27185.49
1764505179.3948965,20655.945,-13786.92,-11329.605,-18644.31,-30232.305,-53280.855,-26565.165,-27197.82
1764505179.3948965,20654.82,-13787.55,-11329.29,-18643.32,-30231.315,-53278.65,-26565.93,-27198.72
1764505179.3948965,20660.265,-13780.98,-11322.27,-18635.805,-30224.43,-53272.62,-26559.675,-27193.5
1764505179.3948965,20664.675,-13774.005,-11314.98,-18629.145,-30218.805,-53269.74,-26559.27,-27191.745
1764505179.3948965,20661.435,-13776.93,-11317.455,-18631.665,-30221.685,-53271.27,-26560.755,-27194.805
1764505179.3948965,20656.845,-13784.67,-11326.365,-18639.225,-30228.795,-53276.175,-26566.29,-27198.225
1764505179.3948965,20670.705,-13769.19,-11311.74,-18625.005,-30215.925,-53267.175,-26566.065,-27188.91
1764505179.3948965,20670.705,-13768.425,-11310.615,-18624.915,-30215.43,-53266.905,-26562.825,-27188.145
1764505179.3948965,20666.745,-13772.61,-11314.35,-18628.155,-30217.77,-53264.655,-26547.21,-27186.93
1764505179.3948965,20663.955,-13775.985,-11317.005,-18630.72,-30220.515,-53268.12,-26547.255,-27188.865
1764505179.3948965,20661.03,-13779.18,-11319.795,-18633.69,-30221.64,-53268.3,-26554.05,-27193.365
1764505179.3948965,20662.38,-13776.615,-11316.78,-18630.72,-30219.03,-53267.04,-26557.155,-27193.23
1764505179.3948965,20665.125,-13774.635,-11315.07,-18629.865,-30218.04,-53266.59,-26550.315,-27187.56
1764505179.3948965,20661.795,-13778.19,-11319.885,-18633.96,-30223.44,-53271.63,-26556.84,-27192.24
1764505179.440003,20661.525,-13777.965,-11318.94,-18633.105,-30223.125,-53270.775,-26557.875,-27194.355
1764505179.440003,20662.785,-13777.515,-11317.545,-18632.16,-30221.19,-53269.83,-26557.515,-27192.87
1764505179.440003,20664.72,-13775.445,-11316.015,-18629.955,-30218.76,-53267.715,-26556.03,-27191.07
1764505179.440003,20664.81,-13774.365,-11314.845,-18628.965,-30218.13,-53266.995,-26555.985,-27191.115
1764505179.440003,20665.125,-13774.455,-11314.215,-18628.425,-30217.77,-53266.095,-26555.895,-27191.115
1764505179.440003,20660.04,-13780.845,-11320.47,-18634.5,-30224.745,-53272.935,-26561.07,-27195.75
1764505179.440003,20658.33,-13782.69,-11322.585,-18636.795,-30227.49,-53275.05,-26563.095,-27196.515
1764505179.440003,20661.03,-13779.135,-11318.895,-18632.79,-30223.62,-53271.045,-26560.215,-27193.365
1764505179.440003,20659.455,-13780.62,-11319.84,-18634.23,-30225.6,-53271.99,-26561.88,-27195.12
1764505179.440003,20660.445,-13779.675,-11318.67,-18632.745,-30224.295,-53270.955,-26560.89,-27194.715
1764505179.440003,20665.98,-13774.815,-11313.405,-18627.48,-30218.445,-53266.005,-26555.715,-27189.99
1764505179.440003,20664.99,-13775.085,-11313.765,-18628.02,-30219.435,-53267.49,-26558.415,-27192.015
1764505179.440003,20664.99,-13775.175,-11314.755,-18628.83,-30219.93,-53268.345,-26557.695,-27191.34
1764505179.440003,20665.395,-13774.815,-11314.17,-18628.695,-30220.155,-53268.84,-26557.155,-27190.44
1764505179.440003,20669.805,-13768.47,-11306.88,-18621.54,-30213.18,-53262.135,-26555.355,-27187.605
1764505179.440003,20660.535,-13779.72,-11318.355,-18633.195,-30223.35,-53270.91,-26561.7,-27195.615
1764505179.440003,20657.115,-13784.22,-11323.44,-18638.505,-30228.03,-53275.41,-26561.61,-27198.27
1764505179.440003,20661.84,-13778.595,-11317.68,-18632.295,-30222.72,-53271.405,-26560.215,-27194.265
1764505179.440003,20665.17,-13773.825,-11312.865,-18628.2,-30218.22,-53267.22,-26556.795,-27190.53
1764505179.440003,20660.67,-13778.73,-11318.31,-18633.015,-30222.9,-53271.36,-26558.685,-27194.67
1764505179.440003,20662.695,-13776.615,-11316.33,-18630.855,-30220.29,-53268.165,-26556.165,-27192.915
1764505179.440003,20661.525,-13777.47,-11316.87,-18630.99,-30221.325,-53268.93,-26557.155,-27193.5
1764505179.48384,20663.685,-13774.815,-11314.35,-18628.965,-30218.94,-53267.58,-26555.895,-27191.115
1764505179.4850798,20661.03,-13777.92,-11317.365,-18632.475,-30221.865,-53270.775,-26559.54,-27194.49
1764505179.4850798,20659.68,-13779.09,-11318.31,-18633.06,-30222.315,-53271.63,-26562.195,-27196.56
1764505179.4850798,20664.72,-13773.06,-11313.09,-18627.705,-30217.23,-53267.13,-26557.605,-27191.16
1764505179.4850798,20665.26,-13771.98,-11312.73,-18626.85,-30215.97,-53265.105,-26556.525,-27190.98
1764505179.4850798,20662.155,-13775.895,-11316.195,-18629.64,-30219.165,-53267.175,-26559.495,-27193.815
1764505179.4850798,20660.175,-13777.695,-11317.005,-18630.99,-30220.605,-53270.415,-26562.06,-27196.065
1764505179.4850798,20657.61,-13780.125,-11320.02,-18633.42,-30223.44,-53274.78,-26563.905,-27199.485
1764505179.4850798,20655.99,-13783.365,-11323.665,-18636.615,-30226.68,-53276.22,-26563.455,-27199.395
1764505179.487075,20658.06,-13783.14,-11322.855,-18636.795,-30226.185,-53274.645,-26560.98,-27197.28
1764505179.4880748,20664.36,-13775.76,-11315.205,-18629.505,-30218.67,-53268.39,-26558.325,-27192.15
1764505179.4880748,20661.435,-13777.83,-11315.79,-18630.45,-30219.705,-53270.865,-26562.555,-27195.255
1764505179.4880748,20663.1,-13776.255,-11313.945,-18628.515,-30218.49,-53269.425,-26560.665,-27195.03
1764505179.4880748,20662.02,-13777.425,-11315.295,-18630.405,-30220.515,-53271.27,-26560.17,-27196.515
1764505179.4880748,20664.495,-13776.21,-11315.25,-18630.27,-30220.065,-53269.11,-26551.845,-27191.115
1764505179.4880748,20658.33,-13780.665,-11319.3,-18634.41,-30222.945,-53272.305,-26560.305,-27197.82
1764505179.4880748,20652.165,-13785.84,-11325.06,-18639.855,-30228.84,-53279.1,-26567.19,-27203.895
1764505179.4880748,20656.035,-13781.565,-11321.19,-18636.255,-30225.24,-53276.85,-26556.525,-27199.485
1764505179.4880748,20655.855,-13782.87,-11322.18,-18637.965,-30226.86,-53277.345,-26555.805,-27197.955
1764505179.4880748,20655.585,-13783.365,-11323.08,-18638.19,-30226.86,-53276.4,-26562.645,-27198.135
1764505179.4880748,20658.78,-13779.72,-11318.985,-18634.41,-30223.485,-53274.375,-26563.905,-27197.28
1764505179.4880748,20656.845,-13781.745,-11321.73,-18636.66,-30226.185,-53276.175,-26564.805,-27200.025
1764505179.4880748,20663.64,-13773.915,-11314.305,-18629.415,-30220.335,-53273.925,-26566.38,-27196.2
1764505179.4880748,20662.11,-13774.995,-11315.34,-18631.17,-30220.515,-53272.845,-26564.49,-27196.965
1764505179.532705,20650.905,-13788.495,-11328.435,-18643.68,-30230.73,-53277.48,-26556.165,-27202.41
1764505179.532705,20648.025,-13790.565,-11330.91,-18645.66,-30233.88,-53281.845,-26557.83,-27205.11
1764505179.532705,20657.205,-13780.62,-11320.65,-18635.04,-30224.115,-53273.16,-26555.355,-27197.91
1764505179.532705,20659.32,-13778.325,-11317.77,-18633.06,-30221.415,-53271.315,-26558.685,-27197.46
1764505179.532705,20660.67,-13776.345,-11314.665,-18630.9,-30219.57,-53270.505,-26563.365,-27197.415
1764505179.532705,20655.045,-13783.32,-11321.865,-18638.325,-30227.175,-53276.445,-26560.215,-27199.215
1764505179.53372,20649.555,-13789.665,-11328.84,-18645.435,-30234.195,-53283.285,-26559.945,-27203.13
1764505179.53372,20654.82,-13782.915,-11321.325,-18638.19,-30227.31,-53278.425,-26560.08,-27199.98
1764505179.53372,20658.96,-13778.055,-11316.555,-18633.06,-30222.405,-53273.655,-26554.95,-27194.67
1764505179.53372,20652.03,-13783.86,-11323.215,-18638.19,-30227.895,-53277.93,-26565.615,-27202.59
1764505179.53372,20647.215,-13789.08,-11328.345,-18642.87,-30232.44,-53280.54,-26569.44,-27207.315
