Timestamp,Channel1,Channel2,Channel3,Channel4,Channel5,Channel6,Channel7,Channel8
1764505801.8389802,1150.11,11717.415,-36174.87,-15579.99,-26372.88,-17014.364999999998,-7101.945,2662.92
1764505801.8389802,1144.305,11711.7,-36181.44,-15586.155,-26377.74,-17017.425,-7105.05,2658.06
1764505801.8389802,1145.115,11713.815,-36178.02,-15582.24,-26374.32,-17014.14,-7103.384999999999,2658.735
1764505801.8389802,1144.035,11713.815,-36177.75,-15580.8,-26373.69,-17012.114999999998,-7103.969999999999,2657.205
1764505801.8389802,1140.255,11710.485,-36180.945,-15583.59,-26377.335,-17015.175,-7106.13,2652.885
1764505801.8389802,1140.93,11712.285,-36179.145,-15581.115,-26375.04,-17013.69,-7104.42,2653.38
1764505801.8389802,1144.26,11717.01,-36173.52,-15573.42,-26366.4,-17005.995,-7101.0,2655.72
1764505801.8389802,1145.52,11718.135,-36171.99,-15567.93,-26359.065,-16996.364999999998,-7096.995,2657.61
1764505801.8389802,1142.46,11713.815,-36178.245,-15572.205,-26362.125,-16996.815,-7095.78,2656.26
1764505801.8389802,1142.82,11714.895,-36177.795,-15571.44,-26363.025,-16997.715,-7093.44,2657.115
1764505801.8389802,1144.53,11717.505,-36175.365,-15573.78,-26368.515,-17001.72,-7090.245,2658.87
1764505801.8389802,1146.915,11722.005,-36171.09,-15573.105,-26372.43,-17009.73,-7090.155,2659.32
1764505801.8389802,1149.885,11726.325,-36166.815,-15565.59,-26363.79,-17001.315,-7086.105,2662.785
1764505801.8389802,1145.88,11723.805,-36169.11,-15565.86,-26361.18,-16997.67,-7086.509999999999,2659.86
1764505801.8389802,1144.755,11725.56,-36164.34,-15558.12,-26350.695,-16987.68,-7087.275,2656.8
1764505801.8389802,1146.015,11724.885,-36164.16,-15549.255,-26337.465,-16971.03,-7081.92,2659.815
1764505801.8389802,1137.51,11710.305,-36183.825,-15568.245,-26352.18,-16975.71,-7080.84,2657.16
1764505801.8389802,1139.4,11713.5,-36180.855,-15573.42,-26362.17,-16986.555,-7079.804999999999,2657.61
1764505801.8389802,1136.61,11711.205,-36184.545,-15574.455,-26365.41,-16994.07,-7080.75,2657.205
1764505801.8389802,1140.93,11719.8,-36174.735,-15568.245,-26364.825,-17001.135,-7083.09,2658.33
1764505801.8389802,1140.57,11722.05,-36173.07,-15567.795,-26365.995,-17003.52,-7088.49,2655.135
1764505801.8389802,1130.6699999999998,11714.985,-36178.56,-15568.11,-26363.88,-16999.559999999998,-7094.745,2646.36
1764505801.8844466,1126.08,11709.135,-36185.895,-15571.17,-26365.23,-17000.235,-7093.844999999999,2642.355
1764505801.8844466,1127.97,11705.625,-36193.905,-15586.92,-26385.165,-17024.805,-7089.84,2649.555
1764505801.8844466,1122.48,11696.31,-36208.53,-15600.735,-26398.17,-17037.315,-7093.395,2646.72
1764505801.8844466,1123.11,11707.245,-36192.285,-15589.44,-26395.515,-17037.135,-7100.415,2642.13
1764505801.8844466,1133.82,11721.555,-36173.115,-15576.615,-26389.17,-17034.975,-7093.844999999999,2650.77
1764505801.8844466,1128.33,11712.195,-36184.59,-15584.265,-26394.165,-17037.945,-7092.54,2649.825
1764505801.885445,1129.41,11714.31,-36183.465,-15587.235,-26394.255,-17034.165,-7094.835,2648.7
1764505801.885445,1111.995,11693.655,-36201.285,-15595.56,-26386.695,-17012.97,-7094.835,2638.89
1764505801.885445,1111.905,11695.545,-36197.505,-15580.305,-26368.425,-16996.32,-7095.014999999999,2637.81
1764505801.885445,1111.77,11692.53,-36208.845,-15593.715,-26389.08,-17019.09,-7097.085,2640.33
1764505801.885445,1111.815,11692.89,-36207.855,-15605.775,-26413.92,-17049.555,-7099.92,2641.23
1764505801.885445,1116.63,11697.93,-36202.68,-15604.695,-26413.515,-17051.805,-7099.56,2643.345
1764505801.885445,1121.76,11706.66,-36192.6,-15596.1,-26405.865,-17044.02,-7101.045,2645.46
1764505801.885445,1118.61,11703.51,-36194.67,-15590.88,-26397.225,-17033.399999999998,-7102.844999999999,2642.13
1764505801.885445,1117.71,11707.92,-36185.265,-15578.415,-26384.67,-17015.579999999998,-7103.835,2638.26
1764505801.885445,1109.7,11697.705,-36198.405,-15593.22,-26399.115,-17029.89,-7105.905,2635.56
1764505801.885445,1112.04,11696.49,-36204.705,-15603.39,-26412.705,-17048.204999999998,-7105.995,2640.105
1764505801.885445,1107.675,11693.655,-36205.335,-15600.915,-26404.83,-17035.29,-7107.48,2636.28
1764505801.885445,1105.065,11689.65,-36208.665,-15603.39,-26404.515,-17033.805,-7109.37,2635.47
1764505801.885445,1097.595,11682.54,-36213.615,-15602.58,-26399.52,-17031.87,-7114.455,2630.43
1764505801.885445,1094.175,11681.505,-36214.335,-15593.085,-26384.625,-17014.77,-7117.695,2624.175
1764505801.885445,1094.085,11682.225,-36214.155,-15596.775,-26392.95,-17020.125,-7114.23,2624.13
1764505801.885445,1098.72,11685.96,-36209.745,-15608.295,-26418.015,-17049.285,-7114.77,2628.135
1764505801.885445,1102.77,11689.74,-36209.34,-15608.52,-26418.33,-17053.965,-7116.795,2630.43
1764505801.9293115,1108.305,11701.035,-36194.67,-15599.295,-26414.19,-17053.29,-7114.05,2630.97
1764505801.9293115,1102.68,11695.59,-36198.495,-15595.785,-26404.83,-17038.215,-7109.054999999999,2629.8
1764505801.9293115,1089.81,11673.315,-36225.54,-15614.55,-26414.73,-17039.34,-7108.469999999999,2625.795
1764505801.9293115,1097.82,11679.57,-36223.74,-15618.87,-26418.285,-17041.905,-7108.425,2630.16
1764505801.9293115,1100.205,11683.89,-36218.97,-15613.56,-26413.92,-17040.51,-7107.884999999999,2631.87
1764505801.9293115,1097.775,11682.9,-36218.835,-15612.255,-26413.605,-17040.87,-7109.685,2630.25
1764505801.9293115,1101.51,11689.92,-36208.215,-15605.19,-26410.41,-17039.25,-7107.3,2631.6
1764505801.9293115,1099.53,11689.29,-36207.045,-15603.12,-26410.23,-17040.915,-7105.77,2630.34
1764505801.9293115,1098.36,11687.94,-36208.89,-15603.84,-26409.15,-17040.51,-7105.995,2630.115
1764505801.9293115,1101.915,11692.935,-36203.715,-15599.97,-26406.99,-17040.465,-7103.835,2632.635
1764505801.9293115,1100.745,11691.72,-36205.11,-15601.59,-26407.44,-17041.59,-7103.745,2631.195
1764505801.9293115,1096.605,11687.085,-36210.06,-15605.37,-26405.64,-17032.86,-7103.655,2628.495
1764505801.9293115,1094.265,11683.98,-36211.995,-15608.61,-26408.34,-17033.399999999998,-7104.87,2628.135
1764505801.9293115,1091.925,11680.47,-36218.79,-15613.335,-26414.325,-17042.85,-7106.445,2629.395
1764505801.9293115,1097.505,11686.95,-36213.255,-15610.005,-26413.065,-17042.489999999998,-7104.554999999999,2633.76
1764505801.9293115,1093.995,11687.355,-36208.305,-15601.455,-26400.6,-17028.315,-7101.764999999999,2628.36
1764505801.9293115,1088.91,11680.785,-36214.2,-15608.79,-26406.765,-17034.48,-7097.94,2628.945
1764505801.9293115,1095.525,11686.095,-36212.67,-15609.78,-26410.77,-17042.489999999998,-7097.264999999999,2635.335
1764505801.92985,1098.045,11688.75,-36212.49,-15608.655,-26412.39,-17046.765,-7097.804999999999,2637.135
1764505801.92985,1103.625,11698.605,-36200.565,-15600.195,-26407.17,-17041.095,-7095.24,2639.43
1764505801.92985,1096.065,11693.115,-36202.23,-15597.27,-26397.405,-17026.2,-7096.23,2633.445
1764505801.92985,1087.47,11683.44,-36209.16,-15592.905,-26381.16,-16999.605,-7095.24,2627.595
1764505801.92985,1085.58,11684.88,-36207.585,-15592.905,-26380.845,-16997.715,-7095.599999999999,2623.32
1764505801.92985,1086.705,11687.985,-36198.72,-15582.825,-26370.855,-16990.425,-7085.115,2628.855
1764505801.9781802,1080.495,11672.91,-36221.67,-15595.29,-26383.005,-17003.385,-7085.205,2631.06
1764505801.9791763,1089.945,11684.745,-36215.505,-15613.11,-26414.685,-17043.614999999998,-7093.395,2633.4
1764505801.9791763,1094.67,11689.785,-36208.845,-15613.02,-26416.89,-17050.14,-7087.724999999999,2637.99
1764505801.9791763,1087.785,11681.01,-36214.605,-15615.945,-26421.84,-17057.295,-7089.21,2636.19
1764505801.9791763,1095.12,11691.405,-36201.69,-15599.52,-26407.98,-17044.92,-7086.509999999999,2639.745
1764505801.9791763,1093.095,11695.455,-36195.12,-15595.965,-26394.345,-17021.114999999998,-7089.84,2632.005
1764505801.9791763,1081.215,11684.385,-36203.49,-15612.84,-26412.39,-17038.44,-7094.07,2624.94
1764505801.9791763,1072.53,11670.435,-36219.51,-15625.89,-26428.59,-17062.02,-7093.665,2625.705
1764505801.9791763,1081.035,11677.185,-36218.34,-15626.88,-26432.46,-17070.255,-7094.745,2630.655
1764505801.9791763,1084.77,11683.08,-36209.745,-15621.39,-26429.895,-17066.565,-7092.99,2631.06
1764505801.9791763,1083.42,11679.93,-36212.67,-15618.87,-26418.915,-17050.725,-7089.389999999999,2633.175
1764505801.9801702,1080.945,11675.475,-36221.31,-15625.17,-26426.025,-17060.805,-7091.594999999999,2632.05
1764505801.9801702,1085.985,11684.88,-36209.43,-15619.59,-26429.085,-17068.725,-7090.92,2633.715
1764505801.9801702,1083.735,11682.585,-36209.43,-15616.62,-26422.245,-17057.204999999998,-7088.67,2634.21
1764505801.9801702,1079.73,11678.265,-36212.985,-15616.44,-26417.7,-17048.745,-7089.389999999999,2631.285
1764505801.9801702,1086.255,11686.455,-36202.14,-15603.93,-26404.155,-17035.515,-7087.634999999999,2633.895
1764505801.9801702,1081.8,11679.525,-36210.33,-15614.145,-26414.775,-17049.285,-7089.974999999999,2632.23
1764505801.9801702,1079.82,11678.31,-36213.615,-15617.61,-26419.095,-17054.505,-7091.505,2632.005
1764505801.9801702,1080.99,11679.795,-36211.815,-15615.945,-26417.88,-17053.695,-7091.55,2633.22
1764505801.9801702,1081.44,11679.255,-36212.13,-15616.215,-26416.395,-17052.48,-7090.02,2633.58
1764505801.9801702,1086.795,11683.935,-36208.485,-15611.175,-26409.24,-17045.325,-7084.98,2638.755
1764505801.9801702,1080.585,11680.83,-36209.79,-15610.86,-26408.655,-17043.84,-7092.045,2630.16
1764505801.9801702,1079.19,11678.04,-36212.58,-15614.055,-26412.165,-17050.14,-7093.8,2628.945
1764505801.9801702,1081.575,11678.355,-36214.38,-15614.955,-26415.27,-17056.89,-7092.63,2633.22
1764505802.0263872,1087.56,11688.66,-36202.725,-15606.405,-26412.39,-17058.69,-7093.215,2634.705
1764505802.0263872,1081.26,11681.82,-36208.35,-15607.845,-26404.83,-17041.5,-7092.405,2630.745
1764505802.0263872,1073.79,11673.27,-36218.655,-15615.63,-26408.79,-17044.38,-7097.849999999999,2624.13
1764505802.0263872,1069.92,11665.17,-36229.365,-15621.39,-26412.165,-17046.72,-7100.46,2622.15
1764505802.0263872,1077.705,11674.305,-36218.79,-15619.59,-26420.715,-17057.655,-7101.495,2625.795
1764505802.0263872,1083.69,11682.045,-36209.295,-15615.09,-26420.445,-17060.355,-7101.134999999999,2628.135
1764505802.0263872,1078.695,11674.53,-36216.0,-15617.43,-26417.475,-17057.475,-7103.429999999999,2625.03
1764505802.0263872,1073.43,11666.385,-36226.8,-15624.72,-26423.73,-17063.28,-7107.66,2621.79
1764505802.0263872,1086.435,11679.75,-36213.48,-15614.505,-26414.865,-17057.565,-7104.42,2630.925
1764505802.0263872,1089.09,11682.855,-36207.495,-15604.605,-26401.905,-17043.345,-7101.54,2633.085
1764505802.0263872,1077.255,11671.245,-36217.125,-15607.305,-26398.305,-17032.68,-7105.094999999999,2623.005
1764505802.0263872,1075.455,11671.515,-36216.27,-15609.96,-26403.75,-17036.325,-7108.11,2619.945
1764505802.0263872,1080.09,11677.905,-36209.835,-15607.53,-26403.57,-17040.915,-7108.38,2623.185
1764505802.0263872,1074.87,11667.285,-36225.045,-15613.65,-26404.785,-17040.6,-7112.25,2620.35
1764505802.0263872,1068.66,11655.405,-36237.78,-15623.325,-26412.615,-17041.815,-7113.96,2616.57
1764505802.0263872,1078.02,11666.97,-36225.045,-15622.065,-26418.195,-17050.68,-7112.79,2622.78
1764505802.0274136,1079.325,11672.775,-36216.945,-15612.03,-26404.695,-17039.204999999998,-7115.085,2621.25
1764505802.0274136,1073.07,11670.885,-36211.815,-15598.8,-26387.055,-17024.265,-7118.46,2615.085
1764505802.0274136,1079.01,11669.58,-36224.055,-15618.6,-26418.33,-17058.645,-7119.99,2620.98
1764505802.0274136,1098.945,11694.105,-36201.285,-15617.43,-26439.03,-17087.715,-7120.62,2631.285
1764505802.0274136,1090.395,11684.385,-36205.29,-15607.17,-26415.405,-17058.465,-7115.355,2629.53
1764505802.0274136,1077.345,11662.02,-36231.615,-15626.745,-26425.53,-17059.635,-7114.679999999999,2625.615
1764505802.0725996,1086.795,11672.685,-36223.29,-15625.53,-26429.76,-17067.78,-7117.695,2629.53
1764505802.0725996,1086.435,11673.045,-36222.75,-15625.845,-26433.675,-17076.555,-7120.71,2628.81
1764505802.0725996,1088.28,11675.655,-36218.565,-15617.43,-26422.47,-17063.37,-7118.91,2630.34
1764505802.0725996,1085.94,11671.74,-36219.87,-15615.045,-26416.08,-17051.22,-7116.165,2630.385
1764505802.0725996,1089.63,11675.025,-36216.54,-15613.425,-26416.215,-17052.975,-7114.724999999999,2633.94
1764505802.0725996,1090.665,11676.645,-36217.98,-15617.97,-26425.26,-17066.43,-7119.719999999999,2632.59
1764505802.0725996,1090.485,11676.285,-36219.465,-15616.395,-26421.12,-17060.22,-7118.145,2633.895
1764505802.0725996,1090.8,11676.825,-36218.295,-15611.175,-26413.65,-17053.47,-7116.525,2634.12
1764505802.0731578,1091.745,11678.265,-36214.92,-15611.94,-26416.98,-17056.62,-7116.929999999999,2633.76
1764505802.0731578,1095.48,11682.0,-36209.835,-15611.085,-26416.215,-17052.48,-7113.825,2637.765
1764505802.0731578,1096.56,11683.215,-36209.97,-15607.98,-26411.985,-17048.565,-7112.25,2638.305
1764505802.0731578,1095.21,11683.035,-36210.735,-15607.845,-26411.58,-17049.375,-7112.565,2637.0
1764505802.0731578,1096.965,11684.655,-36208.575,-15605.865,-26410.185,-17047.71,-7111.035,2639.385
1764505802.0731578,1101.825,11689.515,-36204.615,-15601.41,-26405.28,-17042.265,-7107.03,2644.335
1764505802.0731578,1102.365,11688.705,-36204.435,-15601.275,-26405.91,-17042.04,-7106.355,2645.1
1764505802.0731578,1101.24,11688.705,-36202.995,-15600.195,-26405.46,-17043.704999999998,-7108.29,2642.67
1764505802.0731578,1106.28,11695.545,-36195.345,-15592.815,-26399.52,-17040.69,-7105.185,2646.855
1764505802.0731578,1102.185,11691.81,-36199.62,-15596.865,-26401.545,-17040.735,-7106.04,2644.83
1764505802.0731578,1095.435,11683.485,-36207.945,-15603.93,-26403.435,-17036.19,-7105.95,2641.23
1764505802.0731578,1101.555,11690.685,-36200.295,-15596.46,-26397.36,-17030.79,-7102.125,2646.36
1764505802.0731578,1107.54,11699.82,-36189.27,-15588.045,-26394.165,-17030.114999999998,-7100.46,2648.07
1764505802.0731578,1103.805,11695.05,-36192.69,-15589.35,-26392.32,-17023.59,-7096.815,2646.855
1764505802.0731578,1095.66,11682.495,-36209.34,-15603.57,-26401.14,-17028.945,-7096.094999999999,2645.37
1764505802.0731578,1104.345,11693.52,-36198.72,-15599.115,-26406.405,-17041.14,-7094.25,2650.815
1764505802.1171136,1112.6699999999998,11701.845,-36189.09,-15590.295,-26397.18,-17034.165,-7085.61,2658.69
1764505802.1171136,1110.06,11700.18,-36190.44,-15590.16,-26391.69,-17027.64,-7083.945,2656.665
1764505802.1171136,1113.57,11703.33,-36188.685,-15582.105,-26381.655,-17018.505,-7079.355,2661.21
1764505802.1171136,1114.11,11705.985,-36183.915,-15577.29,-26382.015,-17019.45,-7080.389999999999,2660.355
1764505802.1171136,1109.52,11702.88,-36184.095,-15581.07,-26384.265,-17011.305,-7077.915,2658.915
1764505802.1171136,1102.32,11693.565,-36195.21,-15594.93,-26396.775,-17024.579999999998,-7079.895,2655.135
1764505802.1171136,1106.64,11700.36,-36189.405,-15593.31,-26400.87,-17036.415,-7079.49,2657.52
1764505802.1171136,1109.475,11704.185,-36185.04,-15589.44,-26397.45,-17034.704999999998,-7076.34,2659.995
1764505802.1171136,1109.385,11704.455,-36184.14,-15588.225,-26395.875,-17032.815,-7073.325,2661.93
1764505802.1171136,1104.3,11700.0,-36188.28,-15592.14,-26398.53,-17034.03,-7074.045,2657.835
1764505802.1171136,1108.485,11704.5,-36183.24,-15587.64,-26393.49,-17029.26,-7069.005,2661.975
1764505802.1181347,1106.01,11701.935,-36185.22,-15588.945,-26393.85,-17029.125,-7069.59,2659.095
1764505802.1181347,1100.88,11696.76,-36190.35,-15591.78,-26393.895,-17024.22,-7069.41,2655.495
1764505802.1181347,1100.385,11698.47,-36185.85,-15587.055,-26387.19,-17019.405,-7067.205,2655.855
1764505802.1181347,1099.89,11696.22,-36190.08,-15587.955,-26387.145,-17021.88,-7064.865,2656.485
1764505802.1181347,1101.24,11699.37,-36186.795,-15588.405,-26394.615,-17029.44,-7063.29,2658.06
1764505802.1181347,1103.31,11703.105,-36182.61,-15590.7,-26399.43,-17031.059999999998,-7060.724999999999,2659.86
1764505802.1181347,1107.0,11705.67,-36181.395,-15587.46,-26393.58,-17026.38,-7056.45,2664.0
1764505802.1181347,1109.025,11708.235,-36178.74,-15585.345,-26390.115,-17026.02,-7052.264999999999,2667.285
1764505802.1181347,1107.585,11708.55,-36177.48,-15581.025,-26384.31,-17021.16,-7049.745,2665.935
1764505802.1181347,1099.395,11700.945,-36184.32,-15583.41,-26383.59,-17015.715,-7049.745,2660.355
1764505802.1181347,1097.37,11699.955,-36184.86,-15590.655,-26395.335,-17025.57,-7052.445,2657.205
1764505802.1181347,1096.11,11699.595,-36184.995,-15592.32,-26399.025,-17033.22,-7052.804999999999,2656.98
1764505802.1181347,1090.44,11693.025,-36193.545,-15600.105,-26406.72,-17041.77,-7053.255,2654.1
1764505802.1623385,1092.96,11695.23,-36191.97,-15599.52,-26406.72,-17043.03,-7051.59,2656.395
1764505802.1623385,1091.925,11694.645,-36191.25,-15598.26,-26404.74,-17040.735,-7050.465,2655.675
1764505802.1623385,1089.27,11693.16,-36192.69,-15598.935,-26406.045,-17041.59,-7050.735,2652.885
1764505802.1623385,1090.035,11695.005,-36189.765,-15596.505,-26404.065,-17041.005,-7048.44,2654.37
1764505802.1623385,1091.25,11695.5,-36188.37,-15596.505,-26404.56,-17042.309999999998,-7046.594999999999,2656.26
1764505802.1623385,1093.32,11697.12,-36186.165,-15593.895,-26400.87,-17035.155,-7041.87,2659.905
1764505802.1623385,1090.44,11694.285,-36189.9,-15596.46,-26400.015,-17031.195,-7039.17,2659.635
1764505802.1623385,1088.235,11691.585,-36194.265,-15599.475,-26401.275,-17033.67,-7039.395,2657.97
1764505802.1623385,1087.245,11688.345,-36197.595,-15598.485,-26395.92,-17028.135,-7035.929999999999,2658.105
1764505802.1623385,1088.28,11690.325,-36193.14,-15593.4,-26390.745,-17023.77,-7035.84,2659.14
1764505802.1623385,1094.22,11703.555,-36177.12,-15587.595,-26397.225,-17036.73,-7040.52,2658.96
1764505802.1623385,1099.98,11716.515,-36158.985,-15573.375,-26387.595,-17030.565,-7040.25,2661.975
1764505802.1623385,1087.83,11697.21,-36177.705,-15579.63,-26378.955,-17014.005,-7036.56,2657.205
1764505802.1623385,1087.38,11697.3,-36179.28,-15573.555,-26366.715,-16999.965,-7036.965,2653.695
1764505802.1623385,1090.395,11704.455,-36174.015,-15571.755,-26372.16,-17013.375,-7041.554999999999,2652.345
1764505802.1623385,1085.445,11693.385,-36189.99,-15597.27,-26405.865,-17045.864999999998,-7034.13,2658.96
1764505802.1623385,1083.645,11686.545,-36197.325,-15602.22,-26409.51,-17043.434999999998,-7031.52,2661.885
1764505802.1623385,1091.07,11694.42,-36190.845,-15605.595,-26417.43,-17053.02,-7031.925,2664.585
1764505802.1623385,1087.83,11691.27,-36194.175,-15609.06,-26422.02,-17062.605,-7034.804999999999,2661.075
1764505802.1623385,1088.01,11693.295,-36191.925,-15605.415,-26418.24,-17060.985,-7035.615,2661.3
1764505802.1633463,1087.74,11693.52,-36190.395,-15598.35,-26407.08,-17047.035,-7033.905,2661.435
1764505802.1633463,1089.18,11695.23,-36187.695,-15593.805,-26399.79,-17036.55,-7031.34,2663.82
1764505802.2114816,1086.075,11694.015,-36189.09,-15595.56,-26403.48,-17041.095,-7035.12,2660.445
1764505802.2114816,1091.25,11701.71,-36180.315,-15591.87,-26404.83,-17047.71,-7035.389999999999,2663.28
1764505802.2114816,1085.535,11692.62,-36189.855,-15599.565,-26409.6,-17047.665,-7037.46,2658.555
1764505802.2114816,1085.355,11690.685,-36191.295,-15598.125,-26405.505,-17041.005,-7037.28,2658.96
1764505802.2114816,1085.58,11692.08,-36189.0,-15594.795,-26400.555,-17034.795,-7036.605,2660.58
1764505802.2114816,1088.505,11696.535,-36185.85,-15592.635,-26398.98,-17035.38,-7038.945,2661.795
1764505802.2114816,1093.005,11700.045,-36182.43,-15590.79,-26397.27,-17035.2,-7040.205,2664.36
1764505802.2114816,1091.295,11697.84,-36185.85,-15594.39,-26398.665,-17035.649999999998,-7044.344999999999,2661.705
1764505802.2114816,1085.535,11692.62,-36189.18,-15593.49,-26393.04,-17026.47,-7043.94,2659.365
1764505802.2114816,1080.765,11686.41,-36194.94,-15592.635,-26385.345,-17019.315,-7043.49,2656.26
1764505802.2114816,1078.29,11684.655,-36196.47,-15594.525,-26392.455,-17031.465,-7049.115,2653.875
1764505802.2114816,1079.955,11688.84,-36190.845,-15588.27,-26391.87,-17030.16,-7051.41,2655.495
1764505802.2114816,1083.33,11695.77,-36181.575,-15592.68,-26409.06,-17046.63,-7056.045,2656.035
1764505802.2114816,1086.57,11695.185,-36186.165,-15597.135,-26407.89,-17044.92,-7055.639999999999,2659.32
1764505802.2114816,1087.02,11694.105,-36186.93,-15592.995,-26399.43,-17032.905,-7055.639999999999,2659.86
1764505802.2114816,1089.72,11698.47,-36180.63,-15590.16,-26401.725,-17037.54,-7059.195,2659.545
1764505802.2114816,1085.67,11692.485,-36188.145,-15597.495,-26408.07,-17045.954999999998,-7066.08,2656.215
1764505802.2114816,1083.645,11690.46,-36189.945,-15597.72,-26407.845,-17046.405,-7070.895,2653.65
1764505802.2114816,1084.41,11691.63,-36188.37,-15594.525,-26403.255,-17042.265,-7072.514999999999,2654.91
1764505802.2114816,1089.045,11696.355,-36183.51,-15589.395,-26399.7,-17040.105,-7073.37,2658.96
1764505802.2124946,1088.01,11696.805,-36181.935,-15587.415,-26396.595,-17034.255,-7077.78,2656.215
1764505802.2124946,1083.735,11691.765,-36186.075,-15589.305,-26394.3,-17028.765,-7081.2,2653.11
1764505802.2124946,1076.085,11677.905,-36204.48,-15604.425,-26409.06,-17045.055,-7088.219999999999,2649.195
1764505802.2124946,1083.555,11686.995,-36197.145,-15602.175,-26409.78,-17047.395,-7090.02,2652.795
1764505802.2563767,1083.915,11690.235,-36191.205,-15593.355,-26394.21,-17028.72,-7092.27,2650.005
1764505802.2563767,1074.735,11682.135,-36193.725,-15586.515,-26380.665,-17013.239999999998,-7098.884999999999,2641.005
1764505802.2563767,1072.755,11677.905,-36200.16,-15597.045,-26400.645,-17036.37,-7101.54,2641.815
1764505802.2563767,1083.375,11689.155,-36193.725,-15605.145,-26420.94,-17062.335,-7107.615,2647.35
1764505802.2563767,1081.935,11686.32,-36195.84,-15601.455,-26411.805,-17053.065,-7107.03,2647.485
1764505802.2563767,1076.22,11676.915,-36206.595,-15604.83,-26408.52,-17046.855,-7108.02,2646.63
1764505802.2563767,1080.585,11682.855,-36199.62,-15602.715,-26413.335,-17055.72,-7111.935,2646.63
1764505802.2563767,1080.27,11688.12,-36192.195,-15598.035,-26408.43,-17048.295,-7116.615,2642.31
1764505802.2573912,1080.72,11684.025,-36199.215,-15603.165,-26408.97,-17046.18,-7114.77,2645.055
1764505802.2573912,1078.83,11679.12,-36204.615,-15605.595,-26410.68,-17048.52,-7113.915,2646.18
1764505802.2573912,1085.58,11687.535,-36194.94,-15596.01,-26404.2,-17044.965,-7116.12,2649.015
1764505802.2573912,1093.41,11698.965,-36180.54,-15586.245,-26402.22,-17050.59,-7119.405,2652.03
1764505802.2573912,1082.43,11688.435,-36190.665,-15589.89,-26401.14,-17045.505,-7124.49,2643.66
1764505802.2573912,1072.08,11673.585,-36207.09,-15604.065,-26409.105,-17040.285,-7128.0,2638.755
1764505802.2573912,1077.75,11679.3,-36200.79,-15605.64,-26414.145,-17048.79,-7130.655,2640.51
1764505802.2573912,1074.825,11674.485,-36207.27,-15605.46,-26411.445,-17045.1,-7132.95,2638.26
1764505802.2573912,1080.405,11680.155,-36200.925,-15602.265,-26413.38,-17047.934999999998,-7133.04,2641.68
1764505802.2573912,1083.465,11683.53,-36199.08,-15602.85,-26412.66,-17049.105,-7133.49,2644.11
1764505802.2584205,1082.61,11681.235,-36201.915,-15602.265,-26408.88,-17046.09,-7136.82,2643.57
1764505802.2584205,1086.57,11686.59,-36193.815,-15596.28,-26407.35,-17046.0,-7138.349999999999,2644.875
1764505802.2584205,1089.45,11689.875,-36188.73,-15589.215,-26402.715,-17044.29,-7139.565,2645.325
1764505802.2584205,1079.145,11678.085,-36200.295,-15596.505,-26402.535,-17039.34,-7144.92,2637.36
1764505802.2584205,1078.785,11677.5,-36199.44,-15588.63,-26388.27,-17017.829999999998,-7140.96,2636.415
1764505802.2584205,1083.735,11682.855,-36193.5,-15578.73,-26383.68,-17015.13,-7135.514999999999,2641.095
1764505802.303228,1089.27,11686.05,-36197.73,-15602.49,-26426.16,-17068.14,-7147.035,2643.885
1764505802.303228,1087.245,11680.245,-36205.065,-15602.985,-26416.35,-17056.079999999998,-7148.07,2642.085
1764505802.303228,1084.86,11678.67,-36202.635,-15594.48,-26402.535,-17037.54,-7148.835,2638.395
1764505802.3042452,1088.28,11685.915,-36191.79,-15592.32,-26408.25,-17047.44,-7155.99,2637.945
1764505802.3042452,1091.52,11689.2,-36188.19,-15590.205,-26407.035,-17046.495,-7158.105,2639.43
1764505802.3042452,1090.035,11685.915,-36193.32,-15589.53,-26401.59,-17039.34,-7157.7,2639.115
1764505802.3042452,1093.005,11687.625,-36192.87,-15588.27,-26400.015,-17038.934999999998,-7158.69,2641.41
1764505802.3042452,1089.9,11683.71,-36197.955,-15592.995,-26405.73,-17046.405,-7166.205,2636.55
1764505802.3042452,1093.41,11686.41,-36196.155,-15590.475,-26404.605,-17046.27,-7168.23,2637.405
1764505802.3042452,1095.21,11689.245,-36190.575,-15583.77,-26397.315,-17039.43,-7171.605,2635.29
1764505802.3042452,1093.68,11692.62,-36182.88,-15574.77,-26384.895,-17025.075,-7176.195,2629.935
1764505802.3042452,1088.325,11685.42,-36190.35,-15576.525,-26379.72,-17013.465,-7177.59,2624.805
1764505802.3042452,1074.33,11659.545,-36225.495,-15603.525,-26405.505,-17041.815,-7181.82,2620.035
1764505802.3042452,1084.095,11667.825,-36220.095,-15608.97,-26420.31,-17065.8,-7183.08,2626.92
1764505802.3042452,1102.185,11686.365,-36199.755,-15590.565,-26399.745,-17049.78,-7178.13,2636.505
1764505802.3042452,1104.66,11684.61,-36204.435,-15588.315,-26392.59,-17039.43,-7175.969999999999,2639.34
1764505802.3042452,1103.985,11691.945,-36192.105,-15584.04,-26396.505,-17041.364999999998,-7177.139999999999,2632.86
1764505802.3042452,1087.605,11673.18,-36207.63,-15591.375,-26396.235,-17033.445,-7177.679999999999,2622.915
1764505802.305775,1089.18,11670.93,-36214.515,-15600.96,-26407.305,-17049.735,-7184.429999999999,2622.51
1764505802.3067927,1085.985,11665.62,-36220.545,-15606.945,-26417.655,-17064.0,-7187.804999999999,2620.98
1764505802.3072116,1103.445,11688.48,-36197.19,-15590.79,-26408.745,-17059.545,-7187.49,2629.035
1764505802.3072116,1106.505,11691.63,-36191.79,-15585.12,-26402.04,-17050.59,-7184.205,2630.52
1764505802.3503337,1101.87,11686.95,-36196.11,-15588.765,-26405.91,-17054.864999999998,-7189.38,2624.895
1764505802.3503337,1103.58,11688.48,-36195.66,-15587.955,-26404.515,-17054.1,-7189.514999999999,2625.57
1764505802.3503337,1093.095,11672.1,-36215.01,-15600.24,-26410.995,-17057.88,-7192.53,2621.835
1764505802.3503337,1102.455,11682.36,-36205.2,-15592.005,-26396.505,-17043.345,-7190.145,2626.245
1764505802.3503337,1100.52,11680.11,-36206.82,-15585.57,-26379.405,-17021.52,-7189.245,2620.71
1764505802.3503337,1093.23,11669.67,-36215.955,-15594.12,-26397.63,-17043.165,-7191.945,2617.605
1764505802.3503337,1111.005,11692.35,-36189.18,-15579.945,-26399.79,-17051.175,-7187.4,2628.63
1764505802.3503337,1108.305,11691.09,-36190.98,-15566.94,-26374.185,-17022.239999999998,-7184.835,2623.455
1764505802.3503337,1097.055,11669.535,-36221.265,-15586.605,-26383.455,-17031.42,-7182.719999999999,2622.915
1764505802.3503337,1084.275,11653.38,-36242.685,-15607.98,-26400.87,-17045.145,-7189.02,2614.635
1764505802.3513553,1093.23,11675.745,-36211.905,-15592.68,-26405.955,-17057.79,-7192.53,2610.81
1764505802.3513553,1104.03,11688.21,-36195.255,-15593.445,-26421.93,-17082.045,-7188.344999999999,2619.72
1764505802.3513553,1105.02,11687.265,-36196.83,-15594.795,-26413.2,-17068.41,-7184.295,2621.88
1764505802.3513553,1102.95,11687.805,-36191.115,-15588.36,-26403.885,-17056.575,-7184.205,2619.54
1764505802.3513553,1103.58,11686.995,-36195.48,-15587.055,-26400.69,-17053.92,-7181.685,2621.205
1764505802.3513553,1100.88,11684.07,-36199.98,-15589.53,-26401.77,-17055.495,-7181.685,2619.81
1764505802.3513553,1097.235,11679.885,-36203.085,-15590.97,-26401.455,-17054.28,-7182.045,2615.805
1764505802.3513553,1099.26,11683.575,-36198.81,-15586.74,-26395.515,-17049.285,-7180.245,2617.605
1764505802.3513553,1096.29,11682.45,-36198.585,-15587.37,-26395.47,-17049.329999999998,-7181.235,2614.005
1764505802.3513553,1091.97,11677.23,-36203.49,-15588.63,-26393.13,-17043.66,-7179.884999999999,2612.205
1764505802.3513553,1092.24,11675.565,-36209.115,-15594.075,-26399.97,-17050.32,-7180.245,2613.285
1764505802.3513553,1101.78,11692.35,-36188.145,-15579.27,-26390.79,-17048.07,-7180.514999999999,2615.805
1764505802.3513553,1095.165,11685.96,-36191.925,-15576.84,-26381.34,-17034.03,-7179.84,2611.62
1764505802.3513553,1082.16,11664.72,-36217.26,-15595.29,-26390.475,-17036.64,-7177.005,2609.235
1764505802.4005718,1087.965,11666.475,-36220.41,-15599.88,-26397.765,-17048.52,-7173.045,2617.335
1764505802.4005718,1084.68,11664.405,-36219.555,-15596.505,-26393.49,-17043.57,-7175.025,2612.43
1764505802.4005718,1094.355,11678.175,-36205.245,-15597.585,-26409.645,-17064.675,-7172.594999999999,2619.09
1764505802.4005718,1100.16,11686.32,-36196.515,-15590.205,-26403.705,-17061.165,-7169.219999999999,2623.59
1764505802.4005718,1098.225,11684.025,-36198.9,-15586.65,-26393.22,-17047.98,-7166.34,2623.32
1764505802.4005718,1101.33,11686.41,-36198.0,-15584.85,-26387.64,-17041.32,-7161.705,2626.425
1764505802.4005718,1099.035,11685.735,-36197.82,-15582.825,-26383.365,-17034.885,-7162.56,2622.51
1764505802.4005718,1090.305,11678.085,-36204.165,-15587.145,-26385.84,-17036.82,-7166.429999999999,2615.94
1764505802.4005718,1099.935,11688.795,-36192.42,-15582.69,-26388.945,-17044.515,-7160.58,2624.76
1764505802.4005718,1089.495,11677.185,-36204.21,-15592.23,-26397.855,-17052.524999999998,-7160.355,2620.755
1764505802.4005718,1088.28,11677.905,-36202.32,-15588.225,-26388.045,-17041.995,-7162.875,2616.885
1764505802.4005718,1086.075,11680.2,-36196.245,-15575.04,-26366.445,-17018.145,-7162.695,2612.07
1764505802.4015832,1076.31,11657.97,-36226.71,-15596.46,-26385.93,-17034.84,-7154.145,2616.255
1764505802.4015832,1091.025,11677.68,-36205.56,-15594.21,-26401.95,-17059.95,-7156.485,2623.005
1764505802.4015832,1099.845,11695.41,-36182.835,-15578.685,-26393.895,-17057.745,-7161.03,2624.04
1764505802.4015832,1099.71,11693.745,-36185.265,-15579.09,-26393.085,-17054.235,-7157.07,2624.715
1764505802.4015832,1094.49,11685.33,-36194.535,-15584.04,-26392.995,-17048.61,-7156.035,2622.78
1764505802.4015832,1088.37,11678.085,-36202.23,-15590.205,-26397.405,-17053.38,-7159.41,2618.19
1764505802.4015832,1091.52,11682.18,-36198.135,-15585.12,-26391.015,-17047.215,-7156.889999999999,2622.33
1764505802.4015832,1092.915,11684.745,-36194.13,-15579.945,-26385.84,-17041.68,-7155.315,2622.645
1764505802.4015832,1092.285,11684.655,-36192.87,-15578.235,-26382.915,-17037.63,-7155.09,2620.98
1764505802.4015832,1083.96,11673.945,-36204.93,-15590.97,-26392.905,-17044.965,-7159.32,2615.58
1764505802.4015832,1089.945,11680.56,-36199.98,-15588.405,-26393.76,-17049.735,-7156.889999999999,2620.8
1764505802.4015832,1088.91,11680.65,-36198.855,-15585.525,-26388.765,-17043.93,-7154.955,2621.52
1764505802.446742,1087.11,11678.85,-36198.54,-15583.59,-26386.47,-17039.745,-7154.145,2620.845
1764505802.446742,1087.02,11681.055,-36197.595,-15583.365,-26387.37,-17042.445,-7156.62,2618.685
1764505802.446742,1085.49,11679.75,-36199.98,-15587.055,-26391.555,-17048.204999999998,-7158.915,2616.255
1764505802.446742,1084.41,11677.68,-36201.105,-15586.47,-26389.98,-17044.829999999998,-7157.925,2615.22
1764505802.446742,1082.655,11676.06,-36202.095,-15584.85,-26384.715,-17039.295,-7158.105,2614.23
1764505802.446742,1083.735,11678.94,-36197.325,-15579.765,-26377.605,-17032.995,-7155.63,2615.985
1764505802.446742,1083.735,11677.635,-36200.115,-15585.165,-26383.365,-17035.155,-7154.594999999999,2615.31
1764505802.446742,1081.17,11675.835,-36200.205,-15588.36,-26391.105,-17044.29,-7156.62,2612.835
1764505802.446742,1086.12,11679.435,-36201.42,-15583.815,-26386.425,-17045.55,-7154.865,2617.965
1764505802.446742,1094.535,11695.77,-36179.64,-15569.595,-26380.125,-17043.12,-7154.639999999999,2618.82
1764505802.446742,1084.995,11683.89,-36194.49,-15582.06,-26378.28,-17028.315,-7152.929999999999,2613.96
1764505802.446742,1070.01,11657.79,-36225.585,-15599.07,-26384.265,-17030.34,-7150.679999999999,2611.8
1764505802.446742,1081.44,11670.93,-36211.905,-15590.115,-26389.08,-17043.39,-7150.5,2618.595
1764505802.446742,1094.445,11690.73,-36187.38,-15578.01,-26390.925,-17050.725,-7147.755,2623.77
1764505802.446742,1088.55,11683.485,-36195.48,-15579.945,-26387.19,-17047.215,-7147.889999999999,2619.945
1764505802.446742,1091.655,11685.735,-36195.975,-15578.82,-26382.465,-17041.184999999998,-7143.3,2623.77
1764505802.446742,1089.99,11683.53,-36198.945,-15578.865,-26378.19,-17035.695,-7143.165,2623.05
1764505802.447763,1090.26,11685.555,-36195.39,-15578.055,-26381.43,-17040.465,-7147.889999999999,2621.115
1764505802.447763,1094.895,11693.88,-36185.94,-15575.49,-26385.795,-17047.755,-7148.835,2622.645
1764505802.447763,1087.515,11683.89,-36196.155,-15580.53,-26384.85,-17042.67,-7150.139999999999,2617.56
1764505802.447763,1090.62,11688.255,-36191.79,-15575.805,-26379.63,-17039.43,-7149.285,2619.495
1764505802.447763,1093.545,11689.965,-36190.305,-15572.295,-26376.03,-17037.225,-7145.054999999999,2623.365
1764505802.491688,1095.84,11692.395,-36187.56,-15568.695,-26373.465,-17036.19,-7144.38,2623.86
1764505802.491688,1100.52,11697.615,-36180.945,-15562.08,-26364.915,-17027.235,-7142.13,2626.47
1764505802.491688,1110.195,11707.515,-36168.705,-15547.68,-26346.015,-17003.97,-7137.27,2631.42
1764505802.491688,1094.355,11689.965,-36186.48,-15559.65,-26345.655,-16986.555,-7138.259999999999,2619.945
1764505802.491688,1086.3,11680.2,-36195.21,-15562.485,-26344.89,-16985.97,-7140.645,2615.31
1764505802.491688,1096.56,11685.285,-36195.615,-15566.895,-26349.615,-16992.809999999998,-7137.54,2623.005
1764505802.491688,1101.195,11684.52,-36201.87,-15577.11,-26365.41,-17013.285,-7135.38,2628.585
1764505802.491688,1107.585,11696.805,-36187.29,-15569.505,-26374.68,-17037.63,-7141.545,2628.855
1764505802.491688,1102.14,11697.57,-36182.745,-15571.08,-26383.23,-17050.635,-7150.995,2621.385
1764505802.491688,1096.425,11684.655,-36200.88,-15587.235,-26392.14,-17054.055,-7149.285,2619.585
1764505802.491688,1096.065,11680.695,-36208.08,-15589.485,-26387.82,-17046.63,-7147.98,2619.405
1764505802.491688,1100.43,11685.555,-36204.03,-15588.27,-26391.105,-17055.045,-7150.815,2620.98
1764505802.491688,1099.845,11690.055,-36198.18,-15587.595,-26403.03,-17073.945,-7157.429999999999,2617.335
1764505802.491688,1104.615,11694.33,-36194.67,-15585.48,-26401.905,-17072.055,-7153.514999999999,2622.555
1764505802.491688,1104.48,11692.125,-36197.19,-15584.94,-26396.325,-17063.37,-7152.389999999999,2621.97
1764505802.491688,1096.875,11682.855,-36206.505,-15592.995,-26399.88,-17061.614999999998,-7156.53,2614.59
1764505802.491688,1099.17,11684.61,-36205.155,-15591.285,-26397.45,-17060.04,-7156.98,2616.12
1764505802.491688,1099.62,11684.97,-36205.515,-15590.115,-26396.55,-17058.915,-7158.599999999999,2615.265
1764505802.491688,1097.865,11682.945,-36206.955,-15590.745,-26396.055,-17057.204999999998,-7160.445,2612.655
1764505802.491688,1093.815,11679.03,-36209.925,-15593.76,-26398.305,-17059.14,-7164.315,2607.975
1764505802.491688,1093.365,11678.535,-36211.05,-15593.355,-26397.855,-17058.195,-7165.44,2606.58
1764505802.491688,1094.13,11678.94,-36210.6,-15593.355,-26396.865,-17056.395,-7166.295,2607.705
1764505802.491688,1097.37,11680.83,-36208.53,-15590.205,-26393.04,-17052.704999999998,-7165.215,2609.73
1764505802.491688,1095.705,11678.805,-36210.06,-15590.43,-26392.59,-17051.76,-7168.23,2606.085
1764505802.5365446,1097.28,11681.145,-36205.155,-15585.57,-26385.93,-17044.335,-7169.715,2605.815
1764505802.5365446,1088.685,11669.895,-36218.475,-15592.5,-26388.45,-17045.82,-7175.429999999999,2598.84
1764505802.5365446,1087.02,11665.17,-36223.92,-15597.36,-26397.945,-17055.63,-7178.94,2597.625
1764505802.5365446,1095.21,11675.385,-36212.625,-15593.445,-26398.44,-17058.69,-7179.255,2600.55
1764505802.5365446,1090.485,11672.685,-36212.985,-15593.265,-26394.255,-17054.415,-7183.215,2595.69
1764505802.5365446,1093.005,11674.215,-36210.69,-15594.615,-26392.815,-17048.835,-7180.965,2597.67
1764505802.5365446,1086.075,11660.985,-36228.33,-15604.2,-26394.615,-17047.125,-7182.99,2594.16
1764505802.5365446,1085.76,11661.57,-36227.52,-15600.285,-26395.11,-17052.614999999998,-7186.95,2592.315
1764505802.5365446,1095.795,11677.725,-36208.62,-15595.38,-26405.01,-17071.92,-7189.065,2595.51
1764505802.5365446,1092.15,11675.655,-36209.97,-15595.965,-26398.665,-17062.559999999998,-7193.295,2590.11
1764505802.5375645,1087.29,11669.535,-36214.965,-15597.135,-26394.84,-17055.54,-7192.259999999999,2588.895
1764505802.5375645,1075.41,11651.445,-36236.25,-15613.83,-26406.765,-17063.325,-7194.78,2583.765
1764505802.5375645,1079.595,11657.52,-36230.445,-15613.29,-26409.285,-17067.915,-7199.145,2581.65
1764505802.5375645,1078.065,11658.42,-36225.945,-15606.18,-26403.48,-17064.675,-7200.585,2580.12
1764505802.5375645,1083.42,11664.09,-36220.635,-15602.265,-26401.275,-17064.27,-7197.84,2585.025
1764505802.5375645,1079.82,11658.87,-36227.97,-15609.78,-26404.065,-17064.945,-7199.28,2582.685
1764505802.5375645,1073.115,11651.85,-36235.17,-15613.155,-26405.415,-17067.329999999998,-7201.485,2577.915
1764505802.5375645,1071.135,11651.535,-36235.305,-15614.19,-26408.07,-17069.13,-7203.33,2576.205
1764505802.5375645,1079.955,11666.88,-36216.18,-15603.12,-26400.15,-17063.55,-7203.24,2578.635
1764505802.5375645,1072.845,11656.08,-36226.08,-15605.73,-26392.815,-17050.23,-7200.045,2577.735
1764505802.5375645,1067.67,11646.0,-36242.37,-15617.745,-26402.58,-17056.215,-7199.28,2578.455
1764505802.5375645,1076.085,11659.14,-36228.735,-15618.915,-26420.715,-17084.295,-7202.295,2581.245
1764505802.5375645,1072.305,11656.35,-36230.94,-15618.015,-26416.665,-17078.04,-7201.53,2578.23
1764505802.538082,1071.495,11654.955,-36231.255,-15616.395,-26411.22,-17070.524999999998,-7199.955,2577.195
1764505802.5867655,1076.4,11661.255,-36223.965,-15609.375,-26404.74,-17065.845,-7196.085,2581.695
1764505802.5867655,1073.25,11659.41,-36226.35,-15611.355,-26404.38,-17066.88,-7197.255,2579.76
1764505802.5867655,1070.28,11656.395,-36230.625,-15615.27,-26406.855,-17065.079999999998,-7197.165,2577.51
1764505802.5867655,1071.495,11657.475,-36230.13,-15615.54,-26407.53,-17064.945,-7196.04,2579.445
1764505802.5867655,1070.595,11657.25,-36228.915,-15615.99,-26408.25,-17065.98,-7196.31,2578.86
1764505802.5867655,1069.47,11656.035,-36230.04,-15617.97,-26409.78,-17067.78,-7196.445,2577.285
1764505802.5867655,1072.755,11658.69,-36227.79,-15616.125,-26406.405,-17065.71,-7192.215,2581.695
1764505802.5867655,1067.13,11651.355,-36237.465,-15626.52,-26414.1,-17073.63,-7193.925,2577.33
1764505802.5867655,1065.195,11650.095,-36239.49,-15628.14,-26414.505,-17072.91,-7192.395,2576.835
1764505802.5867655,1068.03,11656.125,-36230.04,-15618.735,-26409.78,-17070.21,-7191.764999999999,2577.96
1764505802.5867655,1073.16,11665.395,-36216.045,-15613.56,-26414.685,-17079.12,-7191.405,2579.085
1764505802.5867655,1073.655,11664.135,-36219.51,-15614.73,-26412.03,-17074.845,-7188.255,2581.47
1764505802.5867655,1070.235,11660.76,-36223.245,-15617.565,-26414.01,-17076.105,-7188.66,2578.68
1764505802.5867655,1071.765,11661.66,-36222.39,-15617.025,-26412.075,-17073.63,-7186.455,2580.885
1764505802.5867655,1070.28,11659.95,-36223.965,-15618.33,-26411.805,-17072.82,-7186.545,2579.67
1764505802.5867655,1070.37,11661.525,-36223.155,-15616.62,-26411.265,-17071.47,-7184.565,2580.435
1764505802.5867655,1075.905,11668.32,-36216.9,-15609.285,-26404.245,-17063.91,-7179.435,2585.16
1764505802.5867655,1075.815,11667.555,-36216.405,-15609.51,-26403.705,-17061.84,-7179.165,2584.62
1764505802.5867655,1076.805,11668.41,-36212.85,-15604.2,-26394.705,-17049.555,-7173.54,2586.51
1764505802.5867655,1063.98,11657.52,-36220.68,-15608.34,-26391.96,-17045.19,-7176.96,2576.745
1764505802.5867655,1070.01,11659.185,-36224.91,-15611.355,-26396.37,-17054.73,-7174.44,2582.82
1764505802.5867655,1076.58,11667.105,-36218.52,-15612.345,-26405.055,-17067.465,-7174.035,2585.97
1764505802.6305315,1074.78,11665.53,-36219.195,-15614.82,-26406.72,-17063.28,-7172.415,2585.565
1764505802.6311002,1074.6,11668.86,-36211.455,-15606.405,-26398.89,-17054.954999999998,-7170.389999999999,2584.305
1764505802.6311002,1070.46,11663.685,-36214.605,-15601.365,-26392.32,-17050.905,-7172.009999999999,2580.66
1764505802.6311002,1072.98,11662.065,-36220.23,-15610.59,-26406.045,-17063.505,-7170.57,2584.71
1764505802.6311002,1082.88,11673.315,-36211.365,-15605.73,-26403.93,-17062.829999999998,-7166.295,2592.675
1764505802.6311002,1081.935,11673.27,-36209.655,-15603.435,-26399.925,-17059.05,-7166.745,2590.335
1764505802.6311002,1078.605,11671.695,-36210.195,-15601.95,-26397.135,-17055.945,-7168.815,2586.465
1764505802.6311002,1082.43,11676.87,-36203.445,-15595.335,-26386.695,-17042.625,-7168.59,2585.7
1764505802.6311002,1083.285,11675.07,-36209.565,-15599.25,-26379.315,-17027.145,-7166.07,2586.87
1764505802.6316645,1076.355,11659.365,-36227.52,-15601.77,-26377.2,-17025.12,-7162.965,2589.21
1764505802.6316645,1089.36,11684.205,-36192.69,-15577.92,-26377.2,-17042.895,-7161.795,2594.745
1764505802.6316645,1090.485,11687.31,-36187.11,-15579.36,-26382.24,-17047.485,-7158.915,2594.88
1764505802.6316645,1084.095,11674.935,-36206.685,-15598.8,-26393.895,-17045.82,-7159.634999999999,2589.57
1764505802.6316645,1078.83,11660.67,-36224.82,-15613.02,-26404.065,-17052.704999999998,-7154.235,2592.405
1764505802.6316645,1078.47,11658.87,-36226.215,-15614.19,-26407.44,-17057.385,-7156.665,2591.145
1764505802.6316645,1081.08,11668.185,-36213.255,-15610.455,-26410.59,-17064.0,-7161.255,2587.635
1764505802.6316645,1083.69,11670.435,-36208.89,-15603.39,-26400.6,-17053.739999999998,-7155.99,2589.975
1764505802.6316645,1083.6,11669.94,-36209.025,-15599.34,-26393.985,-17046.45,-7155.27,2590.02
1764505802.6316645,1090.035,11675.745,-36204.345,-15600.33,-26395.605,-17049.735,-7154.775,2593.845
1764505802.6316645,1094.22,11680.605,-36199.44,-15593.625,-26386.92,-17040.87,-7150.41,2597.985
1764505802.6316645,1089.18,11672.91,-36210.285,-15597.135,-26387.37,-17037.945,-7151.804999999999,2594.565
1764505802.6316645,1088.73,11669.76,-36215.145,-15604.245,-26393.715,-17040.78,-7152.12,2594.385
1764505802.6316645,1088.595,11668.635,-36217.89,-15605.19,-26388.99,-17031.465,-7150.679999999999,2593.485
1764505802.6316645,1090.035,11670.705,-36214.515,-15598.8,-26384.76,-17027.91,-7147.17,2596.455
1764505802.6792035,1094.76,11680.695,-36201.105,-15589.755,-26386.065,-17036.01,-7148.745,2597.67
1764505802.6792035,1084.635,11669.895,-36211.68,-15597.27,-26388.315,-17035.785,-7156.215,2588.13
1764505802.6792035,1093.77,11678.31,-36203.67,-15595.74,-26392.815,-17045.01,-7153.965,2596.95
1764505802.6792035,1095.3,11678.355,-36204.705,-15598.53,-26400.375,-17054.91,-7155.315,2597.76
1764505802.679762,1101.6,11681.865,-36204.93,-15596.145,-26393.22,-17046.855,-7151.31,2601.72
1764505802.679762,1101.105,11682.18,-36205.11,-15593.04,-26383.545,-17034.39,-7149.509999999999,2601.18
1764505802.679762,1091.88,11674.305,-36212.94,-15592.455,-26382.465,-17033.805,-7155.81,2593.395
1764505802.679762,1101.96,11691.45,-36191.16,-15585.48,-26389.8,-17046.855,-7153.605,2597.175
1764505802.679762,1084.23,11662.38,-36225.9,-15611.13,-26402.355,-17050.77,-7154.865,2590.335
1764505802.679762,1097.145,11673.405,-36217.935,-15610.14,-26404.38,-17052.84,-7154.865,2597.31
1764505802.679762,1105.695,11684.16,-36203.355,-15594.885,-26391.195,-17043.93,-7145.415,2607.255
1764505802.679762,1105.92,11684.52,-36202.23,-15586.29,-26375.49,-17028.809999999998,-7147.304999999999,2606.31
1764505802.679762,1100.7,11682.27,-36198.72,-15576.255,-26367.165,-17018.55,-7149.42,2598.48
1764505802.679762,1095.705,11678.445,-36201.015,-15588.675,-26389.665,-17041.77,-7151.445,2595.33
1764505802.679762,1099.98,11680.74,-36202.635,-15592.68,-26391.015,-17042.175,-7145.639999999999,2599.29
1764505802.679762,1099.89,11679.75,-36207.63,-15599.07,-26395.695,-17047.845,-7148.969999999999,2597.67
1764505802.679762,1103.445,11683.98,-36204.255,-15595.515,-26388.135,-17041.68,-7146.495,2599.515
1764505802.679762,1100.385,11684.88,-36198.18,-15578.28,-26364.915,-17017.29,-7145.594999999999,2595.06
1764505802.679762,1093.32,11676.555,-36206.415,-15591.96,-26383.41,-17036.325,-7150.094999999999,2592.18
1764505802.679762,1091.745,11668.32,-36217.53,-15600.87,-26380.305,-17016.84,-7141.995,2594.07
1764505802.679762,1092.735,11669.355,-36214.83,-15596.19,-26379.045,-17018.864999999998,-7143.75,2594.385
1764505802.679762,1112.31,11698.02,-36186.48,-15578.775,-26380.62,-17037.945,-7144.065,2602.62
1764505802.679762,1098.045,11680.425,-36203.265,-15591.465,-26386.155,-17036.864999999998,-7144.155,2595.78
1764505802.679762,1100.97,11680.92,-36204.615,-15593.535,-26384.265,-17028.63,-7140.24,2600.73
1764505802.7237382,1099.53,11678.49,-36208.395,-15592.815,-26381.34,-17022.735,-7140.78,2600.55
1764505802.7237382,1097.28,11674.62,-36213.84,-15596.955,-26388.72,-17031.375,-7144.2,2596.05
1764505802.7237382,1102.68,11682.765,-36206.415,-15600.015,-26401.185,-17055.225,-7145.28,2597.76
1764505802.7237382,1099.53,11678.67,-36210.645,-15603.165,-26401.545,-17053.739999999998,-7144.875,2597.67
1764505802.7237382,1101.51,11682.9,-36204.165,-15593.895,-26391.24,-17043.885,-7145.145,2596.995
1764505802.7247598,1105.92,11690.955,-36193.545,-15581.475,-26376.84,-17031.375,-7141.275,2600.37
1764505802.7247598,1109.475,11696.445,-36185.715,-15571.845,-26362.62,-17013.825,-7136.37,2602.935
1764505802.7247598,1097.955,11679.03,-36205.74,-15585.975,-26364.6,-17003.61,-7137.09,2596.77
1764505802.7247598,1084.545,11667.645,-36218.565,-15590.34,-26363.655,-16998.57,-7145.55,2583.495
1764505802.7247598,1098.54,11684.97,-36201.465,-15582.69,-26371.935,-17015.265,-7143.48,2592.495
1764505802.7247598,1102.05,11684.7,-36202.14,-15590.88,-26382.78,-17028.945,-7137.585,2597.085
1764505802.7247598,1092.87,11671.92,-36218.295,-15600.69,-26385.12,-17029.395,-7141.455,2591.91
1764505802.7247598,1087.92,11670.48,-36216.405,-15598.935,-26388.315,-17033.13,-7144.245,2587.23
1764505802.7247598,1093.905,11676.51,-36211.905,-15598.44,-26398.62,-17047.62,-7143.48,2591.955
1764505802.7247598,1097.955,11685.645,-36198.99,-15591.78,-26394.795,-17048.835,-7143.21,2592.72
1764505802.7247598,1090.62,11674.935,-36211.23,-15600.42,-26397.495,-17049.825,-7145.054999999999,2588.085
1764505802.7247598,1093.635,11677.725,-36211.59,-15596.28,-26386.92,-17038.079999999998,-7140.06,2591.055
1764505802.7247598,1094.805,11680.785,-36206.64,-15588.72,-26379.09,-17031.239999999998,-7137.99,2590.065
1764505802.7247598,1092.42,11676.285,-36216.585,-15604.785,-26393.94,-17039.07,-7141.5,2586.645
1764505802.7247598,1086.345,11669.535,-36224.19,-15617.295,-26408.16,-17054.954999999998,-7144.155,2583.855
1764505802.7247598,1076.085,11656.62,-36235.53,-15616.8,-26406.72,-17053.155,-7141.815,2581.29
1764505802.7247598,1095.39,11683.8,-36207.18,-15606.315,-26414.505,-17067.6,-7144.514999999999,2589.12
1764505802.775519,1091.43,11677.905,-36214.605,-15604.065,-26395.515,-17040.105,-7135.02,2589.705
1764505802.775519,1073.115,11655.315,-36232.83,-15607.98,-26385.84,-17023.995,-7130.79,2581.605
1764505802.775519,1070.955,11651.445,-36239.67,-15619.14,-26397.09,-17035.02,-7135.245,2578.005
1764505802.775519,1079.415,11658.51,-36234.495,-15612.885,-26399.25,-17044.695,-7132.23,2584.485
1764505802.775519,1082.97,11665.305,-36227.115,-15614.325,-26411.985,-17057.655,-7129.8,2589.3
1764505802.775519,1083.105,11670.795,-36220.68,-15605.55,-26395.74,-17040.105,-7129.755,2585.475
1764505802.775519,1083.87,11673.945,-36215.19,-15602.22,-26394.21,-17039.114999999998,-7128.224999999999,2585.16
1764505802.775519,1084.455,11679.165,-36206.145,-15602.895,-26410.095,-17061.21,-7131.69,2583.135
1764505802.775519,1084.365,11676.555,-36211.905,-15606.045,-26404.74,-17053.065,-7126.38,2586.555
1764505802.775519,1080.45,11675.115,-36207.63,-15609.105,-26404.875,-17050.41,-7125.929999999999,2583.72
1764505802.775519,1082.295,11679.525,-36200.7,-15600.51,-26393.355,-17037.899999999998,-7124.085,2582.82
1764505802.775519,1078.92,11674.44,-36207.945,-15595.11,-26380.08,-17021.79,-7121.295,2581.02
1764505802.775519,1078.11,11670.345,-36215.865,-15601.32,-26394.795,-17039.79,-7122.24,2583.81
1764505802.775519,1086.345,11679.615,-36208.215,-15606.675,-26410.185,-17057.655,-7120.125,2588.85
1764505802.775519,1083.33,11677.545,-36209.43,-15601.455,-26397.45,-17041.32,-7119.719999999999,2585.385
1764505802.775519,1077.885,11673.54,-36211.59,-15602.355,-26395.56,-17036.954999999998,-7115.535,2583.45
1764505802.775519,1066.095,11655.945,-36230.175,-15616.215,-26404.74,-17042.805,-7114.815,2580.03
1764505802.775519,1082.925,11677.545,-36208.89,-15602.13,-26397.405,-17043.12,-7113.105,2587.905
1764505802.775519,1082.205,11677.005,-36210.465,-15605.37,-26400.735,-17046.27,-7112.565,2587.86
1764505802.775519,1075.815,11669.895,-36219.285,-15614.19,-26408.97,-17051.265,-7116.165,2583.315
1764505802.775519,1076.265,11672.28,-36216.09,-15610.77,-26403.3,-17043.03,-7112.925,2584.395
1764505802.775519,1071.18,11668.365,-36219.78,-15612.84,-26401.815,-17038.98,-7112.565,2579.895
1764505802.7765312,1068.435,11660.76,-36227.07,-15611.625,-26396.37,-17031.329999999998,-7107.795,2581.83
1764505802.7765312,1075.14,11669.94,-36216.18,-15603.345,-26392.185,-17029.8,-7106.13,2584.08
1764505802.820371,1076.805,11674.485,-36211.59,-15605.19,-26395.38,-17034.255,-7107.884999999999,2583.405
1764505802.820371,1076.13,11671.56,-36217.89,-15613.965,-26406.09,-17048.07,-7106.715,2586.78
1764505802.820371,1068.345,11666.16,-36222.03,-15614.955,-26408.43,-17048.07,-7109.505,2579.94
1764505802.820371,1076.76,11676.735,-36206.46,-15600.87,-26402.175,-17044.649999999998,-7104.87,2585.52
1764505802.820371,1072.485,11672.01,-36211.23,-15602.13,-26400.105,-17041.32,-7105.094999999999,2583.945
1764505802.820371,1068.795,11668.905,-36215.19,-15611.94,-26411.355,-17052.84,-7106.895,2582.145
1764505802.820371,1067.355,11667.96,-36215.28,-15617.925,-26419.545,-17059.995,-7107.57,2580.03
1764505802.820371,1068.705,11667.735,-36215.865,-15616.395,-26415.27,-17053.065,-7103.925,2581.785
1764505802.820371,1071.27,11672.01,-36210.645,-15611.94,-26407.44,-17042.399999999998,-7100.235,2584.215
1764505802.820371,1064.745,11664.675,-36216.675,-15609.915,-26398.62,-17030.385,-7099.74,2580.21
1764505802.820371,1071.36,11668.095,-36219.105,-15610.77,-26401.86,-17036.505,-7097.219999999999,2588.31
1764505802.820371,1068.435,11663.235,-36224.955,-15622.02,-26408.61,-17038.305,-7095.014999999999,2588.445
1764505802.820371,1065.555,11666.655,-36217.08,-15608.745,-26395.065,-17025.165,-7096.815,2582.28
1764505802.820371,1076.715,11684.565,-36194.58,-15600.69,-26407.755,-17050.725,-7102.44,2584.98
1764505802.820371,1077.615,11684.745,-36195.12,-15603.705,-26413.92,-17061.165,-7098.389999999999,2590.38
1764505802.820371,1066.32,11668.365,-36210.645,-15608.61,-26407.935,-17046.09,-7095.014999999999,2586.375
1764505802.820371,1074.78,11677.185,-36204.255,-15610.005,-26414.73,-17057.79,-7095.915,2590.245
1764505802.820371,1066.77,11667.42,-36214.245,-15615.945,-26416.89,-17058.239999999998,-7097.085,2585.205
1764505802.820371,1067.85,11668.275,-36213.525,-15614.955,-26414.37,-17053.02,-7096.32,2585.88
1764505802.820371,1073.565,11674.575,-36206.865,-15609.6,-26408.79,-17047.665,-7092.179999999999,2590.38
1764505802.820371,1074.825,11676.735,-36203.985,-15606.45,-26405.01,-17043.524999999998,-7089.929999999999,2592.585
1764505802.820371,1072.845,11675.34,-36205.155,-15608.745,-26407.62,-17046.225,-7091.955,2591.055
1764505802.820371,1073.475,11677.545,-36202.77,-15607.215,-26405.325,-17044.245,-7092.9,2590.74
1764505802.820371,1071.585,11679.39,-36197.55,-15599.16,-26391.375,-17028.405,-7090.875,2588.76
1764505802.8650434,1064.34,11665.395,-36215.415,-15607.89,-26391.915,-17024.399999999998,-7088.94,2587.77
1764505802.8650434,1071.54,11674.485,-36206.505,-15603.84,-26399.115,-17038.125,-7093.44,2590.38
1764505802.8650434,1079.595,11688.525,-36189.54,-15595.335,-26399.565,-17041.59,-7095.69,2592.18
1764505802.8650434,1066.905,11670.12,-36208.17,-15611.265,-26406.675,-17039.745,-7092.315,2590.11
1764505802.8650434,1063.395,11661.21,-36219.375,-15618.87,-26411.175,-17044.92,-7092.63,2590.335
1764505802.8650434,1074.555,11675.16,-36206.19,-15610.185,-26406.045,-17046.72,-7090.245,2597.625
1764505802.8650434,1081.98,11686.86,-36193.725,-15598.395,-26396.325,-17040.915,-7090.605,2600.55
1764505802.8650434,1078.47,11684.115,-36194.355,-15594.66,-26386.605,-17028.27,-7092.764999999999,2595.105
1764505802.8650434,1073.745,11679.075,-36199.8,-15598.8,-26394.165,-17039.79,-7095.24,2593.035
1764505802.8650434,1066.995,11670.21,-36210.42,-15616.35,-26417.745,-17056.17,-7098.795,2588.445
1764505802.8650434,1068.705,11672.955,-36206.73,-15615.945,-26417.97,-17056.395,-7101.63,2588.4
1764505802.8650434,1069.2,11673.315,-36207.45,-15612.165,-26410.095,-17048.07,-7100.415,2589.975
1764505802.8650434,1076.22,11679.255,-36200.565,-15604.605,-26403.255,-17041.545,-7097.264999999999,2595.195
1764505802.8650434,1083.24,11689.38,-36187.74,-15595.155,-26396.37,-17037.63,-7096.815,2596.86
1764505802.8650434,1072.8,11681.775,-36193.5,-15595.785,-26390.655,-17026.92,-7098.795,2590.065
1764505802.8650434,1054.08,11652.435,-36228.105,-15620.715,-26407.89,-17036.595,-7099.155,2587.005
1764505802.8650434,1073.34,11675.88,-36205.245,-15608.25,-26404.11,-17038.665,-7102.8,2591.91
1764505802.8650434,1075.365,11677.905,-36202.005,-15607.125,-26407.845,-17048.97,-7100.235,2594.655
1764505802.8650434,1076.535,11678.625,-36202.095,-15609.96,-26411.355,-17053.695,-7101.54,2597.04
1764505802.8650434,1072.665,11676.105,-36203.67,-15610.545,-26407.44,-17046.09,-7103.745,2593.485
1764505802.866552,1074.06,11676.06,-36204.12,-15605.37,-26399.745,-17038.89,-7103.34,2594.88
1764505802.866552,1073.655,11675.43,-36203.715,-15606.9,-26405.46,-17044.515,-7104.825,2593.53
1764505802.866552,1076.49,11674.62,-36206.73,-15608.88,-26404.74,-17042.715,-7103.79,2597.085
1764505802.866552,1075.455,11673.675,-36208.08,-15609.69,-26403.57,-17041.005,-7104.78,2596.23
1764505802.9130926,1077.57,11683.35,-36193.68,-15599.34,-26398.53,-17036.82,-7108.065,2594.16
1764505802.9130926,1088.325,11695.23,-36180.135,-15589.17,-26388.72,-17027.28,-7101.36,2602.17
1764505802.9130926,1092.33,11693.25,-36187.29,-15597.63,-26390.97,-17028.225,-7097.804999999999,2607.795
1764505802.9130926,1086.66,11685.555,-36196.02,-15594.705,-26378.37,-17015.355,-7100.235,2603.52
1764505802.9146206,1079.37,11682.945,-36192.645,-15588.765,-26381.34,-17020.53,-7105.545,2596.005
1764505802.9146206,1079.145,11686.905,-36185.49,-15591.015,-26390.745,-17027.595,-7105.815,2595.42
1764505802.9146206,1074.465,11677.5,-36198.225,-15601.32,-26388.72,-17019.18,-7106.804999999999,2593.53
1764505802.9146206,1074.24,11674.26,-36205.38,-15607.89,-26391.195,-17017.38,-7106.264999999999,2595.78
1764505802.9146206,1077.48,11678.13,-36200.655,-15597.585,-26389.755,-17024.985,-7108.605,2597.355
1764505802.9146206,1091.16,11696.49,-36179.595,-15593.04,-26407.8,-17053.38,-7109.594999999999,2604.105
1764505802.9146206,1085.94,11690.685,-36185.76,-15597.765,-26405.46,-17047.079999999998,-7111.08,2599.74
1764505802.9146206,1084.455,11688.525,-36188.73,-15597.63,-26398.755,-17038.755,-7112.565,2598.255
1764505802.9146206,1089.405,11694.105,-36183.645,-15591.15,-26391.465,-17031.015,-7110.719999999999,2601.405
1764505802.9146206,1083.6,11686.05,-36190.845,-15594.39,-26390.835,-17027.82,-7108.785,2598.435
1764505802.9146206,1082.835,11682.45,-36197.28,-15601.365,-26398.395,-17035.515,-7110.675,2599.425
1764505802.9146206,1087.425,11686.77,-36192.465,-15598.8,-26396.145,-17034.39,-7110.63,2601.72
1764505802.9146206,1090.575,11690.055,-36188.595,-15592.995,-26388.09,-17025.39,-7107.795,2604.87
1764505802.9146206,1095.57,11695.5,-36182.43,-15586.245,-26380.44,-17017.695,-7105.455,2609.28
1764505802.9146206,1097.37,11697.21,-36180.315,-15583.095,-26376.795,-17012.79,-7105.005,2611.08
1764505802.9146206,1098.135,11696.445,-36181.215,-15584.355,-26374.41,-17007.795,-7105.32,2611.26
1764505802.9146206,1100.88,11699.73,-36177.795,-15581.88,-26369.685,-17001.809999999998,-7107.389999999999,2610.495
1764505802.9146206,1098.72,11695.32,-36180.855,-15581.745,-26368.38,-17000.1,-7105.724999999999,2611.215
1764505802.9600017,1099.125,11693.97,-36181.89,-15580.215,-26369.325,-17003.295,-7107.929999999999,2611.17
1764505802.9600017,1113.435,11712.645,-36162.855,-15568.02,-26366.31,-17009.505,-7112.52,2614.68
1764505802.9600017,1106.46,11703.96,-36166.995,-15557.94,-26349.705,-16989.66,-7108.335,2613.87
1764505802.9600017,1104.345,11697.255,-36176.13,-15567.165,-26358.435,-16993.079999999998,-7110.045,2614.095
1764505802.9600017,1114.11,11704.05,-36175.095,-15582.645,-26381.475,-17019.045,-7110.179999999999,2620.89
1764505802.9600017,1113.885,11702.61,-36177.57,-15581.88,-26379.09,-17018.595,-7111.844999999999,2619.405
1764505802.9600017,1118.745,11708.28,-36169.875,-15571.89,-26369.595,-17008.335,-7107.3,2623.77
1764505802.9600017,1117.1699999999998,11704.995,-36173.835,-15578.46,-26379.18,-17020.215,-7111.08,2622.735
1764505802.9600017,1119.78,11706.57,-36173.565,-15580.53,-26382.87,-17025.03,-7114.32,2624.22
1764505802.9600017,1115.505,11702.16,-36177.48,-15581.835,-26380.575,-17018.73,-7116.705,2620.71
1764505802.9600017,1119.825,11705.985,-36173.295,-15576.03,-26374.365,-17012.565,-7114.32,2623.95
1764505802.9600017,1123.335,11708.37,-36170.55,-15573.285,-26370.63,-17009.28,-7113.06,2626.155
1764505802.9609954,1126.71,11710.845,-36168.885,-15571.35,-26366.85,-17004.239999999998,-7110.09,2629.305
1764505802.9609954,1124.505,11706.93,-36172.17,-15574.455,-26365.635,-17001.675,-7110.9,2627.145
1764505802.9609954,1118.43,11703.195,-36174.735,-15570.855,-26363.565,-16999.559999999998,-7117.514999999999,2619.045
1764505802.9609954,1129.41,11714.355,-36163.17,-15567.075,-26368.56,-17011.35,-7114.679999999999,2628.18
1764505802.9609954,1130.49,11714.4,-36162.855,-15564.285,-26362.215,-17001.63,-7113.24,2629.845
1764505802.9609954,1128.33,11710.845,-36166.77,-15564.15,-26358.165,-16994.655,-7112.429999999999,2628.855
1764505802.9609954,1126.35,11709.09,-36170.28,-15570.765,-26363.205,-16998.614999999998,-7114.5,2626.11
1764505802.9609954,1129.68,11712.285,-36166.365,-15568.47,-26362.575,-17000.055,-7114.094999999999,2629.035
1764505802.9609954,1138.32,11720.34,-36157.86,-15562.35,-26360.415,-16999.965,-7110.9,2634.57
1764505802.9609954,1137.735,11719.08,-36158.13,-15562.755,-26361.045,-17000.325,-7112.745,2632.545
1764505803.0057168,1137.105,11717.1,-36159.39,-15561.09,-26357.58,-16995.42,-7112.925,2632.545
1764505803.0057168,1128.96,11709.09,-36165.87,-15567.48,-26363.115,-17000.91,-7116.929999999999,2626.785
1764505803.0057168,1133.235,11712.195,-36165.825,-15567.57,-26361.855,-16998.84,-7116.03,2630.025
1764505803.0057168,1134.54,11712.735,-36166.995,-15565.005,-26356.455,-16991.595,-7113.42,2631.105
1764505803.0057168,1134.855,11713.455,-36164.745,-15562.305,-26352.09,-16985.565,-7109.73,2630.97
1764505803.0057168,1140.255,11722.455,-36153.18,-15558.75,-26357.535,-16994.52,-7112.925,2632.86
1764505803.0057168,1146.195,11730.375,-36143.955,-15551.82,-26348.67,-16983.315,-7109.91,2637.045
1764505803.0057168,1142.01,11722.32,-36151.245,-15550.065,-26339.805,-16972.515,-7107.525,2635.38
1764505803.0057168,1140.705,11716.605,-36160.74,-15556.275,-26348.58,-16985.07,-7111.08,2635.11
1764505803.0057168,1151.37,11732.13,-36146.34,-15555.24,-26357.58,-16997.94,-7110.945,2640.285
1764505803.0057168,1147.095,11726.595,-36150.57,-15555.465,-26351.82,-16988.535,-7110.09,2638.125
1764505803.0057168,1143.81,11723.535,-36153.135,-15558.84,-26351.505,-16987.68,-7112.384999999999,2634.03
1764505803.0057168,1145.07,11724.93,-36150.93,-15554.655,-26343.18,-16977.69,-7111.53,2634.975
1764505803.0057168,1144.485,11722.275,-36154.125,-15550.065,-26338.095,-16970.895,-7109.82,2635.47
1764505803.0057168,1144.98,11725.56,-36150.39,-15553.575,-26347.815,-16980.57,-7113.78,2632.545
1764505803.0067372,1147.095,11728.485,-36148.05,-15548.67,-26339.49,-16970.445,-7109.82,2634.75
1764505803.0067372,1138.365,11711.7,-36166.455,-15565.455,-26360.73,-16993.215,-7109.325,2635.065
1764505803.0067372,1158.7949999999998,11736.405,-36140.805,-15547.455,-26349.435,-16988.985,-7105.365,2646.405
1764505803.0067372,1154.655,11732.445,-36144.9,-15546.555,-26340.615,-16975.35,-7104.285,2643.39
1764505803.0067372,1150.56,11732.85,-36141.75,-15543.135,-26342.235,-16978.77,-7111.62,2636.595
1764505803.0067372,1158.975,11744.46,-36126.0,-15530.58,-26333.595,-16971.03,-7108.11,2641.545
1764505803.0067372,1147.185,11724.3,-36152.55,-15553.08,-26343.99,-16970.625,-7107.795,2636.91
1764505803.0067372,1149.3,11724.21,-36158.265,-15562.17,-26353.755,-16982.055,-7108.155,2639.655
1764505803.0067372,1157.445,11735.865,-36142.83,-15544.575,-26342.37,-16982.28,-7108.469999999999,2643.885
1764505803.0498729,1155.4199999999998,11734.605,-36141.615,-15543.405,-26343.9,-16984.53,-7110.179999999999,2640.78
1764505803.0498729,1155.555,11734.785,-36140.04,-15545.475,-26346.915,-16984.26,-7109.19,2640.78
1764505803.0498729,1160.64,11739.69,-36135.63,-15542.595,-26342.73,-16978.184999999998,-7105.995,2644.695
1764505803.0498729,1160.64,11738.745,-36135.72,-15539.895,-26336.88,-16972.065,-7105.545,2644.515
1764505803.0498729,1160.415,11738.16,-36136.665,-15540.75,-26336.52,-16971.03,-7106.759999999999,2643.255
1764505803.0498729,1155.555,11733.345,-36141.705,-15546.555,-26342.28,-16976.114999999998,-7112.07,2638.17
1764505803.0498729,1155.51,11732.895,-36141.885,-15547.185,-26343.405,-16977.195,-7113.42,2638.53
1764505803.0508866,1158.84,11735.91,-36140.445,-15544.89,-26341.695,-16976.295,-7111.62,2641.41
1764505803.0508866,1160.145,11736.09,-36140.49,-15546.15,-26343.765,-16979.085,-7111.665,2641.68
1764505803.0508866,1160.145,11736.63,-36139.995,-15545.52,-26342.73,-16977.96,-7111.665,2641.635
1764505803.0508866,1161.765,11739.105,-36136.665,-15540.255,-26335.755,-16971.12,-7109.415,2643.255
1764505803.0508866,1162.755,11740.59,-36133.605,-15535.395,-26330.22,-16965.765,-7108.92,2642.985
1764505803.0508866,1165.5,11744.28,-36128.475,-15529.23,-26324.415,-16959.915,-7107.84,2644.155
1764505803.0508866,1167.345,11746.08,-36127.44,-15527.43,-26320.095,-16953.12,-7104.465,2646.72
1764505803.0508866,1169.685,11747.385,-36128.565,-15528.105,-26319.42,-16948.62,-7101.27,2650.095
1764505803.0508866,1167.705,11744.64,-36132.48,-15533.055,-26325.315,-16955.01,-7104.105,2648.295
1764505803.0508866,1164.15,11740.545,-36138.735,-15541.155,-26336.34,-16968.555,-7107.929999999999,2645.37
1764505803.0508866,1163.52,11738.475,-36142.515,-15546.06,-26343.54,-16977.329999999998,-7110.405,2644.11
1764505803.0508866,1170.0,11743.335,-36137.925,-15542.37,-26340.21,-16974.765,-7108.335,2649.465
1764505803.0508866,1162.89,11738.115,-36140.58,-15543.99,-26338.635,-16971.21,-7113.24,2642.22
1764505803.0508866,1161.135,11737.485,-36143.19,-15547.815,-26342.055,-16975.215,-7116.389999999999,2639.07
1764505803.0508866,1167.255,11739.51,-36144.72,-15543.855,-26336.88,-16971.255,-7111.62,2646.585
1764505803.0508866,1168.38,11742.615,-36138.735,-15539.535,-26335.71,-16969.23,-7112.745,2644.56
1764505803.0508866,1160.505,11735.145,-36144.36,-15546.24,-26345.7,-16981.2,-7114.95,2640.87
1764505803.0995646,1167.345,11742.165,-36136.575,-15542.01,-26345.07,-16981.065,-7114.77,2645.595
1764505803.0995646,1171.98,11746.08,-36133.38,-15539.22,-26340.03,-16975.62,-7113.645,2647.845
1764505803.0995646,1166.985,11741.265,-36138.285,-15542.28,-26342.19,-16979.489999999998,-7114.995,2643.12
1764505803.0995646,1164.285,11738.7,-36140.355,-15542.865,-26342.46,-16978.59,-7115.625,2641.365
1764505803.1005912,1167.48,11741.58,-36137.88,-15539.85,-26338.68,-16973.954999999998,-7114.139999999999,2643.885
1764505803.1005912,1165.59,11739.465,-36140.13,-15541.83,-26339.58,-16974.899999999998,-7114.86,2641.545
1764505803.1005912,1165.635,11740.725,-36139.14,-15540.615,-26338.005,-16973.595,-7113.78,2642.355
1764505803.1005912,1166.13,11741.265,-36139.23,-15539.76,-26336.97,-16971.795,-7113.014999999999,2642.76
1764505803.1016357,1166.85,11741.625,-36139.455,-15540.255,-26334.63,-16967.16,-7111.259999999999,2643.795
1764505803.1016357,1168.695,11741.76,-36140.04,-15540.03,-26325.27,-16952.445,-7104.42,2647.305
1764505803.1016357,1162.71,11733.03,-36148.095,-15537.42,-26313.705,-16938.0,-7102.665,2643.66
1764505803.1016357,1165.41,11744.46,-36130.815,-15525.405,-26318.79,-16952.715,-7113.42,2638.665
1764505803.1016357,1180.71,11768.355,-36103.86,-15516.45,-26322.795,-16962.3,-7111.395,2646.405
1764505803.102629,1161.63,11737.8,-36142.155,-15542.145,-26330.445,-16959.69,-7111.349999999999,2638.755
1764505803.102629,1156.68,11726.01,-36156.105,-15552.135,-26344.08,-16974.989999999998,-7109.82,2639.43
1764505803.102629,1171.035,11745.99,-36132.705,-15540.345,-26345.34,-16985.745,-7110.045,2645.595
1764505803.102629,1170.855,11748.06,-36130.32,-15537.69,-26341.38,-16979.715,-7107.255,2646.225
1764505803.102629,1166.085,11743.47,-36134.865,-15541.425,-26343.27,-16979.94,-7108.695,2642.13
1764505803.1036289,1164.735,11740.68,-36137.655,-15543.315,-26341.11,-16976.25,-7108.514999999999,2641.545
1764505803.1036289,1168.065,11743.83,-36134.19,-15539.445,-26336.835,-16972.2,-7105.905,2644.425
1764505803.1036289,1167.885,11744.37,-36133.38,-15538.455,-26337.06,-16972.739999999998,-7104.915,2644.065
1764505803.1036289,1162.305,11739.87,-36138.375,-15543.045,-26340.75,-16975.575,-7107.705,2639.835
1764505803.1036289,1161.45,11739.555,-36138.735,-15543.27,-26339.67,-16973.684999999998,-7106.804999999999,2639.655
1764505803.1036289,1160.28,11737.98,-36139.23,-15544.44,-26339.895,-16973.64,-7107.615,2638.8
1764505803.1465206,1160.55,11737.935,-36139.185,-15544.53,-26340.3,-16973.145,-7107.615,2638.62
1764505803.1465206,1163.385,11740.05,-36136.89,-15541.65,-26337.42,-16970.309999999998,-7105.094999999999,2641.32
1764505803.1465206,1162.935,11741.31,-36135.63,-15541.02,-26335.755,-16970.175,-7105.139999999999,2641.23
1764505803.1465206,1163.97,11744.82,-36132.075,-15536.34,-26332.38,-16971.21,-7105.185,2641.05
1764505803.1465206,1166.4,11748.96,-36126.18,-15530.04,-26326.755,-16968.825,-7104.24,2642.67
1764505803.1465206,1164.195,11746.125,-36127.845,-15532.785,-26329.365,-16970.489999999998,-7104.645,2641.815
1764505803.1465206,1153.755,11732.895,-36143.19,-15546.915,-26338.005,-16969.14,-7107.21,2634.705
1764505803.1465206,1146.15,11723.805,-36153.405,-15556.68,-26345.34,-16972.695,-7111.17,2628.045
1764505803.1465206,1147.5,11725.38,-36151.335,-15555.24,-26343.9,-16972.965,-7110.945,2629.035
1764505803.1476195,1145.97,11725.155,-36151.965,-15555.24,-26344.395,-16975.079999999998,-7112.429999999999,2627.82
1764505803.1476195,1144.8,11724.21,-36152.28,-15553.485,-26342.73,-16973.774999999998,-7113.42,2627.28
1764505803.1476195,1147.905,11726.595,-36150.165,-15549.705,-26341.11,-16972.425,-7110.81,2630.34
1764505803.1476195,1151.28,11730.06,-36146.565,-15551.1,-26345.97,-16977.51,-7110.179999999999,2631.42
1764505803.1476195,1152.45,11731.815,-36145.62,-15550.92,-26344.89,-16977.149999999998,-7109.82,2631.96
1764505803.1476195,1151.46,11730.51,-36145.755,-15550.02,-26342.955,-16974.315,-7109.775,2631.285
1764505803.1476195,1151.19,11730.6,-36144.495,-15548.76,-26341.02,-16971.795,-7109.28,2630.745
1764505803.1476195,1151.91,11731.005,-36144.045,-15547.815,-26339.985,-16970.579999999998,-7108.695,2631.375
1764505803.1476195,1148.805,11728.17,-36147.015,-15550.695,-26342.01,-16974.09,-7111.304999999999,2627.685
1764505803.1476195,1149.435,11729.295,-36145.935,-15549.12,-26340.39,-16973.415,-7110.719999999999,2628.45
1764505803.1476195,1152.36,11731.905,-36142.965,-15545.7,-26336.295,-16971.84,-7110.09,2630.385
1764505803.1476195,1158.03,11737.305,-36136.08,-15537.87,-26326.26,-16962.434999999998,-7106.445,2634.885
1764505803.1476195,1152.135,11731.86,-36140.265,-15539.94,-26327.16,-16960.32,-7109.55,2628.135
1764505803.1476195,1141.335,11720.88,-36153.72,-15557.175,-26340.84,-16965.765,-7114.185,2618.775
1764505803.1476195,1143.135,11716.83,-36162.54,-15564.825,-26346.375,-16974.675,-7109.145,2625.48
1764505803.1920269,1149.12,11723.31,-36158.625,-15559.425,-26345.205,-16977.465,-7112.655,2627.46
1764505803.1920269,1157.49,11742.21,-36128.115,-15540.885,-26331.75,-16964.64,-7111.259999999999,2629.98
1764505803.1920269,1143.0449999999998,11720.43,-36150.345,-15547.5,-26326.215,-16955.91,-7107.12,2625.615
1764505803.1930475,1152.99,11732.625,-36138.825,-15535.8,-26329.005,-16967.114999999998,-7110.09,2627.505
1764505803.1930475,1150.11,11727.765,-36146.97,-15561.135,-26370.945,-17011.71,-7114.59,2629.08
1764505803.1930475,1153.62,11730.465,-36148.005,-15565.995,-26374.905,-17014.32,-7115.49,2630.79
1764505803.1940444,1160.955,11738.295,-36138.915,-15553.89,-26359.065,-16999.245,-7106.804999999999,2637.09
1764505803.1940444,1154.34,11730.42,-36147.42,-15558.39,-26358.75,-16995.329999999998,-7107.615,2632.86
1764505803.1940444,1153.08,11729.205,-36147.42,-15557.4,-26356.23,-16991.684999999998,-7108.335,2631.645
1764505803.1940444,1153.305,11728.62,-36147.015,-15556.32,-26354.25,-16989.614999999998,-7109.505,2629.935
1764505803.1940444,1150.965,11726.01,-36149.895,-15557.715,-26353.845,-16988.265,-7111.304999999999,2626.29
1764505803.1940444,1151.82,11728.08,-36148.095,-15554.52,-26349.615,-16983.27,-7109.73,2627.865
1764505803.1940444,1156.05,11731.86,-36144.315,-15549.525,-26344.035,-16977.465,-7105.679999999999,2631.96
1764505803.1940444,1152.765,11729.025,-36146.295,-15550.74,-26342.64,-16975.17,-7107.884999999999,2628.18
1764505803.1940444,1155.15,11731.545,-36142.605,-15543.81,-26331.48,-16962.48,-7104.465,2631.42
1764505803.1940444,1151.91,11726.145,-36152.64,-15549.75,-26328.105,-16957.305,-7105.365,2629.8
1764505803.1940444,1151.1,11725.11,-36153.405,-15548.22,-26329.86,-16961.445,-7106.985,2628.855
1764505803.1940444,1153.485,11731.86,-36142.335,-15545.79,-26336.205,-16967.79,-7106.04,2627.775
1764505803.1953566,1150.74,11728.125,-36146.745,-15549.615,-26343.54,-16977.825,-7108.74,2624.445
1764505803.1953566,1159.515,11735.01,-36141.39,-15551.46,-26349.84,-16986.42,-7107.435,2631.87
1764505803.1953566,1161.18,11733.615,-36143.82,-15551.415,-26342.685,-16974.225,-7103.115,2634.975
1764505803.1953566,1150.155,11726.145,-36149.355,-15548.67,-26336.295,-16967.34,-7107.66,2625.84
1764505803.1953566,1159.335,11736.81,-36137.7,-15543.72,-26342.28,-16981.065,-7105.59,2631.105
1764505803.1953566,1164.105,11741.355,-36132.75,-15540.93,-26338.5,-16979.535,-7104.96,2633.04
1764505803.24309,1152.585,11726.145,-36148.995,-15551.73,-26343.63,-16979.13,-7109.235,2625.84
1764505803.24309,1152.72,11723.445,-36153.81,-15555.555,-26349.39,-16980.885,-7108.695,2627.73
1764505803.24309,1159.695,11733.03,-36143.64,-15550.605,-26349.525,-16984.71,-7107.75,2631.42
1764505803.24309,1156.77,11729.835,-36146.97,-15552.27,-26348.94,-16982.954999999998,-7108.11,2629.53
1764505803.24309,1156.455,11730.33,-36147.645,-15551.64,-26347.185,-16980.614999999998,-7108.29,2628.72
1764505803.24309,1158.705,11732.58,-36145.305,-15546.06,-26334.36,-16964.595,-7105.634999999999,2628.18
1764505803.24309,1151.955,11722.455,-36154.53,-15548.04,-26325.045,-16948.89,-7103.925,2624.535
1764505803.24309,1142.19,11709.45,-36165.42,-15552.045,-26328.465,-16951.635,-7108.785,2619.27
1764505803.24309,1158.975,11735.19,-36137.43,-15547.59,-26353.665,-16992.0,-7112.429999999999,2627.82
1764505803.24309,1164.87,11740.32,-36135.765,-15552.99,-26361.405,-16999.92,-7113.645,2630.115
1764505803.24309,1163.16,11736.63,-36142.29,-15556.815,-26354.43,-16988.085,-7114.679999999999,2627.73
1764505803.24309,1149.435,11720.61,-36156.24,-15557.535,-26344.17,-16974.18,-7114.545,2620.935
1764505803.24309,1146.87,11716.02,-36157.59,-15547.545,-26329.905,-16958.565,-7108.514999999999,2622.285
1764505803.24309,1159.965,11729.655,-36147.915,-15551.775,-26352.09,-16989.885,-7112.655,2628.27
1764505803.24309,1169.91,11743.065,-36132.12,-15550.11,-26356.275,-16996.23,-7107.57,2635.29
1764505803.24309,1154.205,11718.585,-36161.91,-15565.23,-26351.145,-16977.69,-7107.12,2629.395
1764505803.24309,1147.05,11712.96,-36167.22,-15566.22,-26354.205,-16979.355,-7111.304999999999,2622.735
1764505803.24309,1154.115,11725.965,-36151.695,-15559.92,-26361.585,-16994.745,-7113.825,2624.31
1764505803.2441185,1166.31,11739.015,-36136.53,-15545.07,-26349.975,-16987.23,-7110.63,2632.275
1764505803.2441185,1163.835,11736.81,-36139.365,-15542.55,-26340.615,-16977.149999999998,-7112.655,2629.8
1764505803.2441185,1154.79,11728.755,-36145.755,-15545.295,-26339.265,-16972.649999999998,-7113.285,2623.185
1764505803.2441185,1157.13,11728.755,-36146.655,-15551.01,-26346.33,-16977.825,-7108.92,2626.515
1764505803.2441185,1151.37,11722.77,-36154.17,-15561.54,-26357.715,-16992.27,-7115.355,2620.98
1764505803.2441185,1154.925,11728.71,-36145.845,-15549.435,-26343.72,-16977.375,-7115.219999999999,2619.945
1764505803.2887974,1157.6699999999998,11728.035,-36148.005,-15548.715,-26340.57,-16973.01,-7114.23,2623.95
1764505803.2887974,1155.51,11720.835,-36158.49,-15560.415,-26348.625,-16978.005,-7112.07,2625.345
1764505803.2887974,1158.03,11719.98,-36163.62,-15560.19,-26344.215,-16972.739999999998,-7106.535,2629.305
1764505803.2887974,1151.01,11713.635,-36170.64,-15567.435,-26347.995,-16972.245,-7108.11,2623.635
1764505803.2898118,1147.095,11717.685,-36160.605,-15560.82,-26340.795,-16962.03,-7113.014999999999,2617.425
1764505803.2898118,1144.44,11717.055,-36154.305,-15558.345,-26348.445,-16976.204999999998,-7117.514999999999,2614.095
1764505803.2898118,1157.31,11734.11,-36138.78,-15546.15,-26346.42,-16981.829999999998,-7118.37,2619.18
1764505803.2898118,1160.055,11737.53,-36134.955,-15535.44,-26331.48,-16965.675,-7114.005,2621.835
1764505803.2898118,1153.035,11717.865,-36161.145,-15563.745,-26359.74,-16989.75,-7110.315,2627.325
1764505803.2898118,1166.31,11736.0,-36139.185,-15550.38,-26354.16,-16992.09,-7111.8,2631.375
1764505803.2898118,1166.625,11740.32,-36131.715,-15540.165,-26342.28,-16981.38,-7113.014999999999,2626.785
1764505803.2898118,1160.19,11729.475,-36146.79,-15554.565,-26351.46,-16986.015,-7113.42,2623.815
1764505803.2898118,1162.395,11731.77,-36145.215,-15549.03,-26338.32,-16965.54,-7113.69,2622.285
1764505803.2898118,1159.875,11725.875,-36149.535,-15548.94,-26337.555,-16965.315,-7109.145,2625.66
1764505803.2898118,1166.805,11736.27,-36135.54,-15532.965,-26322.075,-16949.655,-7104.69,2630.07
1764505803.2898118,1173.285,11751.57,-36118.98,-15527.34,-26323.92,-16954.695,-7108.425,2629.755
1764505803.2898118,1156.815,11724.57,-36149.895,-15551.415,-26334.945,-16957.215,-7107.75,2625.57
1764505803.2898118,1148.58,11712.51,-36165.915,-15556.545,-26324.685,-16941.645,-7110.495,2617.83
1764505803.2918303,1161.81,11726.55,-36155.205,-15554.655,-26342.415,-16979.04,-7112.655,2625.3
1764505803.2918303,1173.105,11743.11,-36130.365,-15547.455,-26357.13,-16997.445,-7111.889999999999,2630.88
1764505803.2918303,1169.235,11742.525,-36123.84,-15539.355,-26346.555,-16979.489999999998,-7108.83,2626.92
1764505803.2918303,1158.03,11725.83,-36144.09,-15551.55,-26349.21,-16979.445,-7110.585,2623.59
1764505803.2918303,1159.605,11725.38,-36150.12,-15560.145,-26358.525,-16991.82,-7113.96,2624.175
1764505803.2918303,1166.13,11732.895,-36144.72,-15557.58,-26356.365,-16990.29,-7114.365,2627.145
1764505803.338499,1165.635,11733.3,-36144.09,-15554.88,-26350.065,-16980.12,-7112.16,2625.57
1764505803.338499,1154.07,11724.795,-36149.985,-15552.945,-26345.115,-16973.954999999998,-7116.57,2614.905
1764505803.338499,1155.195,11722.095,-36159.075,-15563.7,-26356.995,-16989.3,-7118.009999999999,2619.45
1764505803.338499,1158.21,11724.795,-36157.455,-15566.22,-26354.115,-16985.43,-7116.12,2621.34
1764505803.338499,1151.55,11722.32,-36152.235,-15556.005,-26333.82,-16959.239999999998,-7112.295,2615.895
1764505803.338499,1144.575,11715.93,-36158.49,-15560.19,-26341.785,-16971.66,-7115.804999999999,2611.17
1764505803.338499,1142.685,11712.78,-36163.53,-15572.385,-26367.345,-17001.585,-7122.915,2608.65
1764505803.338499,1159.425,11734.38,-36138.735,-15558.03,-26365.14,-17004.735,-7119.54,2618.19
1764505803.338499,1156.32,11729.88,-36143.955,-15557.58,-26354.475,-16990.065,-7116.57,2617.02
1764505803.338499,1153.395,11727.18,-36148.86,-15558.615,-26351.865,-16985.745,-7116.3,2615.895
1764505803.338499,1153.08,11726.595,-36150.57,-15558.885,-26351.055,-16984.35,-7116.615,2615.445
1764505803.338499,1146.645,11720.16,-36157.59,-15566.67,-26353.665,-16985.295,-7120.259999999999,2609.37
1764505803.338499,1144.08,11717.64,-36160.29,-15567.93,-26351.64,-16981.605,-7119.63,2608.29
1764505803.338499,1144.71,11716.92,-36161.82,-15565.725,-26348.625,-16978.095,-7117.245,2609.595
1764505803.338499,1152.135,11728.08,-36147.78,-15560.145,-26355.195,-16991.28,-7117.245,2613.42
1764505803.338499,1150.335,11725.83,-36149.76,-15562.305,-26355.15,-16990.829999999998,-7117.065,2612.295
1764505803.338499,1150.9199999999998,11726.325,-36149.67,-15561.0,-26351.46,-16984.98,-7114.679999999999,2614.05
1764505803.338499,1147.32,11722.455,-36152.505,-15563.7,-26352.54,-16984.755,-7115.804999999999,2610.585
1764505803.338499,1149.12,11724.435,-36150.12,-15560.19,-26347.545,-16978.905,-7113.78,2613.42
1764505803.338499,1147.185,11722.86,-36151.02,-15560.46,-26347.635,-16978.59,-7114.905,2610.81
1764505803.338499,1150.47,11726.82,-36146.79,-15556.005,-26343.315,-16974.765,-7112.655,2613.555
1764505803.338499,1147.905,11724.705,-36147.915,-15558.255,-26344.845,-16977.645,-7114.77,2610.225
1764505803.3833537,1142.055,11717.415,-36157.68,-15569.37,-26353.395,-16983.899999999998,-7117.695,2605.185
1764505803.3833537,1138.095,11712.78,-36164.295,-15575.49,-26356.14,-16981.695,-7119.405,2601.855
1764505803.3843477,1134.0,11708.415,-36167.04,-15572.295,-26353.53,-16980.57,-7121.34,2599.56
1764505803.3843477,1137.4199999999998,11713.68,-36160.065,-15570.27,-26360.505,-16994.07,-7120.035,2602.62
1764505803.3843477,1143.405,11719.395,-36158.13,-15571.8,-26362.575,-16996.454999999998,-7116.344999999999,2608.785
1764505803.3843477,1145.025,11722.095,-36154.755,-15568.38,-26358.255,-16991.19,-7115.264999999999,2609.415
1764505803.3843477,1142.37,11719.98,-36154.08,-15565.05,-26352.45,-16983.945,-7114.679999999999,2607.66
1764505803.3843477,1144.62,11723.445,-36149.58,-15559.38,-26344.305,-16974.27,-7111.259999999999,2609.64
1764505803.3843477,1147.5,11726.685,-36145.62,-15555.87,-26338.95,-16966.89,-7108.02,2612.835
1764505803.3853507,1145.655,11726.37,-36147.555,-15558.03,-26340.93,-16968.42,-7111.575,2610.045
1764505803.3853507,1144.44,11726.505,-36146.88,-15559.74,-26344.08,-16973.46,-7115.58,2606.625
1764505803.3853507,1133.595,11710.395,-36163.215,-15572.655,-26354.565,-16982.19,-7115.49,2603.34
1764505803.3853507,1138.455,11715.795,-36158.985,-15570.045,-26349.795,-16981.829999999998,-7116.03,2607.255
1764505803.3853507,1146.375,11728.035,-36145.485,-15554.565,-26329.86,-16964.1,-7113.24,2610.135
1764505803.3853507,1130.535,11707.02,-36167.94,-15565.59,-26339.22,-16967.43,-7117.02,2600.685
1764505803.3853507,1134.945,11711.565,-36165.105,-15579.765,-26373.915,-17010.045,-7120.665,2605.095
1764505803.3853507,1136.88,11713.995,-36163.305,-15583.95,-26377.605,-17009.595,-7119.675,2606.31
1764505803.3853507,1138.455,11717.19,-36160.92,-15578.37,-26366.67,-16996.77,-7117.469999999999,2607.57
1764505803.3853507,1142.595,11721.33,-36157.815,-15571.71,-26360.595,-16992.72,-7115.849999999999,2611.08
1764505803.3853507,1141.74,11722.005,-36156.15,-15573.735,-26366.175,-16999.739999999998,-7117.83,2609.865
1764505803.3853507,1137.33,11716.155,-36162.045,-15577.515,-26365.005,-16997.355,-7118.91,2607.255
1764505803.3853507,1135.485,11714.805,-36163.125,-15578.37,-26363.025,-16994.61,-7120.395,2604.87
1764505803.4292922,1138.68,11718.675,-36158.805,-15573.105,-26356.905,-16986.735,-7116.884999999999,2606.715
1764505803.4292922,1137.87,11716.605,-36161.46,-15573.69,-26356.59,-16984.98,-7114.995,2608.245
1764505803.4292922,1141.02,11721.42,-36154.395,-15567.84,-26355.915,-16990.29,-7116.12,2609.685
1764505803.4292922,1141.11,11721.69,-36154.665,-15568.83,-26355.69,-16990.559999999998,-7117.02,2609.955
1764505803.4292922,1139.625,11720.16,-36157.365,-15571.26,-26355.555,-16987.68,-7117.469999999999,2609.685
1764505803.4292922,1141.695,11722.095,-36155.88,-15569.64,-26353.62,-16985.565,-7117.02,2611.575
1764505803.4292922,1143.54,11723.985,-36155.34,-15565.59,-26346.825,-16978.905,-7113.375,2614.14
1764505803.4292922,1137.555,11714.715,-36166.5,-15574.14,-26353.8,-16985.745,-7115.58,2609.685
1764505803.4292922,1139.355,11717.28,-36162.225,-15571.755,-26351.64,-16982.55,-7113.69,2610.765
1764505803.4292922,1146.555,11732.76,-36140.355,-15558.525,-26344.395,-16978.364999999998,-7117.29,2610.855
1764505803.4292922,1144.08,11730.69,-36140.94,-15559.605,-26341.245,-16972.245,-7116.57,2609.37
1764505803.4292922,1120.905,11696.985,-36180.45,-15584.895,-26353.53,-16975.8,-7117.92,2600.145
1764505803.4292922,1138.41,11714.625,-36164.88,-15574.95,-26352.27,-16982.64,-7114.275,2612.115
1764505803.4292922,1145.61,11726.955,-36148.005,-15566.22,-26357.085,-16994.7,-7117.695,2612.295
1764505803.4292922,1143.27,11723.58,-36150.975,-15569.865,-26354.97,-16987.005,-7116.165,2612.205
1764505803.4292922,1142.055,11718.045,-36161.415,-15575.58,-26348.445,-16975.395,-7111.215,2614.77
1764505803.4292922,1146.87,11722.05,-36156.555,-15566.04,-26336.25,-16960.095,-7105.95,2618.46
1764505803.4292922,1150.965,11734.11,-36137.655,-15548.625,-26330.04,-16960.005,-7107.795,2617.38
1764505803.4292922,1147.32,11731.995,-36140.715,-15556.59,-26343.63,-16980.255,-7111.935,2615.085
1764505803.4292922,1142.82,11722.095,-36154.98,-15568.92,-26349.84,-16981.155,-7111.889999999999,2613.375
1764505803.4292922,1140.48,11718.855,-36159.03,-15571.395,-26354.745,-16987.635,-7115.04,2611.305
1764505803.4302883,1147.41,11727.9,-36148.635,-15568.47,-26358.345,-16993.53,-7112.745,2614.86
1764505803.4302883,1147.185,11726.46,-36149.805,-15565.455,-26350.47,-16983.315,-7110.045,2615.085
1764505803.4302883,1152.405,11734.335,-36142.11,-15559.65,-26343.945,-16977.059999999998,-7111.215,2616.12
1764505803.4747176,1150.11,11734.875,-36138.465,-15552.765,-26330.265,-16962.48,-7110.134999999999,2613.78
1764505803.4747176,1137.555,11713.95,-36160.29,-15556.545,-26320.995,-16946.145,-7104.78,2612.115
1764505803.4747176,1148.22,11725.47,-36149.94,-15556.005,-26334.72,-16964.864999999998,-7109.91,2616.885
1764505803.4747176,1152.765,11733.255,-36139.77,-15559.47,-26351.145,-16985.97,-7109.594999999999,2618.955
1764505803.4747176,1151.595,11730.42,-36144.9,-15560.55,-26345.745,-16977.915,-7107.974999999999,2618.955
1764505803.4757404,1152.765,11732.085,-36142.56,-15557.76,-26341.335,-16972.515,-7107.435,2619.135
1764505803.4757404,1153.575,11734.065,-36140.175,-15555.735,-26339.04,-16969.364999999998,-7106.759999999999,2619.405
1764505803.4757404,1147.185,11724.075,-36150.48,-15561.63,-26338.005,-16963.29,-7106.219999999999,2616.795
1764505803.4757404,1148.6699999999998,11725.065,-36149.76,-15556.95,-26331.84,-16958.024999999998,-7105.5,2617.47
1764505803.4757404,1153.62,11729.16,-36145.305,-15556.365,-26339.31,-16969.364999999998,-7103.474999999999,2622.195
1764505803.4757404,1161.18,11737.53,-36139.455,-15562.665,-26348.67,-16978.995,-7102.08,2628.225
1764505803.4757404,1155.06,11729.79,-36147.78,-15564.465,-26347.32,-16978.59,-7104.15,2623.5
1764505803.4757404,1161.0449999999998,11737.395,-36138.33,-15555.24,-26344.62,-16979.715,-7103.34,2627.685
1764505803.4757404,1162.215,11740.41,-36135.18,-15554.565,-26344.44,-16979.489999999998,-7105.094999999999,2626.65
1764505803.4757404,1162.575,11740.545,-36136.215,-15552.36,-26340.12,-16974.855,-7105.275,2625.885
1764505803.4757404,1162.305,11738.97,-36137.565,-15552.495,-26338.545,-16972.38,-7105.05,2626.2
1764505803.4757404,1155.825,11731.185,-36145.98,-15560.865,-26344.89,-16974.405,-7107.435,2621.655
1764505803.4757404,1157.13,11731.905,-36145.215,-15560.145,-26342.595,-16970.625,-7105.679999999999,2624.22
1764505803.4757404,1157.445,11732.58,-36144.09,-15559.47,-26344.305,-16973.505,-7107.435,2623.545
1764505803.4757404,1161.18,11735.325,-36140.58,-15556.68,-26341.02,-16970.895,-7106.219999999999,2625.66
1764505803.4757404,1158.885,11732.715,-36143.235,-15557.22,-26338.185,-16965.675,-7104.33,2624.715
1764505803.4757404,1162.62,11735.775,-36142.65,-15554.745,-26333.685,-16960.41,-7100.054999999999,2629.035
1764505803.4757404,1165.41,11737.845,-36142.605,-15554.79,-26333.145,-16958.655,-7098.48,2631.06
1764505803.4757404,1165.05,11740.005,-36139.005,-15554.25,-26332.875,-16958.835,-7103.205,2628.585
1764505803.5232158,1169.145,11742.705,-36137.025,-15551.865,-26325.63,-16947.72,-7101.405,2631.33
1764505803.5232158,1169.055,11748.195,-36123.615,-15537.42,-26311.275,-16934.399999999998,-7100.37,2629.53
1764505803.5232158,1156.635,11729.07,-36147.69,-15555.015,-26328.87,-16954.155,-7100.099999999999,2626.965
1764505803.5232158,1165.995,11738.745,-36142.605,-15556.095,-26343.855,-16976.79,-7101.179999999999,2632.05
1764505803.5232158,1173.105,11750.22,-36124.785,-15544.305,-26340.255,-16978.364999999998,-7097.715,2635.83
1764505803.5232158,1174.455,11752.605,-36120.915,-15538.59,-26333.28,-16973.73,-7099.74,2635.38
1764505803.5232158,1172.61,11748.6,-36127.08,-15543.18,-26332.155,-16968.555,-7099.02,2635.155
1764505803.5232158,1167.93,11742.975,-36133.29,-15547.32,-26330.265,-16960.095,-7098.525,2632.05
1764505803.5232158,1168.335,11742.705,-36133.605,-15547.725,-26329.545,-16959.6,-7097.895,2632.68
1764505803.52426,1168.9199999999998,11743.335,-36132.48,-15547.455,-26329.815,-16959.87,-7098.12,2632.995
1764505803.52426,1168.875,11743.02,-36132.48,-15547.23,-26329.095,-16957.934999999998,-7098.48,2632.455
1764505803.52426,1167.48,11743.695,-36131.715,-15547.185,-26329.59,-16959.329999999998,-7100.594999999999,2629.71
1764505803.52426,1171.53,11749.185,-36124.785,-15540.03,-26322.12,-16952.579999999998,-7099.245,2631.105
1764505803.52426,1171.71,11748.96,-36124.02,-15536.52,-26314.83,-16943.625,-7097.219999999999,2632.23
1764505803.52426,1163.79,11736.18,-36137.34,-15548.22,-26320.905,-16948.934999999998,-7095.014999999999,2631.285
1764505803.52426,1168.425,11736.765,-36142.605,-15548.31,-26317.35,-16945.29,-7093.575,2635.785
1764505803.52426,1172.115,11742.075,-36138.69,-15549.03,-26329.23,-16957.305,-7097.085,2635.695
1764505803.52426,1172.565,11748.33,-36127.8,-15552.405,-26342.325,-16972.829999999998,-7100.19,2634.705
1764505803.52426,1165.095,11736.45,-36139.815,-15556.725,-26337.195,-16965.72,-7097.895,2632.86
1764505803.52426,1165.905,11735.415,-36142.92,-15556.59,-26336.115,-16968.195,-7098.974999999999,2632.635
1764505803.52426,1170.63,11742.66,-36132.48,-15547.095,-26328.555,-16958.565,-7095.87,2634.03
1764505803.52426,1169.46,11741.49,-36135.09,-15554.295,-26339.4,-16969.68,-7098.03,2633.355
1764505803.5675414,1171.755,11745.045,-36132.39,-15552.405,-26337.105,-16969.41,-7099.785,2634.795
1764505803.5675414,1169.235,11741.67,-36135.72,-15554.25,-26337.33,-16968.825,-7100.82,2632.995
1764505803.5675414,1168.38,11740.365,-36138.015,-15554.655,-26335.44,-16964.415,-7099.335,2632.635
1764505803.5675414,1171.575,11745.36,-36132.255,-15547.545,-26326.215,-16953.93,-7095.285,2634.3
1764505803.5675414,1175.4,11748.645,-36130.32,-15548.67,-26326.35,-16955.595,-7093.62,2637.945
1764505803.5675414,1174.77,11746.575,-36130.095,-15544.89,-26317.755,-16943.04,-7089.705,2639.25
1764505803.5675414,1171.485,11739.915,-36140.22,-15552.855,-26325.765,-16947.315,-7090.469999999999,2637.18
1764505803.5685656,1173.285,11739.42,-36146.25,-15557.4,-26333.055,-16959.42,-7091.865,2639.205
1764505803.5685656,1179.18,11747.43,-36137.205,-15547.68,-26326.8,-16959.6,-7091.46,2642.85
1764505803.5685656,1182.96,11758.23,-36118.62,-15537.24,-26324.82,-16960.815,-7092.585,2641.095
1764505803.5685656,1182.6,11759.445,-36113.31,-15535.125,-26321.49,-16953.795,-7090.514999999999,2641.68
1764505803.5685656,1176.255,11749.905,-36125.64,-15541.155,-26319.33,-16948.305,-7090.74,2638.305
1764505803.5685656,1177.29,11749.86,-36128.34,-15541.425,-26320.5,-16950.195,-7090.02,2640.33
1764505803.5685656,1178.055,11750.265,-36127.395,-15547.905,-26330.67,-16959.329999999998,-7090.29,2641.23
1764505803.5685656,1176.66,11748.51,-36128.97,-15543.27,-26319.87,-16948.35,-7089.03,2641.455
1764505803.5685656,1177.2,11755.485,-36120.195,-15538.05,-26321.535,-16956.855,-7094.565,2636.82
1764505803.5685656,1181.655,11758.32,-36119.295,-15542.37,-26326.755,-16962.975,-7092.09,2640.285
1764505803.5685656,1170.225,11743.515,-36134.73,-15551.775,-26328.96,-16958.52,-7092.09,2635.02
1764505803.5685656,1166.49,11737.44,-36140.94,-15554.655,-26328.015,-16956.405,-7094.25,2632.545
1764505803.5685656,1173.87,11748.24,-36127.44,-15539.175,-26318.25,-16952.85,-7091.82,2637.585
1764505803.5685656,1178.955,11758.14,-36116.595,-15536.97,-26324.865,-16964.055,-7093.665,2637.945
1764505803.5685656,1167.525,11741.355,-36137.115,-15554.97,-26333.415,-16962.39,-7096.005,2630.79
1764505803.5685656,1166.985,11739.105,-36140.04,-15558.165,-26336.745,-16965.36,-7094.88,2631.555
1764505803.5685656,1175.715,11750.76,-36126.63,-15544.62,-26323.92,-16955.37,-7090.469999999999,2637.315
1764505803.6182015,1171.395,11746.575,-36130.14,-15546.78,-26322.39,-16951.05,-7091.685,2634.48
1764505803.6182015,1172.97,11748.285,-36130.815,-15550.02,-26326.395,-16954.47,-7092.54,2635.11
1764505803.6182015,1180.62,11757.87,-36120.645,-15542.73,-26321.49,-16952.22,-7089.435,2640.105
1764505803.6182015,1169.46,11745.09,-36133.065,-15550.92,-26326.71,-16954.965,-7090.29,2634.39
1764505803.6182015,1172.7,11748.825,-36129.87,-15549.435,-26324.955,-16954.29,-7094.205,2632.545
1764505803.6182015,1176.03,11755.755,-36121.005,-15540.885,-26314.965,-16944.39,-7091.009999999999,2634.48
1764505803.6182015,1157.985,11728.26,-36151.56,-15562.485,-26323.875,-16945.695,-7087.5,2629.26
1764505803.6182015,1159.245,11724.03,-36162.135,-15563.565,-26321.355,-16943.895,-7087.815,2632.86
1764505803.6191905,1171.395,11744.91,-36134.415,-15551.19,-26333.55,-16965.54,-7092.764999999999,2635.605
1764505803.6191905,1178.28,11757.78,-36116.64,-15549.57,-26343.9,-16980.345,-7093.304999999999,2637.315
1764505803.6191905,1170.18,11747.61,-36129.555,-15555.015,-26339.04,-16971.885,-7093.71,2632.365
1764505803.6191905,1169.82,11746.35,-36131.895,-15554.79,-26335.845,-16966.665,-7093.844999999999,2631.735
1764505803.6191905,1173.51,11749.59,-36128.295,-15550.47,-26330.265,-16962.255,-7091.19,2634.705
1764505803.6191905,1168.335,11745.54,-36132.03,-15554.205,-26333.37,-16966.71,-7095.195,2629.665
1764505803.6191905,1166.535,11743.515,-36133.92,-15555.375,-26333.415,-16964.235,-7094.745,2629.035
1764505803.6191905,1165.095,11740.545,-36136.215,-15556.995,-26332.965,-16960.005,-7093.349999999999,2628.855
1764505803.6191905,1168.515,11744.595,-36132.21,-15552.495,-26329.68,-16958.7,-7092.09,2630.43
1764505803.6191905,1169.46,11745.675,-36130.23,-15551.01,-26328.33,-16957.665,-7092.63,2630.385
1764505803.6191905,1169.145,11745.18,-36131.535,-15552.225,-26327.43,-16956.045,-7092.27,2631.555
1764505803.6191905,1162.35,11737.845,-36139.68,-15560.37,-26334.765,-16961.265,-7095.87,2626.47
1764505803.6191905,1164.78,11741.175,-36135.99,-15555.915,-26330.985,-16958.34,-7094.025,2628.63
1764505803.6191905,1168.47,11745.585,-36130.59,-15551.145,-26325.54,-16953.795,-7090.74,2632.23
1764505803.6592565,1168.83,11745.765,-36130.455,-15551.325,-26325.99,-16954.02,-7091.054999999999,2631.87
1764505803.6592565,1165.68,11742.48,-36134.28,-15555.735,-26329.86,-16958.34,-7094.429999999999,2628.945
1764505803.6597662,1164.33,11740.32,-36135.855,-15557.805,-26331.885,-16961.355,-7095.554999999999,2627.73
1764505803.6597662,1160.91,11737.395,-36139.32,-15561.765,-26336.745,-16966.395,-7097.58,2625.075
1764505803.6597662,1162.395,11739.015,-36138.645,-15561.765,-26337.33,-16967.52,-7096.995,2626.335
1764505803.6597662,1160.055,11735.82,-36140.985,-15565.005,-26340.885,-16970.94,-7099.11,2623.095
1764505803.6597662,1159.965,11735.46,-36140.355,-15564.555,-26341.38,-16971.57,-7099.38,2623.545
1764505803.6597662,1161.63,11736.855,-36138.285,-15561.675,-26339.04,-16970.085,-7098.57,2624.4
1764505803.6597662,1162.755,11737.98,-36136.62,-15559.245,-26335.485,-16967.07,-7098.344999999999,2624.985
1764505803.6597662,1166.355,11741.985,-36132.705,-15555.555,-26330.265,-16960.5,-7094.295,2629.17
1764505803.6597662,1166.985,11742.57,-36132.165,-15555.555,-26330.535,-16959.239999999998,-7092.045,2629.89
1764505803.6597662,1165.32,11741.31,-36134.325,-15556.365,-26331.525,-16960.14,-7094.07,2628.855
1764505803.6597662,1161.585,11737.305,-36138.96,-15562.395,-26337.825,-16965.989999999998,-7097.31,2625.66
1764505803.6597662,1158.885,11734.155,-36141.39,-15565.455,-26341.83,-16970.805,-7099.38,2622.645
1764505803.6597662,1161.36,11736.99,-36138.375,-15562.395,-26339.265,-16969.454999999998,-7097.715,2625.345
1764505803.6602712,1160.01,11736.9,-36137.97,-15563.025,-26339.94,-16971.03,-7099.469999999999,2623.635
1764505803.6602712,1160.595,11738.025,-36137.205,-15563.205,-26339.58,-16970.805,-7098.84,2624.22
1764505803.6602712,1160.73,11738.34,-36138.24,-15563.655,-26339.805,-16970.85,-7097.804999999999,2625.48
1764505803.6602712,1162.26,11739.42,-36137.52,-15562.305,-26338.635,-16969.77,-7096.77,2626.695
1764505803.6602712,1160.01,11736.675,-36139.68,-15564.915,-26338.32,-16966.845,-7096.634999999999,2626.335
1764505803.6602712,1160.46,11737.62,-36139.5,-15564.15,-26338.005,-16966.395,-7095.87,2626.2
1764505803.6602712,1157.22,11733.975,-36142.47,-15567.03,-26341.92,-16971.524999999998,-7099.469999999999,2622.735
1764505803.6602712,1158.255,11735.595,-36141.84,-15566.49,-26341.47,-16971.57,-7099.38,2623.77
1764505803.6602712,1157.535,11736.495,-36141.615,-15566.22,-26341.425,-16972.739999999998,-7099.65,2623.545
1764505803.7085035,1161.405,11741.13,-36136.665,-15561.135,-26337.51,-16969.32,-7097.895,2626.74
1764505803.7085035,1160.91,11739.915,-36136.665,-15561.18,-26337.555,-16970.13,-7099.875,2624.535
1764505803.7085035,1163.52,11742.075,-36134.64,-15559.47,-26335.035,-16966.934999999998,-7097.31,2627.145
1764505803.7085035,1157.4,11735.235,-36142.38,-15567.39,-26342.37,-16972.02,-7101.405,2621.7
1764505803.7085035,1158.165,11737.125,-36139.23,-15564.69,-26340.39,-16971.885,-7100.775,2623.77
1764505803.7085035,1163.43,11741.715,-36134.28,-15558.525,-26333.37,-16964.19,-7096.634999999999,2629.395
1764505803.7085035,1162.08,11738.43,-36138.87,-15562.305,-26334.54,-16961.085,-7095.465,2627.595
1764505803.7085035,1158.345,11734.74,-36142.605,-15566.175,-26339.13,-16965.27,-7099.514999999999,2623.41
1764505803.7085035,1160.64,11738.97,-36137.385,-15561.81,-26335.845,-16964.1,-7099.245,2625.12
1764505803.7085035,1161.9,11740.725,-36134.595,-15559.695,-26332.245,-16959.6,-7097.759999999999,2626.245
1764505803.7085035,1164.15,11745.045,-36128.07,-15556.41,-26330.175,-16960.05,-7097.445,2625.705
1764505803.7085035,1157.985,11733.93,-36142.065,-15566.22,-26338.455,-16967.79,-7097.175,2623.815
1764505803.7105925,1160.28,11734.65,-36144.765,-15570.27,-26344.62,-16975.305,-7098.165,2625.975
1764505803.7105925,1165.68,11743.155,-36132.795,-15558.84,-26334.045,-16966.215,-7095.87,2628.09
1764505803.7105925,1164.015,11740.23,-36135.9,-15557.805,-26328.105,-16956.45,-7093.665,2628.0
1764505803.7105925,1164.555,11737.62,-36141.795,-15564.105,-26330.58,-16953.524999999998,-7091.054999999999,2632.095
1764505803.7105925,1169.145,11743.605,-36132.075,-15555.06,-26326.8,-16954.829999999998,-7090.92,2634.75
1764505803.7105925,1170.315,11751.12,-36121.995,-15550.245,-26330.445,-16965.18,-7097.49,2629.98
1764505803.7105925,1168.245,11747.52,-36129.105,-15557.895,-26334.54,-16965.225,-7097.49,2629.53
1764505803.7105925,1169.73,11744.865,-36133.695,-15563.475,-26337.96,-16966.485,-7093.349999999999,2634.165
1764505803.7105925,1166.94,11743.47,-36132.885,-15556.41,-26329.5,-16957.89,-7095.375,2631.285
1764505803.7105925,1171.395,11750.085,-36124.425,-15549.75,-26330.67,-16963.29,-7096.094999999999,2632.68
1764505803.7105925,1170.855,11748.105,-36126.54,-15550.155,-26328.15,-16958.475,-7092.81,2634.705
1764505803.7105925,1175.6699999999998,11753.145,-36122.445,-15547.455,-26324.73,-16954.875,-7089.974999999999,2638.935
1764505803.7543092,1176.7949999999998,11754.72,-36120.375,-15546.33,-26322.93,-16951.68,-7089.795,2637.72
1764505803.7543092,1174.185,11748.78,-36128.07,-15547.68,-26314.065,-16937.505,-7085.79,2637.225
1764505803.7543092,1174.14,11746.08,-36134.19,-15545.565,-26303.49,-16926.345,-7085.61,2637.9
1764505803.7543092,1173.87,11748.06,-36130.005,-15544.98,-26314.065,-16944.524999999998,-7090.605,2636.37
1764505803.7543092,1178.145,11759.04,-36110.835,-15533.775,-26315.145,-16949.655,-7090.92,2639.205
1764505803.7543092,1183.455,11762.73,-36110.61,-15536.565,-26316.72,-16946.954999999998,-7087.5,2643.345
1764505803.7548168,1174.635,11746.71,-36132.345,-15562.215,-26340.345,-16963.515,-7090.38,2638.485
1764505803.7548168,1178.505,11752.56,-36125.82,-15557.13,-26331.165,-16954.965,-7092.179999999999,2637.27
1764505803.7548168,1178.28,11753.37,-36123.21,-15548.31,-26318.655,-16943.13,-7093.62,2636.91
1764505803.7548168,1180.98,11754.45,-36123.435,-15548.04,-26324.73,-16950.6,-7089.075,2642.76
1764505803.7548168,1184.985,11758.455,-36116.46,-15547.23,-26329.23,-16955.415,-7084.349999999999,2647.26
1764505803.7548168,1185.165,11756.565,-36118.98,-15541.605,-26313.795,-16934.445,-7080.255,2647.35
1764505803.7548168,1179.225,11749.275,-36132.39,-15555.42,-26334.72,-16962.795,-7086.915,2644.245
1764505803.7548168,1179.135,11749.995,-36130.455,-15561.54,-26345.79,-16977.735,-7090.605,2642.625
1764505803.7548168,1177.47,11750.67,-36127.215,-15557.22,-26339.94,-16971.704999999998,-7091.639999999999,2639.835
1764505803.7548168,1177.9199999999998,11753.28,-36123.03,-15553.89,-26336.655,-16968.42,-7093.125,2638.89
1764505803.7548168,1178.775,11751.93,-36125.28,-15553.62,-26332.695,-16962.57,-7091.415,2640.24
1764505803.7548168,1182.06,11755.17,-36121.815,-15548.94,-26327.475,-16955.864999999998,-7088.804999999999,2642.85
1764505803.7558477,1182.69,11754.855,-36121.545,-15547.32,-26325.225,-16953.885,-7088.849999999999,2642.13
1764505803.7558477,1181.07,11753.145,-36122.625,-15548.76,-26325.945,-16955.595,-7091.37,2639.385
1764505803.7558477,1179.855,11752.47,-36124.02,-15549.48,-26327.475,-16957.934999999998,-7092.945,2638.17
1764505803.7558477,1179.54,11752.83,-36123.615,-15549.03,-26326.8,-16958.97,-7094.384999999999,2636.82
1764505803.7558477,1182.375,11755.485,-36119.79,-15545.97,-26321.76,-16952.13,-7091.865,2640.15
1764505803.7558477,1177.11,11749.005,-36126.405,-15551.28,-26324.505,-16949.07,-7093.395,2636.685
1764505803.8000925,1176.57,11749.32,-36126.18,-15551.1,-26324.73,-16950.375,-7093.395,2636.01
1764505803.8000925,1175.535,11749.77,-36124.29,-15548.76,-26322.885,-16949.295,-7093.53,2633.67
1764505803.8000925,1179.135,11754.135,-36120.105,-15544.395,-26318.385,-16944.57,-7090.425,2637.45
1764505803.8000925,1176.57,11748.105,-36128.79,-15555.33,-26325.315,-16948.755,-7089.929999999999,2637.225
1764505803.8000925,1176.48,11747.34,-36130.5,-15559.515,-26329.995,-16954.47,-7091.37,2636.505
1764505803.8000925,1173.195,11745.945,-36130.95,-15556.005,-26325.99,-16952.265,-7093.844999999999,2632.995
1764505803.8000925,1173.735,11747.295,-36129.51,-15554.205,-26330.04,-16959.465,-7094.52,2633.04
1764505803.8011312,1179.63,11754.045,-36122.895,-15551.685,-26332.83,-16966.44,-7094.07,2636.595
1764505803.8011312,1183.905,11758.59,-36117.855,-15546.465,-26325.27,-16959.42,-7089.705,2640.555
1764505803.8011312,1177.245,11751.795,-36123.255,-15551.325,-26326.935,-16958.204999999998,-7092.945,2633.94
1764505803.8011312,1172.07,11745.585,-36129.15,-15553.845,-26326.305,-16951.68,-7092.99,2631.015
1764505803.8011312,1172.2949999999998,11745.0,-36130.905,-15557.265,-26330.13,-16952.355,-7094.34,2631.195
1764505803.8011312,1171.44,11744.145,-36131.895,-15559.605,-26332.74,-16953.39,-7094.655,2629.935
1764505803.8011312,1174.5,11747.025,-36129.96,-15558.255,-26329.635,-16950.195,-7091.955,2632.995
1764505803.8011312,1172.835,11747.835,-36126.855,-15554.115,-26322.705,-16943.265,-7094.34,2628.045
1764505803.8011312,1170.315,11746.35,-36128.43,-15550.47,-26314.605,-16938.945,-7096.185,2626.065
1764505803.8011312,1163.2949999999998,11729.925,-36149.13,-15562.26,-26320.05,-16941.42,-7089.344999999999,2629.485
1764505803.8011312,1158.57,11721.33,-36158.265,-15566.445,-26326.215,-16946.864999999998,-7094.115,2626.92
1764505803.8011312,1181.835,11756.61,-36117.945,-15555.285,-26341.47,-16971.704999999998,-7095.645,2636.91
1764505803.8011312,1179.36,11755.935,-36116.955,-15555.375,-26341.605,-16971.975,-7097.219999999999,2634.345
1764505803.8027596,1176.93,11751.12,-36124.785,-15558.12,-26338.725,-16967.34,-7096.275,2633.265
1764505803.8027596,1175.49,11749.455,-36127.62,-15559.83,-26339.49,-16970.04,-7097.715,2631.285
1764505803.8497517,1173.51,11747.07,-36129.42,-15560.37,-26337.15,-16966.98,-7096.545,2630.655
1764505803.8497517,1166.715,11739.33,-36137.295,-15564.15,-26337.33,-16964.595,-7097.219999999999,2626.83
1764505803.8497517,1168.605,11740.635,-36136.62,-15561.945,-26333.505,-16961.895,-7096.995,2627.865
1764505803.8497517,1174.995,11750.85,-36124.11,-15552.765,-26325.81,-16954.92,-7094.835,2630.7
1764505803.850301,1171.395,11744.775,-36132.435,-15560.415,-26331.525,-16960.05,-7095.915,2629.8
1764505803.850301,1176.165,11750.265,-36126.585,-15559.695,-26333.19,-16959.78,-7093.665,2633.85
1764505803.850301,1178.235,11753.955,-36121.815,-15550.74,-26322.345,-16949.295,-7091.46,2634.93
1764505803.850301,1170.0449999999998,11743.965,-36131.895,-15555.51,-26328.015,-16954.02,-7096.545,2628.495
1764505803.850301,1168.29,11741.13,-36134.055,-15564.33,-26342.28,-16967.97,-7099.785,2627.28
1764505803.850301,1170.945,11747.745,-36127.035,-15561.09,-26338.32,-16966.485,-7101.764999999999,2626.515
1764505803.850301,1171.08,11747.97,-36125.325,-15556.59,-26329.545,-16956.315,-7098.929999999999,2627.235
1764505803.850301,1159.9199999999998,11731.185,-36143.37,-15566.04,-26333.865,-16959.015,-7098.615,2623.545
1764505803.850301,1167.57,11740.77,-36136.35,-15564.015,-26338.05,-16965.945,-7100.009999999999,2626.92
1764505803.850301,1171.53,11747.925,-36127.35,-15556.77,-26330.265,-16957.755,-7098.165,2627.82
1764505803.850301,1175.31,11750.625,-36125.145,-15550.74,-26319.915,-16946.595,-7093.755,2632.05
1764505803.850301,1175.04,11747.385,-36132.12,-15559.335,-26327.295,-16951.41,-7094.745,2632.5
1764505803.850301,1172.34,11745.495,-36131.49,-15560.235,-26332.335,-16956.72,-7094.61,2630.925
1764505803.850301,1165.32,11738.34,-36136.53,-15566.49,-26338.5,-16962.03,-7098.12,2626.29
1764505803.850301,1169.865,11742.3,-36135.45,-15567.705,-26341.65,-16966.845,-7099.245,2628.72
1764505803.850301,1172.2949999999998,11744.73,-36133.38,-15565.455,-26339.22,-16965.135,-7096.77,2631.42
1764505803.850301,1172.88,11746.125,-36131.625,-15564.15,-26338.365,-16965.045,-7095.78,2631.825
1764505803.850301,1171.26,11743.92,-36133.38,-15565.995,-26340.345,-16968.105,-7098.03,2629.17
1764505803.850301,1168.425,11741.985,-36135.945,-15566.895,-26340.705,-16967.385,-7099.83,2626.11
1764505803.850301,1171.215,11744.955,-36132.615,-15562.665,-26334.855,-16960.59,-7096.995,2629.53
1764505803.895516,1170.45,11744.685,-36132.435,-15562.575,-26334.135,-16959.195,-7097.04,2630.115
1764505803.8970528,1171.62,11745.495,-36131.94,-15560.145,-26331.525,-16957.98,-7096.679999999999,2629.755
1764505803.8970528,1173.06,11746.395,-36130.365,-15557.715,-26328.87,-16956.045,-7095.375,2630.385
1764505803.8970528,1169.73,11742.975,-36133.695,-15561.855,-26333.055,-16959.059999999998,-7097.715,2627.235
1764505803.8970528,1170.0,11742.795,-36133.425,-15562.62,-26333.955,-16959.69,-7097.4,2627.685
1764505803.8970528,1170.54,11743.695,-36133.2,-15561.99,-26334.405,-16961.579999999998,-7098.12,2627.73
1764505803.8970528,1173.375,11747.295,-36129.87,-15558.705,-26330.22,-16959.105,-7096.77,2629.935
1764505803.8970528,1173.51,11747.565,-36129.33,-15558.705,-26328.015,-16954.695,-7095.15,2630.97
1764505803.8970528,1170.63,11744.595,-36131.535,-15560.37,-26328.6,-16954.245,-7097.219999999999,2627.865
1764505803.8970528,1173.375,11747.97,-36126.9,-15555.465,-26325.045,-16952.04,-7096.86,2629.98
1764505803.8970528,1171.215,11745.54,-36131.13,-15559.965,-26329.77,-16954.965,-7097.895,2628.63
1764505803.8970528,1174.635,11748.105,-36129.87,-15559.155,-26328.87,-16953.255,-7095.014999999999,2632.32
1764505803.8970528,1175.445,11749.68,-36129.24,-15558.255,-26328.33,-16952.309999999998,-7094.655,2632.635
1764505803.8970528,1174.23,11750.625,-36127.08,-15556.095,-26326.665,-16951.995,-7097.175,2629.98
1764505803.8970528,1171.98,11748.465,-36130.365,-15559.83,-26328.645,-16953.524999999998,-7098.344999999999,2627.73
1764505803.8970528,1169.955,11744.28,-36134.685,-15560.82,-26326.44,-16948.71,-7097.04,2627.685
1764505803.8970528,1173.285,11748.735,-36129.195,-15557.13,-26329.5,-16956.54,-7098.57,2629.215
1764505803.8970528,1171.08,11746.98,-36130.5,-15562.665,-26336.88,-16965.315,-7101.99,2626.11
1764505803.8970528,1171.395,11747.025,-36130.68,-15561.99,-26333.46,-16961.67,-7100.415,2627.46
1764505803.8970528,1173.51,11747.925,-36130.275,-15562.08,-26333.145,-16959.555,-7098.75,2630.205
1764505803.8970528,1170.54,11743.335,-36135.765,-15568.38,-26338.68,-16963.245,-7099.56,2628.225
1764505803.8970528,1169.91,11743.335,-36136.485,-15569.505,-26342.82,-16970.22,-7102.08,2626.47
1764505803.8970528,1173.015,11746.845,-36133.245,-15567.255,-26341.47,-16971.21,-7100.28,2629.215
1764505803.8970528,1170.135,11744.055,-36135.405,-15568.47,-26341.65,-16970.489999999998,-7102.304999999999,2627.37
1764505803.9441504,1166.445,11740.68,-36139.41,-15571.305,-26343.0,-16968.87,-7103.25,2624.67
1764505803.9441504,1169.28,11744.28,-36135.135,-15567.345,-26339.22,-16966.89,-7101.224999999999,2627.235
1764505803.9441504,1171.89,11747.205,-36131.805,-15563.475,-26336.52,-16966.079999999998,-7100.19,2628.045
1764505803.9441504,1167.93,11744.01,-36134.865,-15566.355,-26340.66,-16969.14,-7103.07,2624.31
1764505803.9441504,1165.68,11740.77,-36138.375,-15569.82,-26341.515,-16966.17,-7103.025,2623.23
1764505803.9441504,1169.145,11743.965,-36134.91,-15565.905,-26336.385,-16962.21,-7101.045,2626.2
1764505803.9441504,1170.63,11745.36,-36132.84,-15564.105,-26334.54,-16960.86,-7100.145,2627.595
1764505803.9441504,1171.98,11746.215,-36132.705,-15562.125,-26331.39,-16955.415,-7098.57,2628.945
1764505803.9441504,1172.88,11747.115,-36130.59,-15558.93,-26327.025,-16949.655,-7096.455,2630.295
1764505803.9441504,1170.0449999999998,11744.01,-36132.84,-15560.82,-26330.67,-16954.02,-7099.92,2627.01
1764505803.9441504,1171.26,11745.18,-36133.065,-15561.855,-26331.705,-16954.875,-7098.929999999999,2628.315
1764505803.9441504,1174.68,11747.97,-36131.13,-15561.27,-26331.795,-16955.595,-7096.679999999999,2630.835
1764505803.9441504,1171.71,11746.26,-36133.29,-15563.34,-26333.865,-16958.52,-7098.389999999999,2627.955
1764505803.9441504,1172.835,11748.42,-36131.94,-15561.09,-26332.83,-16958.97,-7098.12,2628.405
1764505803.9441504,1172.2949999999998,11747.88,-36132.525,-15561.54,-26332.38,-16957.71,-7098.344999999999,2627.91
1764505803.9441504,1173.555,11748.285,-36131.94,-15560.73,-26331.075,-16954.11,-7097.355,2628.36
1764505803.945151,1179.54,11753.73,-36124.695,-15552.585,-26324.415,-16948.35,-7093.44,2633.355
1764505803.945151,1181.61,11755.53,-36122.805,-15551.28,-26323.515,-16947.989999999998,-7091.415,2635.56
1764505803.945151,1182.69,11756.295,-36121.545,-15550.92,-26323.425,-16949.7,-7092.0,2636.775
1764505803.945151,1177.155,11750.31,-36128.88,-15558.255,-26329.185,-16954.065,-7094.52,2632.185
1764505803.945151,1169.82,11742.345,-36137.745,-15567.795,-26336.385,-16956.899999999998,-7096.995,2626.56
1764505803.945151,1171.53,11744.46,-36136.08,-15567.165,-26337.33,-16958.97,-7098.57,2626.605
1764505803.945151,1176.435,11750.22,-36129.375,-15561.405,-26333.1,-16956.405,-7095.78,2630.205
1764505803.945151,1169.145,11741.4,-36138.825,-15568.605,-26337.465,-16960.41,-7097.715,2625.435
1764505803.9927778,1171.485,11743.38,-36138.195,-15567.975,-26338.005,-16962.66,-7096.815,2628.495
1764505803.9927778,1177.155,11750.895,-36130.14,-15562.17,-26336.43,-16964.595,-7093.71,2632.005
1764505803.9927778,1179.9,11754.36,-36126.045,-15558.075,-26332.56,-16961.895,-7093.035,2632.905
1764505803.9927778,1181.655,11755.395,-36125.145,-15556.32,-26330.13,-16957.215,-7091.37,2634.12
1764505803.9927778,1180.665,11752.155,-36129.285,-15559.695,-26327.115,-16946.91,-7087.77,2635.605
1764505803.9927778,1176.48,11748.555,-36132.12,-15559.245,-26324.55,-16945.605,-7089.84,2632.005
1764505803.9927778,1176.93,11748.78,-36130.86,-15557.535,-26326.755,-16950.149999999998,-7091.235,2630.925
1764505803.9927778,1181.43,11755.125,-36122.49,-15554.97,-26328.555,-16954.29,-7090.785,2633.04
1764505803.9927778,1182.285,11755.98,-36121.68,-15553.575,-26323.56,-16946.864999999998,-7088.715,2633.985
1764505803.9927778,1180.215,11752.155,-36127.035,-15557.535,-26325.99,-16945.739999999998,-7087.95,2634.165
1764505803.9927778,1176.705,11747.88,-36132.48,-15564.195,-26334.63,-16956.72,-7091.865,2630.745
1764505803.9927778,1176.3,11747.61,-36134.415,-15566.895,-26339.67,-16964.505,-7093.44,2630.115
1764505803.9927778,1175.895,11748.285,-36134.46,-15566.13,-26337.87,-16963.739999999998,-7093.889999999999,2630.61
1764505803.9927778,1177.335,11751.03,-36129.51,-15561.675,-26331.975,-16958.79,-7093.215,2630.655
1764505803.9927778,1179.45,11751.975,-36127.935,-15560.235,-26329.14,-16953.93,-7088.58,2634.48
1764505803.9927778,1173.015,11740.635,-36144.72,-15570.945,-26339.22,-16962.165,-7090.155,2631.42
1764505803.9927778,1184.13,11755.845,-36126.315,-15561.54,-26339.67,-16967.97,-7088.445,2637.405
1764505803.9927778,1185.21,11757.6,-36121.995,-15559.245,-26336.295,-16965.405,-7087.139999999999,2637.765
1764505803.9927778,1183.32,11756.16,-36123.165,-15557.49,-26333.19,-16962.57,-7087.275,2636.055
1764505803.9937794,1183.095,11757.24,-36121.185,-15553.575,-26328.285,-16957.44,-7086.735,2635.965
1764505803.9937794,1177.02,11749.995,-36127.305,-15557.76,-26327.7,-16948.62,-7087.679999999999,2631.645
1764505803.9937794,1174.5449999999998,11746.395,-36132.255,-15562.935,-26331.615,-16949.88,-7088.4,2630.97
1764505804.0338497,1172.655,11743.65,-36138.735,-15570.18,-26335.89,-16954.695,-7090.83,2629.215
1764505804.0338497,1179.585,11751.84,-36130.545,-15566.265,-26334.54,-16956.945,-7087.724999999999,2634.075
1764505804.0338497,1181.025,11753.28,-36127.62,-15558.3,-26326.215,-16951.5,-7084.62,2635.695
1764505804.0338497,1178.145,11752.065,-36128.07,-15559.92,-26334.045,-16963.965,-7090.065,2631.735
1764505804.0338497,1174.365,11748.645,-36130.095,-15565.005,-26338.905,-16963.245,-7092.045,2628.225
1764505804.0338497,1174.68,11749.545,-36129.555,-15562.53,-26334.585,-16958.61,-7090.965,2628.495
1764505804.0338497,1174.005,11746.98,-36132.705,-15565.815,-26335.305,-16958.114999999998,-7089.255,2628.495
1764505804.0338497,1172.205,11744.46,-36136.035,-15570.315,-26337.825,-16959.6,-7089.57,2628.63
1764505804.0338497,1174.41,11747.475,-36133.605,-15569.505,-26339.445,-16964.19,-7089.974999999999,2630.07
1764505804.0338497,1177.785,11750.535,-36129.195,-15565.635,-26336.115,-16962.03,-7088.085,2633.535
1764505804.0338497,1176.48,11748.825,-36131.04,-15567.345,-26338.545,-16964.954999999998,-7089.48,2631.42
1764505804.0338497,1170.36,11742.57,-36138.87,-15574.725,-26345.07,-16968.555,-7092.36,2625.795
1764505804.0338497,1173.06,11745.72,-36135.495,-15571.53,-26340.84,-16964.595,-7090.245,2628.18
1764505804.0338497,1171.53,11745.675,-36134.64,-15570.0,-26339.94,-16965.18,-7092.315,2626.38
1764505804.0338497,1176.345,11752.065,-36127.035,-15560.865,-26332.155,-16958.655,-7088.759999999999,2630.61
1764505804.0338497,1175.895,11751.57,-36127.665,-15562.44,-26333.055,-16959.42,-7089.03,2629.53
1764505804.03488,1173.915,11748.195,-36131.445,-15563.88,-26332.47,-16957.35,-7087.995,2630.25
1764505804.03488,1176.255,11749.455,-36130.86,-15564.555,-26335.08,-16959.465,-7086.554999999999,2632.905
1764505804.03488,1176.345,11749.815,-36129.645,-15566.58,-26336.745,-16960.905,-7086.195,2632.68
1764505804.03488,1170.9,11744.235,-36134.775,-15569.955,-26339.445,-16964.19,-7090.065,2627.28
1764505804.03488,1175.355,11750.31,-36128.745,-15563.25,-26334.27,-16960.86,-7089.344999999999,2630.43
1764505804.03488,1178.685,11754.0,-36124.02,-15558.885,-26330.58,-16957.845,-7087.005,2633.4
1764505804.03488,1175.22,11749.365,-36130.5,-15566.265,-26337.87,-16963.605,-7087.455,2631.24
1764505804.03488,1169.1,11742.885,-36138.015,-15573.735,-26343.495,-16967.25,-7091.73,2625.48
1764505804.0827906,1167.66,11741.085,-36139.95,-15575.94,-26345.565,-16968.96,-7093.395,2623.95
1764505804.0827906,1164.555,11737.395,-36143.865,-15580.17,-26349.615,-16972.38,-7095.06,2621.835
1764505804.0854497,1164.96,11739.24,-36141.435,-15577.92,-26349.345,-16975.395,-7096.995,2621.16
1764505804.0854497,1163.655,11737.845,-36141.795,-15578.415,-26350.515,-16976.475,-7098.705,2618.775
1764505804.0854497,1166.6699999999998,11741.22,-36137.745,-15574.095,-26345.79,-16970.985,-7095.465,2622.78
1764505804.0854497,1162.71,11736.945,-36143.64,-15579.36,-26349.255,-16972.829999999998,-7095.645,2620.845
1764505804.0854497,1166.58,11740.545,-36141.57,-15577.74,-26348.085,-16971.57,-7093.844999999999,2623.455
1764505804.0854497,1167.075,11742.255,-36137.745,-15573.735,-26343.45,-16967.295,-7093.665,2622.78
1764505804.0854497,1165.68,11738.97,-36141.03,-15576.255,-26341.02,-16958.835,-7091.325,2623.725
1764505804.0854497,1162.485,11736.585,-36143.91,-15579.945,-26346.69,-16965.855,-7094.835,2620.71
1764505804.0854497,1162.125,11736.945,-36143.325,-15579.27,-26347.365,-16968.645,-7095.69,2619.81
1764505804.0854497,1164.105,11739.6,-36140.76,-15576.975,-26345.34,-16967.295,-7094.205,2622.24
1764505804.0854497,1163.52,11739.915,-36140.895,-15576.75,-26346.105,-16967.88,-7095.014999999999,2621.7
1764505804.0854497,1164.375,11740.905,-36139.995,-15575.175,-26345.16,-16967.565,-7095.599999999999,2621.475
1764505804.0854497,1164.33,11742.75,-36138.195,-15572.97,-26342.145,-16965.405,-7096.139999999999,2620.98
1764505804.0854497,1163.385,11742.165,-36138.33,-15572.61,-26341.155,-16965.09,-7096.815,2619.63
1764505804.0854497,1166.4,11743.2,-36136.845,-15571.8,-26338.77,-16959.645,-7092.945,2623.005
1764505804.0854497,1165.815,11741.85,-36139.23,-15573.555,-26340.57,-16959.195,-7092.675,2623.95
1764505804.0854497,1166.085,11742.975,-36138.375,-15573.6,-26341.515,-16962.57,-7092.945,2624.445
1764505804.0854497,1162.935,11740.095,-36141.48,-15577.965,-26346.015,-16969.005,-7096.32,2621.655
1764505804.0854497,1161.54,11738.34,-36144.09,-15581.115,-26349.66,-16972.739999999998,-7096.95,2619.765
1764505804.0854497,1161.675,11738.88,-36143.73,-15580.665,-26349.48,-16973.19,-7097.175,2620.53
1764505804.08698,1163.115,11740.59,-36142.155,-15579.81,-26349.57,-16973.28,-7097.219999999999,2621.385
1764505804.08698,1166.625,11743.74,-36138.24,-15575.445,-26346.105,-16969.995,-7095.06,2623.815
1764505804.1283553,1164.105,11741.895,-36140.04,-15575.895,-26346.555,-16969.905,-7096.005,2620.755
1764505804.1283553,1160.955,11738.52,-36143.37,-15577.605,-26346.78,-16966.89,-7096.23,2618.685
1764505804.1283553,1162.08,11739.015,-36142.02,-15577.425,-26345.385,-16965.405,-7095.915,2619.36
1764505804.1283553,1165.005,11742.57,-36137.925,-15572.925,-26340.84,-16962.21,-7094.205,2620.89
1764505804.1293714,1168.11,11745.54,-36134.415,-15568.47,-26337.06,-16958.16,-7092.36,2623.86
1764505804.1293714,1163.43,11740.725,-36138.78,-15573.195,-26341.56,-16961.67,-7095.87,2621.25
1764505804.1293714,1163.88,11742.48,-36137.205,-15573.69,-26342.37,-16963.785,-7095.87,2621.88
1764505804.1293714,1164.735,11743.38,-36137.79,-15575.445,-26345.115,-16968.645,-7096.23,2622.825
1764505804.1293714,1164.105,11742.84,-36139.725,-15577.695,-26348.94,-16973.1,-7097.04,2622.15
1764505804.1293714,1161.72,11740.455,-36140.985,-15579.045,-26348.805,-16971.84,-7098.3,2620.08
1764505804.1308768,1162.53,11740.455,-36140.535,-15578.235,-26345.655,-16965.945,-7095.915,2622.645
1764505804.1308768,1162.485,11740.5,-36141.345,-15579.855,-26349.39,-16970.265,-7097.58,2622.285
1764505804.1308768,1159.785,11738.79,-36143.775,-15582.42,-26351.73,-16973.145,-7099.605,2619.585
1764505804.1308768,1161.405,11740.5,-36140.49,-15577.92,-26344.215,-16965.45,-7098.389999999999,2620.395
1764505804.1308768,1164.4199999999998,11742.255,-36139.455,-15572.97,-26337.555,-16959.51,-7094.205,2624.49
1764505804.1308768,1165.86,11745.045,-36135.945,-15574.275,-26345.745,-16969.68,-7095.78,2624.445
1764505804.1308768,1174.05,11756.115,-36123.795,-15566.49,-26341.56,-16968.42,-7093.259999999999,2629.35
1764505804.1308768,1173.645,11756.835,-36120.87,-15561.09,-26330.94,-16955.1,-7092.764999999999,2627.73
1764505804.1308768,1173.015,11755.08,-36123.705,-15557.04,-26320.005,-16939.35,-7088.535,2629.665
1764505804.1308768,1153.26,11727.18,-36154.305,-15575.445,-26329.32,-16938.765,-7091.19,2620.665
1764505804.1308768,1160.19,11732.625,-36152.64,-15589.035,-26359.38,-16977.015,-7096.275,2623.14
1764505804.1308768,1172.43,11749.635,-36134.325,-15581.655,-26360.19,-16983.63,-7094.52,2629.485
1764505804.1793993,1170.315,11749.005,-36134.055,-15574.185,-26347.905,-16968.915,-7093.53,2628.54
1764505804.1793993,1168.245,11745.855,-36138.69,-15577.38,-26349.975,-16970.985,-7093.62,2626.83
1764505804.1793993,1174.185,11751.75,-36132.345,-15571.305,-26344.35,-16965.989999999998,-7090.605,2631.555
1764505804.1793993,1173.195,11750.715,-36134.46,-15574.59,-26348.445,-16972.47,-7093.17,2630.565
1764505804.1793993,1167.345,11744.19,-36141.435,-15580.845,-26352.99,-16975.035,-7094.969999999999,2626.335
1764505804.1793993,1166.76,11742.75,-36143.055,-15579.765,-26351.64,-16971.3,-7095.24,2626.155
1764505804.1793993,1168.38,11744.28,-36140.805,-15577.245,-26350.29,-16971.434999999998,-7096.139999999999,2626.785
1764505804.1793993,1169.595,11745.63,-36139.77,-15574.995,-26347.32,-16967.34,-7094.52,2627.235
1764505804.1793993,1169.955,11746.53,-36138.555,-15574.23,-26344.62,-16964.055,-7093.08,2628.135
1764505804.1793993,1170.675,11746.485,-36138.015,-15574.905,-26344.8,-16965.135,-7092.36,2629.305
1764505804.1793993,1170.72,11746.98,-36137.34,-15574.095,-26344.89,-16965.45,-7091.955,2629.935
1764505804.1793993,1173.735,11751.03,-36133.2,-15569.46,-26340.48,-16960.68,-7090.155,2632.815
1764505804.1793993,1179.09,11756.655,-36127.395,-15561.9,-26332.11,-16952.625,-7085.969999999999,2637.045
1764505804.1793993,1176.345,11753.685,-36129.96,-15563.97,-26333.46,-16953.975,-7087.815,2633.85
1764505804.1793993,1175.94,11752.695,-36131.22,-15566.58,-26337.06,-16956.855,-7087.545,2634.12
1764505804.1793993,1178.91,11755.125,-36130.275,-15566.58,-26338.815,-16960.095,-7086.554999999999,2636.595
1764505804.1793993,1180.845,11757.96,-36128.205,-15564.915,-26338.365,-16962.03,-7085.835,2638.35
1764505804.180392,1178.325,11755.935,-36128.565,-15564.87,-26338.095,-16961.715,-7087.32,2635.92
1764505804.180392,1174.14,11749.005,-36136.485,-15572.565,-26339.895,-16955.91,-7087.23,2634.525
1764505804.180392,1174.5,11749.815,-36134.955,-15571.53,-26338.995,-16956.09,-7086.735,2634.795
1764505804.180392,1174.23,11750.31,-36133.56,-15570.045,-26339.805,-16958.565,-7088.895,2632.905
1764505804.180392,1175.985,11751.48,-36132.48,-15567.345,-26336.43,-16956.63,-7087.455,2633.895
1764505804.180392,1181.07,11757.105,-36126.045,-15561.495,-26331.75,-16952.175,-7082.19,2639.25
1764505804.180392,1177.65,11753.685,-36128.16,-15564.69,-26334.675,-16955.19,-7085.384999999999,2636.055
1764505804.2238123,1178.955,11754.495,-36128.07,-15564.87,-26335.08,-16955.145,-7085.025,2637.18
1764505804.2238123,1176.7949999999998,11751.93,-36130.815,-15568.02,-26337.915,-16958.43,-7086.509999999999,2634.525
1764505804.2238123,1179.27,11754.405,-36127.935,-15565.05,-26336.115,-16956.989999999998,-7085.205,2637.36
1764505804.2238123,1178.64,11754.315,-36128.52,-15565.995,-26337.465,-16959.915,-7086.915,2635.785
1764505804.2238123,1181.52,11758.185,-36124.11,-15561.54,-26331.93,-16954.47,-7083.9,2639.115
1764505804.2238123,1177.9199999999998,11754.945,-36127.215,-15564.105,-26333.865,-16954.739999999998,-7086.06,2635.92
