Timestamp,Channel1,Channel2,Channel3,Channel4,Channel5,Channel6,Channel7,Channel8
1764504786.7262158,-7076.925,4015.395,-44719.74,-36779.535,-43458.345,-35456.939999999995,-17763.795,-76.005
1764504786.7262158,-7080.705,4011.66,-44723.7,-36782.685,-43462.62,-35460.09,-17766.045,-79.56
1764504786.7262158,-7083.719999999999,4007.97,-44728.11,-36786.69,-43466.445,-35464.635,-17767.98,-82.935
1764504786.7262158,-7079.804999999999,4012.38,-44724.24,-36783.045,-43462.665,-35460.54,-17765.145,-78.84
1764504786.7262158,-7084.844999999999,4007.97,-44728.785,-36787.635,-43467.345,-35465.85,-17769.465,-84.55499999999999
1764504786.7262158,-7082.82,4009.77,-44726.22,-36785.52,-43465.05,-35463.689999999995,-17768.295,-82.71
1764504786.7262158,-7086.645,4005.36,-44729.145,-36788.625,-43467.93,-35467.11,-17771.805,-86.445
1764504786.7262158,-7083.675,4006.845,-44727.48,-36786.69,-43465.995,-35464.905,-17769.149999999998,-83.52
1764504786.7262158,-7087.455,4002.75,-44731.44,-36791.145,-43471.305,-35469.99,-17772.03,-87.075
1764504786.7262158,-7085.745,4004.91,-44729.955,-36789.165,-43469.46,-35467.92,-17771.805,-85.63499999999999
1764504786.7262158,-7087.41,4003.83,-44732.745,-36790.695,-43470.495,-35468.595,-17772.21,-87.03
1764504786.7262158,-7085.115,4006.125,-44731.125,-36787.725,-43467.435,-35465.805,-17770.05,-85.05
1764504786.7262158,-7079.94,4011.48,-44725.725,-36783.045,-43462.215,-35460.405,-17766.315,-79.74
1764504786.7262158,-7078.365,4013.235,-44724.015,-36782.145,-43460.64,-35458.064999999995,-17764.29,-78.3
1764504786.7262158,-7081.74,4008.735,-44727.435,-36786.195,-43464.15,-35462.07,-17767.98,-82.89
1764504786.7262158,-7082.505,4007.25,-44728.155,-36787.275,-43464.825,-35462.835,-17769.465,-83.74499999999999
1764504786.7262158,-7085.205,4005.27,-44729.505,-36788.58,-43465.86,-35464.005,-17771.445,-86.085
1764504786.7262158,-7088.085,4002.795,-44731.935,-36790.29,-43467.84,-35465.58,-17772.975,-89.64
1764504786.7262158,-7087.815,4002.435,-44731.53,-36790.2,-43467.615,-35465.76,-17773.29,-89.72999999999999
1764504786.7262158,-7083.719999999999,4007.115,-44727.075,-36785.295,-43462.845,-35460.045,-17769.375,-84.14999999999999
1764504786.7262158,-7082.505,4008.6,-44725.455,-36784.17,-43461.54,-35459.685,-17767.62,-82.575
1764504786.773397,-7083.764999999999,4006.755,-44727.435,-36786.69,-43464.015,-35462.43,-17768.43,-84.465
1764504786.773397,-7086.96,4003.425,-44730.945,-36790.605,-43467.345,-35466.03,-17770.59,-88.515
1764504786.773397,-7084.17,4005.945,-44728.695,-36788.31,-43464.42,-35463.42,-17768.43,-86.03999999999999
1764504786.773397,-7090.92,3999.465,-44734.545,-36793.44,-43469.55,-35468.325,-17773.245,-91.98
1764504786.773397,-7088.58,4002.66,-44730.945,-36789.255,-43465.77,-35464.59,-17772.39,-88.83
1764504786.773397,-7088.535,4002.75,-44730.675,-36789.03,-43465.545,-35466.39,-17773.469999999998,-89.36999999999999
1764504786.773397,-7088.445,4002.165,-44731.395,-36790.29,-43467.03,-35468.505,-17773.29,-90.54
1764504786.773397,-7088.355,4001.445,-44732.61,-36791.46,-43467.345,-35468.595,-17772.03,-90.405
1764504786.773397,-7089.974999999999,3998.61,-44735.715,-36795.195,-43470.54,-35470.619999999995,-17772.03,-90.855
1764504786.773397,-7095.15,3993.3,-44740.8,-36800.46,-43475.805,-35475.3,-17775.765,-95.445
1764504786.773397,-7095.735,3993.84,-44739.945,-36798.66,-43474.59,-35473.545,-17776.665,-96.12
1764504786.773397,-7093.215,3996.63,-44737.605,-36794.25,-43470.9,-35469.494999999995,-17774.954999999998,-93.33
1764504786.7743936,-7087.23,4002.345,-44731.305,-36787.59,-43466.31,-35465.4,-17771.175,-87.705
1764504786.7743936,-7089.03,4000.545,-44732.52,-36790.02,-43470.09,-35470.98,-17774.505,-90.36
1764504786.7743936,-7092.179999999999,3996.945,-44736.66,-36795.15,-43474.23,-35473.994999999995,-17776.89,-93.06
1764504786.7743936,-7088.58,4000.275,-44732.115,-36792.18,-43471.08,-35471.07,-17774.55,-89.41499999999999
1764504786.7743936,-7087.32,4000.32,-44732.7,-36793.125,-43471.98,-35471.564999999995,-17772.795,-87.92999999999999
1764504786.7743936,-7090.74,3998.25,-44735.445,-36795.465,-43474.68,-35474.13,-17773.245,-90.135
1764504786.7743936,-7087.5,4000.905,-44732.25,-36792.405,-43472.61,-35471.744999999995,-17771.445,-87.615
1764504786.7743936,-7091.685,3995.595,-44736.705,-36796.995,-43476.705,-35476.38,-17775.899999999998,-92.43
1764504786.7743936,-7091.594999999999,3996.36,-44736.12,-36796.77,-43476.03,-35475.705,-17775.899999999998,-92.07
1764504786.7743936,-7086.195,4002.435,-44730.36,-36790.695,-43470.27,-35469.314999999995,-17772.075,-86.22
1764504786.7743936,-7080.66,4007.205,-44726.625,-36785.295,-43464.735,-35464.365,-17767.079999999998,-81.89999999999999
1764504786.7743936,-7080.525,4006.575,-44727.165,-36786.69,-43465.59,-35465.31,-17768.07,-81.89999999999999
1764504786.8168306,-7082.505,4005.135,-44730.0,-36789.21,-43468.965,-35468.685,-17771.445,-83.52
1764504786.8168306,-7084.665,4003.155,-44732.205,-36791.73,-43471.395,-35472.645,-17774.1,-85.545
1764504786.8168306,-7085.429999999999,4002.345,-44731.44,-36792.045,-43471.215,-35474.49,-17775.09,-86.58
1764504786.8168306,-7088.13,3999.87,-44733.78,-36793.08,-43473.645,-35477.28,-17777.745,-89.41499999999999
1764504786.817835,-7085.474999999999,4001.445,-44731.89,-36791.505,-43472.205,-35473.77,-17775.27,-86.445
1764504786.817835,-7089.255,3996.135,-44737.47,-36797.265,-43475.22,-35474.49,-17777.34,-89.64
1764504786.817835,-7086.915,3999.42,-44734.32,-36793.98,-43471.215,-35471.88,-17775.63,-87.57
1764504786.817835,-7079.13,4008.195,-44725.635,-36784.935,-43462.8,-35462.205,-17768.88,-80.28
1764504786.817835,-7078.05,4008.87,-44724.96,-36784.53,-43462.35,-35461.35,-17768.655,-80.1
1764504786.817835,-7078.59,4007.79,-44726.175,-36785.385,-43462.98,-35462.925,-17769.645,-81.27
1764504786.817835,-7078.679999999999,4007.88,-44726.265,-36784.8,-43462.395,-35463.645,-17770.005,-80.36999999999999
1764504786.817835,-7079.58,4007.925,-44725.815,-36785.295,-43462.665,-35464.095,-17770.995,-81.405
1764504786.817835,-7079.715,4006.98,-44726.22,-36786.24,-43463.295,-35463.645,-17770.995,-82.395
1764504786.817835,-7083.315,4002.3,-44730.945,-36790.785,-43467.255,-35466.48,-17772.704999999998,-85.095
1764504786.817835,-7081.875,4003.335,-44730.09,-36790.11,-43467.165,-35466.119999999995,-17771.895,-83.38499999999999
1764504786.817835,-7082.955,4002.03,-44730.945,-36790.695,-43468.74,-35468.64,-17773.2,-84.55499999999999
1764504786.817835,-7084.125,4001.31,-44730.765,-36790.47,-43469.595,-35470.08,-17774.37,-85.05
1764504786.817835,-7082.235,4003.2,-44729.145,-36788.985,-43469.91,-35470.08,-17774.325,-84.195
1764504786.817835,-7079.13,4006.305,-44726.085,-36785.7,-43466.265,-35466.345,-17771.895,-81.13499999999999
1764504786.817835,-7085.205,4000.77,-44731.845,-36790.965,-43470.72,-35471.43,-17776.125,-86.49
1764504786.817835,-7083.719999999999,4001.805,-44731.08,-36789.705,-43469.82,-35469.72,-17775.989999999998,-86.35499999999999
1764504786.817835,-7079.895,4006.035,-44726.67,-36784.8,-43464.6,-35464.05,-17773.559999999998,-82.395
1764504786.865721,-7081.11,4004.28,-44728.425,-36787.32,-43465.815,-35465.175,-17774.28,-84.78
1764504786.865721,-7081.785,4003.38,-44729.325,-36787.995,-43466.13,-35465.715,-17775.27,-85.99499999999999
1764504786.865721,-7079.445,4005.81,-44728.065,-36787.185,-43464.33,-35464.545,-17773.695,-83.02499999999999
1764504786.865721,-7084.395,3999.96,-44733.195,-36793.125,-43471.215,-35471.52,-17778.285,-88.28999999999999
1764504786.865721,-7084.889999999999,3998.835,-44733.24,-36792.675,-43471.035,-35471.295,-17779.184999999998,-89.28
1764504786.865721,-7080.795,4003.335,-44728.2,-36787.185,-43464.87,-35464.095,-17776.305,-85.32
1764504786.8662474,-7078.724999999999,4004.865,-44726.985,-36785.97,-43463.115,-35462.07,-17774.28,-83.655
1764504786.8662474,-7080.57,4002.93,-44728.965,-36788.04,-43466.805,-35465.939999999995,-17776.305,-86.35499999999999
1764504786.8662474,-7082.415,4000.005,-44732.07,-36791.64,-43470.81,-35469.9,-17777.52,-89.955
1764504786.8662474,-7084.844999999999,3998.52,-44735.04,-36794.295,-43473.915,-35472.105,-17778.645,-91.17
1764504786.8662474,-7082.639999999999,4000.5,-44733.465,-36792.54,-43471.755,-35469.675,-17777.295,-88.515
1764504786.8662474,-7079.715,4003.29,-44730.72,-36790.38,-43468.965,-35467.47,-17775.54,-85.725
1764504786.8662474,-7083.81,3999.78,-44734.05,-36793.98,-43472.115,-35471.43,-17777.16,-89.19
1764504786.8662474,-7081.02,4001.805,-44732.43,-36790.965,-43469.595,-35468.369999999995,-17775.27,-87.57
1764504786.8662474,-7074.945,4008.78,-44724.87,-36782.235,-43460.595,-35457.93,-17769.915,-81.0
1764504786.8662474,-7073.145,4011.3,-44721.18,-36778.32,-43456.77,-35453.88,-17767.53,-79.24499999999999
1764504786.8662474,-7073.054999999999,4010.625,-44721.765,-36779.22,-43457.895,-35455.59,-17767.215,-79.785
1764504786.8662474,-7079.355,4004.955,-44728.02,-36786.285,-43465.14,-35462.97,-17771.805,-85.095
1764504786.8662474,-7079.264999999999,4005.945,-44728.155,-36786.915,-43465.905,-35464.32,-17771.309999999998,-84.105
1764504786.8662474,-7079.04,4005.405,-44728.605,-36788.94,-43467.57,-35465.175,-17770.995,-84.55499999999999
1764504786.8662474,-7080.12,4004.505,-44729.325,-36791.145,-43470.54,-35468.73,-17772.03,-85.095
1764504786.8662474,-7081.875,4002.525,-44730.495,-36791.955,-43471.17,-35469.675,-17772.93,-86.445
1764504786.8662474,-7081.92,4001.76,-44732.25,-36792.225,-43471.485,-35467.515,-17771.85,-85.95
1764504786.8662474,-7079.219999999999,4004.55,-44729.73,-36790.02,-43469.865,-35465.805,-17769.285,-84.195
1764504786.9144602,-7074.719999999999,4010.175,-44723.34,-36783.45,-43463.52,-35459.01,-17764.02,-79.335
1764504786.9144602,-7075.259999999999,4010.445,-44723.565,-36783.315,-43463.025,-35458.605,-17763.075,-80.1
1764504786.9144602,-7070.355,4015.35,-44718.885,-36778.23,-43457.265,-35452.439999999995,-17759.385,-74.61
1764504786.9144602,-7072.514999999999,4013.325,-44721.225,-36780.48,-43459.515,-35454.195,-17761.77,-76.725
1764504786.9144602,-7073.82,4011.885,-44722.89,-36781.155,-43460.145,-35455.365,-17762.309999999998,-78.84
1764504786.9144602,-7077.509999999999,4008.285,-44726.04,-36784.89,-43464.105,-35460.675,-17764.065,-81.855
1764504786.9144602,-7076.655,4009.005,-44725.59,-36784.62,-43465.05,-35460.765,-17764.2,-81.09
1764504786.9144602,-7078.32,4006.665,-44728.29,-36786.96,-43468.47,-35464.994999999995,-17765.73,-83.115
1764504786.9144602,-7075.889999999999,4009.905,-44724.915,-36784.44,-43465.32,-35462.07,-17764.469999999998,-80.505
1764504786.9144602,-7080.435,4005.63,-44729.325,-36788.22,-43468.47,-35464.41,-17766.945,-84.105
1764504786.9144602,-7080.795,4005.72,-44729.91,-36788.67,-43468.29,-35463.915,-17766.405,-84.55499999999999
1764504786.9144602,-7080.705,4005.765,-44728.515,-36787.5,-43467.615,-35462.925,-17766.27,-83.97
1764504786.9149852,-7074.45,4011.345,-44722.575,-36781.92,-43462.035,-35457.119999999995,-17761.815,-77.58
1764504786.9149852,-7077.014999999999,4008.6,-44724.69,-36783.945,-43463.79,-35459.055,-17764.155,-80.325
1764504786.9149852,-7076.34,4010.175,-44723.655,-36782.73,-43462.89,-35456.76,-17762.489999999998,-80.145
1764504786.9149852,-7080.525,4005.9,-44727.075,-36786.78,-43466.535,-35459.82,-17764.829999999998,-84.195
1764504786.9149852,-7080.344999999999,4005.18,-44727.255,-36786.735,-43466.355,-35460.09,-17765.055,-84.69
1764504786.9149852,-7079.715,4005.225,-44727.435,-36785.97,-43465.275,-35459.145,-17765.1,-84.14999999999999
1764504786.9149852,-7077.375,4008.69,-44724.375,-36784.305,-43463.79,-35458.29,-17764.605,-82.8
1764504786.9149852,-7078.77,4007.43,-44725.59,-36785.52,-43465.41,-35460.54,-17765.864999999998,-84.465
1764504786.9149852,-7079.759999999999,4005.63,-44727.12,-36786.645,-43466.265,-35461.755,-17767.89,-86.13
1764504786.9149852,-7082.19,4003.29,-44728.38,-36788.715,-43467.48,-35463.195,-17767.755,-88.11
1764504786.9149852,-7078.455,4007.7,-44725.32,-36785.43,-43463.34,-35458.155,-17764.29,-83.78999999999999
1764504786.9149852,-7081.02,4005.675,-44728.29,-36787.635,-43464.42,-35456.13,-17766.135,-85.455
1764504786.9609263,-7079.04,4007.61,-44726.22,-36784.98,-43462.125,-35454.689999999995,-17764.965,-83.565
1764504786.9609263,-7079.13,4007.205,-44726.445,-36785.565,-43463.52,-35456.4,-17763.524999999998,-83.655
1764504786.9614782,-7078.23,4007.745,-44727.03,-36785.79,-43464.06,-35456.265,-17763.3,-82.98
1764504786.9614782,-7079.445,4006.62,-44728.29,-36786.87,-43465.86,-35457.57,-17764.965,-83.97
1764504786.9614782,-7076.7,4009.86,-44724.915,-36783.675,-43463.34,-35455.5,-17762.579999999998,-80.955
1764504786.9614782,-7075.17,4011.48,-44723.52,-36782.19,-43461.495,-35454.42,-17760.51,-79.065
1764504786.9614782,-7078.815,4008.105,-44725.905,-36785.52,-43463.655,-35457.075,-17763.39,-82.30499999999999
1764504786.962501,-7078.95,4009.86,-44725.275,-36784.125,-43461.99,-35455.455,-17763.84,-82.395
1764504786.962501,-7074.63,4013.235,-44721.18,-36779.31,-43457.625,-35449.65,-17760.42,-78.11999999999999
1764504786.962501,-7078.455,4008.33,-44726.175,-36784.53,-43462.305,-35454.195,-17763.704999999998,-82.71
1764504786.962501,-7073.955,4012.29,-44722.485,-36780.84,-43457.67,-35449.695,-17759.925,-79.02
1764504786.962501,-7073.235,4012.785,-44721.315,-36779.265,-43456.635,-35448.57,-17759.475,-78.3
1764504786.962501,-7074.764999999999,4011.795,-44721.405,-36779.805,-43457.67,-35449.02,-17760.015,-78.84
1764504786.963502,-7075.215,4011.525,-44722.395,-36780.75,-43459.155,-35451.18,-17760.465,-79.56
1764504786.963502,-7075.62,4010.58,-44723.205,-36781.47,-43459.695,-35451.945,-17761.274999999998,-80.28
1764504786.963502,-7075.304999999999,4009.59,-44723.88,-36781.83,-43460.235,-35452.755,-17762.175,-80.64
1764504786.963502,-7075.17,4009.95,-44723.115,-36781.65,-43459.965,-35451.45,-17761.5,-80.36999999999999
1764504786.963502,-7074.945,4010.085,-44722.755,-36781.83,-43459.74,-35450.46,-17760.51,-79.425
1764504786.963502,-7075.53,4008.51,-44723.97,-36783.495,-43461.495,-35454.105,-17761.14,-80.1
1764504786.963502,-7080.795,4003.335,-44729.505,-36789.03,-43467.435,-35460.135,-17765.954999999998,-85.67999999999999
1764504786.963502,-7077.33,4007.7,-44725.77,-36785.07,-43462.845,-35455.14,-17762.94,-81.53999999999999
1764504786.963502,-7074.764999999999,4009.68,-44722.665,-36781.065,-43458.525,-35451.314999999995,-17761.14,-79.28999999999999
1764504787.0067203,-7074.45,4010.13,-44722.26,-36780.705,-43458.435,-35450.91,-17760.915,-78.92999999999999
1764504787.0067203,-7074.405,4009.5,-44722.935,-36781.29,-43459.29,-35452.98,-17761.454999999998,-78.92999999999999
1764504787.0067203,-7074.495,4009.95,-44722.98,-36780.93,-43458.975,-35453.07,-17761.41,-79.965
1764504787.0067203,-7075.44,4008.105,-44725.005,-36783.315,-43461.18,-35454.15,-17761.815,-80.64
1764504787.0067203,-7079.49,4003.47,-44730.495,-36789.615,-43466.13,-35457.75,-17764.515,-84.375
1764504787.0067203,-7075.304999999999,4007.925,-44725.995,-36784.98,-43461.945,-35454.33,-17762.355,-80.41499999999999
1764504787.007756,-7075.215,4007.97,-44725.365,-36785.385,-43463.745,-35456.715,-17762.67,-79.74
1764504787.007756,-7080.84,4001.715,-44731.755,-36792.27,-43470.945,-35465.04,-17768.204999999998,-85.815
1764504787.007756,-7077.87,4004.865,-44728.065,-36788.31,-43467.705,-35462.835,-17765.82,-81.765
1764504787.007756,-7079.67,4003.11,-44730.27,-36789.21,-43468.605,-35463.869999999995,-17766.719999999998,-83.42999999999999
1764504787.007756,-7079.67,4003.11,-44730.54,-36788.76,-43468.02,-35463.24,-17767.62,-84.105
1764504787.007756,-7077.014999999999,4005.27,-44727.48,-36785.52,-43465.77,-35460.314999999995,-17766.18,-81.0
1764504787.007756,-7079.04,4003.02,-44729.955,-36787.905,-43467.75,-35461.89,-17766.945,-82.35
1764504787.007756,-7075.98,4005.72,-44726.85,-36785.565,-43464.96,-35459.415,-17764.92,-79.83
1764504787.007756,-7076.07,4005.945,-44726.67,-36784.98,-43464.735,-35458.74,-17765.19,-79.56
1764504787.007756,-7074.36,4007.115,-44725.455,-36783.99,-43462.71,-35456.58,-17764.92,-78.615
1764504787.007756,-7072.965,4007.88,-44725.905,-36784.08,-43461.99,-35455.905,-17764.065,-78.57
1764504787.0087538,-7076.52,4004.1,-44729.37,-36787.095,-43465.095,-35460.18,-17766.855,-81.765
1764504787.0092747,-7073.325,4007.385,-44725.68,-36783.54,-43461.9,-35457.57,-17764.2,-77.985
1764504787.0092747,-7076.07,4004.055,-44728.74,-36786.42,-43464.915,-35460.765,-17765.46,-81.27
1764504787.0092747,-7073.639999999999,4005.945,-44727.615,-36784.395,-43463.295,-35458.244999999995,-17764.515,-80.05499999999999
1764504787.0092747,-7070.4,4009.815,-44724.105,-36780.39,-43459.47,-35453.34,-17761.77,-76.86
1764504787.0092747,-7071.48,4009.005,-44725.545,-36782.37,-43461.675,-35454.915,-17762.76,-77.535
1764504787.0092747,-7070.04,4010.625,-44724.51,-36781.65,-43461.045,-35454.33,-17762.895,-76.5
1764504787.0515096,-7073.19,4007.655,-44727.48,-36784.8,-43464.105,-35458.244999999995,-17765.73,-79.605
1764504787.0515096,-7066.304999999999,4014.36,-44721.09,-36777.87,-43457.265,-35451.72,-17760.96,-72.855
1764504787.0515096,-7065.495,4015.215,-44719.245,-36776.07,-43456.635,-35451.27,-17760.195,-72.27
1764504787.0515096,-7069.32,4010.49,-44723.79,-36781.785,-43461.765,-35455.905,-17763.93,-77.265
1764504787.0515096,-7066.8,4011.615,-44723.34,-36780.615,-43460.325,-35453.835,-17761.545,-74.34
1764504787.0515096,-7068.69,4009.68,-44724.285,-36781.785,-43462.215,-35455.455,-17762.265,-75.645
1764504787.0515096,-7066.44,4012.245,-44720.91,-36778.77,-43459.605,-35452.395,-17761.32,-73.61999999999999
1764504787.0515096,-7066.98,4012.02,-44721.27,-36779.265,-43459.425,-35452.619999999995,-17761.364999999998,-74.295
1764504787.0515096,-7064.37,4014.855,-44718.57,-36775.755,-43455.24,-35447.535,-17758.89,-71.19
1764504787.0515096,-7066.17,4012.83,-44720.685,-36776.88,-43456.14,-35448.255,-17760.735,-73.25999999999999
1764504787.0515096,-7063.2,4016.025,-44717.94,-36774.18,-43453.71,-35446.005,-17759.43,-70.605
1764504787.0515096,-7062.884999999999,4015.305,-44718.705,-36774.99,-43455.06,-35448.84,-17759.655,-70.875
1764504787.0530128,-7061.94,4015.26,-44718.03,-36775.215,-43455.33,-35449.155,-17759.295,-71.235
1764504787.0530128,-7067.79,4009.905,-44723.07,-36781.47,-43459.695,-35452.619999999995,-17762.67,-76.86
1764504787.0530128,-7065.36,4012.605,-44721.27,-36778.05,-43455.645,-35446.59,-17759.565,-72.855
1764504787.0530128,-7060.724999999999,4017.375,-44715.915,-36771.12,-43449.345,-35441.1,-17756.055,-68.445
1764504787.0530128,-7060.32,4017.555,-44715.105,-36770.985,-43450.47,-35442.54,-17755.695,-69.03
1764504787.0530128,-7057.62,4019.31,-44713.935,-36770.49,-43449.66,-35441.145,-17753.76,-66.6
1764504787.0530128,-7054.38,4021.605,-44711.28,-36768.015,-43447.815,-35439.93,-17751.555,-63.36
1764504787.0530128,-7057.98,4019.22,-44712.765,-36770.985,-43451.415,-35442.81,-17753.895,-65.655
1764504787.0530128,-7060.5,4015.98,-44716.23,-36774.54,-43454.79,-35446.32,-17756.55,-68.03999999999999
1764504787.0530128,-7063.29,4013.37,-44719.56,-36777.735,-43457.985,-35449.02,-17758.395,-71.55
1764504787.1000082,-7059.24,4016.97,-44715.555,-36774.045,-43453.44,-35444.97,-17754.885,-68.535
1764504787.1000082,-7062.12,4013.46,-44718.615,-36777.105,-43456.32,-35447.895,-17756.91,-71.55
1764504787.1000082,-7066.844999999999,4009.095,-44722.755,-36781.605,-43460.37,-35451.36,-17760.42,-75.33
1764504787.1000082,-7064.594999999999,4012.245,-44719.245,-36778.41,-43457.445,-35448.525,-17759.295,-73.30499999999999
1764504787.1000082,-7065.09,4012.47,-44720.28,-36778.815,-43459.11,-35451.27,-17760.149999999998,-74.655
1764504787.1000082,-7067.115,4011.165,-44721.945,-36780.66,-43461.36,-35452.755,-17760.059999999998,-77.03999999999999
1764504787.1000082,-7066.215,4011.93,-44721.405,-36779.67,-43459.65,-35451.135,-17758.62,-75.91499999999999
1764504787.1000082,-7063.92,4014.18,-44719.65,-36776.745,-43455.645,-35447.58,-17756.505,-72.99
1764504787.1000082,-7066.485,4011.525,-44721.585,-36779.4,-43458.12,-35450.189999999995,-17757.719999999998,-74.88
1764504787.1000082,-7060.365,4016.745,-44715.915,-36773.865,-43452.9,-35444.7,-17752.905,-70.155
1764504787.1000082,-7060.724999999999,4016.745,-44716.77,-36773.145,-43451.82,-35443.35,-17752.32,-70.02
1764504787.1000082,-7065.855,4012.515,-44721.27,-36777.24,-43456.23,-35448.03,-17756.055,-74.835
1764504787.1000082,-7063.065,4016.07,-44717.535,-36774.18,-43453.305,-35446.185,-17754.84,-72.225
1764504787.1000082,-7067.115,4013.505,-44719.92,-36777.06,-43456.77,-35449.65,-17757.45,-75.91499999999999
1764504787.1000082,-7069.455,4009.545,-44722.98,-36780.615,-43458.615,-35447.535,-17757.36,-78.03
1764504787.1005163,-7070.264999999999,4007.835,-44724.825,-36781.425,-43458.57,-35446.14,-17757.18,-78.795
1764504787.1005163,-7067.655,4011.03,-44722.125,-36778.365,-43455.375,-35445.465,-17756.37,-76.14
1764504787.1005163,-7071.705,4008.105,-44724.825,-36781.38,-43458.39,-35448.39,-17758.62,-78.92999999999999
1764504787.1005163,-7068.78,4011.255,-44721.72,-36779.22,-43456.32,-35446.59,-17756.82,-76.545
1764504787.1005163,-7069.094999999999,4010.625,-44721.99,-36778.815,-43456.68,-35446.86,-17756.954999999998,-76.63499999999999
1764504787.102532,-7070.31,4009.635,-44723.475,-36779.715,-43457.625,-35448.345,-17757.989999999998,-77.58
1764504787.102532,-7074.81,4005.54,-44727.57,-36783.855,-43461.405,-35452.845,-17760.825,-81.765
1764504787.102532,-7069.5,4010.22,-44721.765,-36778.68,-43456.41,-35447.535,-17756.145,-77.31
1764504787.102532,-7068.69,4009.86,-44723.07,-36780.165,-43457.895,-35448.48,-17756.37,-78.16499999999999
1764504787.1440878,-7063.965,4015.8,-44718.84,-36774.855,-43451.775,-35442.9,-17752.59,-73.125
1764504787.145104,-7065.09,4015.305,-44719.875,-36775.53,-43453.125,-35443.439999999995,-17752.454999999998,-73.575
1764504787.145104,-7066.575,4013.64,-44720.46,-36776.385,-43454.565,-35444.564999999995,-17754.165,-75.06
1764504787.145104,-7067.835,4012.785,-44720.55,-36777.825,-43456.005,-35446.275,-17755.605,-75.465
1764504787.145104,-7066.844999999999,4013.505,-44719.695,-36777.78,-43456.32,-35445.96,-17754.66,-73.395
1764504787.145104,-7067.52,4012.2,-44720.64,-36779.94,-43458.84,-35448.705,-17755.605,-74.52
1764504787.1464562,-7063.514999999999,4016.565,-44716.23,-36775.755,-43456.185,-35445.869999999995,-17753.399999999998,-70.785
1764504787.1464562,-7066.844999999999,4013.235,-44720.37,-36779.58,-43460.505,-35450.505,-17756.145,-73.845
1764504787.1464562,-7070.849999999999,4008.6,-44725.995,-36784.53,-43465.41,-35455.59,-17757.989999999998,-77.58
1764504787.1464562,-7070.94,4008.195,-44726.49,-36785.25,-43466.265,-35457.165,-17758.53,-78.16499999999999
1764504787.1464562,-7069.005,4009.635,-44725.005,-36783.81,-43465.725,-35455.725,-17758.215,-76.27499999999999
1764504787.1464562,-7074.585,4003.83,-44730.945,-36789.435,-43470.99,-35461.439999999995,-17762.04,-80.865
1764504787.1464562,-7075.889999999999,4002.075,-44732.79,-36792.27,-43472.655,-35462.744999999995,-17763.12,-82.25999999999999
1764504787.1474583,-7074.27,4003.74,-44730.81,-36790.65,-43470.72,-35459.415,-17761.364999999998,-80.82
1764504787.1474583,-7070.264999999999,4007.97,-44726.58,-36785.88,-43466.805,-35455.14,-17757.719999999998,-76.455
1764504787.1474583,-7068.645,4009.95,-44724.825,-36782.46,-43464.15,-35452.395,-17754.704999999998,-74.42999999999999
1764504787.1474583,-7067.205,4011.48,-44723.07,-36781.74,-43462.98,-35452.439999999995,-17753.489999999998,-73.395
1764504787.1474583,-7071.03,4007.565,-44725.95,-36785.205,-43465.995,-35455.455,-17756.64,-76.99499999999999
1764504787.1474583,-7075.485,4002.795,-44729.775,-36789.48,-43469.145,-35458.83,-17760.42,-81.53999999999999
1764504787.1474583,-7072.514999999999,4006.08,-44727.39,-36785.52,-43464.735,-35453.88,-17757.855,-79.24499999999999
1764504787.1474583,-7068.87,4010.355,-44723.52,-36780.75,-43459.83,-35448.075,-17755.38,-75.6
1764504787.1474583,-7069.679999999999,4009.365,-44724.33,-36781.29,-43460.1,-35449.02,-17753.895,-76.14
1764504787.1474583,-7066.62,4012.425,-44720.19,-36777.6,-43456.275,-35444.88,-17752.094999999998,-72.99
1764504787.1474583,-7067.969999999999,4011.75,-44720.595,-36778.815,-43457.805,-35446.365,-17753.04,-73.395
1764504787.1951623,-7069.95,4009.86,-44723.88,-36781.74,-43461.315,-35450.505,-17754.57,-75.375
1764504787.1951623,-7071.57,4007.655,-44726.265,-36784.035,-43463.295,-35452.935,-17754.39,-77.22
1764504787.196616,-7064.639999999999,4013.595,-44719.785,-36777.735,-43456.995,-35445.825,-17749.575,-70.56
1764504787.196616,-7066.349999999999,4012.155,-44719.965,-36778.185,-43457.31,-35445.915,-17751.42,-71.505
1764504787.196616,-7066.889999999999,4012.11,-44720.28,-36777.915,-43456.68,-35445.33,-17750.79,-72.045
1764504787.1976168,-7071.344999999999,4007.655,-44725.005,-36781.695,-43459.83,-35447.625,-17753.175,-76.86
1764504787.1976168,-7070.804999999999,4008.06,-44722.89,-36780.795,-43459.965,-35447.445,-17752.905,-76.77
1764504787.1976168,-7065.945,4013.145,-44718.03,-36776.07,-43455.33,-35441.91,-17748.63,-72.225
1764504787.19809,-7067.295,4011.885,-44719.695,-36776.43,-43455.87,-35443.125,-17749.44,-73.89
1764504787.19809,-7071.615,4007.835,-44724.69,-36781.515,-43460.19,-35448.345,-17753.309999999998,-78.16499999999999
1764504787.1986225,-7068.554999999999,4009.725,-44722.44,-36780.885,-43458.3,-35444.205,-17750.565,-75.06
1764504787.1986225,-7069.545,4008.69,-44723.07,-36781.965,-43460.82,-35447.715,-17751.735,-77.03999999999999
1764504787.1986225,-7064.865,4012.785,-44719.155,-36777.69,-43457.895,-35445.105,-17749.26,-72.27
1764504787.1986225,-7065.179999999999,4012.155,-44718.93,-36777.015,-43457.85,-35445.195,-17749.44,-72.0
1764504787.1986225,-7066.575,4010.985,-44720.775,-36779.49,-43459.02,-35446.23,-17749.98,-73.08
1764504787.1986225,-7067.88,4009.41,-44722.755,-36781.515,-43460.865,-35448.39,-17751.735,-74.34
1764504787.1996078,-7067.61,4009.59,-44721.225,-36780.075,-43459.11,-35446.77,-17752.094999999998,-74.655
1764504787.1996078,-7069.455,4009.455,-44721.855,-36780.885,-43459.38,-35447.67,-17752.725,-76.41
1764504787.1996078,-7072.74,4005.315,-44726.58,-36785.79,-43463.295,-35448.75,-17753.76,-79.2
1764504787.1996078,-7066.485,4011.39,-44721.09,-36780.48,-43457.85,-35442.99,-17748.719999999998,-72.13499999999999
1764504787.1996078,-7064.775,4012.65,-44719.38,-36778.815,-43457.58,-35443.619999999995,-17747.235,-70.83
1764504787.1996078,-7065.99,4010.85,-44720.82,-36779.895,-43458.12,-35444.43,-17748.45,-72.315
1764504787.1996078,-7063.74,4014.27,-44716.995,-36775.89,-43454.79,-35440.83,-17745.75,-69.12
1764504787.1996078,-7069.185,4008.915,-44722.08,-36781.02,-43459.785,-35445.465,-17750.475,-74.78999999999999
1764504787.240013,-7065.495,4011.975,-44719.47,-36778.365,-43457.58,-35443.755,-17747.91,-71.505
1764504787.240013,-7063.965,4013.595,-44719.02,-36776.43,-43456.32,-35442.045,-17746.065,-70.695
1764504787.240013,-7065.855,4012.11,-44720.37,-36778.005,-43457.895,-35442.855,-17746.92,-72.585
1764504787.240013,-7068.014999999999,4010.31,-44722.53,-36779.94,-43459.065,-35443.935,-17748.899999999998,-73.89
1764504787.240013,-7067.025,4010.13,-44722.62,-36780.345,-43459.695,-35443.53,-17748.54,-73.8
1764504787.240013,-7063.83,4013.28,-44719.695,-36777.78,-43458.165,-35442.81,-17747.145,-70.83
1764504787.240013,-7065.764999999999,4011.39,-44721.09,-36779.94,-43459.515,-35445.42,-17749.62,-72.225
1764504787.240013,-7067.429999999999,4009.86,-44722.755,-36781.38,-43460.37,-35445.915,-17750.925,-74.565
1764504787.240013,-7068.645,4008.15,-44723.115,-36781.335,-43460.55,-35445.285,-17751.42,-76.095
1764504787.240013,-7072.56,4004.235,-44726.4,-36785.52,-43464.465,-35449.244999999995,-17755.605,-80.1
1764504787.240013,-7068.014999999999,4008.645,-44722.395,-36780.795,-43460.145,-35444.16,-17751.465,-75.6
1764504787.240013,-7062.48,4014.225,-44718.165,-36775.575,-43454.34,-35438.13,-17746.695,-70.28999999999999
1764504787.240013,-7063.469999999999,4012.605,-44719.155,-36777.33,-43456.32,-35440.425,-17748.09,-71.505
1764504787.240013,-7066.889999999999,4009.77,-44722.17,-36780.48,-43460.1,-35444.295,-17751.059999999998,-74.78999999999999
1764504787.240013,-7069.59,4007.385,-44725.23,-36782.415,-43462.395,-35446.68,-17752.545,-77.67
1764504787.240013,-7065.99,4010.31,-44722.08,-36780.21,-43459.065,-35443.26,-17750.295,-73.485
1764504787.240013,-7066.304999999999,4009.23,-44722.575,-36781.92,-43460.82,-35444.61,-17751.285,-74.115
1764504787.240013,-7067.745,4008.06,-44723.925,-36782.595,-43462.305,-35446.905,-17751.87,-75.78
1764504787.240013,-7063.245,4012.605,-44720.19,-36778.455,-43457.715,-35442.945,-17748.27,-71.325
1764504787.240013,-7066.08,4009.455,-44723.295,-36781.065,-43460.73,-35446.275,-17750.61,-74.115
1764504787.240013,-7070.264999999999,4005.54,-44726.94,-36785.565,-43465.32,-35451.27,-17754.12,-77.80499999999999
1764504787.240013,-7069.59,4005.585,-44727.165,-36786.33,-43465.14,-35450.64,-17754.165,-77.445
1764504787.240013,-7069.139999999999,4005.405,-44726.94,-36785.43,-43464.42,-35449.965,-17753.67,-77.75999999999999
1764504787.240013,-7065.63,4009.545,-44723.565,-36780.705,-43459.65,-35444.88,-17750.43,-73.89
1764504787.289976,-7061.445,4013.955,-44718.84,-36776.43,-43454.97,-35439.48,-17747.055,-69.57
1764504787.289976,-7061.264999999999,4013.955,-44718.48,-36776.565,-43455.42,-35439.255,-17746.92,-69.345
1764504787.289976,-7062.795,4011.975,-44720.55,-36779.175,-43458.525,-35442.54,-17748.809999999998,-71.05499999999999
1764504787.289976,-7067.205,4008.15,-44725.59,-36783.405,-43463.115,-35447.625,-17751.87,-74.52
1764504787.289976,-7063.29,4012.38,-44721.765,-36779.985,-43459.335,-35444.115,-17749.215,-71.36999999999999
1764504787.289976,-7064.145,4010.76,-44722.395,-36780.705,-43459.875,-35443.755,-17750.204999999998,-72.945
1764504787.289976,-7064.865,4010.085,-44723.07,-36780.84,-43459.38,-35444.88,-17750.655,-73.8
1764504787.289976,-7067.25,4008.555,-44723.43,-36781.38,-43459.56,-35444.744999999995,-17752.005,-75.78
1764504787.289976,-7062.48,4013.28,-44718.48,-36776.205,-43453.395,-35438.715,-17748.315,-71.1
1764504787.289976,-7061.715,4013.37,-44719.29,-36775.845,-43452.765,-35437.095,-17747.774999999998,-70.155
1764504787.289976,-7063.29,4010.67,-44721.135,-36777.915,-43454.16,-35438.175,-17748.945,-71.955
1764504787.289976,-7066.665,4008.645,-44722.845,-36779.76,-43458.03,-35441.775,-17750.925,-75.14999999999999
1764504787.289976,-7065.63,4009.68,-44722.665,-36779.76,-43457.76,-35441.865,-17750.204999999998,-74.205
1764504787.289976,-7059.735,4015.53,-44717.13,-36774.945,-43452.36,-35437.814999999995,-17746.11,-68.265
1764504787.289976,-7058.835,4015.17,-44717.13,-36775.17,-43453.17,-35437.905,-17746.065,-67.995
1764504787.289976,-7066.53,4008.15,-44724.87,-36783.63,-43462.17,-35447.22,-17752.77,-75.42
1764504787.289976,-7067.429999999999,4006.62,-44726.445,-36785.43,-43465.005,-35450.01,-17754.344999999998,-76.815
1764504787.289976,-7065.719999999999,4008.825,-44724.735,-36783.495,-43462.485,-35445.78,-17752.14,-74.42999999999999
1764504787.289976,-7065.855,4008.42,-44724.285,-36782.955,-43462.575,-35446.365,-17752.14,-74.655
1764504787.289976,-7063.695,4010.355,-44721.855,-36780.165,-43459.965,-35443.8,-17751.015,-73.17
1764504787.289976,-7066.215,4008.06,-44725.095,-36782.82,-43462.08,-35445.869999999995,-17752.364999999998,-75.24
1764504787.289976,-7063.245,4010.76,-44723.07,-36780.93,-43459.29,-35442.314999999995,-17750.114999999998,-72.225
1764504787.289976,-7064.145,4010.04,-44724.285,-36782.055,-43460.55,-35443.17,-17750.52,-73.395
1764504787.289976,-7066.575,4007.88,-44725.815,-36783.27,-43462.44,-35445.915,-17752.23,-75.69
1764504787.3364975,-7062.03,4011.885,-44721.18,-36779.13,-43458.345,-35442.27,-17749.395,-71.865
1764504787.3364975,-7062.884999999999,4011.21,-44722.125,-36780.165,-43460.055,-35443.305,-17750.52,-73.44
1764504787.3364975,-7063.695,4010.22,-44723.655,-36780.525,-43460.55,-35443.439999999995,-17750.79,-74.34
1764504787.3364975,-7060.139999999999,4013.73,-44719.83,-36776.52,-43456.005,-35439.345,-17748.09,-70.335
1764504787.3364975,-7061.715,4011.84,-44720.82,-36778.905,-43458.345,-35442.405,-17749.35,-71.595
1764504787.3364975,-7068.465,4005.9,-44726.805,-36784.665,-43464.96,-35449.38,-17754.03,-78.03
1764504787.3364975,-7067.565,4007.07,-44726.04,-36782.73,-43463.565,-35448.615,-17754.48,-78.075
1764504787.3364975,-7062.795,4011.885,-44721.225,-36778.005,-43457.895,-35442.9,-17750.475,-73.98
1764504787.3364975,-7064.594999999999,4008.915,-44723.79,-36780.39,-43458.255,-35441.235,-17749.89,-75.33
1764504787.3364975,-7059.33,4014.135,-44719.11,-36775.53,-43452.45,-35433.945,-17743.815,-69.075
1764504787.3364975,-7060.95,4012.785,-44720.73,-36778.14,-43454.205,-35434.575,-17744.445,-69.92999999999999
1764504787.3364975,-7068.195,4006.485,-44726.715,-36784.89,-43461.81,-35443.125,-17750.79,-76.23
1764504787.3364975,-7065.224999999999,4008.915,-44724.195,-36782.055,-43459.515,-35440.83,-17749.485,-73.935
1764504787.3364975,-7065.45,4009.14,-44724.42,-36781.965,-43460.325,-35442.045,-17748.63,-73.395
1764504787.3364975,-7070.715,4004.46,-44729.595,-36787.815,-43466.805,-35448.93,-17752.545,-78.255
1764504787.3364975,-7070.219999999999,4004.055,-44728.695,-36788.67,-43468.02,-35450.145,-17751.915,-78.57
1764504787.3364975,-7067.384999999999,4006.755,-44725.635,-36785.655,-43465.32,-35447.085,-17749.305,-76.005
1764504787.3364975,-7063.245,4012.155,-44721.36,-36780.12,-43459.56,-35441.505,-17745.84,-71.46
1764504787.3364975,-7066.08,4009.095,-44724.015,-36782.91,-43461.54,-35443.215,-17747.28,-73.44
1764504787.3364975,-7062.165,4012.83,-44719.965,-36778.995,-43457.085,-35439.48,-17744.04,-69.52499999999999
1764504787.3364975,-7059.15,4014.945,-44716.995,-36776.79,-43454.61,-35436.915,-17741.07,-67.14
1764504787.3364975,-7063.065,4011.255,-44721.675,-36781.425,-43459.695,-35441.64,-17744.13,-71.28
1764504787.3819292,-7058.969999999999,4016.205,-44717.13,-36776.97,-43454.745,-35436.78,-17740.71,-67.185
1764504787.3819292,-7059.599999999999,4015.8,-44717.58,-36777.195,-43454.835,-35437.095,-17740.755,-67.995
1764504787.3819292,-7065.855,4009.77,-44724.015,-36783.765,-43461.135,-35442.675,-17745.255,-73.17
1764504787.3819292,-7065.855,4009.815,-44724.105,-36782.865,-43460.1,-35441.505,-17745.434999999998,-72.72
1764504787.3819292,-7062.389999999999,4012.515,-44719.74,-36778.995,-43456.275,-35437.455,-17743.545,-68.94
1764504787.3819292,-7062.75,4011.345,-44720.595,-36780.075,-43456.86,-35438.49,-17743.995,-70.2
1764504787.3819292,-7062.795,4011.57,-44721.405,-36780.615,-43456.77,-35438.175,-17743.68,-70.47
1764504787.3819292,-7059.915,4013.73,-44718.795,-36777.105,-43453.8,-35434.53,-17740.485,-67.95
1764504787.3819292,-7058.745,4014.225,-44717.94,-36776.16,-43453.53,-35433.765,-17739.945,-67.14
1764504787.3819292,-7060.185,4013.01,-44718.345,-36776.655,-43453.215,-35432.82,-17741.43,-68.715
1764504787.3819292,-7059.554999999999,4013.46,-44717.985,-36775.98,-43451.55,-35430.705,-17740.17,-68.22
1764504787.3819292,-7063.74,4009.545,-44722.44,-36779.94,-43456.005,-35435.115,-17743.545,-71.73
1764504787.3819292,-7061.804999999999,4010.94,-44720.37,-36778.455,-43454.34,-35434.8,-17742.78,-69.435
1764504787.3819292,-7061.715,4010.265,-44720.955,-36779.22,-43455.915,-35436.689999999995,-17743.23,-69.48
1764504787.3819292,-7064.28,4007.79,-44724.42,-36783.63,-43460.325,-35441.82,-17745.524999999998,-72.09
1764504787.3819292,-7061.759999999999,4010.13,-44722.17,-36781.47,-43457.22,-35439.57,-17744.895,-70.2
1764504787.3819292,-7061.355,4011.03,-44720.415,-36780.345,-43456.41,-35437.814999999995,-17744.76,-69.84
1764504787.3819292,-7059.735,4012.38,-44718.345,-36777.87,-43453.98,-35435.564999999995,-17742.69,-68.355
1764504787.382939,-7059.69,4012.92,-44717.715,-36776.565,-43453.125,-35434.665,-17741.969999999998,-67.905
1764504787.382939,-7065.179999999999,4007.385,-44723.43,-36781.65,-43458.84,-35440.83,-17746.38,-73.44
1764504787.382939,-7063.2,4009.32,-44721.18,-36779.13,-43456.32,-35437.814999999995,-17744.579999999998,-71.28
1764504787.382939,-7061.219999999999,4011.255,-44720.685,-36778.14,-43453.755,-35431.92,-17741.925,-68.355
1764504787.382939,-7062.21,4009.365,-44723.025,-36780.615,-43456.635,-35435.564999999995,-17743.32,-70.38
1764504787.382939,-7064.054999999999,4007.52,-44722.89,-36782.415,-43459.065,-35439.39,-17746.155,-72.72
1764504787.4310176,-7060.5,4010.805,-44720.19,-36779.58,-43455.42,-35435.744999999995,-17743.995,-68.67
1764504787.4310176,-7060.23,4011.525,-44720.37,-36779.625,-43454.655,-35436.33,-17743.815,-68.67
1764504787.4310176,-7059.15,4011.885,-44719.875,-36778.59,-43454.565,-35436.15,-17743.59,-68.13
1764504787.4310176,-7057.844999999999,4013.505,-44718.3,-36775.98,-43452.855,-35435.564999999995,-17742.329999999998,-66.105
1764504787.4310176,-7056.764999999999,4014.945,-44717.13,-36774.135,-43451.55,-35433.494999999995,-17740.17,-64.66499999999999
1764504787.4310176,-7063.335,4008.87,-44723.61,-36781.38,-43458.12,-35439.3,-17744.715,-70.875
1764504787.4310176,-7065.224999999999,4006.935,-44725.815,-36782.415,-43460.28,-35440.605,-17746.2,-72.53999999999999
1764504787.4310176,-7063.695,4008.33,-44724.015,-36780.885,-43458.21,-35438.805,-17745.704999999998,-72.045
1764504787.4310176,-7059.195,4012.02,-44720.415,-36777.735,-43455.33,-35435.385,-17742.87,-67.77
1764504787.4310176,-7062.705,4007.745,-44724.645,-36782.505,-43459.605,-35439.84,-17746.515,-71.73
1764504787.4310176,-7058.429999999999,4012.74,-44719.695,-36778.41,-43455.465,-35436.51,-17743.5,-67.41
1764504787.4310176,-7058.384999999999,4013.01,-44719.155,-36778.23,-43455.645,-35437.095,-17742.6,-67.455
1764504787.4310176,-7059.42,4011.975,-44720.595,-36778.32,-43456.455,-35437.545,-17742.329999999998,-67.67999999999999
1764504787.4310176,-7061.4,4009.77,-44723.25,-36780.975,-43459.29,-35439.21,-17743.68,-69.255
1764504787.4310176,-7058.52,4012.245,-44720.73,-36778.365,-43456.545,-35436.24,-17741.475,-67.32
1764504787.4310176,-7065.764999999999,4005.9,-44726.445,-36784.215,-43462.755,-35442.135,-17746.29,-73.395
1764504787.4320185,-7061.31,4010.31,-44722.485,-36780.03,-43457.715,-35437.59,-17742.645,-68.58
1764504787.4320185,-7061.04,4010.67,-44722.755,-36779.94,-43458.345,-35437.32,-17741.969999999998,-69.345
1764504787.4320185,-7058.565,4012.47,-44719.515,-36777.87,-43456.455,-35435.34,-17740.844999999998,-67.05
1764504787.4320185,-7061.715,4008.285,-44722.845,-36781.065,-43459.605,-35438.31,-17743.364999999998,-70.875
1764504787.4320185,-7059.87,4010.85,-44720.955,-36778.815,-43457.22,-35435.52,-17741.295,-68.265
1764504787.4320185,-7059.509999999999,4011.12,-44721.045,-36779.22,-43457.04,-35435.7,-17740.079999999998,-68.03999999999999
1764504787.4320185,-7057.44,4012.965,-44719.92,-36777.87,-43455.465,-35434.305,-17739.495,-66.78
1764504787.4320185,-7053.3,4016.25,-44716.59,-36773.73,-43451.1,-35430.84,-17736.165,-62.865
1764504787.476882,-7056.54,4013.73,-44718.255,-36776.115,-43453.755,-35433.314999999995,-17737.559999999998,-66.015
1764504787.476882,-7065.179999999999,4005.495,-44726.445,-36784.665,-43462.035,-35441.189999999995,-17744.489999999998,-74.34
1764504787.476882,-7066.665,4004.055,-44727.39,-36785.205,-43462.125,-35441.685,-17746.515,-75.69
1764504787.476882,-7062.03,4008.87,-44722.08,-36780.12,-43456.23,-35435.97,-17743.005,-70.965
1764504787.476882,-7062.57,4008.42,-44723.115,-36779.67,-43455.78,-35434.665,-17742.195,-71.865
1764504787.4778905,-7067.79,4002.975,-44727.975,-36785.52,-43460.28,-35438.58,-17745.434999999998,-77.67
1764504787.4778905,-7066.8,4004.055,-44726.85,-36784.845,-43460.235,-35438.895,-17745.255,-76.905
1764504787.4778905,-7061.94,4008.915,-44721.81,-36780.48,-43456.68,-35436.42,-17741.655,-71.41499999999999
1764504787.4778905,-7064.28,4006.845,-44723.835,-36783.9,-43460.19,-35440.155,-17743.5,-73.935
1764504787.4778905,-7062.48,4008.285,-44722.575,-36782.82,-43459.56,-35440.2,-17742.149999999998,-72.0
1764504787.4778905,-7055.145,4014.765,-44716.23,-36775.755,-43453.08,-35432.73,-17736.165,-64.44
1764504787.478938,-7053.974999999999,4015.26,-44715.42,-36774.99,-43451.28,-35430.93,-17735.04,-63.99
1764504787.478938,-7054.514999999999,4015.26,-44715.915,-36775.53,-43451.685,-35431.155,-17734.905,-64.53
1764504787.478938,-7055.19,4014.63,-44716.725,-36776.025,-43452.72,-35431.92,-17735.895,-64.66499999999999
1764504787.478938,-7056.045,4013.955,-44717.355,-36776.835,-43452.63,-35432.28,-17736.03,-66.105
1764504787.4796424,-7060.679999999999,4009.545,-44721.0,-36780.66,-43456.365,-35434.935,-17738.684999999998,-70.56
1764504787.4796424,-7060.905,4009.41,-44721.405,-36780.57,-43455.87,-35433.81,-17739.18,-70.38
1764504787.4796424,-7055.639999999999,4014.81,-44716.5,-36775.305,-43451.82,-35428.86,-17735.895,-65.25
1764504787.4801972,-7057.035,4013.1,-44717.805,-36777.015,-43454.205,-35431.605,-17737.739999999998,-66.015
1764504787.4801972,-7059.42,4009.86,-44720.28,-36780.345,-43456.95,-35435.564999999995,-17740.305,-68.67
1764504787.4801972,-7060.139999999999,4009.59,-44721.0,-36781.245,-43457.94,-35436.42,-17740.934999999998,-69.075
1764504787.4801972,-7063.65,4006.125,-44724.78,-36784.395,-43460.865,-35439.84,-17744.535,-72.99
1764504787.524438,-7063.38,4005.945,-44724.33,-36784.17,-43459.425,-35439.165,-17743.815,-73.61999999999999
1764504787.524438,-7059.465,4009.86,-44720.37,-36779.535,-43455.105,-35434.485,-17740.215,-68.94
1764504787.524438,-7060.005,4009.23,-44720.685,-36779.49,-43454.79,-35432.369999999995,-17740.844999999998,-69.16499999999999
1764504787.524438,-7062.389999999999,4006.62,-44722.575,-36781.605,-43456.5,-35433.36,-17742.69,-71.595
1764504787.524438,-7066.935,4001.58,-44727.525,-36785.25,-43460.37,-35437.5,-17746.38,-76.99499999999999
1764504787.524438,-7066.62,4001.76,-44727.75,-36785.475,-43459.965,-35437.5,-17745.84,-77.22
1764504787.524438,-7064.955,4003.335,-44726.67,-36785.295,-43461.27,-35437.725,-17744.715,-74.655
1764504787.524438,-7059.375,4008.375,-44722.125,-36780.795,-43457.175,-35434.08,-17740.89,-69.48
1764504787.5729055,-7058.205,4009.86,-44720.685,-36779.805,-43456.32,-35433.81,-17739.225,-68.175
1764504787.5729055,-7061.58,4005.9,-44723.34,-36783.225,-43459.38,-35437.994999999995,-17741.79,-71.505
1764504787.5729055,-7064.009999999999,4003.83,-44726.445,-36786.195,-43461.765,-35440.74,-17743.86,-74.42999999999999
1764504787.5729055,-7064.28,4003.875,-44726.58,-36786.825,-43462.575,-35440.92,-17745.255,-74.52
1764504787.5729055,-7061.264999999999,4007.295,-44722.44,-36783.18,-43458.795,-35436.915,-17741.88,-71.00999999999999
1764504787.5729055,-7060.679999999999,4008.105,-44722.35,-36781.56,-43457.715,-35435.52,-17740.62,-70.605
1764504787.5729055,-7060.679999999999,4009.05,-44721.405,-36780.795,-43456.5,-35433.494999999995,-17740.62,-70.065
1764504787.5729055,-7062.84,4007.07,-44723.475,-36783.405,-43458.795,-35435.79,-17740.98,-71.595
1764504787.5729055,-7062.21,4007.835,-44723.745,-36782.82,-43458.3,-35435.79,-17739.719999999998,-69.92999999999999
1764504787.5729055,-7058.429999999999,4012.425,-44719.02,-36779.58,-43456.59,-35434.845,-17737.155,-66.6
1764504787.5729055,-7052.49,4018.635,-44712.765,-36774.225,-43451.82,-35429.985,-17732.969999999998,-61.38
1764504787.5729055,-7057.17,4013.55,-44718.39,-36779.445,-43456.5,-35434.71,-17736.524999999998,-65.565
1764504787.5729055,-7059.509999999999,4010.445,-44721.72,-36782.37,-43458.48,-35437.77,-17738.28,-68.265
1764504787.5729055,-7061.219999999999,4008.24,-44722.665,-36783.54,-43459.74,-35440.515,-17740.079999999998,-71.235
1764504787.5729055,-7061.31,4008.42,-44722.17,-36782.415,-43459.11,-35439.885,-17740.62,-71.685
1764504787.5729055,-7061.985,4007.88,-44723.43,-36782.82,-43458.795,-35437.994999999995,-17739.899999999998,-71.19
1764504787.5729055,-7062.48,4006.935,-44724.06,-36783.855,-43458.48,-35436.689999999995,-17739.765,-70.965
1764504787.5729055,-7061.219999999999,4008.51,-44722.575,-36782.19,-43455.465,-35433.225,-17738.774999999998,-69.48
1764504787.5729055,-7065.855,4003.47,-44728.02,-36788.13,-43462.62,-35439.435,-17742.105,-74.34
1764504787.5729055,-7063.29,4006.17,-44725.41,-36785.97,-43461.315,-35437.275,-17740.079999999998,-71.865
1764504787.5729055,-7064.235,4005.045,-44725.545,-36786.015,-43461.765,-35437.994999999995,-17741.114999999998,-72.72
1764504787.5729055,-7068.645,4000.95,-44730.135,-36789.57,-43465.275,-35442.45,-17744.309999999998,-76.545
1764504787.5729055,-7063.11,4006.62,-44724.915,-36783.99,-43460.055,-35436.96,-17739.585,-70.83
1764504787.5729055,-7063.065,4006.485,-44724.645,-36784.62,-43461.045,-35437.59,-17738.64,-71.00999999999999
1764504787.5729055,-7057.575,4013.1,-44718.795,-36778.95,-43456.365,-35431.605,-17734.545,-65.52
1764504787.5729055,-7057.62,4012.74,-44719.02,-36779.4,-43455.87,-35430.84,-17734.995,-65.97
1764504787.5729055,-7059.105,4010.895,-44719.695,-36779.58,-43455.825,-35431.064999999995,-17735.85,-67.27499999999999
1764504787.5729055,-7060.815,4009.68,-44721.405,-36780.93,-43457.265,-35432.145,-17736.12,-69.075
1764504787.5729055,-7063.65,4006.71,-44724.78,-36784.17,-43461.45,-35435.61,-17737.155,-72.045
1764504787.5729055,-7062.075,4008.555,-44722.665,-36782.82,-43459.74,-35434.35,-17735.715,-70.47
1764504787.5729055,-7058.115,4012.695,-44719.38,-36779.715,-43456.005,-35430.705,-17733.149999999998,-66.825
1764504787.5729055,-7061.895,4008.645,-44722.08,-36782.865,-43459.92,-35433.54,-17736.344999999998,-70.2
1764504787.5729055,-7065.81,4004.37,-44725.77,-36786.105,-43463.295,-35436.6,-17738.594999999998,-73.845
1764504787.5729055,-7061.58,4009.005,-44721.315,-36781.065,-43457.67,-35431.38,-17735.309999999998,-69.255
1764504787.5729055,-7064.46,4006.215,-44723.34,-36783.45,-43459.695,-35433.585,-17736.39,-71.73
1764504787.5729055,-7065.9,4004.91,-44724.465,-36784.62,-43461.135,-35434.575,-17737.02,-73.44
1764504787.5729055,-7062.389999999999,4008.33,-44721.09,-36781.605,-43457.895,-35432.01,-17734.68,-70.155
1764504787.5729055,-7063.785,4007.16,-44722.98,-36783.72,-43460.01,-35434.98,-17736.3,-71.19
1764504787.5729055,-7067.88,4002.255,-44728.425,-36789.93,-43465.545,-35441.145,-17740.26,-76.05
1764504787.5729055,-7061.31,4009.05,-44722.89,-36783.99,-43458.975,-35434.395,-17734.094999999998,-69.66
1764504787.6190555,-7058.115,4011.975,-44719.335,-36780.03,-43455.735,-35431.02,-17730.989999999998,-66.24
1764504787.6190555,-7061.759999999999,4008.51,-44722.935,-36783.225,-43459.92,-35435.88,-17733.96,-68.895
1764504787.6190555,-7063.83,4006.62,-44725.32,-36784.98,-43461.54,-35437.23,-17735.355,-70.695
1764504787.6190555,-7068.87,4001.265,-44730.9,-36789.255,-43464.78,-35440.56,-17739.045,-75.69
1764504787.6190555,-7068.195,4001.265,-44729.64,-36788.04,-43464.195,-35438.895,-17738.1,-74.34
1764504787.6190555,-7064.37,4005.225,-44725.77,-36784.755,-43460.415,-35436.285,-17736.255,-70.605
1764504787.6190555,-7066.844999999999,4003.47,-44727.345,-36786.195,-43461.72,-35438.13,-17739.0,-73.17
1764504787.6200547,-7068.735,4001.805,-44727.75,-36786.78,-43461.945,-35438.31,-17739.315,-74.925
1764504787.6200547,-7064.415,4004.73,-44724.465,-36784.08,-43457.49,-35431.38,-17734.32,-70.56
1764504787.6200547,-7065.855,4002.705,-44726.355,-36786.105,-43459.02,-35432.235,-17733.915,-71.505
1764504787.6200547,-7058.969999999999,4009.68,-44720.19,-36779.175,-43454.115,-35428.05,-17729.1,-65.565
1764504787.6200547,-7062.344999999999,4005.855,-44722.98,-36782.235,-43457.985,-35433.18,-17732.745,-69.21
1764504787.6200547,-7063.29,4006.035,-44722.755,-36782.955,-43459.83,-35435.115,-17734.094999999998,-69.57
1764504787.6200547,-7060.094999999999,4009.365,-44718.525,-36778.185,-43454.88,-35430.435,-17731.26,-66.285
1764504787.6200547,-7059.554999999999,4009.05,-44719.02,-36779.445,-43455.375,-35429.67,-17729.954999999998,-65.7
1764504787.6200547,-7061.94,4006.62,-44722.53,-36783.63,-43458.795,-35432.235,-17732.204999999998,-68.49
1764504787.6200547,-7056.81,4011.57,-44718.255,-36778.455,-43453.395,-35426.7,-17728.605,-63.855
1764504787.6200547,-7057.665,4010.94,-44718.21,-36778.545,-43453.62,-35426.115,-17729.055,-64.17
1764504787.6200547,-7060.32,4007.88,-44720.37,-36780.12,-43454.61,-35427.915,-17730.495,-67.545
1764504787.6200547,-7055.955,4012.155,-44715.69,-36775.395,-43449.03,-35422.65,-17727.075,-63.405
1764504787.6200547,-7056.495,4010.715,-44718.075,-36777.78,-43451.73,-35424.45,-17727.704999999998,-63.99
1764504787.6200547,-7062.705,4004.955,-44724.24,-36784.035,-43457.985,-35431.74,-17732.835,-70.335
1764504787.6200547,-7059.24,4008.555,-44720.91,-36780.165,-43454.61,-35429.445,-17731.665,-67.545
1764504787.6200547,-7061.895,4006.89,-44722.755,-36782.46,-43456.77,-35432.685,-17733.42,-69.795
1764504787.6643856,-7063.83,4003.11,-44725.725,-36786.33,-43460.28,-35433.675,-17734.725,-71.77499999999999
1764504787.6643856,-7067.745,3998.835,-44729.955,-36790.965,-43464.24,-35436.33,-17737.739999999998,-74.655
1764504787.6643856,-7068.69,3999.375,-44730.18,-36792.315,-43466.715,-35440.56,-17740.215,-75.69
1764504787.6643856,-7067.474999999999,3998.88,-44730.855,-36792.45,-43467.165,-35441.82,-17740.89,-74.78999999999999
1764504787.6643856,-7062.48,4003.2,-44725.86,-36787.59,-43463.52,-35437.905,-17738.235,-70.56
1764504787.6643856,-7060.59,4005.54,-44724.33,-36785.925,-43461.315,-35435.205,-17736.39,-68.75999999999999
1764504787.6643856,-7060.005,4006.485,-44723.61,-36785.52,-43459.515,-35433.18,-17735.219999999998,-67.86
1764504787.6643856,-7061.13,4005.81,-44724.915,-36786.42,-43460.415,-35434.755,-17736.795,-69.345
1764504787.6643856,-7062.525,4004.01,-44726.805,-36787.68,-43462.035,-35436.915,-17738.46,-70.785
1764504787.6648982,-7065.27,4000.59,-44729.1,-36789.48,-43464.24,-35439.795,-17740.215,-74.295
1764504787.6648982,-7062.344999999999,4003.875,-44725.32,-36785.745,-43461.225,-35436.6,-17738.1,-70.92
1764504787.6648982,-7058.474999999999,4008.06,-44721.135,-36781.155,-43455.69,-35431.335,-17735.399999999998,-68.085
1764504787.6648982,-7054.875,4010.805,-44718.48,-36777.555,-43451.595,-35424.99,-17731.89,-64.62
1764504787.6648982,-7059.375,4005.855,-44722.89,-36782.055,-43456.23,-35428.23,-17733.465,-67.67999999999999
1764504787.6648982,-7054.335,4011.48,-44717.715,-36777.33,-43453.08,-35426.52,-17730.495,-63.09
1764504787.6648982,-7053.344999999999,4011.93,-44717.4,-36777.645,-43453.755,-35427.285,-17729.774999999998,-61.83
1764504787.6648982,-7052.94,4012.965,-44716.545,-36777.42,-43452.72,-35426.295,-17728.965,-61.02
1764504787.6648982,-7056.27,4010.31,-44719.74,-36780.345,-43454.97,-35428.365,-17732.655,-65.205
1764504787.6648982,-7055.009999999999,4010.04,-44719.65,-36778.32,-43454.34,-35426.34,-17731.71,-64.98
1764504787.6648982,-7057.215,4007.43,-44722.53,-36781.065,-43457.895,-35429.22,-17733.105,-67.545
1764504787.6648982,-7053.389999999999,4011.03,-44719.515,-36777.78,-43454.88,-35426.88,-17730.045,-64.53
1764504787.6648982,-7056.99,4008.375,-44722.08,-36780.705,-43457.355,-35429.49,-17731.8,-66.55499999999999
1764504787.710521,-7055.054999999999,4010.805,-44719.2,-36779.265,-43455.195,-35427.78,-17730.225,-63.99
1764504787.710521,-7057.665,4007.655,-44722.35,-36782.73,-43457.895,-35430.57,-17732.565,-67.23
1764504787.710521,-7054.245,4012.335,-44718.165,-36778.41,-43452.99,-35426.34,-17730.45,-63.18
1764504787.710521,-7051.32,4014.855,-44714.97,-36775.305,-43450.245,-35423.369999999995,-17728.245,-60.705
1764504787.710521,-7048.844999999999,4016.07,-44712.99,-36772.74,-43448.265,-35420.355,-17725.77,-59.175
1764504787.71106,-7053.344999999999,4012.02,-44717.94,-36777.645,-43452.585,-35424.765,-17729.055,-63.405
1764504787.71106,-7054.02,4011.12,-44719.38,-36779.175,-43453.035,-35425.035,-17729.325,-63.315
1764504787.71106,-7053.255,4011.525,-44718.21,-36778.41,-43452.81,-35424.405,-17728.695,-63.225
1764504787.71106,-7052.264999999999,4011.93,-44717.76,-36777.645,-43451.685,-35424.225,-17727.84,-62.19
1764504787.71106,-7048.98,4015.62,-44714.475,-36775.215,-43448.49,-35421.615,-17724.69,-58.5
1764504787.71106,-7044.75,4019.49,-44711.37,-36772.155,-43446.87,-35419.725,-17721.989999999998,-54.135
1764504787.71106,-7045.245,4019.31,-44711.64,-36772.47,-43448.04,-35420.985,-17721.899999999998,-54.27
1764504787.71106,-7049.88,4014.945,-44715.33,-36776.745,-43452.63,-35425.755,-17724.915,-58.905
1764504787.71106,-7045.29,4018.995,-44711.1,-36771.435,-43447.59,-35420.625,-17722.079999999998,-54.855
1764504787.71106,-7045.92,4018.23,-44712.315,-36772.29,-43447.365,-35421.57,-17721.899999999998,-56.025
1764504787.71106,-7050.554999999999,4013.685,-44715.78,-36778.365,-43453.08,-35426.79,-17725.32,-60.435
1764504787.71106,-7048.8,4015.62,-44714.565,-36776.475,-43452.855,-35426.025,-17724.059999999998,-59.265
1764504787.71106,-7045.83,4018.455,-44712.72,-36773.055,-43449.12,-35422.695,-17721.63,-56.385
1764504787.71106,-7046.955,4017.645,-44713.575,-36774.54,-43449.93,-35422.515,-17723.204999999998,-57.06
1764504787.71106,-7043.94,4021.425,-44709.705,-36769.815,-43444.485,-35417.07,-17719.29,-54.495
1764504787.71106,-7038.315,4027.68,-44703.72,-36763.065,-43436.25,-35408.295,-17713.665,-48.645
1764504787.71106,-7039.755,4026.465,-44703.585,-36763.2,-43436.295,-35408.88,-17713.8,-49.095
1764504787.71106,-7040.52,4025.97,-44703.225,-36763.965,-43436.88,-35410.59,-17713.844999999998,-49.815
1764504787.71106,-7040.7,4024.395,-44705.07,-36766.53,-43438.905,-35410.77,-17713.71,-49.23
1764504787.755271,-7039.485,4025.25,-44704.665,-36766.845,-43439.67,-35412.3,-17714.295,-48.015
1764504787.7562864,-7041.465,4023.135,-44707.095,-36768.51,-43442.28,-35415.855,-17717.13,-50.445
1764504787.7562864,-7044.344999999999,4020.21,-44710.065,-36769.455,-43443.045,-35416.395,-17718.344999999998,-53.55
1764504787.7562864,-7043.895,4020.525,-44708.94,-36768.69,-43441.47,-35413.65,-17717.445,-53.19
1764504787.7562864,-7037.37,4026.645,-44703.09,-36763.38,-43437.33,-35408.97,-17712.495,-46.89
1764504787.7572918,-7034.985,4028.535,-44701.83,-36761.715,-43435.935,-35407.575,-17709.66,-44.505
1764504787.7572918,-7035.165,4028.31,-44702.055,-36761.715,-43435.395,-35407.845,-17709.39,-44.595
1764504787.7572918,-7039.17,4025.205,-44705.475,-36763.92,-43437.96,-35409.78,-17711.28,-47.475
1764504787.759287,-7038.9,4025.43,-44705.25,-36763.695,-43437.42,-35409.689999999995,-17711.864999999998,-47.835
1764504787.759287,-7035.255,4029.165,-44700.975,-36760.545,-43433.595,-35405.91,-17708.489999999998,-43.74
1764504787.759287,-7030.844999999999,4033.305,-44697.015,-36756.81,-43430.76,-35403.39,-17705.745,-40.68
1764504787.759287,-7031.205,4034.16,-44696.34,-36755.55,-43430.535,-35403.705,-17705.385,-40.68
1764504787.759287,-7030.575,4034.79,-44695.305,-36754.515,-43429.23,-35403.03,-17704.755,-40.095
1764504787.759287,-7032.554999999999,4031.91,-44698.275,-36757.71,-43431.3,-35401.545,-17704.934999999998,-40.905
1764504787.759287,-7037.73,4026.24,-44703.405,-36763.02,-43435.53,-35403.48,-17707.59,-45.495
1764504787.759287,-7038.495,4025.88,-44703.63,-36761.895,-43434.72,-35403.119999999995,-17708.67,-46.17
1764504787.759287,-7037.73,4027.32,-44703.36,-36761.265,-43435.215,-35403.57,-17709.255,-45.0
1764504787.759287,-7032.78,4031.865,-44697.69,-36757.89,-43431.39,-35400.6,-17705.204999999998,-40.68
1764504787.759287,-7033.05,4031.325,-44697.78,-36759.465,-43432.38,-35401.814999999995,-17704.665,-40.815
1764504787.759287,-7032.509999999999,4031.82,-44698.455,-36759.285,-43432.56,-35403.119999999995,-17703.945,-40.14
1764504787.759287,-7036.514999999999,4027.77,-44702.28,-36762.66,-43436.565,-35407.53,-17708.085,-44.28
1764504787.759287,-7038.99,4024.53,-44705.295,-36766.575,-43440.255,-35410.68,-17710.02,-46.575
1764504787.8055184,-7040.16,4023.45,-44706.285,-36767.88,-43441.695,-35410.994999999995,-17709.57,-46.845
1764504787.8055184,-7041.554999999999,4022.145,-44707.455,-36768.915,-43442.415,-35411.13,-17709.704999999998,-48.87
1764504787.8055184,-7039.125,4023.135,-44705.97,-36766.08,-43439.265,-35408.43,-17707.32,-47.385
1764504787.8055184,-7036.29,4026.825,-44701.875,-36761.715,-43436.295,-35406.27,-17706.51,-45.18
1764504787.8055184,-7038.495,4026.645,-44702.055,-36762.345,-43437.87,-35408.07,-17707.5,-46.71
1764504787.8055184,-7033.59,4032.09,-44696.79,-36756.405,-43430.22,-35399.564999999995,-17702.684999999998,-41.04
1764504787.8055184,-7029.81,4036.14,-44692.83,-36752.67,-43426.305,-35394.3,-17698.995,-38.16
1764504787.8055184,-7028.37,4037.895,-44691.39,-36750.51,-43424.685,-35392.23,-17697.285,-36.225
1764504787.8055184,-7028.009999999999,4038.705,-44690.58,-36750.285,-43423.83,-35392.05,-17696.204999999998,-34.785
1764504787.8055184,-7035.344999999999,4030.155,-44698.14,-36758.655,-43432.74,-35400.51,-17702.1,-42.345
1764504787.8055184,-7035.705,4028.85,-44699.13,-36759.555,-43433.775,-35401.455,-17702.864999999998,-43.425
1764504787.8065348,-7034.67,4029.93,-44699.13,-36758.115,-43432.605,-35399.88,-17701.515,-41.805
1764504787.8065348,-7034.58,4030.065,-44699.22,-36757.98,-43431.615,-35400.015,-17701.155,-41.4
1764504787.8065348,-7032.465,4032.315,-44696.61,-36756.315,-43429.545,-35397.494999999995,-17699.985,-39.915
1764504787.8065348,-7029.09,4035.6,-44692.74,-36752.805,-43426.26,-35393.49,-17697.87,-36.63
1764504787.8065348,-7031.429999999999,4032.585,-44695.395,-36755.37,-43429.905,-35396.82,-17699.219999999998,-38.34
1764504787.8065348,-7027.83,4035.555,-44693.055,-36752.265,-43426.98,-35394.345,-17696.745,-34.695
1764504787.8065348,-7026.615,4037.22,-44692.38,-36751.815,-43425.63,-35392.994999999995,-17694.855,-33.705
1764504787.8065348,-7025.715,4038.165,-44690.58,-36750.78,-43424.055,-35391.015,-17692.335,-32.22
1764504787.8065348,-7030.304999999999,4033.44,-44695.17,-36755.01,-43428.78,-35395.965,-17695.755,-36.945
1764504787.8065348,-7026.21,4037.895,-44691.255,-36751.545,-43425.27,-35393.22,-17692.38,-32.805
1764504787.8065348,-7026.525,4037.94,-44691.66,-36751.635,-43425.855,-35394.93,-17691.84,-32.49
1764504787.8065348,-7024.05,4040.145,-44689.68,-36749.565,-43422.39,-35392.365,-17690.355,-31.14
1764504787.8065348,-7020.495,4043.925,-44686.755,-36746.19,-43418.52,-35388.18,-17687.295,-27.675
1764504787.848352,-7022.79,4040.865,-44689.86,-36748.98,-43421.31,-35388.855,-17688.329999999998,-29.61
1764504787.848352,-7025.895,4037.85,-44691.93,-36751.32,-43423.965,-35391.555,-17690.535,-32.535
1764504787.848352,-7022.16,4042.755,-44687.745,-36745.965,-43419.645,-35386.92,-17687.61,-29.565
1764504787.848352,-7021.755,4042.755,-44686.125,-36744.795,-43417.755,-35385.795,-17687.34,-30.195
1764504787.848352,-7019.145,4044.33,-44684.775,-36743.625,-43416.54,-35383.23,-17685.72,-26.91
1764504787.848352,-7025.445,4036.635,-44693.1,-36752.805,-43424.82,-35389.215,-17690.13,-32.805
1764504787.848352,-7022.34,4039.83,-44690.49,-36749.205,-43421.94,-35388.315,-17688.42,-29.79
1764504787.848352,-7024.094999999999,4037.355,-44692.155,-36752.265,-43424.595,-35391.555,-17690.715,-31.95
1764504787.8493657,-7020.63,4041.405,-44688.51,-36748.53,-43421.715,-35388.405,-17688.105,-28.035
1764504787.8493657,-7019.145,4042.62,-44686.665,-36746.415,-43420.905,-35386.965,-17685.495,-26.325
1764504787.8493657,-7022.655,4040.01,-44689.23,-36748.89,-43424.28,-35390.88,-17688.69,-28.98
1764504787.850365,-7022.34,4040.01,-44689.365,-36748.665,-43423.65,-35390.52,-17689.23,-28.53
1764504787.850365,-7017.344999999999,4044.555,-44685.18,-36743.895,-43418.115,-35384.175,-17685.045,-23.445
1764504787.850365,-7014.33,4046.895,-44681.715,-36739.71,-43414.245,-35380.125,-17682.57,-20.97
1764504787.850365,-7012.71,4048.92,-44679.78,-36737.19,-43411.905,-35377.244999999995,-17680.68,-19.08
1764504787.850365,-7013.07,4048.965,-44679.78,-36737.91,-43411.68,-35377.74,-17681.04,-19.89
1764504787.850365,-7011.27,4050.945,-44677.53,-36735.795,-43409.07,-35375.715,-17678.925,-17.055
1764504787.850365,-7011.27,4050.27,-44677.17,-36735.615,-43407.765,-35375.22,-17679.825,-17.37
1764504787.850365,-7017.795,4043.07,-44684.73,-36743.58,-43415.055,-35380.755,-17684.64,-23.49
1764504787.850365,-7016.264999999999,4043.115,-44685.225,-36742.32,-43413.615,-35376.525,-17682.255,-21.15
1764504787.850365,-7015.005,4045.59,-44682.525,-36739.71,-43412.4,-35377.02,-17681.94,-19.485
1764504787.850365,-7013.88,4047.345,-44681.22,-36739.035,-43411.77,-35377.695,-17681.399999999998,-19.125
1764504787.850365,-7016.264999999999,4044.6,-44683.65,-36742.59,-43415.01,-35381.61,-17683.965,-21.96
1764504787.850365,-7015.905,4044.555,-44684.64,-36742.95,-43415.28,-35381.88,-17684.1,-21.78
1764504787.8972487,-7012.665,4047.705,-44681.58,-36739.89,-43411.41,-35378.64,-17682.075,-18.045
1764504787.8972487,-7014.915,4045.5,-44682.03,-36741.645,-43412.85,-35379.494999999995,-17683.695,-20.79
1764504787.8972487,-7015.905,4043.745,-44683.02,-36742.77,-43413.345,-35380.26,-17683.829999999998,-22.365
1764504787.8972487,-7010.415,4049.73,-44678.025,-36736.965,-43408.125,-35375.265,-17679.78,-17.145
1764504787.8972487,-7012.98,4047.3,-44680.365,-36738.315,-43410.42,-35377.47,-17681.489999999998,-19.035
1764504787.8972487,-7012.259999999999,4047.075,-44680.185,-36737.595,-43409.43,-35376.03,-17680.454999999998,-18.405
1764504787.8972487,-7010.505,4049.325,-44678.205,-36736.02,-43407.36,-35373.24,-17677.755,-16.11
1764504787.8972487,-7009.065,4051.08,-44676.945,-36735.165,-43406.505,-35372.565,-17676.54,-14.94
1764504787.8972487,-7004.835,4054.41,-44673.93,-36731.88,-43404.885,-35370.494999999995,-17674.245,-10.71
1764504787.8972487,-7004.474999999999,4053.555,-44674.065,-36733.545,-43409.34,-35375.805,-17675.684999999998,-10.935
1764504787.8972487,-7003.304999999999,4054.95,-44672.625,-36732.735,-43408.395,-35376.3,-17673.975,-9.72
1764504787.8972487,-7010.639999999999,4047.975,-44680.455,-36740.745,-43415.19,-35382.915,-17679.465,-15.975
1764504787.8972487,-7009.469999999999,4049.73,-44680.005,-36739.845,-43414.29,-35381.475,-17678.655,-14.535
1764504787.8972487,-7012.62,4046.355,-44683.29,-36743.58,-43417.665,-35384.58,-17680.364999999998,-17.865
1764504787.8972487,-7013.655,4044.96,-44683.74,-36744.03,-43417.755,-35385.255,-17681.309999999998,-18.81
1764504787.8972487,-7011.36,4046.805,-44681.805,-36741.42,-43415.19,-35382.42,-17679.465,-16.83
1764504787.8972487,-7005.78,4051.98,-44677.125,-36737.01,-43409.97,-35376.66,-17675.415,-11.745
1764504787.8972487,-7006.679999999999,4051.17,-44677.395,-36737.055,-43410.105,-35376.255,-17675.774999999998,-11.97
1764504787.8972487,-7008.12,4049.865,-44679.42,-36738.405,-43412.4,-35377.425,-17676.27,-13.41
1764504787.8972487,-7004.295,4053.96,-44674.785,-36733.995,-43407.765,-35372.16,-17672.985,-10.215
1764504787.8972487,-7007.895,4050.495,-44678.43,-36736.92,-43411.185,-35376.165,-17676.315,-13.32
1764504787.8972487,-7011.764999999999,4046.04,-44682.615,-36741.465,-43415.1,-35380.845,-17680.184999999998,-17.82
1764504787.9439554,-7006.32,4051.395,-44675.595,-36735.66,-43407.0,-35372.79,-17675.055,-12.6
1764504787.9439554,-7005.96,4051.89,-44674.83,-36732.96,-43403.85,-35369.415,-17673.434999999998,-12.105
1764504787.9439554,-7006.185,4051.71,-44674.02,-36732.195,-43403.04,-35367.615,-17672.399999999998,-12.825
1764504787.9454622,-7006.905,4051.395,-44675.64,-36732.69,-43403.715,-35369.055,-17672.85,-13.545
1764504787.9454622,-7005.645,4052.52,-44675.775,-36732.915,-43404.03,-35368.695,-17672.22,-12.915
1764504787.9454622,-7005.69,4051.71,-44676.18,-36734.13,-43405.56,-35368.02,-17670.329999999998,-12.06
1764504787.9454622,-7003.08,4053.87,-44674.11,-36732.465,-43405.47,-35368.83,-17668.71,-9.675
1764504787.946002,-6998.219999999999,4059.72,-44668.305,-36727.155,-43400.43,-35364.915,-17664.704999999998,-4.005
1764504787.946002,-7001.505,4057.29,-44670.195,-36730.8,-43403.85,-35368.875,-17666.684999999998,-6.525
1764504787.9467716,-7006.95,4050.9,-44677.26,-36737.145,-43411.005,-35375.895,-17672.13,-12.6
1764504787.9467716,-7004.969999999999,4053.24,-44675.415,-36735.075,-43408.98,-35373.24,-17670.015,-11.07
1764504787.9467716,-6998.535,4059.18,-44669.925,-36729.09,-43402.185,-35366.76,-17664.93,-4.995
1764504787.9467716,-6998.895,4059.09,-44669.34,-36727.47,-43400.88,-35365.14,-17665.38,-5.355
1764504787.9467716,-7005.69,4053.06,-44675.37,-36733.77,-43406.1,-35369.19,-17670.059999999998,-12.24
1764504787.947786,-7006.5,4052.475,-44676.18,-36734.49,-43406.145,-35367.84,-17670.645,-12.78
1764504787.947786,-7002.09,4056.795,-44671.725,-36729.405,-43400.205,-35362.305,-17667.18,-7.739999999999999
1764504787.947786,-7000.83,4058.28,-44669.745,-36726.93,-43397.28,-35359.56,-17665.2,-6.12
1764504787.947786,-6996.645,4062.24,-44665.605,-36722.07,-43391.88,-35353.89,-17660.024999999998,-2.34
1764504787.947786,-6995.115,4063.905,-44664.03,-36720.135,-43391.565,-35353.44,-17658.405,-1.305
1764504787.947786,-6999.57,4059.405,-44668.89,-36725.985,-43398.81,-35362.845,-17663.04,-5.58
1764504787.947786,-7001.955,4055.895,-44672.805,-36730.17,-43403.67,-35369.1,-17665.965,-8.82
1764504787.947786,-6998.58,4059.09,-44669.25,-36727.245,-43401.06,-35365.545,-17664.614999999998,-5.22
1764504787.947786,-6998.13,4059.81,-44667.81,-36726.525,-43399.62,-35364.465,-17663.985,-4.77
1764504787.947786,-6998.31,4059.405,-44667.315,-36726.345,-43398.54,-35362.845,-17663.625,-4.905
1764504787.988536,-6998.175,4058.685,-44667.99,-36726.345,-43398.0,-35361.405,-17662.725,-5.355
1764504787.988536,-6999.705,4057.2,-44668.755,-36727.605,-43398.72,-35362.89,-17663.535,-6.84
1764504787.988536,-6999.75,4057.38,-44667.72,-36726.66,-43398.72,-35363.744999999995,-17664.975,-7.47
1764504787.988536,-6994.889999999999,4062.915,-44661.735,-36720.54,-43393.14,-35359.065,-17661.465,-2.61
1764504787.988536,-6995.429999999999,4061.385,-44663.445,-36722.835,-43394.265,-35357.805,-17661.149999999998,-2.745
1764504787.988536,-7004.295,4052.88,-44673.75,-36733.77,-43403.175,-35363.43,-17667.945,-9.63
1764504787.988536,-7005.645,4051.485,-44675.505,-36735.615,-43404.75,-35365.68,-17669.565,-11.655
1764504787.988536,-7000.469999999999,4056.48,-44669.385,-36729.0,-43398.72,-35359.695,-17665.245,-6.705
1764504787.988536,-7002.405,4054.5,-44671.365,-36730.845,-43401.015,-35361.675,-17665.559999999998,-8.19
1764504787.988536,-7002.81,4054.68,-44671.05,-36730.755,-43402.455,-35363.475,-17666.055,-8.37
1764504787.988536,-7000.514999999999,4057.245,-44668.665,-36729.45,-43402.14,-35363.43,-17665.92,-6.705
1764504787.988536,-7002.36,4055.085,-44670.465,-36731.52,-43404.255,-35365.815,-17667.54,-8.459999999999999
1764504787.988536,-7004.07,4053.105,-44673.525,-36732.78,-43406.145,-35366.94,-17667.989999999998,-10.755
1764504787.988536,-7000.065,4056.57,-44670.735,-36729.27,-43402.725,-35363.744999999995,-17665.559999999998,-7.154999999999999
1764504787.988536,-7001.145,4055.895,-44671.5,-36730.71,-43403.49,-35365.455,-17666.64,-7.29
1764504787.988536,-7005.509999999999,4052.16,-44674.965,-36733.86,-43406.37,-35369.19,-17669.97,-10.665
1764504787.9900854,-6999.615,4057.83,-44669.205,-36727.605,-43399.26,-35360.505,-17664.434999999998,-4.59
1764504787.9900854,-7000.785,4057.02,-44669.655,-36728.91,-43398.945,-35360.28,-17664.345,-6.165
1764504787.9900854,-6997.77,4059.765,-44667.18,-36726.3,-43396.605,-35358.48,-17661.915,-4.095
1764504787.9900854,-7000.605,4056.795,-44671.32,-36729.81,-43400.97,-35362.44,-17663.04,-6.569999999999999
1764504787.9900854,-6999.389999999999,4057.965,-44670.24,-36728.37,-43399.755,-35361.18,-17661.6,-4.725
1764504787.9900854,-6996.33,4060.71,-44667.495,-36725.625,-43396.29,-35358.119999999995,-17659.934999999998,-2.07
1764504788.0363724,-6999.344999999999,4058.28,-44669.835,-36728.145,-43398.72,-35361.405,-17661.465,-4.77
1764504788.0363724,-6997.41,4060.215,-44668.395,-36725.895,-43396.56,-35359.02,-17660.88,-2.34
1764504788.0363724,-6994.665,4062.69,-44664.705,-36722.655,-43394.625,-35357.49,-17659.079999999998,-0.4499999999999999
1764504788.0363724,-6996.105,4061.835,-44666.415,-36724.905,-43396.38,-35360.19,-17661.015,-2.43
1764504788.0363724,-6996.96,4060.98,-44667.405,-36724.815,-43395.795,-35358.525,-17661.195,-1.845
1764504788.0363724,-6997.634999999999,4059.495,-44668.395,-36725.13,-43395.93,-35357.985,-17660.925,-3.195
1764504788.0363724,-6998.67,4058.37,-44669.25,-36726.03,-43396.965,-35358.39,-17660.34,-4.185
1764504788.0363724,-6998.94,4057.56,-44669.88,-36726.705,-43396.47,-35358.57,-17661.059999999998,-4.185
1764504788.0363724,-6996.96,4059.72,-44667.99,-36724.815,-43394.445,-35356.994999999995,-17659.845,-3.105
1764504788.0363724,-6996.465,4060.395,-44667.72,-36724.995,-43395.21,-35358.255,-17659.71,-2.745
1764504788.0363724,-6995.835,4060.62,-44667.315,-36724.815,-43395.795,-35359.155,-17659.665,-1.845
1764504788.0363724,-6993.63,4063.365,-44664.435,-36722.16,-43393.545,-35357.13,-17656.829999999998,0.855
1764504788.0363724,-6991.335,4065.48,-44662.14,-36719.82,-43391.925,-35355.69,-17655.795,2.97
1764504788.0363724,-6995.52,4061.34,-44666.955,-36723.87,-43396.065,-35359.02,-17658.765,-1.62
1764504788.0363724,-6993.045,4063.095,-44665.515,-36722.745,-43393.995,-35355.33,-17657.19,1.035
1764504788.0363724,-6994.53,4061.745,-44666.19,-36724.23,-43395.795,-35358.255,-17658.765,-0.27
1764504788.0363724,-6997.545,4058.235,-44670.33,-36727.875,-43400.205,-35362.53,-17660.88,-3.555
1764504788.0363724,-6995.745,4059.855,-44668.305,-36725.67,-43397.82,-35359.2,-17659.44,-1.98
1764504788.0363724,-6998.219999999999,4058.415,-44668.89,-36727.065,-43399.215,-35360.505,-17662.05,-4.905
1764504788.037408,-6995.295,4061.295,-44665.695,-36723.42,-43395.75,-35357.4,-17660.114999999998,-2.07
1764504788.037408,-6997.275,4059.72,-44667.54,-36724.005,-43395.66,-35357.67,-17661.015,-4.14
1764504788.037408,-6996.15,4061.25,-44664.84,-36722.25,-43393.095,-35355.33,-17660.114999999998,-1.845
1764504788.037408,-6996.87,4059.81,-44666.685,-36724.14,-43395.705,-35357.13,-17660.655,-2.16
1764504788.037408,-7000.74,4055.58,-44670.915,-36729.405,-43401.78,-35363.97,-17664.704999999998,-6.165
1764504788.0840282,-6997.32,4058.595,-44668.08,-36726.435,-43398.405,-35361.045,-17662.905,-3.015
1764504788.0840282,-7001.82,4054.635,-44671.95,-36731.115,-43401.87,-35365.41,-17665.559999999998,-7.154999999999999
1764504788.0840282,-7002.585,4054.095,-44672.4,-36732.015,-43402.185,-35366.22,-17666.055,-7.739999999999999
1764504788.0840282,-7002.81,4054.275,-44672.22,-36732.42,-43403.715,-35366.94,-17665.875,-7.604999999999999
1764504788.0840282,-7001.054999999999,4055.355,-44671.095,-36731.34,-43403.085,-35365.68,-17665.29,-5.805
1764504788.0840282,-7004.34,4052.52,-44675.145,-36735.165,-43406.955,-35370.675,-17668.079999999998,-10.035
1764504788.0840282,-7004.07,4053.78,-44674.605,-36734.355,-43406.685,-35370.81,-17667.72,-9.855
1764504788.0840282,-7001.37,4055.985,-44672.94,-36731.7,-43403.49,-35368.065,-17666.145,-7.515
1764504788.0855355,-6996.825,4060.08,-44669.07,-36728.055,-43399.8,-35364.33,-17662.815,-2.295
1764504788.0855355,-7004.07,4053.285,-44675.955,-36735.12,-43407.135,-35370.855,-17667.899999999998,-9.585
1764504788.0855355,-7004.7,4051.485,-44676.495,-36735.39,-43407.495,-35370.54,-17668.215,-10.71
1764504788.0855355,-7004.07,4051.98,-44674.65,-36734.04,-43406.01,-35368.425,-17667.09,-10.305
1764504788.0855355,-6999.929999999999,4056.39,-44670.555,-36729.675,-43401.33,-35363.565,-17663.715,-5.805
1764504788.0855355,-7002.134999999999,4054.005,-44673.885,-36731.97,-43403.85,-35365.59,-17664.704999999998,-7.875
1764504788.0855355,-7002.09,4054.635,-44672.445,-36731.745,-43403.4,-35365.185,-17663.399999999998,-7.83
1764504788.0855355,-7000.92,4056.21,-44670.825,-36729.81,-43401.015,-35363.115,-17661.465,-6.75
1764504788.0855355,-6996.014999999999,4060.755,-44665.965,-36724.005,-43395.21,-35357.445,-17657.82,-1.665
1764504788.0855355,-6994.889999999999,4062.51,-44664.39,-36722.205,-43393.815,-35355.645,-17655.84,0.0
1764504788.0855355,-6994.215,4063.05,-44663.895,-36722.25,-43393.68,-35355.42,-17654.715,0.6749999999999999
1764504788.0855355,-6997.545,4059.36,-44666.685,-36725.22,-43396.74,-35357.58,-17657.19,-2.295
1764504788.0855355,-7002.315,4055.49,-44671.635,-36730.08,-43401.24,-35363.43,-17660.52,-6.93
1764504788.0855355,-7003.53,4054.005,-44673.21,-36732.195,-43403.85,-35366.22,-17661.6,-7.154999999999999
1764504788.0855355,-7002.54,4055.535,-44672.58,-36731.34,-43402.77,-35365.095,-17661.059999999998,-5.625
1764504788.0855355,-7007.04,4051.305,-44676.63,-36735.165,-43406.1,-35368.92,-17664.3,-10.44
1764504788.1310446,-7007.49,4050.225,-44676.855,-36735.12,-43405.74,-35368.11,-17664.795,-11.52
1764504788.1310446,-7006.724999999999,4052.07,-44674.515,-36733.365,-43403.31,-35365.32,-17663.715,-9.765
1764504788.1310446,-7008.929999999999,4049.685,-44676.315,-36737.055,-43405.515,-35366.85,-17665.29,-11.7
1764504788.1310446,-7010.594999999999,4047.39,-44678.565,-36739.62,-43408.755,-35368.965,-17666.46,-14.13
1764504788.1310446,-7004.655,4052.97,-44673.57,-36733.815,-43403.715,-35364.015,-17662.545,-8.19
1764504788.1310446,-7007.49,4050.9,-44675.73,-36736.02,-43405.965,-35366.67,-17664.39,-11.34
1764504788.1310446,-7010.054999999999,4048.875,-44678.565,-36738.0,-43408.44,-35368.965,-17665.965,-12.645
1764504788.1310446,-7012.485,4046.715,-44680.77,-36739.89,-43410.195,-35371.215,-17667.405,-14.67
1764504788.1310446,-7013.34,4045.14,-44681.625,-36740.655,-43411.77,-35371.845,-17666.73,-15.48
1764504788.1310446,-7007.94,4050.36,-44675.64,-36735.165,-43405.605,-35365.23,-17663.445,-10.71
1764504788.1310446,-7007.31,4052.25,-44675.19,-36733.635,-43404.3,-35363.43,-17664.03,-11.025
1764504788.1310446,-7008.929999999999,4049.235,-44677.17,-36735.12,-43405.47,-35365.05,-17665.155,-12.555
1764504788.1310446,-7012.575,4045.68,-44679.645,-36738.945,-43410.015,-35370.225,-17667.72,-16.29
1764504788.1310446,-7010.145,4048.02,-44678.79,-36737.73,-43408.98,-35370.045,-17667.045,-14.715
1764504788.1310446,-7005.014999999999,4052.385,-44674.695,-36733.41,-43404.615,-35367.795,-17664.39,-10.71
1764504788.1310446,-7010.28,4047.885,-44679.735,-36738.36,-43409.79,-35372.744999999995,-17668.395,-15.39
1764504788.1310446,-7008.255,4049.91,-44677.98,-36736.605,-43406.82,-35367.119999999995,-17666.235,-12.105
1764504788.1310446,-7011.27,4046.76,-44680.95,-36739.755,-43409.16,-35366.76,-17668.079999999998,-14.22
1764504788.1310446,-7013.295,4043.835,-44682.84,-36741.915,-43411.32,-35370.405,-17670.375,-17.415
1764504788.1310446,-7011.764999999999,4044.915,-44681.22,-36740.115,-43409.52,-35368.38,-17669.565,-15.525
1764504788.1310446,-7015.455,4041.72,-44684.37,-36743.175,-43412.805,-35371.26,-17671.905,-19.62
1764504788.1310446,-7015.275,4041.99,-44684.145,-36742.23,-43413.3,-35371.755,-17671.905,-20.475
1764504788.1310446,-7011.945,4045.095,-44680.995,-36739.44,-43410.015,-35368.74,-17670.149999999998,-17.235
1764504788.1310446,-7013.115,4043.925,-44683.155,-36741.6,-43411.77,-35370.855,-17670.915,-18.315
1764504788.175908,-7008.344999999999,4048.56,-44678.475,-36738.315,-43408.44,-35367.345,-17667.495,-13.635
1764504788.175908,-7014.06,4043.655,-44684.145,-36744.075,-43413.975,-35373.015,-17672.535,-19.575
1764504788.175908,-7014.195,4042.71,-44684.1,-36743.67,-43414.02,-35375.085,-17673.84,-19.845
1764504788.175908,-7012.62,4043.43,-44683.02,-36742.185,-43413.255,-35375.67,-17673.345,-19.44
1764504788.175908,-7010.325,4045.545,-44681.265,-36740.655,-43412.625,-35374.68,-17671.815,-17.099999999999998
1764504788.175908,-7007.58,4048.47,-44678.385,-36738.495,-43409.205,-35368.11,-17667.945,-12.87
1764504788.175908,-7007.355,4048.245,-44678.97,-36738.855,-43409.655,-35368.47,-17667.989999999998,-12.96
1764504788.175908,-7006.77,4048.875,-44679.195,-36738.27,-43409.88,-35369.145,-17668.62,-12.195
1764504788.176932,-7008.344999999999,4047.705,-44680.005,-36739.98,-43411.23,-35370.585,-17669.97,-12.96
1764504788.176932,-7012.17,4045.005,-44683.335,-36743.94,-43414.92,-35374.815,-17671.905,-16.245
1764504788.176932,-7009.065,4047.885,-44680.32,-36740.205,-43411.23,-35370.63,-17669.07,-13.185
1764504788.176932,-7012.349999999999,4042.89,-44684.64,-36744.165,-43415.595,-35374.275,-17672.715,-17.145
1764504788.176932,-7010.594999999999,4045.32,-44682.615,-36741.735,-43412.985,-35371.26,-17670.239999999998,-15.57
1764504788.176932,-7007.804999999999,4047.93,-44680.14,-36738.9,-43409.88,-35368.155,-17668.125,-12.78
1764504788.176932,-7003.8,4051.53,-44676.045,-36735.255,-43405.245,-35363.25,-17665.515,-8.685
1764504788.176932,-7005.69,4050.585,-44677.215,-36735.93,-43406.73,-35364.869999999995,-17666.73,-10.53
1764504788.176932,-7009.02,4046.76,-44680.77,-36739.575,-43411.23,-35369.91,-17669.475,-13.905
1764504788.176932,-7007.67,4046.94,-44679.645,-36739.395,-43411.365,-35370.494999999995,-17670.195,-13.095
1764504788.176932,-7011.495,4042.26,-44684.145,-36744.795,-43416.945,-35375.805,-17673.66,-17.415
1764504788.176932,-7009.695,4044.87,-44682.255,-36743.58,-43415.19,-35374.635,-17671.14,-15.12
1764504788.176932,-7004.565,4049.73,-44677.575,-36738.18,-43410.105,-35368.92,-17667.0,-10.125
1764504788.176932,-7008.75,4045.23,-44681.67,-36742.5,-43413.84,-35372.115,-17670.78,-13.995
1764504788.176932,-7014.42,4039.83,-44687.7,-36748.665,-43419.42,-35377.875,-17674.245,-20.115
1764504788.176932,-7016.445,4038.615,-44688.735,-36749.475,-43420.77,-35379.63,-17676.045,-21.195
1764504788.223079,-7015.545,4038.93,-44688.15,-36748.71,-43420.455,-35379.54,-17676.045,-20.88
1764504788.223079,-7013.115,4040.91,-44684.82,-36745.74,-43417.215,-35376.165,-17674.335,-18.81
1764504788.2236102,-7007.895,4046.22,-44678.79,-36739.89,-43411.32,-35370.855,-17670.555,-13.455
1764504788.2236102,-7007.67,4046.355,-44679.105,-36739.665,-43409.79,-35369.64,-17669.16,-12.825
1764504788.2236102,-7011.63,4042.71,-44683.515,-36743.805,-43413.39,-35373.195,-17671.23,-17.189999999999998
1764504788.2236102,-7010.009999999999,4043.7,-44683.515,-36743.22,-43413.39,-35373.555,-17670.87,-16.875
1764504788.2236102,-7005.915,4047.075,-44680.86,-36739.215,-43410.645,-35370.63,-17668.35,-12.78
1764504788.2236102,-7010.415,4042.8,-44684.82,-36743.67,-43414.47,-35374.905,-17671.68,-16.605
1764504788.2236102,-7006.995,4046.58,-44680.005,-36739.08,-43409.205,-35369.82,-17668.305,-12.96
1764504788.2236102,-7008.344999999999,4045.05,-44681.58,-36740.34,-43409.745,-35368.515,-17667.945,-14.94
1764504788.2236102,-7002.224999999999,4050.495,-44677.08,-36735.39,-43404.345,-35362.665,-17663.489999999998,-9.945
1764504788.2236102,-7003.665,4049.73,-44677.305,-36736.47,-43406.73,-35365.32,-17664.795,-11.07
1764504788.2236102,-7007.625,4045.545,-44680.455,-36739.89,-43410.78,-35369.145,-17666.73,-13.995
1764504788.2236102,-7003.349999999999,4049.91,-44677.08,-36736.02,-43406.685,-35365.68,-17663.13,-9.9
1764504788.2236102,-7005.42,4047.525,-44679.555,-36738.99,-43409.07,-35368.83,-17664.57,-12.555
1764504788.2236102,-6999.929999999999,4052.97,-44673.255,-36733.095,-43403.4,-35362.395,-17660.79,-7.335
1764504788.2236102,-7000.514999999999,4052.07,-44674.02,-36733.185,-43402.365,-35361.494999999995,-17660.25,-7.29
1764504788.2236102,-7006.679999999999,4047.21,-44679.195,-36738.09,-43408.44,-35368.74,-17664.93,-13.41
1764504788.2236102,-7003.08,4051.35,-44674.965,-36734.49,-43405.92,-35366.49,-17663.355,-9.945
1764504788.2236102,-7002.81,4050.18,-44675.37,-36735.84,-43407.315,-35367.525,-17663.715,-10.26
1764504788.2236102,-7005.285,4047.48,-44678.655,-36738.54,-43409.79,-35370.0,-17666.505,-13.095
1764504788.2236102,-7002.945,4050.135,-44677.215,-36735.795,-43405.2,-35363.97,-17663.22,-9.585
1764504788.2720926,-7005.465,4047.21,-44679.645,-36737.415,-43406.505,-35363.97,-17664.21,-11.97
1764504788.2720926,-7005.69,4046.13,-44679.24,-36737.235,-43406.28,-35364.465,-17665.29,-13.005
1764504788.2720926,-7003.44,4048.83,-44676.36,-36734.445,-43403.355,-35360.82,-17663.579999999998,-10.62
1764504788.2720926,-7004.384999999999,4047.84,-44677.305,-36735.48,-43405.245,-35362.215,-17663.67,-10.98
1764504788.2720926,-6999.66,4052.52,-44672.805,-36731.115,-43401.465,-35358.885,-17659.934999999998,-5.49
1764504788.2720926,-6999.48,4052.565,-44673.975,-36732.105,-43402.455,-35360.369999999995,-17660.385,-5.355
1764504788.2720926,-6999.75,4051.62,-44674.92,-36733.32,-43403.67,-35361.72,-17660.7,-7.38
1764504788.2720926,-7004.384999999999,4046.76,-44679.465,-36738.18,-43408.71,-35367.165,-17664.66,-11.52
1764504788.2720926,-7002.134999999999,4048.92,-44676.585,-36736.155,-43407.585,-35365.95,-17663.67,-7.739999999999999
1764504788.2720926,-7001.82,4049.28,-44675.82,-36736.02,-43407.765,-35365.59,-17663.445,-7.515
1764504788.2720926,-7001.054999999999,4050.36,-44675.19,-36734.445,-43406.145,-35363.34,-17662.41,-7.154999999999999
1764504788.2720926,-7002.54,4048.335,-44677.305,-36736.155,-43408.53,-35365.994999999995,-17663.445,-9.765
1764504788.2720926,-7000.38,4051.26,-44675.145,-36733.23,-43405.965,-35364.96,-17661.69,-7.425
1764504788.2720926,-6998.13,4053.51,-44672.58,-36730.215,-43404.75,-35362.8,-17660.385,-5.805
1764504788.2720926,-6996.825,4054.545,-44671.14,-36728.64,-43400.97,-35356.68,-17658.27,-3.87
1764504788.2720926,-7005.014999999999,4045.905,-44679.105,-36737.55,-43408.665,-35361.99,-17664.165,-11.97
1764504788.2720926,-7000.469999999999,4050.045,-44674.965,-36733.77,-43405.38,-35360.505,-17662.59,-8.504999999999999
1764504788.2720926,-6999.255,4050.225,-44675.01,-36733.095,-43405.02,-35361.045,-17662.68,-7.83
1764504788.2720926,-7002.495,4047.705,-44678.43,-36736.965,-43409.295,-35366.67,-17664.795,-9.675
1764504788.2720926,-6999.389999999999,4051.17,-44675.325,-36735.165,-43407.495,-35365.32,-17663.04,-6.12
1764504788.2720926,-7001.82,4048.92,-44677.17,-36737.37,-43409.07,-35366.985,-17664.704999999998,-9.09
1764504788.2720926,-6997.815,4053.105,-44673.57,-36733.365,-43404.615,-35362.755,-17661.6,-5.49
1764504788.273101,-6998.13,4052.61,-44674.11,-36733.59,-43404.435,-35360.955,-17661.015,-5.22
1764504788.273101,-6997.634999999999,4052.88,-44673.39,-36732.69,-43403.535,-35359.11,-17660.475,-5.04
1764504788.3156295,-6997.815,4053.15,-44674.38,-36732.87,-43403.94,-35359.56,-17660.565,-4.95
1764504788.3156295,-6998.13,4052.79,-44675.595,-36734.67,-43405.74,-35362.485,-17661.42,-5.355
1764504788.3156295,-6997.275,4053.33,-44674.515,-36733.59,-43405.02,-35361.405,-17660.114999999998,-4.905
1764504788.3156295,-7001.73,4048.695,-44677.89,-36737.955,-43411.095,-35366.94,-17662.77,-9.225
1764504788.3156295,-7003.304999999999,4047.525,-44679.24,-36739.62,-43412.13,-35368.38,-17663.13,-9.945
1764504788.3156295,-7003.755,4046.76,-44679.555,-36739.98,-43412.22,-35368.38,-17663.445,-10.755
1764504788.3156295,-7003.844999999999,4046.805,-44680.14,-36739.71,-43412.085,-35368.065,-17664.39,-10.89
1764504788.3156295,-7003.17,4047.885,-44678.79,-36738.81,-43410.78,-35364.915,-17663.175,-9.99
1764504788.3156295,-6998.715,4053.015,-44674.065,-36733.68,-43405.47,-35359.83,-17659.079999999998,-5.13
1764504788.3156295,-6997.455,4054.23,-44672.94,-36733.365,-43404.165,-35358.48,-17658.27,-4.41
1764504788.3156295,-6997.32,4054.5,-44672.58,-36733.365,-43403.22,-35358.119999999995,-17657.37,-4.59
1764504788.3156295,-6999.929999999999,4052.385,-44673.885,-36734.265,-43404.93,-35360.145,-17658.405,-6.525
1764504788.3156295,-7002.764999999999,4050.945,-44675.865,-36735.66,-43406.37,-35362.215,-17659.845,-9.36
1764504788.3156295,-7007.759999999999,4045.5,-44681.04,-36741.24,-43412.445,-35368.244999999995,-17663.489999999998,-13.725
1764504788.3178737,-7005.735,4046.355,-44679.105,-36739.71,-43410.78,-35366.58,-17661.915,-11.565
1764504788.3178737,-7006.995,4044.96,-44680.995,-36740.925,-43411.95,-35367.165,-17662.14,-13.545
1764504788.3178737,-7006.86,4045.995,-44680.14,-36740.115,-43410.78,-35365.635,-17661.059999999998,-13.185
1764504788.3178737,-7007.04,4046.355,-44679.15,-36739.89,-43410.195,-35365.905,-17661.105,-12.735
1764504788.3188703,-7007.985,4046.4,-44678.97,-36740.385,-43410.33,-35366.265,-17661.239999999998,-14.175
1764504788.3188703,-7006.86,4048.245,-44676.855,-36737.64,-43408.44,-35364.195,-17659.98,-13.32
1764504788.3188703,-7003.215,4050.855,-44675.55,-36733.815,-43404.615,-35359.29,-17656.155,-9.315
1764504788.3188703,-7006.23,4048.02,-44678.385,-36736.02,-43406.595,-35360.685,-17657.774999999998,-11.07
1764504788.3188703,-7005.87,4048.74,-44677.305,-36735.84,-43407.09,-35361.27,-17657.28,-12.24
1764504788.3188703,-7002.63,4050.855,-44673.705,-36732.285,-43402.815,-35356.095,-17654.805,-8.775
1764504788.362124,-7004.429999999999,4049.28,-44675.1,-36733.365,-43404.165,-35357.22,-17656.02,-10.395
1764504788.362124,-7009.74,4044.06,-44680.455,-36738.54,-43409.43,-35362.53,-17659.845,-16.47
1764504788.362124,-7009.92,4044.6,-44679.645,-36737.73,-43409.43,-35362.619999999995,-17660.204999999998,-16.605
1764504788.362124,-7005.69,4049.505,-44675.505,-36734.895,-43406.415,-35360.415,-17657.954999999998,-12.645
1764504788.362124,-7008.48,4046.22,-44678.655,-36739.08,-43411.815,-35367.345,-17660.024999999998,-16.245
1764504788.362124,-7006.634999999999,4047.165,-44676.99,-36736.83,-43410.195,-35366.49,-17658.63,-14.13
1764504788.362124,-7003.17,4049.235,-44675.19,-36734.67,-43405.155,-35358.705,-17655.03,-9.81
1764504788.362124,-7007.985,4044.51,-44680.815,-36740.025,-43409.07,-35359.965,-17657.954999999998,-14.085
1764504788.362124,-7009.02,4044.6,-44680.77,-36741.69,-43413.615,-35368.02,-17660.52,-15.39
1764504788.362124,-7011.224999999999,4041.27,-44683.2,-36743.76,-43416.855,-35371.08,-17662.005,-17.865
1764504788.362124,-7007.04,4045.68,-44679.015,-36739.53,-43412.265,-35366.4,-17658.945,-13.5
1764504788.362124,-7007.895,4045.32,-44680.095,-36739.845,-43412.085,-35366.265,-17658.675,-14.22
1764504788.362124,-7003.215,4051.035,-44674.38,-36734.22,-43406.19,-35360.865,-17654.85,-9.315
1764504788.362124,-7002.945,4051.08,-44674.38,-36734.13,-43405.74,-35360.46,-17654.04,-9.225
1764504788.362124,-7006.77,4046.22,-44678.655,-36738.54,-43410.195,-35364.105,-17657.01,-13.365
1764504788.362124,-7003.755,4048.83,-44676.045,-36735.165,-43405.965,-35359.965,-17654.895,-10.035
1764504788.362124,-6998.4,4053.6,-44670.645,-36729.765,-43400.07,-35353.17,-17650.26,-4.455
1764504788.362124,-7002.585,4049.37,-44674.92,-36734.985,-43404.48,-35357.94,-17653.364999999998,-8.865
1764504788.362124,-7003.395,4048.56,-44676.315,-36736.47,-43407.0,-35361.18,-17655.165,-9.585
1764504788.3631375,-7004.565,4047.03,-44676.99,-36737.865,-43409.25,-35363.07,-17655.975,-10.215
1764504788.3631375,-7005.105,4045.995,-44677.845,-36738.945,-43410.42,-35363.43,-17656.11,-10.755
1764504788.3631375,-7003.349999999999,4048.56,-44676.315,-36736.785,-43408.665,-35362.08,-17654.489999999998,-9.585
1764504788.4081562,-7003.215,4048.29,-44676.225,-36736.065,-43408.08,-35361.945,-17654.67,-9.135
1764504788.4081562,-7003.844999999999,4047.345,-44676.405,-36735.975,-43408.44,-35361.855,-17655.255,-10.44
1764504788.4081562,-7003.755,4047.975,-44675.19,-36734.67,-43406.235,-35358.21,-17654.445,-10.17
1764504788.4081562,-7000.065,4051.485,-44671.815,-36731.34,-43400.745,-35350.695,-17651.295,-6.029999999999999
1764504788.4081562,-6998.67,4053.24,-44670.915,-36729.495,-43399.395,-35349.93,-17650.079999999998,-3.735
1764504788.4081562,-7001.82,4049.55,-44674.92,-36733.905,-43404.84,-35356.95,-17654.13,-6.975
1764504788.4081562,-7004.61,4045.95,-44678.43,-36738.225,-43410.42,-35362.755,-17656.739999999998,-10.35
1764504788.4081562,-7002.99,4047.075,-44677.035,-36737.325,-43410.105,-35362.26,-17656.29,-8.865
1764504788.4097333,-7001.19,4049.145,-44674.785,-36735.57,-43408.845,-35360.235,-17655.075,-6.705
1764504788.4097333,-7006.275,4044.555,-44679.645,-36739.17,-43412.67,-35365.14,-17658.225,-11.835
1764504788.4097333,-7003.844999999999,4046.625,-44678.52,-36737.73,-43411.14,-35363.34,-17657.145,-9.855
1764504788.4097333,-7002.54,4047.93,-44677.26,-36736.875,-43409.205,-35361.18,-17656.065,-8.415
1764504788.4097333,-7002.9,4047.435,-44677.89,-36737.01,-43409.34,-35360.775,-17656.965,-7.83
1764504788.4097333,-7002.045,4047.48,-44677.35,-36736.74,-43408.8,-35361.09,-17656.829999999998,-6.705
1764504788.4097333,-6999.165,4049.82,-44674.515,-36734.265,-43407.045,-35358.975,-17655.795,-4.725
1764504788.4097333,-7004.52,4043.43,-44680.275,-36740.88,-43413.165,-35365.095,-17660.295,-10.665
1764504788.4097333,-7003.71,4044.6,-44679.195,-36739.395,-43411.545,-35363.295,-17659.8,-9.99
1764504788.4097333,-7001.37,4047.39,-44675.37,-36735.3,-43407.18,-35359.47,-17657.684999999998,-7.785
1764504788.4097333,-6997.995,4050.36,-44672.76,-36731.61,-43403.535,-35354.744999999995,-17655.48,-4.59
1764504788.4097333,-7000.65,4047.48,-44676.135,-36734.445,-43405.56,-35356.32,-17655.84,-6.48
1764504788.4097333,-6997.185,4050.855,-44673.795,-36732.465,-43403.715,-35353.845,-17653.77,-2.97
1764504788.4097333,-6998.175,4050.225,-44674.245,-36733.41,-43405.56,-35356.86,-17655.12,-3.465
1764504788.4097333,-6999.929999999999,4048.56,-44675.37,-36734.805,-43406.73,-35359.11,-17657.1,-5.444999999999999
1764504788.4097333,-7000.605,4048.2,-44675.325,-36735.435,-43407.495,-35359.92,-17657.37,-5.895
1764504788.4575343,-6992.145,4055.76,-44668.485,-36728.055,-43399.89,-35351.955,-17650.215,1.53
1764504788.4575343,-6996.195,4051.08,-44673.84,-36732.24,-43403.805,-35356.455,-17652.96,-2.34
1764504788.4575343,-6992.639999999999,4054.5,-44670.42,-36729.09,-43400.475,-35353.485,-17650.934999999998,0.4049999999999999
1764504788.4575343,-6992.865,4054.095,-44670.285,-36729.09,-43400.205,-35353.755,-17651.295,0.4499999999999999
1764504788.4585493,-6995.925,4050.45,-44674.155,-36732.555,-43402.59,-35355.735,-17653.86,-2.79
1764504788.4585493,-6992.685,4053.465,-44670.195,-36728.91,-43399.53,-35352.81,-17651.97,-0.4499999999999999
1764504788.4585493,-6992.865,4054.32,-44669.295,-36728.19,-43398.585,-35351.865,-17650.934999999998,-0.135
1764504788.4585493,-6993.719999999999,4053.555,-44670.825,-36727.785,-43398.045,-35350.65,-17650.98,-1.305
1764504788.4595442,-6998.715,4049.685,-44674.875,-36732.195,-43403.265,-35356.32,-17655.345,-6.93
1764504788.4596426,-6997.139999999999,4052.07,-44671.365,-36729.18,-43401.285,-35354.744999999995,-17652.735,-5.49
1764504788.4596426,-6985.304999999999,4063.545,-44661.42,-36718.065,-43389.99,-35343.27,-17642.97,5.715
1764504788.4596426,-6989.4,4059.27,-44666.055,-36723.195,-43393.68,-35345.52,-17645.085,2.88
1764504788.4596426,-6993.855,4054.14,-44670.78,-36728.64,-43399.53,-35350.785,-17647.829999999998,-0.4499999999999999
1764504788.4596426,-6989.67,4058.01,-44666.28,-36724.725,-43395.435,-35347.365,-17645.445,3.42
1764504788.4596426,-6989.804999999999,4056.975,-44666.64,-36724.41,-43395.615,-35346.33,-17645.445,3.105
1764504788.460657,-6992.145,4055.535,-44668.53,-36726.255,-43398.45,-35349.21,-17646.48,1.62
1764504788.460657,-6994.53,4052.835,-44671.23,-36730.08,-43402.365,-35353.619999999995,-17649.135,-1.7999999999999998
1764504788.460657,-6990.12,4057.785,-44667.135,-36726.75,-43398.855,-35350.605,-17645.579999999998,2.745
1764504788.460657,-6988.815,4058.73,-44666.28,-36726.03,-43399.215,-35351.82,-17644.32,3.69
1764504788.460657,-6989.715,4058.055,-44667.18,-36728.1,-43401.78,-35354.97,-17644.95,1.62
1764504788.460657,-6985.889999999999,4061.745,-44663.04,-36725.355,-43397.235,-35351.46,-17642.43,5.22
1764504788.4616487,-6989.804999999999,4057.515,-44666.1,-36728.955,-43399.89,-35354.43,-17646.255,1.935
1764504788.502267,-6992.054999999999,4055.085,-44668.305,-36730.665,-43401.78,-35355.69,-17648.46,0.2249999999999999
1764504788.503278,-6996.06,4050.81,-44672.04,-36733.995,-43404.75,-35358.57,-17650.53,-3.96
1764504788.503278,-6995.655,4051.935,-44672.04,-36732.555,-43403.13,-35357.13,-17650.26,-3.465
1764504788.503278,-6990.57,4057.245,-44667.63,-36727.11,-43397.82,-35351.19,-17645.985,1.7999999999999998
1764504788.5042746,-6992.325,4055.31,-44669.07,-36729.135,-43399.71,-35353.53,-17647.245,0.18
1764504788.5042746,-6989.264999999999,4058.955,-44666.235,-36725.94,-43396.74,-35349.84,-17645.625,3.51
1764504788.5042746,-6988.23,4060.44,-44665.245,-36724.815,-43396.155,-35349.3,-17644.995,5.355
1764504788.5042746,-6988.23,4060.125,-44665.2,-36724.86,-43396.2,-35350.02,-17645.355,4.455
1764504788.5052738,-6987.554999999999,4060.62,-44663.805,-36723.465,-43395.885,-35349.93,-17644.05,5.04
1764504788.5052738,-6991.335,4056.345,-44668.44,-36727.965,-43399.845,-35351.865,-17645.13,1.575
1764504788.5060966,-6988.679999999999,4057.965,-44666.955,-36725.49,-43396.425,-35347.23,-17642.16,4.59
1764504788.5060966,-6991.92,4055.265,-44669.07,-36727.155,-43399.08,-35350.965,-17644.77,1.53
1764504788.5060966,-6988.815,4058.73,-44664.255,-36724.635,-43395.03,-35347.994999999995,-17643.555,4.995
1764504788.5060966,-6989.355,4057.56,-44664.795,-36725.355,-43395.84,-35348.85,-17644.77,3.105
1764504788.5060966,-6994.304999999999,4052.88,-44669.925,-36730.17,-43400.88,-35352.405,-17647.02,-1.17
1764504788.5060966,-6994.575,4053.15,-44671.59,-36730.575,-43400.43,-35350.74,-17646.345,-0.495
1764504788.5071154,-6990.929999999999,4057.29,-44668.08,-36727.38,-43398.0,-35348.445,-17644.68,3.105
1764504788.5071154,-6992.505,4056.165,-44669.43,-36729.54,-43399.71,-35350.74,-17645.085,1.665
1764504788.5071154,-6989.67,4058.73,-44666.73,-36726.12,-43396.245,-35348.13,-17643.195,4.05
1764504788.5071154,-6995.655,4051.53,-44672.355,-36731.61,-43402.365,-35354.07,-17648.864999999998,-2.25
1764504788.5071154,-6993.224999999999,4053.195,-44670.06,-36728.37,-43400.205,-35351.01,-17647.559999999998,0.4049999999999999
1764504788.5071154,-6993.27,4053.24,-44669.79,-36729.135,-43400.295,-35351.55,-17647.2,-0.495
1764504788.5071154,-6996.24,4050.27,-44672.13,-36731.745,-43402.68,-35354.385,-17648.55,-3.195
1764504788.5071154,-6994.71,4051.26,-44671.005,-36730.125,-43401.87,-35352.45,-17647.29,-2.385
1764504788.5524132,-6993.134999999999,4053.465,-44669.115,-36727.74,-43399.305,-35350.83,-17645.13,-0.765
1764504788.5524132,-6992.955,4053.645,-44669.43,-36727.47,-43398.855,-35350.335,-17645.04,-0.99
1764504788.5524132,-6991.83,4055.67,-44667.99,-36725.265,-43397.1,-35347.994999999995,-17643.555,0.585
1764504788.5524132,-6987.915,4060.08,-44662.86,-36720.855,-43391.385,-35342.055,-17640.18,4.77
1764504788.5524132,-6987.87,4059.495,-44662.23,-36720.27,-43390.62,-35340.03,-17639.82,4.635
1764504788.5524132,-6989.715,4057.56,-44664.345,-36722.43,-43392.96,-35341.92,-17641.305,2.655
1764504788.5524132,-6993.405,4054.725,-44668.53,-36727.065,-43398.585,-35348.085,-17643.329999999998,-0.18
1764504788.5524132,-6994.349999999999,4053.42,-44669.655,-36729.225,-43401.195,-35351.145,-17645.22,-1.17
1764504788.5524132,-6992.099999999999,4055.67,-44667.45,-36727.38,-43399.98,-35350.695,-17643.645,0.72
1764504788.5524132,-6993.495,4054.41,-44668.755,-36729.09,-43401.33,-35352.315,-17645.265,-0.585
1764504788.5534215,-6997.094999999999,4050.045,-44671.59,-36732.6,-43404.435,-35355.06,-17648.954999999998,-4.14
1764504788.5534215,-7001.19,4046.22,-44676.54,-36736.695,-43409.43,-35359.965,-17651.88,-7.965
1764504788.5534215,-6997.724999999999,4049.685,-44672.895,-36733.23,-43406.325,-35356.545,-17648.82,-4.635
1764504788.5534215,-6996.915,4049.955,-44671.275,-36732.195,-43405.02,-35355.78,-17647.245,-4.41
1764504788.5534215,-6992.73,4054.32,-44667.63,-36727.74,-43400.52,-35350.515,-17643.6,0.27
1764504788.5540245,-6997.139999999999,4049.91,-44672.85,-36732.465,-43404.84,-35354.61,-17648.145,-4.23
1764504788.5540245,-6998.49,4048.155,-44673.66,-36732.915,-43405.695,-35355.465,-17648.954999999998,-5.715
1764504788.5540245,-7000.29,4047.255,-44673.435,-36732.915,-43404.795,-35355.195,-17647.739999999998,-6.885
1764504788.5540245,-7002.855,4044.51,-44676.045,-36736.29,-43407.99,-35357.445,-17649.135,-9.405
1764504788.5540245,-7000.56,4046.805,-44676.0,-36734.895,-43407.09,-35355.42,-17647.29,-7.515
1764504788.5540245,-7000.695,4046.985,-44676.135,-36736.155,-43407.54,-35356.005,-17647.245,-6.795
1764504788.5540245,-7002.315,4044.78,-44678.52,-36739.08,-43411.365,-35359.83,-17649.27,-8.325
1764504788.5540245,-7002.09,4044.87,-44679.015,-36739.26,-43413.255,-35363.34,-17649.72,-9.405
1764504788.5540245,-6999.48,4047.705,-44675.73,-36736.38,-43410.42,-35361.09,-17648.055,-7.245
1764504788.59736,-6995.655,4051.53,-44671.455,-36731.61,-43405.695,-35354.565,-17644.68,-3.195
1764504788.59736,-6999.705,4046.535,-44675.91,-36735.93,-43410.465,-35358.165,-17647.38,-6.885
1764504788.59736,-6998.94,4046.76,-44676.045,-36735.21,-43409.565,-35358.795,-17647.29,-6.255
1764504788.59736,-6998.94,4047.705,-44675.595,-36735.48,-43409.97,-35359.29,-17647.829999999998,-6.029999999999999
1764504788.59736,-6998.94,4048.335,-44674.74,-36734.895,-43408.755,-35358.615,-17647.605,-5.31
1764504788.59736,-6996.645,4050.36,-44672.445,-36732.33,-43406.055,-35354.925,-17646.48,-3.87
1764504788.59736,-6996.105,4050.0,-44672.94,-36733.14,-43406.19,-35354.07,-17645.985,-4.095
1764504788.59736,-6997.634999999999,4049.235,-44673.84,-36734.535,-43407.54,-35355.735,-17646.84,-4.77
1764504788.59736,-7000.695,4045.905,-44677.08,-36737.415,-43410.465,-35358.255,-17649.18,-7.515
1764504788.59736,-6995.52,4050.63,-44672.265,-36731.79,-43405.56,-35353.665,-17645.94,-2.835
1764504788.59736,-6995.205,4050.9,-44672.085,-36732.42,-43406.01,-35354.25,-17645.895,-3.15
1764504788.59736,-7002.764999999999,4043.385,-44679.645,-36740.16,-43412.715,-35359.244999999995,-17651.745,-8.685
1764504788.59736,-6999.03,4048.245,-44674.515,-36735.57,-43409.115,-35356.994999999995,-17649.09,-4.14
1764504788.59736,-6999.03,4048.605,-44674.02,-36735.3,-43409.655,-35359.38,-17648.954999999998,-5.04
1764504788.5984,-6994.755,4051.53,-44670.42,-36731.7,-43405.47,-35355.015,-17647.29,-2.07
1764504788.5984,-6996.33,4049.505,-44671.77,-36732.6,-43405.155,-35351.055,-17647.425,-2.745
1764504788.5993738,-6997.815,4049.235,-44672.94,-36733.14,-43405.2,-35350.74,-17646.975,-3.465
1764504788.5993738,-6999.03,4047.885,-44674.065,-36733.995,-43405.47,-35352.135,-17648.415,-5.31
1764504788.5993738,-6997.139999999999,4048.83,-44673.12,-36733.185,-43404.75,-35350.38,-17647.155,-3.15
1764504788.5993738,-6993.09,4051.98,-44669.61,-36728.775,-43400.925,-35345.97,-17643.87,1.035
1764504788.5993738,-6993.45,4052.16,-44669.295,-36727.74,-43400.295,-35346.465,-17643.78,1.98
1764504788.6004207,-6997.815,4048.155,-44673.975,-36732.42,-43406.505,-35352.09,-17647.739999999998,-1.665
1764504788.6004207,-6994.935,4051.485,-44671.23,-36729.99,-43403.805,-35350.29,-17645.94,0.8099999999999999
1764504788.6004207,-6997.995,4048.11,-44674.695,-36733.815,-43407.18,-35354.88,-17648.505,-3.105
1764504788.646839,-6996.465,4049.505,-44673.21,-36732.42,-43405.515,-35352.36,-17647.92,-1.845
1764504788.647831,-7000.245,4045.995,-44676.495,-36735.84,-43409.52,-35355.825,-17650.035,-5.04
1764504788.647831,-6998.355,4047.525,-44674.065,-36733.995,-43407.495,-35354.43,-17649.09,-3.33
1764504788.647831,-6993.855,4050.855,-44669.88,-36730.215,-43403.895,-35350.155,-17646.885,0.27
1764504788.647831,-6992.099999999999,4051.935,-44669.475,-36729.945,-43404.705,-35351.145,-17646.3,1.26
1764504788.647831,-6988.545,4055.445,-44666.505,-36725.985,-43401.42,-35348.895,-17643.825,4.32
1764504788.647831,-6987.554999999999,4056.57,-44665.02,-36724.86,-43400.475,-35348.715,-17642.97,5.265
1764504788.647831,-6992.325,4050.495,-44670.735,-36730.215,-43404.525,-35350.785,-17645.715,1.305
1764504788.647831,-6997.995,4044.96,-44676.495,-36735.975,-43409.565,-35355.195,-17649.09,-4.005
1764504788.647831,-6999.165,4044.78,-44676.99,-36736.92,-43410.555,-35356.68,-17650.8,-5.13
1764504788.6493404,-6998.219999999999,4045.545,-44675.64,-36735.21,-43408.98,-35355.33,-17650.305,-3.825
1764504788.6493404,-6993.405,4050.135,-44671.23,-36730.08,-43402.905,-35349.615,-17646.93,1.035
1764504788.6493404,-6996.554999999999,4047.93,-44674.065,-36733.05,-43406.415,-35352.945,-17648.28,-2.16
1764504788.6493404,-6994.08,4050.81,-44671.68,-36729.495,-43403.94,-35350.02,-17645.94,-0.4049999999999999
1764504788.6493404,-6990.03,4053.78,-44668.44,-36726.57,-43400.79,-35346.195,-17643.915,3.375
1764504788.6493404,-6993.315,4049.64,-44671.68,-36730.395,-43403.67,-35350.29,-17646.165,0.135
1764504788.6493404,-6990.884999999999,4051.935,-44668.755,-36728.01,-43400.88,-35348.535,-17644.815,2.34
1764504788.6503518,-6992.19,4050.36,-44671.77,-36729.945,-43404.255,-35350.38,-17646.345,0.36
1764504788.6503518,-6988.005,4054.905,-44667.18,-36725.805,-43399.62,-35345.385,-17642.745,4.545
1764504788.6503518,-6987.195,4054.77,-44667.18,-36725.58,-43399.035,-35345.655,-17642.295,5.13
1764504788.6503518,-6989.715,4051.935,-44669.655,-36727.38,-43402.05,-35348.805,-17644.095,2.745
1764504788.6503518,-6986.295,4054.95,-44667.09,-36725.355,-43400.88,-35346.6,-17641.8,5.444999999999999
1764504788.6903636,-6988.455,4053.06,-44668.845,-36728.28,-43403.85,-35350.065,-17642.745,3.825
1764504788.6903636,-6989.175,4052.43,-44668.755,-36728.955,-43404.57,-35351.505,-17643.69,1.98
1764504788.6903636,-6986.565,4054.365,-44667.135,-36727.92,-43403.985,-35350.875,-17642.655,3.42
1764504788.6908748,-6980.625,4059.81,-44662.23,-36722.52,-43399.17,-35346.15,-17638.02,10.215
1764504788.6908748,-6981.75,4059.18,-44664.03,-36723.33,-43401.24,-35347.905,-17638.065,9.9
1764504788.6908748,-6986.61,4055.355,-44667.855,-36727.92,-43406.37,-35353.215,-17641.98,5.04
1764504788.6908748,-6982.695,4059.18,-44663.805,-36724.275,-43402.23,-35350.29,-17639.37,9.09
1764504788.6908748,-6983.37,4057.56,-44664.615,-36725.13,-43402.275,-35350.695,-17639.73,8.37
1764504788.6908748,-6983.46,4056.975,-44664.795,-36724.905,-43401.645,-35349.57,-17639.82,7.154999999999999
1764504788.6908748,-6985.98,4054.86,-44667.54,-36728.325,-43403.895,-35352.18,-17640.989999999998,4.23
1764504788.6908748,-6988.41,4051.935,-44669.97,-36730.53,-43406.91,-35354.565,-17642.295,1.53
1764504788.6908748,-6983.955,4056.75,-44665.11,-36725.265,-43401.015,-35347.68,-17638.29,6.525
1764504788.6908748,-6983.145,4058.28,-44664.3,-36724.68,-43399.935,-35345.79,-17636.445,8.865
1764504788.6908748,-6985.125,4056.93,-44665.83,-36726.345,-43401.15,-35347.32,-17637.165,6.435
1764504788.6908748,-6982.74,4058.775,-44664.255,-36722.79,-43396.92,-35343.225,-17635.995,8.01
1764504788.6908748,-6989.219999999999,4053.24,-44668.89,-36727.335,-43402.59,-35349.48,-17641.845,1.035
1764504788.6908748,-6987.014999999999,4055.355,-44666.64,-36725.355,-43400.925,-35346.825,-17640.989999999998,2.655
1764504788.6908748,-6990.3,4050.855,-44670.33,-36729.36,-43404.57,-35350.92,-17642.88,-0.585
1764504788.6908748,-6989.985,4051.71,-44669.655,-36729.27,-43404.48,-35352.045,-17642.16,0.4049999999999999
1764504788.6908748,-6989.04,4053.015,-44669.565,-36728.82,-43404.03,-35351.505,-17642.024999999998,0.495
1764504788.6908748,-6990.075,4050.81,-44671.005,-36730.53,-43403.58,-35349.615,-17642.52,-0.18
1764504788.6908748,-6990.75,4049.91,-44670.87,-36729.675,-43402.32,-35347.86,-17642.43,-0.27
1764504788.6908748,-6986.384999999999,4054.275,-44666.685,-36724.905,-43397.55,-35342.28,-17639.325,3.42
1764504788.6908748,-6985.8,4055.445,-44666.37,-36724.5,-43397.37,-35341.155,-17638.829999999998,3.96
1764504788.7410216,-6985.755,4055.895,-44665.74,-36724.05,-43397.73,-35341.785,-17638.29,4.68
1764504788.7410216,-6986.205,4054.86,-44666.595,-36725.175,-43399.08,-35343.72,-17638.785,4.365
1764504788.7416754,-6985.62,4055.67,-44666.325,-36725.94,-43400.205,-35344.98,-17638.29,4.859999999999999
1764504788.7416754,-6990.075,4051.035,-44670.78,-36730.395,-43405.29,-35350.605,-17641.845,0.72
1764504788.741887,-6988.05,4052.655,-44669.79,-36729.675,-43403.94,-35349.93,-17640.945,2.16
1764504788.741887,-6989.264999999999,4052.34,-44671.14,-36729.945,-43404.255,-35350.29,-17641.215,1.485
1764504788.741887,-6991.155,4051.8,-44671.95,-36730.845,-43405.74,-35352.315,-17642.16,0.4049999999999999
1764504788.741887,-6994.53,4048.155,-44675.37,-36735.705,-43411.14,-35357.04,-17644.23,-3.105
1764504788.741887,-6992.37,4049.19,-44674.245,-36734.175,-43409.52,-35354.655,-17642.34,-1.575
1764504788.741887,-6989.355,4051.665,-44670.915,-36730.62,-43405.56,-35351.73,-17639.64,1.44
1764504788.741887,-6984.45,4057.065,-44665.29,-36725.715,-43400.475,-35347.905,-17636.895,6.614999999999999
1764504788.741887,-6987.645,4053.96,-44668.755,-36728.64,-43403.94,-35351.73,-17640.315,3.06
1764504788.741887,-6992.415,4049.82,-44672.58,-36732.15,-43407.855,-35354.97,-17643.285,-1.755
1764504788.741887,-6991.83,4050.81,-44671.275,-36731.07,-43405.47,-35349.705,-17641.44,-0.36
1764504788.741887,-6994.8,4047.255,-44674.785,-36733.77,-43408.395,-35352.09,-17643.42,-3.645
1764504788.741887,-6991.245,4050.585,-44671.545,-36730.395,-43404.615,-35349.435,-17641.71,-1.035
1764504788.741887,-6992.955,4049.73,-44672.175,-36731.79,-43406.91,-35351.415,-17642.34,-3.105
1764504788.741887,-6991.605,4050.315,-44671.995,-36730.17,-43405.74,-35350.74,-17642.07,-2.115
1764504788.741887,-6991.74,4050.36,-44671.86,-36730.62,-43404.21,-35346.915,-17640.09,-0.765
1764504788.741887,-6991.469999999999,4050.495,-44672.445,-36730.575,-43403.76,-35345.655,-17639.415,-1.035
1764504788.741887,-6988.59,4052.61,-44670.6,-36727.65,-43401.915,-35344.26,-17637.39,1.935
1764504788.741887,-6997.634999999999,4043.25,-44679.555,-36737.1,-43411.5,-35353.935,-17645.535,-7.02
1764504788.741887,-6996.915,4043.79,-44678.43,-36737.73,-43411.815,-35353.89,-17645.85,-6.569999999999999
1764504788.741887,-6993.45,4047.705,-44674.245,-36734.805,-43409.16,-35351.28,-17643.555,-1.89
1764504788.7856293,-6993.764999999999,4047.39,-44674.605,-36735.075,-43409.97,-35352.09,-17643.87,-2.025
1764504788.7856293,-6995.655,4044.645,-44677.305,-36737.595,-43413.39,-35355.555,-17645.805,-4.545
1764504788.7856293,-6999.344999999999,4040.19,-44681.895,-36741.105,-43416.09,-35359.02,-17648.1,-8.055
1764504788.7856293,-6999.03,4040.19,-44680.815,-36741.015,-43415.325,-35358.885,-17647.695,-7.739999999999999
1764504788.7856293,-6997.905,4041.63,-44679.375,-36738.72,-43414.02,-35357.445,-17647.559999999998,-6.975
1764504788.7856293,-6992.19,4047.345,-44674.065,-36732.87,-43408.8,-35351.73,-17643.329999999998,-1.62
1764504788.7856293,-6989.759999999999,4050.135,-44671.77,-36730.395,-43405.2,-35348.94,-17640.989999999998,0.585
1764504788.7856293,-6993.495,4045.41,-44675.415,-36733.635,-43408.575,-35352.405,-17644.454999999998,-3.015
1764504788.7856293,-6997.679999999999,4040.82,-44679.87,-36738.315,-43412.67,-35356.545,-17646.975,-6.975
1764504788.7856293,-6995.969999999999,4042.845,-44677.98,-36736.695,-43410.42,-35353.98,-17646.345,-5.895
1764504788.7856293,-6993.179999999999,4046.085,-44674.785,-36732.555,-43405.965,-35349.21,-17643.51,-3.645
1764504788.7856293,-6992.55,4047.255,-44673.3,-36730.08,-43403.805,-35346.42,-17643.105,-3.645
1764504788.7860937,-6992.55,4047.165,-44673.12,-36730.125,-43403.985,-35344.89,-17641.62,-2.745
1764504788.7860937,-6994.53,4044.51,-44676.405,-36734.49,-43408.215,-35348.22,-17642.34,-3.69
1764504788.7860937,-6992.415,4046.355,-44675.055,-36734.535,-43410.105,-35351.415,-17641.89,-2.07
1764504788.7860937,-6986.565,4053.015,-44669.655,-36728.865,-43405.92,-35348.49,-17637.03,3.51
1764504788.7860937,-6985.44,4054.275,-44668.26,-36728.055,-43405.155,-35348.58,-17636.175,4.859999999999999
1764504788.7860937,-6987.509999999999,4051.395,-44670.645,-36729.99,-43407.0,-35350.065,-17638.559999999998,2.52
1764504788.7860937,-6988.23,4050.135,-44671.725,-36730.62,-43407.045,-35348.58,-17637.795,1.845
1764504788.7860937,-6989.219999999999,4049.19,-44672.535,-36730.305,-43406.955,-35348.805,-17638.29,0.585
1764504788.7860937,-6992.28,4047.165,-44674.47,-36732.42,-43408.035,-35350.065,-17639.37,-2.925
1764504788.7860937,-6990.57,4049.28,-44672.67,-36730.08,-43404.93,-35346.645,-17637.93,-1.71
1764504788.8308,-6988.679999999999,4050.585,-44669.835,-36727.38,-43401.87,-35343.585,-17635.995,0.855
1764504788.8308,-6984.495,4055.625,-44665.605,-36722.61,-43397.145,-35339.715,-17633.97,4.635
1764504788.8308,-6987.509999999999,4052.79,-44667.945,-36724.95,-43399.98,-35344.35,-17636.22,2.16
1764504788.8308,-6987.645,4052.835,-44667.945,-36724.77,-43400.34,-35342.415,-17635.23,2.52
1764504788.8308,-6983.594999999999,4055.4,-44666.955,-36723.42,-43399.125,-35338.815,-17631.18,8.01
1764504788.8308,-6984.719999999999,4053.87,-44668.98,-36725.715,-43401.33,-35340.57,-17633.43,6.48
1764504788.8308,-6982.245,4056.48,-44665.47,-36723.24,-43399.215,-35338.994999999995,-17631.405,8.775
1764504788.8308,-6984.09,4054.725,-44667.315,-36725.895,-43402.05,-35342.1,-17632.17,7.245
1764504788.8308,-6988.634999999999,4050.045,-44673.165,-36731.835,-43408.035,-35349.165,-17636.715,2.745
1764504788.8308,-6989.264999999999,4049.595,-44673.255,-36732.465,-43409.295,-35350.02,-17637.93,1.17
1764504788.8308,-6986.655,4051.845,-44669.79,-36729.495,-43405.83,-35347.23,-17635.95,3.285
1764504788.8308,-6983.009999999999,4055.985,-44666.055,-36725.445,-43401.42,-35342.505,-17633.655,7.199999999999999
1764504788.8308,-6985.395,4053.87,-44668.125,-36727.155,-43403.445,-35344.665,-17634.645,4.68
1764504788.8308,-6982.695,4055.76,-44666.145,-36724.14,-43399.485,-35341.47,-17632.71,7.649999999999999
1764504788.8308,-6982.29,4056.255,-44665.605,-36724.365,-43399.89,-35342.369999999995,-17633.34,8.145
1764504788.8308,-6987.06,4051.305,-44670.33,-36729.495,-43404.345,-35346.645,-17637.704999999998,2.745
1764504788.8308,-6991.155,4047.435,-44674.605,-36733.095,-43408.935,-35352.09,-17640.27,-1.17
1764504788.8308,-6991.425,4047.885,-44673.255,-36732.78,-43409.52,-35352.315,-17640.855,-1.125
1764504788.8323538,-6988.32,4050.315,-44671.32,-36729.765,-43405.425,-35347.905,-17638.739999999998,2.07
1764504788.8323538,-6991.514999999999,4045.68,-44675.91,-36733.86,-43407.81,-35348.355,-17639.37,0.135
1764504788.8323538,-6989.94,4047.435,-44673.975,-36732.015,-43406.055,-35346.195,-17639.145,1.755
1764504788.8323538,-6994.755,4043.88,-44677.305,-36737.145,-43410.555,-35350.965,-17642.16,-2.655
1764504788.8323538,-6994.44,4043.835,-44676.855,-36735.975,-43409.925,-35351.1,-17642.25,-3.105
1764504788.8323538,-6991.65,4046.58,-44674.605,-36733.41,-43408.305,-35349.885,-17640.989999999998,-1.575
1764504788.880618,-6987.509999999999,4051.17,-44670.51,-36729.0,-43404.84,-35346.78,-17637.93,2.79
1764504788.880618,-6991.56,4046.895,-44674.74,-36733.59,-43408.53,-35350.92,-17640.809999999998,-2.025
1764504788.880618,-6989.264999999999,4048.83,-44672.175,-36731.205,-43404.975,-35347.185,-17638.695,0.045
1764504788.880618,-6994.98,4043.295,-44676.045,-36735.615,-43409.52,-35351.55,-17642.34,-4.545
1764504788.880618,-6995.7,4042.305,-44676.315,-36736.515,-43410.015,-35351.01,-17641.934999999998,-5.22
1764504788.880618,-6995.295,4042.935,-44675.865,-36735.615,-43409.88,-35350.65,-17640.855,-3.465
1764504788.880618,-6991.514999999999,4047.93,-44671.5,-36731.61,-43405.335,-35346.195,-17638.02,0.8099999999999999
1764504788.880618,-6992.82,4045.545,-44673.435,-36734.445,-43407.495,-35348.67,-17638.02,-1.89
1764504788.880618,-6989.715,4048.155,-44671.05,-36731.475,-43405.875,-35346.869999999995,-17636.579999999998,0.63
1764504788.880618,-6989.715,4049.28,-44670.24,-36731.115,-43405.245,-35347.815,-17636.13,1.035
1764504788.880618,-6989.445,4049.145,-44670.06,-36730.755,-43404.435,-35347.68,-17635.32,0.8099999999999999
1764504788.880618,-6994.44,4043.52,-44675.91,-36736.74,-43408.845,-35349.615,-17638.29,-3.69
1764504788.8816507,-6989.94,4048.11,-44671.275,-36731.295,-43403.985,-35344.98,-17634.645,1.17
1764504788.8816507,-6987.69,4050.585,-44668.35,-36727.92,-43401.33,-35341.875,-17633.204999999998,3.195
1764504788.8816507,-6989.67,4047.975,-44670.87,-36730.89,-43404.795,-35345.205,-17634.105,1.26
1764504788.8816507,-6994.98,4042.935,-44676.54,-36736.245,-43410.285,-35350.695,-17637.66,-3.96
1764504788.8816507,-6992.955,4045.86,-44674.605,-36733.905,-43407.81,-35348.67,-17637.12,-1.62
1764504788.8816507,-6993.495,4046.04,-44674.605,-36734.355,-43407.585,-35347.95,-17637.165,-2.07
1764504788.8816507,-6994.035,4045.32,-44674.155,-36734.22,-43407.675,-35347.23,-17637.48,-1.89
1764504788.8816507,-6992.775,4046.58,-44672.535,-36732.15,-43405.065,-35344.665,-17635.815,0.045
1764504788.8816507,-6992.054999999999,4046.85,-44671.995,-36730.935,-43403.355,-35342.82,-17634.78,0.135
1764504788.8816507,-6996.69,4041.855,-44677.08,-36736.605,-43409.745,-35350.244999999995,-17639.28,-5.355
1764504788.8816507,-6998.49,4041.045,-44677.71,-36737.82,-43411.86,-35353.395,-17640.72,-6.795
1764504788.8816507,-6999.165,4041.045,-44677.755,-36738.09,-43412.58,-35353.98,-17640.72,-6.84
1764504788.9277053,-6997.815,4040.46,-44678.655,-36739.53,-43414.245,-35352.765,-17639.505,-5.4
1764504788.9277053,-6993.179999999999,4044.015,-44676.405,-36737.19,-43410.915,-35348.49,-17636.04,-0.54
1764504788.9277053,-6991.38,4046.265,-44673.57,-36735.795,-43410.24,-35349.03,-17634.78,1.035
1764504788.9277053,-6991.965,4044.96,-44673.705,-36736.83,-43411.635,-35351.01,-17634.825,0.495
1764504788.9277053,-6997.094999999999,4040.415,-44678.835,-36740.655,-43415.685,-35355.645,-17638.965,-4.859999999999999
1764504788.9277053,-6996.915,4041.09,-44677.305,-36738.54,-43413.39,-35353.71,-17638.38,-3.33
1764504788.9277053,-6991.335,4047.345,-44671.05,-36732.87,-43407.99,-35347.455,-17633.34,2.115
1764504788.9277053,-6992.82,4045.23,-44672.31,-36734.355,-43410.15,-35348.4,-17635.23,0.585
1764504788.9277053,-6996.69,4040.73,-44676.81,-36737.595,-43414.02,-35351.415,-17638.695,-3.825
1764504788.9277053,-6995.745,4042.485,-44675.505,-36736.92,-43412.94,-35349.57,-17637.48,-3.015
1764504788.9277053,-6994.575,4044.285,-44673.84,-36735.84,-43411.41,-35347.59,-17636.265,-1.53
1764504788.9277053,-6994.259999999999,4044.195,-44674.83,-36736.515,-43411.185,-35348.94,-17636.895,-1.98
1764504788.9277053,-6990.21,4046.85,-44672.4,-36733.32,-43409.79,-35347.545,-17635.454999999998,1.395
1764504788.9277053,-6990.615,4045.635,-44672.13,-36734.175,-43411.05,-35349.03,-17636.265,1.395
1764504788.9277053,-6994.304999999999,4041.63,-44675.685,-36737.865,-43414.515,-35351.55,-17638.245,-2.295
1764504788.9277053,-6992.054999999999,4044.465,-44673.795,-36735.075,-43411.455,-35349.39,-17636.265,-0.36
1764504788.9277053,-6987.285,4049.28,-44669.79,-36731.205,-43406.235,-35344.98,-17633.52,3.915
1764504788.9277053,-6990.84,4046.31,-44672.22,-36733.68,-43408.845,-35347.14,-17637.39,0.495
1764504788.9277053,-6995.205,4042.935,-44675.28,-36737.055,-43412.265,-35351.64,-17640.72,-3.33
1764504788.9277053,-6993.179999999999,4044.735,-44673.345,-36734.535,-43410.735,-35350.965,-17638.47,-1.98
1764504788.9277053,-6987.42,4050.045,-44667.765,-36728.28,-43404.165,-35344.665,-17634.78,2.88
1764504788.9277053,-6986.7,4051.35,-44666.415,-36726.255,-43401.42,-35340.795,-17633.43,4.455
1764504788.9277053,-6988.23,4048.605,-44668.215,-36728.19,-43403.4,-35341.605,-17635.095,3.285
1764504788.9277053,-6994.889999999999,4041.0,-44676.765,-36736.065,-43410.825,-35347.59,-17639.055,-2.925
1764504788.9720106,-6995.429999999999,4040.55,-44677.305,-36735.57,-43411.635,-35348.13,-17639.28,-4.005
1764504788.9720106,-6993.405,4042.305,-44675.505,-36734.535,-43410.15,-35346.285,-17638.38,-2.115
1764504788.9720106,-6989.04,4046.31,-44671.14,-36731.16,-43405.83,-35341.47,-17635.005,2.88
1764504788.9720106,-6991.965,4043.025,-44673.93,-36734.67,-43409.79,-35345.744999999995,-17637.03,0.315
1764504788.9720106,-6988.77,4046.895,-44670.465,-36731.745,-43408.125,-35344.35,-17634.51,3.735
1764504788.9720106,-6992.505,4043.475,-44673.885,-36734.94,-43411.365,-35348.535,-17636.94,-0.09
1764504788.9720106,-6991.965,4043.925,-44674.74,-36734.49,-43411.77,-35348.985,-17636.489999999998,-0.4049999999999999
1764504788.9730318,-6990.075,4046.31,-44672.94,-36733.86,-43409.97,-35347.185,-17635.32,1.17
1764504788.9730318,-6993.719999999999,4042.305,-44675.46,-36738.495,-43414.02,-35352.36,-17638.065,-2.34
1764504788.9730318,-6990.075,4044.645,-44673.39,-36735.03,-43411.005,-35349.705,-17635.995,0.495
1764504788.9730318,-6989.715,4045.185,-44671.77,-36733.59,-43410.33,-35348.355,-17634.915,0.4499999999999999
1764504788.9730318,-6990.48,4045.275,-44672.625,-36734.85,-43411.05,-35347.68,-17634.105,0.135
1764504788.9730318,-6982.605,4052.385,-44665.38,-36726.165,-43401.69,-35337.51,-17626.815,7.109999999999999
1764504788.9730318,-6987.105,4048.335,-44669.295,-36728.955,-43405.29,-35340.39,-17630.595,2.88
1764504788.9730318,-6983.865,4051.845,-44665.515,-36724.995,-43400.88,-35335.71,-17627.85,6.66
1764504788.9730318,-6982.695,4053.06,-44664.255,-36723.825,-43399.575,-35335.89,-17626.815,7.38
1764504788.9730318,-6983.505,4052.16,-44665.02,-36726.3,-43401.87,-35339.625,-17628.704999999998,6.795
1764504788.9730318,-6983.91,4051.755,-44665.92,-36727.605,-43403.355,-35341.515,-17629.605,6.569999999999999
1764504788.9730318,-6986.295,4049.505,-44668.62,-36729.045,-43406.1,-35343.18,-17630.145,4.005
1764504788.9730318,-6987.33,4047.75,-44670.735,-36731.43,-43407.09,-35343.81,-17630.55,4.23
1764504788.9730318,-6990.75,4044.195,-44674.515,-36736.83,-43412.67,-35350.605,-17634.195,0.855
1764504788.9730318,-6986.969999999999,4049.055,-44669.88,-36732.24,-43407.63,-35346.33,-17631.27,5.31
1764504788.9730318,-6984.764999999999,4051.125,-44667.765,-36729.54,-43404.975,-35343.63,-17628.3,7.92
1764504788.9730318,-6985.304999999999,4050.045,-44668.35,-36729.495,-43405.605,-35344.89,-17628.93,6.84
1764504789.0231638,-6983.639999999999,4051.665,-44666.775,-36727.245,-43403.175,-35342.955,-17627.625,7.604999999999999
1764504789.0231638,-6983.594999999999,4051.575,-44666.505,-36726.615,-43402.32,-35342.055,-17627.04,7.83
1764504789.0231638,-6987.599999999999,4046.985,-44670.465,-36731.16,-43406.73,-35346.24,-17629.785,4.41
1764504789.0231638,-6985.844999999999,4048.875,-44669.115,-36729.9,-43404.165,-35342.775,-17629.065,6.21
1764504789.0231638,-6985.844999999999,4048.425,-44669.655,-36730.08,-43404.345,-35342.82,-17629.29,5.535
1764504789.0241623,-6986.429999999999,4047.885,-44669.97,-36730.575,-43405.425,-35344.44,-17629.47,4.95
1764504789.0241623,-6988.455,4046.625,-44671.635,-36732.195,-43407.27,-35347.23,-17630.64,3.06
1764504789.0241623,-6981.795,4052.97,-44665.29,-36725.49,-43401.33,-35340.66,-17626.635,7.83
1764504789.0241623,-6979.455,4054.905,-44663.04,-36723.42,-43398.99,-35337.78,-17624.97,10.665
1764504789.0241623,-6984.27,4049.505,-44669.205,-36729.72,-43403.22,-35339.625,-17627.579999999998,7.38
1764504789.0241623,-6988.365,4045.905,-44672.895,-36733.815,-43407.315,-35344.08,-17630.774999999998,3.69
1764504789.0241623,-6984.675,4048.605,-44668.98,-36729.855,-43403.94,-35341.47,-17628.75,7.02
1764504789.0241623,-6982.2,4051.08,-44665.92,-36726.705,-43402.185,-35340.48,-17626.77,8.865
1764504789.0241623,-6980.49,4053.375,-44662.725,-36723.78,-43399.98,-35338.5,-17625.6,9.9
1764504789.0241623,-6982.74,4051.215,-44664.12,-36724.455,-43400.385,-35338.095,-17627.715,7.425
1764504789.0241623,-6981.03,4053.195,-44662.59,-36722.52,-43397.46,-35334.09,-17626.32,10.485
1764504789.0241623,-6984.945,4049.145,-44667.765,-36728.595,-43402.14,-35337.6,-17627.625,8.19
1764504789.0241623,-6982.965,4051.08,-44666.955,-36727.965,-43401.96,-35337.915,-17625.915,10.125
1764504789.0241623,-6978.195,4055.67,-44663.445,-36723.06,-43398.54,-35334.99,-17623.035,14.445
1764504789.0241623,-6984.99,4048.74,-44670.195,-36730.8,-43406.415,-35343.54,-17629.29,7.649999999999999
1764504789.0241623,-6985.485,4047.57,-44671.005,-36731.34,-43408.125,-35344.665,-17630.19,6.165
1764504789.0241623,-6983.865,4049.145,-44668.8,-36731.07,-43407.18,-35343.494999999995,-17629.965,8.1
1764504789.0703058,-6986.205,4046.265,-44671.635,-36733.95,-43409.25,-35346.33,-17632.305,5.49
1764504789.0703058,-6980.895,4051.035,-44666.55,-36728.145,-43403.895,-35341.244999999995,-17628.66,9.63
1764504789.0703058,-6979.679999999999,4051.71,-44665.155,-36726.705,-43402.23,-35339.625,-17626.545,11.385
1764504789.0703058,-6979.679999999999,4051.395,-44666.82,-36728.01,-43403.04,-35340.345,-17627.13,10.35
1764504789.0703058,-6983.505,4047.615,-44670.33,-36732.015,-43407.09,-35344.53,-17630.28,6.435
1764504789.0703058,-6982.695,4049.235,-44668.44,-36728.955,-43403.715,-35341.65,-17629.785,7.875
1764504789.0703058,-6985.71,4047.03,-44669.655,-36731.16,-43404.615,-35341.965,-17632.17,5.355
1764504789.0703058,-6992.054999999999,4040.685,-44676.225,-36737.325,-43410.015,-35347.86,-17636.715,-0.945
1764504789.0703058,-6991.02,4041.135,-44675.415,-36736.47,-43408.53,-35346.06,-17636.265,0.4499999999999999
1764504789.0703058,-6987.96,4044.42,-44671.815,-36732.915,-43405.65,-35342.865,-17633.79,3.42
