Timestamp,Channel1,Channel2,Channel3,Channel4,Channel5,Channel6,Channel7,Channel8
1764505879.8352268,1536.9299999999998,12191.85,-35680.994999999995,-14548.86,-25615.845,-16391.565,-6563.925,2616.435
1764505879.8352268,1539.0449999999998,12193.515,-35679.869999999995,-14547.285,-25614.315,-16390.71,-6563.205,2617.965
1764505879.8352268,1538.73,12192.705,-35680.005,-14547.285,-25612.92,-16387.965,-6561.9,2618.145
1764505879.8352268,1534.41,12188.25,-35684.189999999995,-14550.615,-25615.215,-16387.605,-6563.07,2615.625
1764505879.836266,1534.32,12188.61,-35683.695,-14550.705,-25617.06,-16390.845,-6564.375,2615.445
1764505879.836266,1535.22,12189.78,-35682.345,-14548.905,-25615.89,-16391.61,-6564.105,2616.21
1764505879.836266,1537.29,12192.21,-35680.5,-14546.925,-25612.695,-16386.03,-6561.99,2619.135
1764505879.836266,1534.5449999999998,12189.645,-35684.145,-14550.255,-25615.845,-16388.82,-6563.655,2617.65
1764505879.836266,1533.4199999999998,12187.53,-35685.855,-14552.73,-25619.58,-16393.095,-6565.32,2615.895
1764505879.836266,1535.13,12189.24,-35683.515,-14551.02,-25617.78,-16391.745,-6565.05,2617.56
1764505879.836266,1532.7,12188.16,-35683.83,-14551.47,-25616.88,-16391.79,-6567.075,2613.645
1764505879.836266,1533.645,12188.745,-35684.595,-14552.415,-25618.725,-16394.445,-6565.679999999999,2616.21
1764505879.836266,1531.71,12186.72,-35686.845,-14555.835,-25622.19,-16398.045,-6566.535,2614.32
1764505879.836266,1535.085,12190.725,-35682.3,-14551.335,-25617.015,-16392.465,-6564.645,2617.785
1764505879.836266,1534.86,12190.23,-35682.119999999995,-14550.705,-25615.755,-16391.655,-6564.285,2617.65
1764505879.836266,1533.15,12188.745,-35683.875,-14551.29,-25615.98,-16391.565,-6565.094999999999,2615.58
1764505879.836266,1538.46,12193.56,-35678.43,-14545.395,-25609.95,-16385.625,-6561.764999999999,2619.54
1764505879.836266,1537.155,12192.57,-35679.195,-14546.52,-25610.58,-16387.155,-6563.88,2619.135
1764505879.836266,1535.22,12190.095,-35682.39,-14550.435,-25614.405,-16390.845,-6564.645,2617.83
1764505879.836266,1532.61,12186.495,-35685.945,-14554.8,-25620.345,-16396.155,-6567.344999999999,2614.995
1764505879.836266,1534.77,12189.06,-35682.93,-14552.055,-25619.265,-16394.67,-6565.77,2617.695
1764505879.836266,1531.1699999999998,12186.54,-35685.945,-14555.385,-25622.505,-16398.09,-6567.615,2614.68
1764505879.836266,1531.3049999999998,12185.73,-35685.225,-14555.34,-25621.83,-16397.954999999998,-6567.84,2614.455
1764505879.836266,1532.88,12187.17,-35684.82,-14552.865,-25619.445,-16395.614999999998,-6566.58,2616.48
1764505879.88112,1532.925,12186.855,-35685.09,-14552.46,-25619.22,-16396.245,-6566.264999999999,2615.715
1764505879.88112,1536.66,12190.68,-35681.625,-14550.12,-25617.105,-16392.78,-6562.485,2620.035
1764505879.88112,1536.885,12191.175,-35682.255,-14551.02,-25617.33,-16392.87,-6561.54,2620.755
1764505879.88112,1532.88,12186.81,-35686.125,-14554.845,-25621.965,-16397.73,-6566.219999999999,2616.03
1764505879.88112,1534.095,12188.07,-35684.91,-14552.595,-25619.805,-16396.785,-6566.219999999999,2616.12
1764505879.88112,1536.435,12190.275,-35682.075,-14549.58,-25616.115,-16391.97,-6564.014999999999,2618.505
1764505879.88112,1535.13,12188.385,-35683.515,-14550.3,-25617.15,-16391.79,-6564.285,2616.885
1764505879.88112,1531.575,12185.82,-35687.744999999995,-14553.99,-25620.75,-16398.405,-6568.065,2612.745
1764505879.88112,1530.855,12184.38,-35688.735,-14555.52,-25621.785,-16398.27,-6568.605,2612.025
1764505879.88112,1531.755,12185.505,-35686.89,-14554.215,-25620.57,-16396.38,-6567.929999999999,2612.34
1764505879.88112,1532.925,12187.395,-35685.765,-14552.685,-25618.59,-16393.23,-6566.985,2613.825
1764505879.88112,1536.21,12190.455,-35682.615,-14548.77,-25614.36,-16389.225,-6564.06,2617.92
1764505879.88112,1535.4,12189.195,-35683.875,-14549.58,-25615.17,-16390.485,-6564.42,2617.83
1764505879.88112,1533.4199999999998,12186.27,-35687.205,-14552.595,-25618.77,-16393.32,-6566.94,2615.49
1764505879.88112,1533.33,12187.26,-35686.575,-14552.19,-25618.005,-16392.87,-6567.03,2615.625
1764505879.88112,1531.1699999999998,12186.63,-35686.89,-14553.63,-25619.85,-16395.614999999998,-6568.92,2613.87
1764505879.88112,1531.3049999999998,12185.91,-35686.755,-14554.53,-25620.93,-16398.945,-6569.82,2612.025
1764505879.88112,1536.84,12191.58,-35680.5,-14548.68,-25616.025,-16395.524999999998,-6566.49,2616.48
1764505879.882141,1533.735,12188.97,-35683.65,-14551.47,-25618.14,-16394.895,-6566.849999999999,2614.41
1764505879.882141,1532.385,12185.775,-35686.755,-14553.72,-25616.7,-16388.55,-6565.905,2614.455
1764505879.882141,1531.71,12185.19,-35687.385,-14554.305,-25617.645,-16391.52,-6566.13,2614.725
1764505879.882141,1528.38,12183.615,-35689.814999999995,-14556.87,-25621.56,-16396.515,-6568.83,2612.475
1764505879.882141,1531.755,12186.72,-35686.17,-14553.495,-25618.77,-16394.309999999998,-6566.94,2615.985
1764505879.882141,1529.145,12183.75,-35689.095,-14555.295,-25620.435,-16396.065,-6569.19,2612.07
1764505879.929639,1531.755,12186.54,-35685.99,-14551.11,-25616.205,-16392.465,-6566.94,2613.735
1764505879.929639,1534.23,12188.97,-35683.38,-14549.13,-25613.37,-16389.045,-6564.599999999999,2616.3
1764505879.929639,1531.53,12185.055,-35687.07,-14553.765,-25618.68,-16394.13,-6566.849999999999,2614.005
1764505879.929639,1533.5549999999998,12187.395,-35684.955,-14552.055,-25617.285,-16393.184999999998,-6565.77,2615.985
1764505879.929639,1531.215,12185.955,-35686.71,-14553.36,-25619.04,-16394.13,-6566.715,2613.555
1764505879.929639,1532.2949999999998,12186.99,-35685.945,-14552.37,-25618.77,-16393.905,-6565.679999999999,2614.275
1764505879.929639,1532.745,12187.26,-35686.17,-14552.55,-25619.355,-16394.399999999998,-6565.905,2615.67
1764505879.929639,1534.095,12188.205,-35684.91,-14551.74,-25618.365,-16393.95,-6565.005,2617.47
1764505879.929639,1537.11,12191.445,-35681.085,-14549.04,-25615.575,-16391.024999999998,-6561.9,2620.44
1764505879.929639,1534.41,12189.285,-35683.515,-14551.155,-25618.095,-16393.454999999998,-6564.33,2618.1
1764505879.929639,1534.5449999999998,12189.78,-35683.605,-14550.93,-25617.825,-16392.96,-6564.87,2618.28
1764505879.929639,1536.435,12191.22,-35682.03,-14548.59,-25615.395,-16390.079999999998,-6562.98,2619.585
1764505879.929639,1536.705,12191.445,-35682.57,-14548.455,-25615.53,-16389.63,-6561.945,2619.81
1764505879.929639,1534.185,12188.835,-35684.82,-14551.605,-25617.645,-16392.285,-6564.24,2617.74
1764505879.929639,1537.2,12192.165,-35681.04,-14548.23,-25613.55,-16388.19,-6562.035,2620.53
1764505879.929639,1538.1,12193.155,-35680.005,-14546.745,-25612.2,-16387.2,-6560.865,2621.52
1764505879.929639,1537.83,12192.57,-35680.095,-14546.52,-25612.38,-16386.66,-6561.45,2621.79
1764505879.929639,1536.7949999999998,12191.49,-35681.625,-14547.87,-25613.595,-16388.055,-6561.405,2621.205
1764505879.929639,1535.535,12189.735,-35682.93,-14549.355,-25614.99,-16390.305,-6562.125,2620.305
1764505879.929639,1531.035,12185.46,-35687.43,-14553.72,-25619.895,-16396.02,-6565.634999999999,2615.4
1764505879.9714184,1532.52,12187.575,-35685.63,-14552.145,-25618.815,-16394.265,-6563.835,2616.975
1764505879.9714184,1534.05,12190.14,-35683.695,-14550.84,-25617.465,-16393.005,-6562.844999999999,2619.495
1764505879.9714184,1531.98,12187.98,-35685.765,-14553.99,-25619.94,-16397.01,-6565.005,2616.705
1764505879.9714184,1532.97,12189.105,-35684.685,-14553.225,-25619.715,-16396.29,-6564.465,2616.975
1764505879.9724388,1532.025,12187.305,-35686.125,-14554.305,-25619.31,-16394.579999999998,-6564.375,2616.93
1764505879.973445,1530.855,12187.035,-35687.295,-14553.945,-25618.995,-16393.59,-6563.88,2616.705
1764505879.973445,1532.115,12188.43,-35686.08,-14552.775,-25618.185,-16391.88,-6563.205,2618.82
1764505879.973445,1529.37,12185.235,-35687.52,-14554.89,-25621.065,-16394.895,-6565.5,2616.48
1764505879.973445,1535.58,12191.22,-35681.22,-14549.4,-25615.935,-16390.395,-6561.36,2621.655
1764505879.973445,1534.455,12190.545,-35682.795,-14550.84,-25617.24,-16392.42,-6563.295,2620.845
1764505879.973445,1531.71,12187.665,-35685.314999999995,-14553.54,-25620.57,-16396.875,-6565.724999999999,2618.73
1764505879.973445,1533.735,12189.105,-35683.47,-14551.83,-25620.165,-16396.425,-6564.915,2619.72
1764505879.973445,1537.335,12194.1,-35678.564999999995,-14546.52,-25614.135,-16390.125,-6562.485,2622.285
1764505879.973445,1534.23,12189.735,-35682.48,-14549.31,-25614.855,-16389.315,-6563.969999999999,2619.405
1764505879.974436,1531.35,12185.595,-35686.305,-14553.45,-25619.985,-16394.355,-6566.355,2616.705
1764505879.974436,1531.89,12186.0,-35685.09,-14551.965,-25619.715,-16393.364999999998,-6566.849999999999,2615.985
1764505879.974436,1532.4299999999998,12186.945,-35684.91,-14551.515,-25618.5,-16391.43,-6566.895,2617.155
1764505879.974436,1534.5,12189.105,-35683.38,-14548.95,-25616.52,-16389.809999999998,-6565.724999999999,2618.415
1764505879.974436,1538.955,12193.695,-35678.97,-14544.225,-25612.92,-16387.829999999998,-6564.735,2621.52
1764505879.974436,1536.705,12192.21,-35680.59,-14546.07,-25615.53,-16391.52,-6566.04,2619.945
1764505879.974436,1537.29,12192.21,-35681.49,-14546.655,-25613.82,-16387.649999999998,-6564.33,2622.15
1764505879.974436,1534.23,12188.43,-35684.955,-14550.39,-25616.745,-16389.945,-6566.535,2619.675
1764505879.974436,1536.12,12190.995,-35682.255,-14548.32,-25615.17,-16389.945,-6566.219999999999,2621.16
1764505879.974436,1534.32,12188.52,-35683.83,-14551.2,-25618.23,-16393.454999999998,-6567.255,2619.405
1764505879.974436,1537.065,12190.725,-35682.255,-14548.77,-25616.43,-16392.329999999998,-6565.59,2621.52
1764505879.974436,1534.41,12188.61,-35684.505,-14551.155,-25618.68,-16393.725,-6567.344999999999,2618.505
1764505880.0177758,1535.8049999999998,12190.77,-35682.345,-14548.5,-25616.52,-16390.305,-6565.23,2620.035
1764505880.0177758,1534.32,12189.645,-35683.695,-14549.31,-25616.835,-16391.07,-6565.59,2618.595
1764505880.0177758,1537.425,12193.38,-35679.645,-14544.945,-25612.245,-16386.524999999998,-6562.395,2621.43
1764505880.0177758,1534.185,12189.42,-35682.705,-14549.085,-25616.205,-16389.765,-6565.59,2618.1
1764505880.0177758,1536.75,12191.985,-35679.465,-14546.475,-25613.325,-16387.02,-6564.554999999999,2619.495
1764505880.0177758,1535.58,12191.625,-35680.05,-14546.565,-25614.045,-16388.46,-6565.59,2618.28
1764505880.0177758,1532.4299999999998,12189.015,-35684.189999999995,-14551.02,-25619.4,-16393.23,-6567.03,2615.94
1764505880.0177758,1533.69,12190.095,-35684.055,-14551.47,-25620.345,-16394.085,-6567.525,2617.425
1764505880.0177758,1533.015,12189.96,-35684.505,-14551.47,-25620.165,-16393.23,-6568.2,2616.48
1764505880.0177758,1531.3049999999998,12187.935,-35685.99,-14553.54,-25622.01,-16394.985,-6569.054999999999,2615.04
1764505880.0177758,1535.535,12190.86,-35682.21,-14549.49,-25618.725,-16392.329999999998,-6566.31,2618.505
1764505880.0177758,1535.985,12190.59,-35681.445,-14549.13,-25617.6,-16391.61,-6566.13,2619.18
1764505880.0194898,1536.345,12191.265,-35681.13,-14548.635,-25618.23,-16392.42,-6565.995,2619.63
1764505880.0194898,1535.175,12190.545,-35682.57,-14551.065,-25620.795,-16394.895,-6567.929999999999,2618.28
1764505880.0194898,1535.895,12190.905,-35682.615,-14551.47,-25621.695,-16395.524999999998,-6568.02,2619.045
1764505880.0194898,1534.005,12189.105,-35685.405,-14554.665,-25624.665,-16399.755,-6570.09,2617.155
1764505880.0204225,1530.36,12185.595,-35689.994999999995,-14558.265,-25629.705,-16404.48,-6573.33,2612.97
1764505880.0204225,1530.0449999999998,12184.335,-35690.76,-14558.175,-25629.57,-16404.345,-6574.77,2612.97
1764505880.0204225,1533.735,12187.665,-35686.845,-14554.44,-25625.34,-16400.43,-6571.71,2616.435
1764505880.0204225,1533.5549999999998,12187.305,-35686.755,-14555.025,-25625.835,-16401.195,-6571.035,2616.93
1764505880.0204225,1531.62,12185.37,-35688.869999999995,-14557.68,-25627.185,-16402.995,-6571.935,2615.67
1764505880.0204225,1535.22,12189.285,-35685.18,-14553.315,-25623.18,-16399.079999999998,-6569.19,2619.81
1764505880.0659142,1536.075,12189.285,-35684.46,-14552.325,-25621.875,-16396.559999999998,-6567.344999999999,2620.26
1764505880.0659142,1533.78,12187.215,-35685.81,-14553.315,-25623.135,-16397.64,-6568.695,2618.685
1764505880.0659142,1533.06,12186.855,-35686.619999999995,-14553.9,-25623.27,-16397.91,-6569.28,2617.65
1764505880.0659142,1532.52,12186.405,-35686.71,-14553.855,-25622.955,-16398.27,-6570.224999999999,2615.76
1764505880.0659142,1536.21,12190.905,-35682.03,-14549.355,-25618.86,-16393.59,-6567.525,2619.99
1764505880.0659142,1536.03,12191.13,-35681.939999999995,-14549.805,-25619.535,-16395.075,-6567.929999999999,2619.9
1764505880.0659142,1536.48,12191.31,-35682.119999999995,-14550.075,-25619.265,-16394.085,-6567.12,2620.53
1764505880.0659142,1535.8049999999998,12189.375,-35683.83,-14551.065,-25618.41,-16390.89,-6565.815,2620.395
1764505880.0659142,1535.04,12189.42,-35683.605,-14551.29,-25617.69,-16391.97,-6565.77,2619.81
1764505880.0659142,1533.105,12186.99,-35685.945,-14553.045,-25620.615,-16394.67,-6567.57,2617.335
1764505880.0659142,1535.085,12189.105,-35683.605,-14550.3,-25618.68,-16392.105,-6566.895,2618.775
1764505880.0659142,1530.945,12185.415,-35687.564999999995,-14554.08,-25622.415,-16396.29,-6570.764999999999,2614.32
1764505880.0659142,1532.7,12187.17,-35685.63,-14552.82,-25620.975,-16394.805,-6569.955,2616.435
1764505880.0659142,1535.535,12191.04,-35682.075,-14549.04,-25617.645,-16391.745,-6566.895,2620.71
1764505880.0659142,1533.87,12189.555,-35684.415,-14550.39,-25618.95,-16393.68,-6568.965,2618.775
1764505880.0659142,1536.3,12192.39,-35682.119999999995,-14548.32,-25616.745,-16393.77,-6568.29,2619.81
1764505880.0659142,1535.355,12192.57,-35680.814999999995,-14547.555,-25616.79,-16395.614999999998,-6569.594999999999,2617.605
1764505880.0659142,1537.56,12194.685,-35677.755,-14544.585,-25614.765,-16393.905,-6568.155,2619.945
1764505880.0659142,1530.72,12185.37,-35688.15,-14553.36,-25621.155,-16394.67,-6571.844999999999,2614.86
1764505880.0659142,1529.91,12183.48,-35689.905,-14554.395,-25620.255,-16390.44,-6570.405,2615.085
1764505880.0659142,1534.275,12188.475,-35685.225,-14550.03,-25617.24,-16389.36,-6567.255,2619.945
1764505880.0659142,1530.945,12185.37,-35688.555,-14553.225,-25621.02,-16393.454999999998,-6570.495,2616.075
1764505880.0659142,1531.935,12186.0,-35687.475,-14551.92,-25619.175,-16392.059999999998,-6570.224999999999,2615.895
1764505880.0659142,1531.98,12186.18,-35687.34,-14551.65,-25618.905,-16392.239999999998,-6569.415,2616.255
1764505880.110818,1533.015,12186.855,-35686.665,-14551.065,-25619.805,-16393.14,-6569.009999999999,2617.335
1764505880.1123576,1532.565,12186.54,-35686.08,-14551.11,-25620.615,-16394.13,-6569.73,2617.47
1764505880.1123576,1532.835,12186.945,-35684.685,-14550.795,-25619.715,-16393.23,-6569.91,2617.47
1764505880.1123576,1535.13,12189.375,-35682.84,-14548.59,-25616.97,-16390.934999999998,-6567.84,2620.035
1764505880.1123576,1534.095,12188.61,-35685.405,-14550.39,-25619.4,-16394.04,-6569.235,2618.55
1764505880.1123576,1532.835,12187.305,-35686.665,-14552.28,-25622.28,-16396.695,-6570.585,2617.38
1764505880.1123576,1537.02,12190.905,-35683.02,-14549.175,-25618.545,-16392.51,-6566.58,2621.61
1764505880.1123576,1534.5,12188.385,-35686.395,-14551.695,-25621.155,-16395.885,-6568.785,2619.45
1764505880.1123576,1533.825,12187.935,-35687.25,-14552.325,-25621.425,-16396.739999999998,-6569.639999999999,2618.28
1764505880.1123576,1533.87,12188.025,-35687.655,-14552.82,-25621.38,-16397.37,-6569.639999999999,2617.47
1764505880.1123576,1533.5549999999998,12187.755,-35687.34,-14553.0,-25621.56,-16397.684999999998,-6569.325,2617.92
1764505880.1123576,1532.115,12186.405,-35688.015,-14553.9,-25623.09,-16399.26,-6570.134999999999,2616.705
1764505880.1123576,1532.25,12186.45,-35687.025,-14553.54,-25622.865,-16398.945,-6570.179999999999,2615.67
1764505880.1123576,1529.685,12184.38,-35689.994999999995,-14556.24,-25624.62,-16401.105,-6572.25,2614.05
1764505880.1123576,1533.105,12186.99,-35687.43,-14553.27,-25622.37,-16398.405,-6570.09,2617.695
1764505880.1123576,1534.455,12188.565,-35685.675,-14551.335,-25621.695,-16398.135,-6569.37,2618.955
1764505880.1144736,1534.995,12188.385,-35685.945,-14551.785,-25622.28,-16398.09,-6568.83,2617.965
1764505880.1144736,1530.225,12183.705,-35690.13,-14556.33,-25626.24,-16402.59,-6572.61,2612.97
1764505880.1144736,1531.08,12184.605,-35688.6,-14554.935,-25624.8,-16400.79,-6571.215,2614.32
1764505880.1144736,1534.6799999999998,12189.285,-35684.145,-14550.975,-25620.885,-16396.965,-6568.74,2618.145
1764505880.1144736,1533.78,12188.7,-35684.775,-14551.29,-25620.84,-16397.595,-6569.235,2617.065
1764505880.1144736,1529.73,12184.38,-35689.5,-14555.295,-25625.565,-16402.815,-6573.42,2612.52
1764505880.1144736,1530.1799999999998,12183.705,-35689.14,-14556.42,-25626.33,-16401.825,-6573.78,2612.79
1764505880.1144736,1532.205,12185.145,-35687.61,-14553.495,-25622.775,-16395.975,-6570.764999999999,2615.715
1764505880.1597264,1531.89,12185.46,-35688.15,-14553.81,-25624.17,-16398.36,-6570.855,2615.085
1764505880.1597264,1529.415,12183.615,-35690.76,-14556.105,-25626.825,-16401.915,-6572.295,2612.385
1764505880.1597264,1531.935,12186.09,-35687.79,-14552.955,-25624.44,-16399.485,-6570.315,2614.86
1764505880.1597264,1530.405,12184.335,-35689.32,-14554.53,-25626.24,-16400.835,-6571.08,2613.06
1764505880.1597264,1534.41,12187.98,-35684.955,-14551.2,-25621.605,-16396.829999999998,-6568.155,2617.245
1764505880.1597264,1533.4199999999998,12187.845,-35685.9,-14551.47,-25621.965,-16397.73,-6568.695,2616.21
1764505880.1597264,1530.495,12185.19,-35688.465,-14553.405,-25624.035,-16399.71,-6570.675,2613.285
1764505880.1597264,1530.315,12185.235,-35688.465,-14553.63,-25624.125,-16399.53,-6570.855,2614.275
1764505880.1597264,1527.48,12182.895,-35690.805,-14555.52,-25626.87,-16402.095,-6572.115,2611.98
1764505880.1597264,1528.785,12184.515,-35689.005,-14554.125,-25624.935,-16399.934999999998,-6571.08,2612.79
1764505880.1597264,1533.735,12189.42,-35684.189999999995,-14548.905,-25619.85,-16394.579999999998,-6568.335,2616.795
1764505880.1597264,1533.51,12189.735,-35683.83,-14548.59,-25619.58,-16394.579999999998,-6567.75,2616.66
1764505880.1597264,1533.4199999999998,12189.735,-35684.369999999995,-14550.12,-25621.065,-16394.489999999998,-6567.929999999999,2617.605
1764505880.1597264,1530.1799999999998,12186.0,-35688.465,-14553.81,-25625.43,-16398.36,-6570.9,2614.275
1764505880.1597264,1527.705,12183.795,-35691.03,-14555.61,-25626.96,-16399.98,-6572.205,2611.08
1764505880.1597264,1528.245,12183.93,-35690.22,-14554.71,-25626.195,-16399.215,-6572.52,2611.845
1764505880.1597264,1530.81,12186.495,-35687.43,-14552.145,-25623.81,-16396.605,-6571.304999999999,2614.77
1764505880.1607378,1529.685,12185.235,-35688.375,-14552.82,-25623.63,-16397.145,-6571.755,2613.555
1764505880.1607378,1532.115,12187.62,-35686.439999999995,-14550.255,-25621.875,-16395.12,-6570.179999999999,2615.985
1764505880.1607378,1528.605,12184.47,-35689.41,-14552.82,-25624.98,-16398.18,-6572.07,2612.655
1764505880.1607378,1529.91,12185.91,-35688.195,-14551.245,-25623.315,-16396.065,-6569.46,2614.545
1764505880.1607378,1532.7,12187.62,-35686.665,-14549.58,-25621.245,-16394.13,-6566.985,2616.3
1764505880.2041488,1538.37,12192.705,-35680.68,-14543.775,-25615.08,-16388.19,-6563.295,2620.53
1764505880.2041488,1536.975,12190.905,-35681.895,-14545.575,-25617.33,-16390.395,-6564.915,2619.09
1764505880.2041488,1536.7949999999998,12190.23,-35683.244999999995,-14547.645,-25620.165,-16393.95,-6566.13,2618.235
1764505880.2041488,1532.79,12186.585,-35687.295,-14552.37,-25625.43,-16399.98,-6569.639999999999,2615.31
1764505880.2041488,1529.1,12183.165,-35691.75,-14556.42,-25629.525,-16404.3,-6572.205,2612.655
1764505880.2041488,1531.665,12185.73,-35689.005,-14553.0,-25625.88,-16401.105,-6569.955,2615.265
1764505880.2041488,1529.91,12183.615,-35690.895,-14553.63,-25626.87,-16402.05,-6571.485,2612.97
1764505880.2041488,1530.45,12184.92,-35688.735,-14552.595,-25625.07,-16400.295,-6570.764999999999,2614.005
1764505880.2041488,1531.62,12186.45,-35687.25,-14551.29,-25624.215,-16398.585,-6570.63,2615.22
1764505880.2041488,1529.1,12184.605,-35689.455,-14553.63,-25626.69,-16400.61,-6571.035,2613.51
1764505880.2041488,1532.385,12188.52,-35685.54,-14550.03,-25622.55,-16397.01,-6567.705,2617.155
1764505880.2041488,1530.855,12186.9,-35686.125,-14551.155,-25623.945,-16398.54,-6569.505,2615.355
1764505880.2041488,1526.985,12182.67,-35691.165,-14555.925,-25628.22,-16402.545,-6572.16,2612.16
1764505880.2041488,1527.84,12183.075,-35692.11,-14555.79,-25628.49,-16402.725,-6570.764999999999,2613.06
1764505880.2041488,1530.99,12186.9,-35687.655,-14551.92,-25625.16,-16399.53,-6568.605,2616.435
1764505880.2041488,1529.685,12185.01,-35688.195,-14552.595,-25626.915,-16401.42,-6571.125,2614.05
1764505880.2041488,1529.01,12183.795,-35688.78,-14554.305,-25629.975,-16406.864999999998,-6573.42,2611.71
1764505880.2041488,1535.13,12190.905,-35681.13,-14548.365,-25625.475,-16405.02,-6569.46,2617.11
1764505880.2041488,1534.905,12191.085,-35682.075,-14547.78,-25624.26,-16402.59,-6567.929999999999,2618.685
1764505880.2041488,1532.97,12189.105,-35684.82,-14549.76,-25623.495,-16398.135,-6566.264999999999,2618.46
1764505880.2041488,1531.71,12187.485,-35686.755,-14550.615,-25622.64,-16395.795,-6566.175,2617.155
1764505880.2041488,1527.12,12181.86,-35692.515,-14555.34,-25626.825,-16398.045,-6569.82,2612.655
1764505880.2058544,1524.51,12179.295,-35694.945,-14558.22,-25630.605,-16402.59,-6572.295,2609.955
1764505880.2058544,1525.5449999999998,12180.42,-35693.28,-14557.545,-25630.335,-16402.995,-6572.295,2610.45
1764505880.254085,1526.76,12181.77,-35691.795,-14556.465,-25629.615,-16402.545,-6571.71,2611.215
1764505880.254085,1528.47,12183.165,-35690.715,-14554.17,-25627.23,-16401.015,-6571.44,2613.195
1764505880.254085,1525.6799999999998,12181.365,-35693.189999999995,-14556.78,-25630.47,-16403.265,-6572.745,2610.855
1764505880.2550125,1526.76,12182.22,-35693.28,-14555.655,-25629.525,-16402.815,-6570.764999999999,2611.71
1764505880.2550125,1527.66,12184.02,-35692.29,-14554.53,-25628.22,-16401.105,-6569.775,2613.195
1764505880.2550125,1531.98,12188.655,-35686.665,-14548.86,-25623.09,-16396.065,-6566.264999999999,2617.695
1764505880.2550125,1531.71,12187.89,-35686.845,-14549.175,-25623.63,-16396.92,-6566.804999999999,2617.74
1764505880.2550125,1527.885,12183.885,-35690.939999999995,-14553.405,-25627.815,-16400.97,-6569.865,2613.375
1764505880.2550125,1530.225,12186.495,-35689.365,-14551.29,-25625.07,-16398.27,-6568.514999999999,2615.445
1764505880.2550125,1525.905,12182.49,-35692.83,-14555.115,-25629.165,-16402.545,-6571.53,2611.17
1764505880.2550125,1526.085,12182.715,-35691.705,-14555.25,-25629.48,-16403.04,-6572.115,2611.44
1764505880.2550125,1529.235,12185.505,-35689.365,-14552.415,-25626.69,-16399.62,-6569.639999999999,2614.68
1764505880.2550125,1528.155,12184.56,-35690.175,-14552.865,-25626.96,-16400.204999999998,-6570.315,2614.005
1764505880.2550125,1527.12,12183.705,-35691.705,-14554.17,-25627.59,-16401.015,-6571.304999999999,2613.06
1764505880.2550125,1524.69,12180.6,-35694.09,-14557.005,-25630.785,-16404.03,-6573.014999999999,2610.72
1764505880.2550125,1527.75,12183.12,-35691.255,-14553.72,-25627.815,-16401.105,-6571.304999999999,2612.88
1764505880.2550125,1528.38,12184.38,-35689.545,-14551.74,-25625.61,-16399.305,-6570.134999999999,2613.87
1764505880.2550125,1527.255,12183.21,-35690.76,-14553.09,-25626.465,-16400.745,-6571.349999999999,2612.52
1764505880.2550125,1526.6699999999998,12183.21,-35691.03,-14553.405,-25627.5,-16401.059999999998,-6571.259999999999,2612.43
1764505880.2550125,1527.705,12184.155,-35690.985,-14553.45,-25627.23,-16401.465,-6571.08,2612.295
1764505880.2550125,1526.22,12181.995,-35692.83,-14554.44,-25627.815,-16402.364999999998,-6572.07,2611.35
1764505880.2550125,1523.205,12179.16,-35694.9,-14557.095,-25630.83,-16404.795,-6573.33,2609.19
1764505880.2999442,1524.78,12180.555,-35693.82,-14556.645,-25631.235,-16404.48,-6573.15,2610.675
1764505880.2999442,1525.005,12180.51,-35694.9,-14557.23,-25631.37,-16404.795,-6574.455,2610.63
1764505880.2999442,1523.4299999999998,12178.89,-35696.43,-14558.67,-25632.945,-16405.38,-6576.435,2608.875
1764505880.2999442,1527.435,12183.66,-35692.38,-14554.755,-25628.355,-16401.42,-6573.105,2613.375
1764505880.2999442,1528.47,12183.75,-35691.435,-14553.72,-25627.725,-16400.204999999998,-6572.474999999999,2614.32
1764505880.2999442,1522.98,12178.44,-35695.98,-14557.86,-25632.27,-16405.155,-6577.425,2609.235
1764505880.2999442,1524.915,12180.285,-35693.73,-14555.655,-25629.66,-16403.22,-6575.49,2611.125
1764505880.2999442,1523.115,12178.8,-35695.08,-14557.14,-25632.045,-16404.84,-6576.21,2608.83
1764505880.2999442,1525.5449999999998,12181.005,-35693.775,-14554.35,-25629.705,-16403.355,-6575.175,2610.945
1764505880.2999442,1527.255,12182.85,-35692.244999999995,-14553.27,-25628.265,-16402.364999999998,-6573.69,2612.43
1764505880.2999442,1524.87,12181.32,-35694.63,-14556.015,-25631.01,-16404.93,-6574.86,2610.9
1764505880.2999442,1526.985,12183.975,-35692.83,-14553.18,-25629.21,-16402.23,-6573.06,2613.78
1764505880.2999442,1525.14,12182.13,-35693.955,-14553.99,-25630.605,-16403.67,-6575.13,2611.98
1764505880.2999442,1524.735,12180.96,-35694.225,-14554.935,-25630.74,-16403.579999999998,-6575.715,2611.395
1764505880.2999442,1523.205,12179.61,-35696.205,-14556.825,-25632.63,-16405.02,-6577.56,2609.505
1764505880.2999442,1516.6799999999998,12173.085,-35702.64,-14562.315,-25639.38,-16411.68,-6583.634999999999,2603.61
1764505880.300451,1518.21,12174.66,-35700.57,-14561.595,-25637.67,-16410.645,-6582.42,2605.41
1764505880.300451,1523.385,12179.925,-35695.935,-14557.635,-25632.99,-16406.684999999998,-6579.045,2610.135
1764505880.300451,1523.205,12179.88,-35695.665,-14556.825,-25632.72,-16406.91,-6578.73,2609.73
1764505880.300451,1519.335,12176.325,-35699.49,-14560.92,-25636.815,-16410.329999999998,-6581.205,2605.815
1764505880.300451,1521.81,12178.53,-35697.465,-14559.39,-25634.565,-16408.485,-6579.315,2609.01
1764505880.300451,1521.99,12179.07,-35696.52,-14558.535,-25634.205,-16408.44,-6578.594999999999,2608.605
1764505880.300451,1525.635,12182.265,-35692.605,-14554.26,-25629.615,-16405.02,-6576.615,2611.17
1764505880.300451,1523.88,12181.32,-35694.585,-14555.88,-25631.37,-16406.91,-6577.785,2610.18
1764505880.3467276,1525.41,12181.86,-35693.55,-14554.485,-25629.705,-16405.605,-6577.83,2611.395
1764505880.3467276,1520.955,12177.72,-35698.23,-14558.04,-25631.55,-16405.605,-6579.764999999999,2607.255
1764505880.3477428,1517.355,12174.3,-35701.695,-14561.505,-25635.465,-16408.62,-6581.474999999999,2604.195
1764505880.3477428,1517.49,12174.57,-35701.92,-14562.225,-25637.31,-16410.915,-6582.42,2604.6
1764505880.3477428,1518.3,12174.21,-35701.425,-14562.675,-25637.895,-16411.725,-6582.42,2605.41
1764505880.3477428,1522.575,12178.71,-35697.06,-14557.77,-25633.62,-16407.72,-6578.46,2609.415
1764505880.3477428,1523.2949999999998,12179.43,-35696.52,-14557.32,-25633.665,-16408.53,-6578.28,2609.64
1764505880.3477428,1521.765,12178.035,-35697.915,-14558.445,-25635.825,-16411.86,-6579.855,2607.435
1764505880.3477428,1524.465,12181.545,-35695.035,-14555.43,-25633.98,-16410.465,-6578.235,2610.225
1764505880.3477428,1522.395,12179.7,-35696.564999999995,-14556.96,-25635.33,-16411.995,-6578.099999999999,2608.38
1764505880.3477428,1523.385,12179.43,-35697.195,-14557.23,-25631.685,-16405.605,-6576.389999999999,2610.945
1764505880.3477428,1524.24,12179.385,-35697.465,-14556.645,-25630.65,-16404.614999999998,-6576.075,2611.62
1764505880.3477428,1523.835,12178.665,-35697.015,-14556.6,-25630.425,-16405.739999999998,-6576.795,2610.81
1764505880.3477428,1525.905,12180.735,-35694.945,-14553.945,-25628.985,-16403.399999999998,-6575.895,2612.835
1764505880.3477428,1524.4199999999998,12179.385,-35696.88,-14556.15,-25631.64,-16406.01,-6577.605,2610.54
1764505880.3477428,1521.81,12176.73,-35699.13,-14559.525,-25635.105,-16410.105,-6580.304999999999,2606.895
1764505880.3477428,1525.455,12181.5,-35694.585,-14555.295,-25631.235,-16407.675,-6577.514999999999,2610.99
1764505880.3477428,1525.725,12181.86,-35693.64,-14553.72,-25629.48,-16406.145,-6577.514999999999,2610.72
1764505880.3477428,1527.84,12183.75,-35691.795,-14551.38,-25626.465,-16400.655,-6574.995,2613.645
1764505880.3477428,1527.885,12183.885,-35692.02,-14551.155,-25626.69,-16401.375,-6573.87,2614.95
1764505880.348745,1528.38,12184.38,-35692.92,-14552.955,-25628.49,-16404.345,-6573.24,2615.445
1764505880.348745,1526.085,12180.645,-35696.61,-14556.78,-25632.54,-16407.27,-6575.264999999999,2612.25
1764505880.348745,1524.33,12179.295,-35697.15,-14556.87,-25633.125,-16408.125,-6576.48,2609.82
1764505880.348745,1526.625,12183.21,-35693.369999999995,-14552.46,-25628.715,-16403.399999999998,-6574.86,2612.7
1764505880.3937078,1528.02,12184.38,-35692.064999999995,-14550.615,-25627.005,-16400.655,-6573.105,2614.32
1764505880.3937078,1528.875,12185.055,-35691.93,-14549.985,-25627.14,-16400.16,-6571.98,2615.13
1764505880.3937078,1529.955,12186.45,-35691.165,-14548.995,-25626.51,-16399.305,-6570.764999999999,2616.255
1764505880.3937078,1529.865,12185.325,-35691.255,-14549.715,-25627.59,-16400.565,-6570.945,2615.805
1764505880.3937078,1526.13,12181.635,-35695.215,-14553.81,-25632.18,-16405.695,-6574.139999999999,2611.89
1764505880.3937078,1526.22,12181.86,-35694.675,-14553.585,-25632.135,-16405.92,-6575.04,2612.745
1764505880.3937078,1528.785,12183.975,-35691.345,-14551.02,-25629.03,-16402.68,-6573.78,2615.67
1764505880.3937078,1525.365,12180.555,-35694.72,-14554.26,-25632.54,-16405.875,-6576.165,2611.845
1764505880.3937078,1528.11,12183.705,-35692.335,-14551.425,-25630.29,-16403.355,-6573.195,2614.005
1764505880.3937078,1525.185,12181.14,-35694.99,-14553.045,-25632.0,-16405.425,-6575.13,2611.305
1764505880.3937078,1525.365,12181.005,-35695.035,-14552.595,-25631.685,-16405.829999999998,-6576.255,2611.62
1764505880.3937078,1526.85,12182.94,-35693.1,-14551.29,-25630.65,-16404.93,-6576.03,2612.745
1764505880.3937078,1529.415,12185.775,-35689.365,-14547.24,-25628.13,-16403.355,-6574.32,2614.815
1764505880.3937078,1524.24,12180.285,-35693.64,-14551.65,-25631.235,-16404.614999999998,-6576.929999999999,2610.81
1764505880.3937078,1522.08,12178.62,-35696.52,-14554.665,-25632.27,-16402.725,-6577.245,2610.09
1764505880.3937078,1527.84,12184.515,-35690.895,-14549.67,-25628.76,-16399.755,-6572.07,2616.3
1764505880.3947213,1529.73,12185.145,-35689.68,-14548.32,-25627.14,-16399.71,-6571.395,2618.145
1764505880.3947213,1528.02,12184.02,-35691.795,-14551.02,-25628.805,-16402.995,-6574.139999999999,2616.255
1764505880.3947213,1524.51,12181.05,-35695.395,-14554.665,-25633.395,-16407.72,-6576.3,2612.79
1764505880.3947213,1525.815,12181.86,-35694.81,-14553.81,-25633.485,-16406.684999999998,-6575.715,2613.915
1764505880.3947213,1529.775,12185.145,-35691.165,-14550.345,-25629.66,-16403.355,-6573.42,2617.65
1764505880.3947213,1527.075,12183.12,-35692.875,-14552.19,-25630.92,-16405.245,-6574.995,2615.13
1764505880.3957243,1528.65,12184.47,-35690.939999999995,-14549.76,-25628.355,-16402.725,-6574.905,2616.3
1764505880.3967242,1528.9199999999998,12184.92,-35690.49,-14548.5,-25627.545,-16401.69,-6574.23,2617.2
1764505880.4399948,1529.82,12186.09,-35689.905,-14548.455,-25627.545,-16401.735,-6573.599999999999,2617.605
1764505880.4399948,1532.025,12188.655,-35687.88,-14545.89,-25625.52,-16399.665,-6572.07,2619.54
1764505880.4399948,1533.6,12190.455,-35685.314999999995,-14543.955,-25624.89,-16399.98,-6571.304999999999,2620.26
1764505880.4399948,1529.955,12187.035,-35688.869999999995,-14548.23,-25628.76,-16402.725,-6573.15,2616.93
1764505880.4399948,1526.13,12182.13,-35693.775,-14552.775,-25631.505,-16402.5,-6575.13,2614.86
1764505880.4399948,1528.47,12183.975,-35690.985,-14549.76,-25628.85,-16400.79,-6574.005,2616.12
1764505880.4399948,1528.515,12184.515,-35690.715,-14548.455,-25628.445,-16400.565,-6573.195,2616.525
1764505880.4399948,1527.435,12183.21,-35690.805,-14549.715,-25629.525,-16401.555,-6573.509999999999,2616.075
1764505880.4399948,1524.06,12179.97,-35693.64,-14553.495,-25632.45,-16404.345,-6576.389999999999,2613.105
1764505880.4399948,1523.88,12179.745,-35694.27,-14554.35,-25633.53,-16406.1,-6576.57,2612.835
1764505880.4410076,1524.645,12180.15,-35694.855,-14553.945,-25633.8,-16406.55,-6576.615,2613.285
1764505880.4410076,1526.58,12181.68,-35692.965,-14552.055,-25632.495,-16405.2,-6576.389999999999,2615.085
1764505880.4410076,1529.82,12185.505,-35689.994999999995,-14547.96,-25628.445,-16401.87,-6573.33,2617.92
1764505880.4410076,1525.905,12181.545,-35694.09,-14551.92,-25632.135,-16405.38,-6576.075,2614.05
1764505880.4410076,1529.775,12184.83,-35690.355,-14548.005,-25628.625,-16401.78,-6573.014999999999,2617.695
1764505880.4410076,1529.325,12185.595,-35689.77,-14547.33,-25627.995,-16401.6,-6572.565,2617.92
1764505880.4410076,1526.6699999999998,12184.065,-35691.57,-14549.805,-25630.425,-16404.614999999998,-6574.455,2614.95
1764505880.4410076,1529.19,12184.965,-35690.13,-14549.31,-25629.255,-16404.075,-6573.645,2616.3
1764505880.4410076,1528.2,12184.245,-35691.525,-14550.12,-25630.425,-16404.21,-6573.87,2615.76
1764505880.4410076,1526.895,12184.425,-35691.21,-14549.31,-25630.605,-16403.265,-6574.455,2615.355
1764505880.4841197,1527.525,12184.38,-35691.57,-14549.49,-25630.74,-16403.22,-6574.139999999999,2615.22
1764505880.4841197,1525.995,12182.67,-35693.595,-14551.785,-25632.18,-16404.21,-6574.094999999999,2614.32
1764505880.4841197,1530.1799999999998,12187.17,-35689.77,-14547.51,-25628.22,-16400.475,-6570.99,2618.73
1764505880.4841197,1528.47,12185.91,-35691.39,-14549.085,-25629.84,-16402.005,-6572.655,2616.705
1764505880.4841197,1527.57,12185.145,-35692.02,-14549.22,-25630.29,-16401.825,-6573.554999999999,2615.625
1764505880.4841197,1526.355,12184.065,-35693.145,-14550.21,-25630.92,-16404.165,-6574.679999999999,2613.87
1764505880.485138,1527.165,12185.235,-35691.48,-14549.085,-25630.38,-16404.614999999998,-6574.185,2614.995
1764505880.485138,1529.235,12186.045,-35689.23,-14547.645,-25628.58,-16401.87,-6573.645,2616.525
1764505880.485138,1524.915,12180.51,-35695.439999999995,-14552.775,-25632.315,-16402.68,-6575.985,2613.195
1764505880.485138,1524.33,12180.42,-35696.79,-14553.81,-25633.305,-16404.57,-6577.11,2612.97
1764505880.485138,1525.095,12181.545,-35695.26,-14552.46,-25632.63,-16404.75,-6576.615,2613.78
1764505880.485138,1530.1799999999998,12186.495,-35690.58,-14547.24,-25627.68,-16399.62,-6572.925,2618.145
1764505880.485138,1530.1799999999998,12186.405,-35689.545,-14547.15,-25627.5,-16400.475,-6572.79,2618.055
1764505880.485138,1526.085,12182.355,-35693.82,-14552.145,-25633.755,-16407.45,-6576.57,2613.42
1764505880.485138,1526.85,12183.705,-35694.045,-14551.29,-25633.395,-16407.135,-6576.03,2614.32
1764505880.485138,1530.0449999999998,12187.215,-35689.545,-14547.24,-25630.29,-16404.165,-6573.87,2616.93
1764505880.485138,1530.405,12187.26,-35688.915,-14546.205,-25629.3,-16404.03,-6573.825,2617.38
1764505880.485138,1529.685,12186.18,-35690.49,-14546.475,-25629.48,-16403.67,-6573.87,2616.66
1764505880.485138,1527.12,12183.66,-35693.865,-14549.805,-25630.29,-16402.14,-6574.59,2615.085
1764505880.485138,1524.96,12181.32,-35694.72,-14553.72,-25633.125,-16405.875,-6575.67,2613.645
1764505880.485138,1522.035,12177.675,-35698.455,-14557.14,-25637.49,-16411.14,-6579.09,2609.82
1764505880.485138,1524.015,12179.97,-35696.655,-14554.485,-25635.645,-16408.575,-6578.145,2612.07
1764505880.485138,1529.37,12185.595,-35691.705,-14549.13,-25631.055,-16403.94,-6574.724999999999,2617.11
1764505880.485138,1528.155,12184.425,-35692.425,-14550.03,-25631.19,-16405.245,-6575.804999999999,2615.535
1764505880.4861522,1528.47,12185.19,-35692.335,-14549.76,-25630.245,-16404.255,-6575.445,2615.985
1764505880.4861522,1524.87,12182.445,-35695.439999999995,-14551.83,-25632.495,-16405.38,-6577.695,2613.195
1764505880.5348923,1524.285,12181.5,-35696.115,-14552.055,-25632.495,-16404.48,-6577.38,2613.195
1764505880.5348923,1524.375,12181.77,-35695.485,-14551.74,-25632.945,-16403.085,-6577.245,2613.15
1764505880.5348923,1526.13,12183.165,-35693.235,-14549.535,-25631.01,-16401.465,-6575.715,2614.5
1764505880.5348923,1528.155,12185.91,-35691.345,-14547.015,-25628.67,-16400.07,-6574.32,2617.155
1764505880.5348923,1526.8049999999998,12185.1,-35692.515,-14548.86,-25630.965,-16402.364999999998,-6575.715,2615.31
1764505880.5348923,1525.59,12183.795,-35693.145,-14548.905,-25630.875,-16402.59,-6575.219999999999,2613.6
1764505880.5348923,1529.01,12187.08,-35690.13,-14545.98,-25627.635,-16398.63,-6572.474999999999,2617.83
1764505880.5348923,1528.02,12184.56,-35692.425,-14548.14,-25630.155,-16401.51,-6574.05,2616.66
1764505880.5348923,1528.245,12185.055,-35692.064999999995,-14548.5,-25630.695,-16402.59,-6573.509999999999,2617.11
1764505880.5348923,1527.03,12184.875,-35692.83,-14549.715,-25632.27,-16405.739999999998,-6574.139999999999,2616.57
1764505880.5348923,1527.165,12184.38,-35694.27,-14550.795,-25634.115,-16407.315,-6574.545,2615.94
1764505880.5348923,1527.84,12185.145,-35694.0,-14550.795,-25633.98,-16407.989999999998,-6574.77,2616.03
1764505880.5348923,1527.255,12184.83,-35693.55,-14551.83,-25634.115,-16408.305,-6575.759999999999,2616.435
1764505880.5348923,1526.22,12184.2,-35693.865,-14551.02,-25634.34,-16409.204999999998,-6576.389999999999,2615.535
1764505880.53589,1524.33,12182.76,-35695.17,-14552.595,-25636.815,-16412.535,-6578.325,2613.015
1764505880.53589,1526.355,12185.28,-35691.93,-14549.895,-25634.25,-16409.7,-6576.929999999999,2614.95
1764505880.53589,1528.47,12186.225,-35690.895,-14549.49,-25631.595,-16404.03,-6574.545,2617.56
1764505880.53589,1524.645,12180.285,-35697.375,-14555.475,-25635.555,-16405.695,-6577.065,2613.645
1764505880.53589,1523.97,12180.33,-35696.88,-14554.62,-25635.825,-16408.44,-6578.415,2613.105
1764505880.53589,1520.325,12177.405,-35700.03,-14558.085,-25639.29,-16412.445,-6581.115,2608.92
1764505880.53589,1521.45,12178.17,-35700.165,-14558.445,-25639.785,-16411.59,-6580.62,2610.135
1764505880.53589,1524.78,12180.6,-35697.78,-14555.295,-25637.355,-16409.43,-6578.505,2613.375
1764505880.5804627,1522.53,12178.53,-35700.119999999995,-14557.095,-25639.515,-16412.715,-6579.764999999999,2610.585
1764505880.5804627,1521.36,12177.945,-35700.255,-14557.995,-25640.01,-16413.255,-6579.945,2609.685
1764505880.5804627,1521.27,12177.81,-35699.85,-14557.59,-25640.145,-16412.489999999998,-6579.315,2610.0
1764505880.5804627,1522.485,12179.34,-35698.365,-14556.33,-25638.93,-16411.905,-6578.82,2611.485
1764505880.5804627,1525.5,12182.535,-35695.89,-14553.36,-25635.375,-16409.295,-6577.11,2614.725
1764505880.5804627,1520.64,12177.54,-35701.064999999995,-14558.22,-25640.28,-16414.065,-6581.79,2609.73
1764505880.5804627,1519.56,12176.82,-35701.83,-14559.57,-25641.63,-16414.38,-6581.969999999999,2608.785
1764505880.5804627,1522.08,12179.205,-35699.13,-14556.645,-25639.065,-16412.265,-6580.889999999999,2610.855
1764505880.5804627,1521.315,12178.8,-35699.58,-14557.005,-25639.74,-16413.03,-6580.53,2610.585
1764505880.5804627,1522.98,12180.735,-35697.375,-14554.98,-25637.94,-16411.364999999998,-6578.415,2612.835
1764505880.5804627,1524.645,12181.635,-35696.115,-14553.63,-25636.725,-16410.87,-6577.695,2613.555
1764505880.5804627,1524.285,12181.59,-35695.665,-14553.09,-25636.68,-16411.86,-6577.695,2613.51
1764505880.5804627,1524.78,12182.13,-35695.35,-14553.18,-25635.15,-16410.555,-6577.514999999999,2613.825
1764505880.5804627,1525.59,12182.535,-35695.17,-14552.1,-25633.395,-16405.515,-6575.67,2615.22
1764505880.5804627,1526.76,12184.245,-35693.955,-14550.66,-25633.17,-16405.47,-6575.085,2616.12
1764505880.5804627,1525.095,12183.21,-35695.125,-14552.685,-25635.96,-16409.204999999998,-6577.83,2614.59
1764505880.5804627,1523.745,12181.68,-35696.34,-14553.675,-25636.995,-16410.69,-6578.054999999999,2613.33
1764505880.5804627,1523.655,12181.005,-35696.7,-14553.675,-25636.77,-16411.454999999998,-6579.09,2611.98
1764505880.5804627,1523.205,12180.96,-35696.52,-14554.17,-25636.95,-16410.87,-6579.179999999999,2611.89
1764505880.5804627,1521.72,12178.845,-35698.59,-14556.645,-25639.695,-16412.489999999998,-6580.44,2610.495
1764505880.5804627,1520.955,12177.585,-35699.67,-14557.5,-25640.91,-16413.165,-6581.205,2609.595
1764505880.5804627,1518.975,12175.83,-35701.47,-14558.895,-25642.305,-16414.605,-6582.014999999999,2608.155
1764505880.5814807,1519.56,12176.415,-35700.795,-14558.22,-25641.18,-16413.795,-6581.295,2609.01
1764505880.5814807,1521.945,12178.8,-35698.41,-14555.79,-25638.48,-16410.465,-6578.505,2611.35
1764505880.6310058,1525.905,12182.67,-35694.54,-14551.515,-25633.89,-16406.055,-6574.995,2615.535
1764505880.6310058,1522.62,12180.015,-35697.15,-14553.765,-25636.59,-16408.53,-6578.235,2612.925
1764505880.6310058,1520.235,12177.63,-35699.445,-14556.375,-25640.325,-16412.265,-6581.384999999999,2609.055
1764505880.6310058,1519.785,12177.18,-35699.04,-14556.735,-25641.315,-16413.75,-6581.969999999999,2607.615
1764505880.6310058,1520.37,12177.945,-35699.355,-14556.015,-25640.37,-16412.67,-6580.665,2608.425
1764505880.6310058,1520.505,12177.495,-35700.3,-14557.725,-25641.18,-16413.614999999998,-6581.07,2608.74
1764505880.6310058,1520.685,12177.135,-35701.11,-14557.815,-25642.125,-16414.695,-6581.835,2608.92
1764505880.6310058,1523.2949999999998,12180.735,-35698.545,-14554.71,-25639.56,-16411.5,-6580.125,2611.89
1764505880.6310058,1523.07,12180.51,-35697.51,-14554.98,-25639.515,-16411.095,-6579.27,2612.655
1764505880.6310058,1523.835,12181.05,-35696.205,-14554.44,-25639.02,-16410.645,-6578.19,2613.69
1764505880.6310058,1523.925,12181.095,-35696.34,-14554.305,-25639.47,-16411.23,-6578.415,2613.735
1764505880.6310058,1521.855,12178.44,-35698.455,-14555.565,-25641.99,-16414.92,-6580.98,2610.99
1764505880.632021,1519.83,12177.225,-35699.535,-14557.365,-25643.34,-16416.945,-6582.465,2608.155
1764505880.632021,1521.945,12179.835,-35696.564999999995,-14554.17,-25639.83,-16413.975,-6581.205,2609.595
1764505880.632021,1517.22,12174.975,-35701.875,-14558.715,-25642.215,-16414.065,-6583.139999999999,2606.085
1764505880.632021,1515.915,12173.535,-35704.08,-14560.065,-25643.295,-16413.795,-6583.185,2605.365
1764505880.632021,1516.995,12175.155,-35702.505,-14558.265,-25642.17,-16413.345,-6583.23,2606.895
1764505880.632021,1516.32,12174.885,-35701.605,-14557.77,-25641.99,-16413.03,-6583.679999999999,2606.76
1764505880.632021,1517.535,12176.1,-35700.21,-14558.04,-25641.63,-16413.345,-6583.139999999999,2607.39
1764505880.632021,1519.875,12178.89,-35698.59,-14556.78,-25641.18,-16414.155,-6582.69,2610.27
1764505880.632021,1521.0449999999998,12180.33,-35697.555,-14555.79,-25641.045,-16414.92,-6582.105,2611.305
1764505880.632021,1519.695,12179.07,-35699.175,-14556.915,-25643.745,-16418.114999999998,-6584.264999999999,2609.01
1764505880.632021,1516.995,12176.28,-35702.28,-14561.37,-25647.48,-16422.345,-6586.469999999999,2605.995
1764505880.632021,1516.77,12174.84,-35704.215,-14562.675,-25645.905,-16418.07,-6585.344999999999,2606.22
1764505880.673419,1515.96,12172.725,-35705.385,-14563.17,-25646.31,-16418.114999999998,-6585.884999999999,2604.78
1764505880.673419,1520.1,12176.91,-35700.435,-14557.995,-25642.755,-16416.27,-6583.995,2608.38
1764505880.673419,1521.135,12178.26,-35700.03,-14557.005,-25641.945,-16415.864999999998,-6583.5,2609.19
1764505880.673419,1522.26,12179.88,-35697.825,-14554.71,-25640.865,-16415.55,-6583.634999999999,2609.235
1764505880.673419,1522.035,12180.915,-35696.52,-14553.63,-25639.965,-16415.73,-6583.455,2609.595
1764505880.673419,1519.425,12178.62,-35698.905,-14554.53,-25639.155,-16412.13,-6583.185,2607.57
1764505880.673419,1522.395,12180.69,-35696.43,-14551.425,-25634.34,-16404.704999999998,-6580.215,2611.215
1764505880.673419,1521.0449999999998,12179.025,-35697.78,-14552.235,-25635.06,-16405.335,-6581.79,2610.27
1764505880.673419,1518.975,12177.63,-35698.994999999995,-14554.755,-25638.525,-16409.61,-6582.78,2608.47
1764505880.673419,1521.72,12180.51,-35696.97,-14553.675,-25638.12,-16410.239999999998,-6581.925,2610.405
1764505880.674416,1521.1799999999998,12179.475,-35698.185,-14554.98,-25641.0,-16413.39,-6583.455,2609.91
1764505880.674416,1518.57,12176.055,-35701.74,-14559.39,-25646.535,-16420.05,-6585.57,2607.255
1764505880.674416,1521.495,12178.395,-35700.435,-14558.58,-25647.795,-16421.76,-6584.219999999999,2609.91
1764505880.674416,1518.9299999999998,12176.145,-35703.36,-14562.18,-25650.945,-16426.395,-6586.92,2608.11
1764505880.674416,1521.1799999999998,12178.26,-35701.155,-14561.055,-25649.28,-16424.19,-6586.245,2611.125
1764505880.674416,1520.55,12176.955,-35702.055,-14562.54,-25651.08,-16424.864999999998,-6586.335,2611.125
1764505880.674416,1518.885,12174.705,-35704.35,-14564.115,-25652.745,-16425.945,-6587.37,2609.505
1764505880.675414,1513.8,12169.98,-35709.255,-14567.85,-25656.48,-16429.32,-6591.195,2604.555
1764505880.675414,1512.72,12169.17,-35708.939999999995,-14568.075,-25656.39,-16428.465,-6591.42,2604.33
1764505880.675414,1512.405,12169.035,-35708.4,-14568.165,-25655.94,-16427.97,-6591.915,2604.33
1764505880.675414,1517.6699999999998,12173.58,-35703.54,-14562.72,-25650.675,-16422.345,-6588.855,2608.38
1764505880.675414,1518.9299999999998,12174.975,-35702.28,-14560.02,-25648.38,-16420.095,-6587.054999999999,2609.64
1764505880.719941,1518.435,12174.705,-35702.145,-14559.795,-25647.885,-16419.6,-6586.695,2609.1
1764505880.719941,1517.985,12174.39,-35701.605,-14560.38,-25647.795,-16420.05,-6587.145,2609.46
1764505880.719941,1518.975,12175.47,-35701.83,-14559.345,-25647.165,-16418.745,-6586.38,2609.325
1764505880.719941,1519.245,12175.2,-35702.64,-14559.66,-25646.49,-16417.89,-6586.74,2608.74
1764505880.719941,1520.01,12176.145,-35701.785,-14558.22,-25645.005,-16416.405,-6585.344999999999,2610.405
1764505880.719941,1517.8049999999998,12174.3,-35703.855,-14560.155,-25646.715,-16417.755,-6587.46,2607.84
1764505880.719941,1515.735,12172.23,-35704.845,-14562.045,-25648.02,-16419.735,-6589.575,2605.23
1764505880.719941,1518.03,12175.02,-35701.605,-14558.805,-25645.635,-16417.035,-6588.179999999999,2607.615
1764505880.719941,1519.335,12175.875,-35701.695,-14558.76,-25646.265,-16418.024999999998,-6587.865,2608.11
1764505880.719941,1516.815,12172.68,-35703.765,-14561.865,-25649.415,-16420.59,-6589.665,2605.68
1764505880.719941,1518.705,12174.66,-35701.064999999995,-14559.3,-25647.03,-16417.079999999998,-6589.035,2607.03
1764505880.719941,1518.57,12174.885,-35701.02,-14557.77,-25646.04,-16416.225,-6589.755,2606.895
1764505880.719941,1518.435,12174.705,-35700.93,-14557.635,-25645.365,-16415.954999999998,-6589.304999999999,2607.255
1764505880.719941,1516.23,12172.32,-35702.64,-14559.795,-25646.67,-16416.855,-6589.665,2605.5
1764505880.719941,1519.875,12175.92,-35699.625,-14556.42,-25643.655,-16413.48,-6587.28,2609.01
1764505880.719941,1519.335,12175.74,-35699.985,-14556.105,-25643.88,-16413.93,-6587.46,2608.74
1764505880.720955,1521.36,12178.035,-35697.465,-14553.945,-25642.485,-16413.93,-6586.2,2609.82
1764505880.720955,1523.4299999999998,12180.645,-35694.27,-14551.515,-25641.81,-16415.55,-6585.929999999999,2611.305
1764505880.720955,1525.185,12182.4,-35693.189999999995,-14550.93,-25642.845,-16418.07,-6586.065,2611.62
1764505880.720955,1520.73,12177.9,-35698.365,-14555.205,-25645.14,-16418.43,-6587.955,2607.615
1764505880.720955,1518.21,12172.995,-35703.225,-14558.085,-25644.06,-16411.364999999998,-6586.695,2607.525
1764505880.720955,1513.71,12168.495,-35707.32,-14563.44,-25649.19,-16416.135,-6589.575,2604.105
1764505880.720955,1514.97,12170.25,-35705.34,-14562.405,-25649.82,-16419.195,-6590.115,2604.645
1764505880.720955,1516.6799999999998,12172.23,-35702.82,-14560.335,-25648.875,-16418.79,-6589.349999999999,2606.04
1764505880.7688334,1521.72,12177.63,-35698.185,-14554.89,-25644.24,-16414.695,-6585.705,2610.585
1764505880.7688334,1520.46,12177.18,-35699.22,-14555.34,-25643.43,-16414.515,-6586.245,2609.28
1764505880.7688334,1516.86,12174.03,-35702.369999999995,-14558.49,-25646.13,-16416.989999999998,-6587.865,2606.715
1764505880.7688334,1518.03,12174.3,-35701.02,-14557.86,-25645.455,-16417.26,-6586.83,2608.83
1764505880.7688334,1516.365,12173.535,-35702.189999999995,-14558.13,-25646.22,-16418.34,-6588.0,2606.76
1764505880.7688334,1518.705,12175.605,-35699.49,-14555.16,-25644.105,-16415.864999999998,-6587.28,2609.01
1764505880.7688334,1519.245,12175.965,-35699.939999999995,-14556.105,-25643.97,-16417.215,-6588.405,2609.235
1764505880.7688334,1518.9299999999998,12175.605,-35700.345,-14556.735,-25644.825,-16418.52,-6588.495,2609.46
1764505880.7688334,1516.905,12173.67,-35703.09,-14560.065,-25648.74,-16422.165,-6589.395,2607.12
1764505880.769835,1520.865,12177.675,-35699.04,-14556.51,-25645.725,-16418.97,-6587.235,2610.72
1764505880.769835,1522.62,12179.7,-35696.34,-14553.675,-25643.43,-16415.64,-6585.525,2611.845
1764505880.769835,1521.135,12178.485,-35697.465,-14554.215,-25643.565,-16416.495,-6587.099999999999,2610.405
1764505880.769835,1518.525,12176.01,-35700.975,-14557.41,-25646.31,-16420.05,-6589.035,2607.525
1764505880.769835,1518.255,12174.345,-35702.369999999995,-14559.3,-25647.84,-16420.635,-6588.27,2607.885
1764505880.769835,1517.94,12173.85,-35703.54,-14560.065,-25649.235,-16420.274999999998,-6588.63,2607.705
1764505880.769835,1518.39,12174.93,-35702.595,-14558.355,-25647.57,-16418.79,-6588.09,2608.2
1764505880.769835,1518.975,12177.045,-35700.3,-14556.42,-25645.545,-16417.665,-6586.65,2609.28
1764505880.769835,1522.1699999999998,12180.105,-35697.24,-14553.81,-25642.035,-16414.785,-6584.58,2612.025
1764505880.769835,1521.0449999999998,12178.71,-35698.32,-14554.845,-25643.205,-16416.63,-6585.57,2611.35
1764505880.769835,1518.48,12175.605,-35700.795,-14557.23,-25646.355,-16419.69,-6587.099999999999,2608.83
1764505880.769835,1521.135,12178.935,-35698.005,-14554.395,-25644.105,-16417.395,-6585.344999999999,2611.53
1764505880.769835,1520.01,12177.675,-35699.445,-14556.105,-25645.095,-16418.835,-6586.785,2610.135
1764505880.7703435,1518.66,12176.46,-35699.895,-14556.87,-25645.995,-16419.015,-6586.83,2609.055
1764505880.7703435,1515.96,12173.445,-35702.235,-14559.075,-25649.235,-16421.579999999998,-6588.27,2605.86
1764505880.81381,1516.77,12173.895,-35701.965,-14558.13,-25648.92,-16421.04,-6588.36,2606.76
1764505880.81381,1519.11,12176.28,-35699.49,-14555.745,-25645.32,-16417.89,-6586.38,2609.685
1764505880.8143587,1519.02,12176.28,-35699.265,-14555.97,-25646.175,-16418.204999999998,-6586.514999999999,2609.37
1764505880.8143587,1516.5449999999998,12172.725,-35702.415,-14558.85,-25649.775,-16422.614999999998,-6589.44,2607.03
1764505880.8143587,1519.56,12175.74,-35699.805,-14556.465,-25647.255,-16420.364999999998,-6587.685,2609.46
1764505880.8143587,1520.415,12176.955,-35697.555,-14554.665,-25645.005,-16417.35,-6586.605,2609.775
1764505880.8143587,1519.9199999999998,12175.83,-35697.96,-14554.44,-25645.005,-16417.035,-6586.335,2609.325
1764505880.8143587,1514.97,12171.105,-35703.675,-14559.165,-25649.595,-16420.95,-6590.115,2604.87
1764505880.8143587,1515.5549999999998,12172.05,-35703.54,-14558.22,-25647.885,-16420.095,-6589.53,2606.085
1764505880.8143587,1518.345,12175.74,-35700.48,-14554.89,-25644.69,-16417.305,-6586.965,2608.605
1764505880.8143587,1515.51,12172.185,-35702.64,-14557.23,-25647.615,-16419.96,-6589.035,2605.86
1764505880.8143587,1515.06,12172.545,-35701.785,-14557.005,-25647.93,-16420.364999999998,-6589.349999999999,2605.59
1764505880.8143587,1519.695,12177.18,-35697.645,-14553.63,-25646.13,-16420.725,-6587.594999999999,2609.01
1764505880.8143587,1518.705,12176.955,-35697.96,-14554.44,-25647.435,-16421.85,-6588.54,2608.155
1764505880.8143587,1517.085,12174.12,-35699.4,-14555.97,-25647.975,-16421.489999999998,-6589.44,2607.39
1764505880.8143587,1514.88,12172.455,-35701.38,-14557.905,-25648.92,-16420.725,-6588.81,2605.95
1764505880.8143587,1516.455,12173.58,-35700.75,-14555.34,-25646.13,-16415.055,-6586.56,2608.695
1764505880.8143587,1514.4299999999998,12172.005,-35701.515,-14556.735,-25648.11,-16419.015,-6589.889999999999,2606.76
1764505880.8143587,1512.63,12169.935,-35703.63,-14558.715,-25649.73,-16421.489999999998,-6591.465,2604.735
1764505880.8143587,1514.2949999999998,12171.735,-35702.505,-14557.41,-25648.875,-16420.545,-6590.925,2606.31
1764505880.8143587,1512.36,12170.745,-35703.27,-14559.3,-25651.89,-16424.73,-6591.78,2604.78
1764505880.8143587,1516.5449999999998,12174.435,-35698.545,-14554.665,-25647.975,-16422.03,-6589.665,2608.155
1764505880.860098,1517.085,12174.66,-35698.545,-14554.305,-25647.12,-16421.399999999998,-6589.485,2608.11
1764505880.860098,1513.395,12171.285,-35701.695,-14556.6,-25648.425,-16421.805,-6591.42,2605.095
1764505880.860098,1514.655,12171.87,-35701.11,-14554.44,-25644.6,-16415.415,-6588.45,2606.895
1764505880.860098,1514.745,12171.78,-35701.74,-14554.845,-25644.645,-16416.809999999998,-6588.81,2606.355
1764505880.860098,1516.05,12172.455,-35701.064999999995,-14554.89,-25646.535,-16418.52,-6588.405,2608.515
1764505880.860098,1512.99,12169.575,-35704.395,-14559.03,-25651.125,-16422.885,-6590.925,2605.32
1764505880.860098,1514.025,12170.565,-35702.505,-14557.455,-25650.36,-16421.85,-6589.755,2606.67
1764505880.860098,1516.6799999999998,12174.3,-35698.68,-14553.81,-25646.13,-16417.845,-6587.91,2608.65
1764505880.860098,1518.03,12175.785,-35696.835,-14551.965,-25643.835,-16415.73,-6587.505,2610.045
1764505880.860098,1517.355,12175.02,-35697.555,-14553.27,-25644.195,-16416.45,-6587.685,2609.01
1764505880.860098,1513.1699999999998,12170.745,-35702.189999999995,-14558.895,-25650.27,-16422.3,-6590.52,2605.635
1764505880.860098,1513.89,12170.565,-35703.27,-14560.92,-25653.105,-16425.27,-6589.8,2606.715
1764505880.860098,1511.955,12168.54,-35705.655,-14563.035,-25655.445,-16429.23,-6591.554999999999,2604.42
1764505880.860098,1513.71,12170.385,-35703.54,-14561.01,-25653.645,-16427.835,-6590.745,2605.32
1764505880.860098,1517.355,12173.76,-35700.03,-14557.095,-25649.595,-16423.065,-6587.91,2608.515
1764505880.860098,1514.16,12170.88,-35703.314999999995,-14559.435,-25651.98,-16425.045,-6589.98,2605.32
1764505880.860098,1511.46,12167.82,-35705.34,-14562.045,-25653.915,-16427.475,-6591.915,2602.305
1764505880.860098,1513.755,12170.385,-35702.1,-14559.615,-25650.99,-16424.595,-6590.565,2603.97
1764505880.860098,1512.495,12169.395,-35704.35,-14561.01,-25652.835,-16425.675,-6590.925,2603.07
1764505880.860098,1516.5,12172.995,-35700.93,-14557.68,-25649.775,-16422.165,-6588.495,2607.435
1764505880.860098,1516.32,12172.41,-35700.705,-14557.77,-25650.63,-16422.93,-6589.17,2606.805
1764505880.860098,1511.73,12167.46,-35704.71,-14561.595,-25655.265,-16427.43,-6592.23,2601.945
1764505880.860098,1511.37,12166.875,-35704.8,-14562.405,-25656.03,-16427.43,-6592.59,2601.495
1764505880.860098,1513.845,12168.99,-35703.54,-14560.515,-25653.825,-16425.045,-6590.52,2603.34
1764505880.9058588,1519.245,12174.165,-35699.22,-14555.88,-25649.1,-16420.41,-6586.425,2608.11
1764505880.9058588,1516.635,12173.175,-35701.064999999995,-14557.68,-25651.845,-16422.57,-6588.945,2605.77
1764505880.9058588,1516.95,12173.085,-35700.885,-14557.23,-25651.17,-16421.67,-6588.719999999999,2605.095
1764505880.9058588,1517.175,12172.995,-35699.985,-14556.33,-25650.09,-16422.434999999998,-6588.675,2605.32
1764505880.9058588,1514.88,12171.465,-35701.02,-14557.365,-25651.665,-16425.09,-6589.44,2603.565
1764505880.9058588,1515.96,12172.635,-35699.895,-14556.915,-25651.62,-16425.135,-6589.304999999999,2604.735
1764505880.9058588,1513.035,12169.71,-35703.135,-14560.065,-25655.265,-16429.5,-6592.005,2601.855
1764505880.9058588,1511.0549999999998,12167.37,-35706.51,-14562.72,-25657.74,-16429.274999999998,-6592.139999999999,2600.955
1764505880.9058588,1509.48,12164.985,-35708.085,-14563.89,-25656.84,-16427.295,-6592.815,2599.65
1764505880.9058588,1510.335,12166.38,-35705.88,-14562.855,-25655.31,-16426.89,-6592.185,2601.225
1764505880.9058588,1514.025,12170.205,-35702.64,-14559.93,-25652.25,-16423.649999999998,-6589.125,2604.555
1764505880.906392,1510.47,12166.29,-35706.78,-14563.485,-25655.895,-16427.7,-6592.77,2600.46
1764505880.906392,1510.83,12167.505,-35705.655,-14562.495,-25656.12,-16427.745,-6592.5,2600.91
1764505880.906392,1513.71,12170.97,-35701.605,-14558.625,-25652.7,-16424.64,-6590.295,2604.06
1764505880.906392,1515.06,12172.77,-35699.04,-14556.645,-25651.44,-16423.965,-6589.53,2605.095
1764505880.906392,1516.365,12175.155,-35697.195,-14555.115,-25650.135,-16424.37,-6589.53,2605.68
1764505880.906392,1515.96,12174.795,-35697.915,-14554.53,-25650.18,-16425.54,-6589.98,2605.815
1764505880.906392,1514.61,12173.265,-35699.58,-14555.745,-25649.82,-16421.895,-6588.855,2606.625
1764505880.906392,1510.47,12168.135,-35704.53,-14560.83,-25653.69,-16423.605,-6590.88,2602.08
1764505880.906392,1514.2949999999998,12171.645,-35701.2,-14558.04,-25651.035,-16421.94,-6588.0,2605.59
1764505880.906392,1521.225,12178.98,-35693.595,-14550.705,-25644.15,-16414.965,-6581.925,2612.88
1764505880.906392,1520.235,12178.755,-35693.73,-14550.75,-25643.835,-16414.739999999998,-6582.24,2611.845
1764505880.906392,1519.155,12177.585,-35695.53,-14551.56,-25644.735,-16415.505,-6583.41,2610.27
1764505880.9074028,1515.735,12173.715,-35698.725,-14554.665,-25648.065,-16418.34,-6586.065,2606.85
1764505880.956867,1517.8049999999998,12175.605,-35696.88,-14552.865,-25646.085,-16416.405,-6585.255,2608.515
1764505880.956867,1516.005,12173.04,-35699.58,-14555.745,-25649.325,-16419.465,-6587.73,2605.995
1764505880.956867,1511.145,12168.72,-35703.81,-14560.92,-25655.625,-16424.954999999998,-6591.195,2601.855
1764505880.9578671,1509.525,12168.27,-35705.43,-14562.27,-25657.29,-16427.475,-6592.365,2600.64
1764505880.9578671,1510.38,12168.81,-35703.63,-14560.47,-25655.715,-16426.35,-6591.735,2601.9
1764505880.9578671,1514.88,12173.13,-35699.58,-14555.88,-25651.665,-16421.355,-6587.775,2606.67
1764505880.9578671,1517.4,12176.37,-35696.835,-14552.955,-25648.56,-16418.295,-6584.4,2610.0
1764505880.9578671,1516.905,12176.865,-35696.16,-14551.965,-25646.805,-16416.989999999998,-6585.21,2608.785
1764505880.9578671,1516.365,12176.55,-35696.025,-14550.435,-25645.23,-16415.864999999998,-6585.165,2608.2
1764505880.9578671,1514.16,12174.12,-35698.455,-14553.585,-25647.435,-16418.565,-6587.46,2605.59
1764505880.9578671,1516.905,12175.695,-35697.78,-14553.18,-25647.93,-16418.25,-6586.335,2607.48
1764505880.9578671,1516.635,12175.02,-35698.455,-14554.935,-25649.145,-16419.195,-6586.605,2608.155
1764505880.9578671,1513.71,12171.645,-35702.1,-14559.435,-25651.215,-16420.23,-6587.28,2606.31
1764505880.9578671,1509.525,12167.91,-35706.195,-14563.665,-25656.3,-16425.809999999998,-6590.565,2602.8
1764505880.9578671,1512.135,12169.98,-35703.81,-14561.325,-25655.49,-16426.53,-6590.025,2604.96
1764505880.9578671,1512.0449999999998,12171.285,-35703.36,-14559.975,-25654.905,-16426.079999999998,-6589.71,2605.185
1764505880.9578671,1512.81,12172.095,-35702.235,-14558.67,-25653.195,-16422.93,-6588.54,2606.175
1764505880.9578671,1508.22,12167.145,-35705.744999999995,-14563.395,-25658.145,-16426.89,-6592.455,2601.27
1764505880.9578671,1509.03,12168.27,-35703.99,-14562.27,-25657.29,-16426.845,-6591.645,2602.305
1764505880.9578671,1511.595,12170.97,-35701.83,-14559.75,-25654.68,-16425.495,-6590.655,2605.41
1764505880.9578671,1509.435,12168.63,-35704.035,-14561.82,-25657.47,-16427.43,-6592.365,2604.105
1764505880.9578671,1512.315,12170.52,-35702.865,-14560.065,-25654.23,-16424.415,-6589.889999999999,2605.68
1764505880.9578671,1510.875,12169.62,-35703.675,-14560.83,-25654.59,-16425.315,-6589.889999999999,2604.51
1764505880.9578671,1513.3049999999998,12171.825,-35700.525,-14558.445,-25652.97,-16423.155,-6588.27,2607.795
1764505881.0013485,1512.0449999999998,12170.385,-35702.46,-14559.705,-25654.995,-16425.495,-6589.08,2606.58
1764505881.0024483,1509.12,12168.045,-35704.575,-14562.315,-25657.11,-16428.645,-6591.509999999999,2603.97
1764505881.0024483,1512.81,12172.32,-35701.335,-14558.76,-25653.645,-16425.09,-6589.349999999999,2606.94
1764505881.0024483,1512.27,12170.7,-35701.965,-14559.57,-25655.04,-16427.25,-6590.61,2605.095
1764505881.0024483,1512.99,12171.285,-35701.11,-14558.85,-25654.32,-16427.565,-6590.565,2605.23
1764505881.0024483,1511.415,12170.7,-35702.235,-14560.11,-25655.22,-16427.88,-6591.465,2604.42
1764505881.0024483,1513.3049999999998,12172.41,-35701.29,-14557.995,-25650.99,-16421.489999999998,-6588.09,2607.39
1764505881.0024483,1512.63,12170.61,-35702.955,-14559.3,-25651.89,-16421.309999999998,-6588.179999999999,2606.67
1764505881.003443,1513.53,12171.42,-35701.2,-14557.68,-25651.17,-16420.95,-6587.775,2607.075
1764505881.003443,1511.37,12169.17,-35702.955,-14559.705,-25653.42,-16422.93,-6589.71,2605.185
1764505881.003443,1508.6699999999998,12166.245,-35706.375,-14562.855,-25657.065,-16426.934999999998,-6592.679999999999,2601.585
1764505881.003443,1510.56,12168.27,-35704.71,-14561.505,-25655.175,-16425.405,-6590.969999999999,2603.16
1764505881.003443,1514.205,12170.52,-35702.415,-14558.49,-25652.52,-16422.84,-6588.99,2605.995
1764505881.003443,1511.955,12169.215,-35703.81,-14560.065,-25654.23,-16425.0,-6591.375,2603.7
1764505881.003443,1510.155,12168.045,-35704.8,-14562.27,-25656.705,-16426.98,-6592.365,2601.72
1764505881.003443,1512.54,12170.07,-35702.55,-14559.345,-25654.32,-16424.595,-6590.745,2604.15
1764505881.003443,1513.1699999999998,12170.61,-35701.965,-14558.67,-25652.88,-16423.38,-6590.205,2604.735
1764505881.003443,1513.1699999999998,12171.645,-35701.155,-14558.13,-25651.98,-16423.605,-6589.755,2605.365
1764505881.003443,1511.595,12170.07,-35702.595,-14559.525,-25654.14,-16427.565,-6591.195,2603.52
1764505881.003443,1514.16,12172.23,-35699.31,-14555.88,-25651.89,-16425.27,-6589.755,2604.87
1764505881.003443,1518.075,12175.74,-35696.43,-14553.0,-25649.73,-16422.704999999998,-6587.19,2608.65
1764505881.003443,1514.4299999999998,12171.78,-35700.795,-14556.375,-25650.99,-16421.085,-6587.19,2607.255
1764505881.0479245,1510.785,12167.91,-35704.439999999995,-14560.02,-25653.96,-16423.065,-6589.215,2604.555
1764505881.0492258,1508.985,12166.425,-35706.06,-14561.955,-25656.93,-16427.52,-6591.915,2601.72
1764505881.0492258,1509.975,12167.64,-35704.89,-14560.605,-25656.165,-16426.125,-6591.42,2602.395
1764505881.0492258,1512.36,12170.07,-35702.865,-14559.21,-25654.32,-16423.2,-6589.44,2604.465
1764505881.0497532,1511.415,12168.99,-35703.405,-14560.335,-25655.04,-16424.37,-6590.07,2603.385
1764505881.0497532,1510.605,12168.675,-35704.26,-14560.74,-25656.03,-16425.315,-6590.474999999999,2602.62
1764505881.0497532,1511.91,12169.665,-35702.775,-14560.47,-25655.355,-16424.684999999998,-6589.485,2603.835
1764505881.0497532,1516.095,12173.85,-35698.905,-14556.15,-25650.0,-16419.329999999998,-6585.66,2608.02
1764505881.0497532,1515.825,12174.255,-35699.31,-14555.385,-25649.82,-16418.61,-6584.985,2608.47
1764505881.0507634,1518.705,12176.955,-35696.295,-14552.415,-25646.805,-16415.82,-6583.05,2611.845
1764505881.0507634,1518.345,12176.64,-35697.015,-14552.64,-25646.805,-16416.72,-6584.13,2610.36
1764505881.0512152,1514.745,12172.86,-35699.805,-14555.07,-25649.64,-16419.555,-6586.514999999999,2605.725
1764505881.0512152,1517.085,12174.84,-35696.79,-14552.685,-25647.615,-16417.98,-6585.12,2608.245
1764505881.0512152,1515.06,12172.05,-35699.715,-14555.7,-25650.765,-16420.635,-6586.74,2606.58
1764505881.0512152,1515.645,12172.995,-35698.725,-14555.025,-25649.055,-16419.195,-6585.435,2607.525
1764505881.051766,1516.6799999999998,12174.66,-35698.455,-14554.485,-25647.84,-16417.079999999998,-6583.59,2609.325
1764505881.051766,1513.3049999999998,12171.285,-35701.74,-14557.905,-25651.215,-16421.04,-6586.695,2606.355
1764505881.051766,1514.025,12172.635,-35700.255,-14558.49,-25651.665,-16422.39,-6586.605,2606.22
1764505881.051766,1515.5549999999998,12173.85,-35698.905,-14557.185,-25651.665,-16423.47,-6586.29,2606.85
1764505881.051766,1521.0449999999998,12179.97,-35693.505,-14550.93,-25646.805,-16419.87,-6582.645,2611.485
1764505881.051766,1520.865,12179.97,-35693.865,-14550.48,-25645.77,-16418.07,-6581.79,2612.25
1764505881.051766,1515.105,12174.975,-35698.545,-14555.61,-25650.9,-16422.03,-6585.795,2607.345
1764505881.051766,1516.455,12175.2,-35698.14,-14555.79,-25651.17,-16422.345,-6584.804999999999,2608.38
1764505881.051766,1511.01,12168.495,-35704.98,-14562.09,-25655.265,-16424.28,-6587.82,2603.43
1764505881.0963929,1514.79,12172.275,-35700.93,-14558.535,-25651.35,-16421.76,-6586.065,2607.345
1764505881.0963929,1516.77,12175.29,-35698.41,-14556.06,-25649.055,-16419.96,-6583.139999999999,2610.135
1764505881.0963929,1515.645,12174.255,-35700.525,-14557.905,-25650.72,-16421.67,-6583.455,2608.65
1764505881.0963929,1516.5449999999998,12174.165,-35700.345,-14557.815,-25650.315,-16421.445,-6583.32,2609.28
1764505881.0963929,1519.83,12177.63,-35696.07,-14554.215,-25646.535,-16417.665,-6580.889999999999,2613.285
1764505881.0963929,1518.12,12176.28,-35696.97,-14555.475,-25647.705,-16418.88,-6582.15,2611.485
1764505881.0963929,1515.6,12174.345,-35699.715,-14557.59,-25650.765,-16421.489999999998,-6583.724999999999,2609.82
1764505881.0963929,1512.405,12170.7,-35702.73,-14560.515,-25653.78,-16424.1,-6586.695,2606.085
1764505881.0963929,1516.365,12174.66,-35698.994999999995,-14555.61,-25649.28,-16419.735,-6583.995,2609.28
1764505881.0963929,1513.755,12172.095,-35702.28,-14558.355,-25651.35,-16422.165,-6586.245,2606.76
1764505881.0963929,1515.285,12172.905,-35701.515,-14557.095,-25649.325,-16420.095,-6586.02,2607.57
1764505881.0963929,1515.87,12173.715,-35700.255,-14555.97,-25648.245,-16418.79,-6586.065,2608.245
1764505881.0974004,1515.51,12173.85,-35699.715,-14556.78,-25648.38,-16418.475,-6585.57,2608.245
1764505881.0974004,1511.19,12169.08,-35703.945,-14561.775,-25653.375,-16423.695,-6588.675,2604.195
1764505881.0974004,1509.075,12166.785,-35706.78,-14562.99,-25655.94,-16426.35,-6591.554999999999,2601.72
1764505881.0974004,1510.515,12169.17,-35704.485,-14561.145,-25654.905,-16425.989999999998,-6591.24,2603.745
1764505881.0974004,1512.765,12171.195,-35701.74,-14558.355,-25653.195,-16423.47,-6589.53,2605.815
1764505881.0974004,1508.355,12166.425,-35707.05,-14563.575,-25658.055,-16428.059999999998,-6593.759999999999,2600.73
1764505881.0974004,1508.4,12166.83,-35706.51,-14563.845,-25658.145,-16429.005,-6593.535,2601.27
1764505881.0974004,1513.08,12170.97,-35701.695,-14559.255,-25653.96,-16423.605,-6590.295,2605.275
1764505881.0974004,1514.88,12172.365,-35700.255,-14557.455,-25652.07,-16421.175,-6588.09,2607.435
1764505881.0974004,1512.135,12169.845,-35702.955,-14560.38,-25654.32,-16423.425,-6589.304999999999,2605.23
1764505881.0974004,1513.08,12170.79,-35701.47,-14559.39,-25653.735,-16421.895,-6588.045,2605.41
1764505881.0974004,1516.86,12174.705,-35698.14,-14555.385,-25650.225,-16418.835,-6585.974999999999,2609.685
1764505881.141574,1517.355,12174.255,-35697.825,-14555.115,-25650.36,-16420.05,-6586.38,2609.145
1764505881.141574,1514.61,12171.375,-35699.939999999995,-14557.635,-25653.285,-16424.19,-6589.17,2606.22
1764505881.141574,1518.345,12176.46,-35695.485,-14553.495,-25649.46,-16420.635,-6586.74,2610.405
1764505881.141574,1516.365,12172.95,-35699.355,-14556.06,-25649.955,-16417.665,-6586.469999999999,2609.19
1764505881.141574,1514.34,12170.655,-35701.605,-14558.22,-25651.35,-16418.16,-6587.099999999999,2607.255
1764505881.141574,1518.12,12174.885,-35697.42,-14554.71,-25647.705,-16416.675,-6585.57,2609.46
1764505881.141574,1515.5549999999998,12172.86,-35699.49,-14556.24,-25649.19,-16419.015,-6587.46,2607.93
1764505881.141574,1517.13,12174.255,-35697.915,-14554.62,-25647.705,-16417.305,-6587.009999999999,2609.64
1764505881.141574,1515.105,12172.95,-35699.805,-14556.555,-25649.28,-16419.195,-6589.125,2607.615
1764505881.141574,1514.385,12172.86,-35700.66,-14556.645,-25648.92,-16419.555,-6589.665,2605.905
1764505881.141574,1510.875,12168.99,-35703.314999999995,-14559.39,-25650.99,-16421.67,-6592.455,2602.53
1764505881.141574,1511.73,12169.26,-35702.415,-14558.67,-25649.505,-16419.915,-6591.554999999999,2603.295
1764505881.141574,1516.5449999999998,12173.445,-35699.13,-14556.375,-25646.715,-16416.63,-6588.045,2607.615
1764505881.141574,1511.415,12168.09,-35704.619999999995,-14561.415,-25652.835,-16422.84,-6592.094999999999,2603.205
1764505881.141574,1511.91,12168.945,-35703.81,-14559.795,-25652.835,-16422.66,-6591.105,2604.375
1764505881.141574,1513.62,12170.925,-35701.38,-14557.815,-25651.62,-16422.21,-6590.25,2605.68
1764505881.141574,1516.5,12174.885,-35698.275,-14555.205,-25649.415,-16421.04,-6589.349999999999,2607.705
1764505881.141574,1516.41,12174.39,-35698.68,-14555.835,-25648.65,-16418.97,-6588.36,2607.885
1764505881.141574,1510.965,12167.415,-35705.115,-14562.27,-25653.195,-16421.13,-6591.014999999999,2603.97
1764505881.141574,1512.405,12169.17,-35703.09,-14561.055,-25653.465,-16421.805,-6590.655,2605.95
1764505881.141574,1516.23,12173.445,-35699.31,-14558.13,-25651.26,-16420.77,-6588.405,2609.055
1764505881.141574,1515.87,12173.355,-35699.535,-14558.31,-25651.89,-16422.524999999998,-6588.495,2609.235
1764505881.1857212,1511.82,12169.035,-35703.9,-14562.585,-25656.84,-16428.149999999998,-6591.735,2605.77
1764505881.1857212,1507.5,12165.12,-35708.445,-14566.455,-25661.475,-16432.38,-6596.145,2600.595
1764505881.1857212,1512.27,12169.71,-35703.99,-14561.955,-25656.12,-16427.204999999998,-6591.96,2605.41
1764505881.1857212,1510.11,12168.135,-35706.195,-14564.7,-25658.19,-16429.725,-6593.175,2603.205
1764505881.1857212,1511.955,12169.935,-35704.755,-14562.9,-25657.02,-16428.87,-6592.41,2604.87
1764505881.1857212,1511.55,12169.17,-35705.52,-14563.035,-25657.785,-16430.22,-6593.58,2604.465
1764505881.1857212,1514.4299999999998,12172.455,-35702.189999999995,-14559.12,-25654.14,-16427.07,-6591.42,2607.255
1764505881.1857212,1507.14,12164.94,-35709.03,-14566.275,-25660.485,-16430.445,-6596.594999999999,2601.045
1764505881.1857212,1506.15,12163.275,-35710.11,-14567.49,-25660.89,-16429.454999999998,-6596.594999999999,2600.595
1764505881.1857212,1509.48,12166.83,-35707.23,-14564.07,-25657.065,-16426.89,-6593.58,2603.835
1764505881.1857212,1514.97,12171.825,-35702.505,-14559.435,-25652.745,-16422.84,-6588.9,2608.875
1764505881.1857212,1511.415,12169.395,-35704.53,-14562.225,-25656.075,-16426.665,-6591.33,2605.365
1764505881.1857212,1511.595,12169.215,-35705.07,-14562.36,-25656.12,-16426.305,-6590.835,2604.6
1764505881.1857212,1513.89,12171.825,-35701.74,-14560.155,-25654.185,-16424.1,-6589.304999999999,2606.535
1764505881.1857212,1516.59,12174.21,-35698.77,-14556.825,-25650.315,-16421.22,-6587.009999999999,2609.82
1764505881.1857212,1515.105,12171.825,-35700.345,-14557.995,-25652.205,-16423.02,-6587.235,2607.93
1764505881.1857212,1518.885,12175.605,-35697.375,-14553.81,-25648.965,-16419.239999999998,-6584.4,2611.53
1764505881.1857212,1518.885,12176.505,-35697.195,-14552.82,-25647.885,-16418.295,-6585.57,2611.17
1764505881.1857212,1518.66,12176.235,-35696.655,-14552.64,-25647.525,-16417.485,-6585.66,2610.45
1764505881.1857212,1519.2,12176.685,-35696.744999999995,-14551.83,-25647.345,-16416.945,-6584.355,2611.125
1764505881.1857212,1518.525,12175.92,-35697.015,-14552.775,-25648.605,-16417.17,-6584.04,2611.44
1764505881.1857212,1514.835,12172.815,-35700.615,-14555.745,-25650.99,-16420.274999999998,-6587.46,2607.03
1764505881.1857212,1518.21,12176.595,-35697.42,-14552.82,-25646.67,-16417.305,-6585.615,2609.595
1764505881.1857212,1515.87,12173.76,-35699.535,-14555.295,-25649.01,-16418.745,-6586.605,2608.245
1764505881.2350433,1512.135,12169.89,-35702.73,-14558.715,-25653.105,-16421.715,-6589.349999999999,2604.33
1764505881.2350433,1512.09,12169.755,-35702.955,-14560.065,-25654.14,-16423.02,-6589.889999999999,2604.735
1764505881.2350433,1514.385,12171.78,-35700.975,-14557.68,-25652.43,-16421.399999999998,-6587.82,2607.66
1764505881.2350433,1512.405,12169.62,-35702.505,-14559.03,-25653.555,-16423.155,-6589.17,2604.96
1764505881.2350433,1515.4199999999998,12173.13,-35699.895,-14556.645,-25651.035,-16420.905,-6587.82,2608.02
1764505881.2350433,1515.51,12173.13,-35700.705,-14556.915,-25651.575,-16422.075,-6588.045,2607.885
1764505881.2350433,1516.23,12174.435,-35699.355,-14556.69,-25651.17,-16422.075,-6587.37,2607.48
1764505881.2350433,1510.425,12169.305,-35704.665,-14562.315,-25656.75,-16428.059999999998,-6591.105,2602.89
1764505881.2350433,1512.0449999999998,12169.935,-35705.025,-14562.81,-25657.74,-16429.32,-6590.88,2605.365
1764505881.2350433,1510.695,12168.405,-35705.97,-14564.025,-25660.125,-16430.94,-6592.634999999999,2603.745
1764505881.2350433,1508.265,12167.46,-35706.555,-14564.43,-25661.07,-16432.29,-6594.255,2601.045
1764505881.2350433,1508.94,12167.82,-35704.89,-14563.215,-25659.765,-16431.66,-6594.255,2601.54
1764505881.2350433,1510.155,12167.64,-35704.305,-14562.135,-25659.45,-16429.815,-6593.04,2602.35
1764505881.2350433,1511.505,12167.91,-35705.07,-14561.775,-25657.155,-16423.92,-6591.285,2604.645
1764505881.2350433,1511.955,12169.17,-35704.53,-14561.325,-25657.29,-16424.91,-6591.105,2605.68
1764505881.2350433,1512.1799999999998,12169.71,-35703.405,-14559.615,-25656.435,-16424.91,-6590.384999999999,2605.005
1764505881.2350433,1516.6799999999998,12174.12,-35698.095,-14554.755,-25650.585,-16419.105,-6587.37,2607.705
1764505881.2350433,1512.135,12169.98,-35702.28,-14558.985,-25653.735,-16422.93,-6591.42,2603.16
1764505881.2350433,1513.395,12170.835,-35699.895,-14557.86,-25652.07,-16421.355,-6590.115,2604.69
1764505881.2350433,1516.995,12174.795,-35696.744999999995,-14555.295,-25649.865,-16420.095,-6588.27,2608.38
1764505881.2350433,1513.71,12170.88,-35701.695,-14559.705,-25653.915,-16422.57,-6589.889999999999,2606.265
1764505881.2350433,1509.84,12166.83,-35705.835,-14563.26,-25656.525,-16422.975,-6591.42,2603.61
1764505881.2812529,1508.6699999999998,12165.435,-35706.42,-14564.34,-25658.325,-16425.989999999998,-6592.139999999999,2601.36
1764505881.2812529,1511.145,12168.09,-35703.585,-14562.045,-25655.985,-16425.18,-6591.375,2603.565
1764505881.2812529,1510.155,12167.01,-35705.295,-14564.61,-25658.235,-16428.465,-6592.32,2602.485
1764505881.2812529,1508.355,12164.715,-35707.185,-14567.04,-25661.745,-16432.155,-6592.815,2601.135
1764505881.2812529,1511.37,12168.18,-35705.43,-14564.025,-25659.495,-16430.04,-6590.925,2605.005
1764505881.2812529,1507.185,12163.905,-35709.84,-14568.165,-25663.59,-16434.27,-6595.2,2600.325
1764505881.2812529,1507.185,12163.635,-35708.985,-14567.445,-25663.05,-16433.235,-6595.469999999999,2599.695
1764505881.2812529,1506.87,12163.545,-35708.895,-14567.22,-25661.79,-16432.92,-6595.29,2598.885
1764505881.2812529,1507.5449999999998,12164.67,-35707.14,-14566.32,-25661.745,-16432.739999999998,-6594.66,2599.515
1764505881.2812529,1507.455,12164.67,-35706.33,-14566.23,-25662.375,-16433.145,-6594.344999999999,2600.01
1764505881.2812529,1509.615,12166.92,-35704.08,-14563.53,-25659.405,-16430.13,-6593.49,2601.855
1764505881.2812529,1510.9199999999998,12166.785,-35704.395,-14563.035,-25657.29,-16425.945,-6591.465,2603.97
1764505881.2812529,1507.32,12163.635,-35708.49,-14566.95,-25661.34,-16428.6,-6592.815,2601.315
1764505881.2812529,1510.605,12167.37,-35705.205,-14563.665,-25659.675,-16428.015,-6592.005,2603.52
1764505881.2812529,1511.235,12167.775,-35704.755,-14563.215,-25658.955,-16428.059999999998,-6591.78,2604.105
1764505881.2812529,1508.355,12165.03,-35707.68,-14565.6,-25660.8,-16429.68,-6593.715,2601.405
1764505881.2812529,1505.205,12162.735,-35710.11,-14567.85,-25663.77,-16432.245,-6595.695,2598.48
1764505881.2812529,1506.5549999999998,12164.31,-35708.535,-14565.915,-25662.015,-16430.715,-6595.02,2599.83
1764505881.2812529,1510.155,12167.64,-35704.53,-14562.54,-25658.1,-16427.385,-6592.59,2602.71
1764505881.2812529,1509.7949999999998,12167.19,-35704.755,-14562.585,-25658.595,-16427.655,-6593.355,2601.63
1764505881.2812529,1508.76,12166.605,-35705.61,-14562.72,-25658.415,-16428.015,-6593.804999999999,2601.72
1764505881.2812529,1506.96,12164.445,-35707.994999999995,-14565.375,-25660.665,-16430.579999999998,-6594.929999999999,2601.405
1764505881.2812529,1506.4199999999998,12163.59,-35709.48,-14567.31,-25663.095,-16432.29,-6595.02,2599.56
1764505881.2822597,1505.655,12162.645,-35709.795,-14567.04,-25662.87,-16431.48,-6595.469999999999,2598.03
1764505881.3253756,1509.03,12166.2,-35705.34,-14562.27,-25657.425,-16425.989999999998,-6592.634999999999,2601.495
1764505881.3253756,1506.285,12163.095,-35708.58,-14565.555,-25660.08,-16428.51,-6596.415,2597.13
1764505881.3253756,1505.16,12161.79,-35709.975,-14565.735,-25661.205,-16429.364999999998,-6597.54,2595.42
1764505881.32591,1507.77,12164.13,-35706.869999999995,-14563.575,-25658.955,-16426.035,-6595.56,2598.885
1764505881.32591,1507.23,12163.995,-35707.635,-14564.79,-25659.945,-16427.25,-6595.514999999999,2599.605
1764505881.32591,1505.4299999999998,12161.79,-35709.525,-14567.265,-25663.995,-16432.695,-6596.37,2598.21
1764505881.32591,1507.635,12164.31,-35707.905,-14566.365,-25664.67,-16435.079999999998,-6595.695,2599.92
1764505881.32591,1510.29,12167.505,-35705.16,-14564.25,-25662.555,-16434.495,-6594.525,2602.53
1764505881.32591,1507.185,12163.635,-35709.345,-14568.165,-25664.49,-16432.695,-6595.605,2601.135
1764505881.32591,1506.51,12162.87,-35710.29,-14568.795,-25664.355,-16431.345,-6595.155,2600.685
1764505881.32591,1508.085,12164.67,-35708.49,-14566.905,-25663.32,-16431.84,-6594.435,2601.45
1764505881.32591,1503.1799999999998,12159.945,-35712.855,-14570.73,-25667.46,-16436.79,-6598.44,2597.22
1764505881.32591,1507.5449999999998,12163.995,-35708.13,-14566.5,-25662.51,-16432.2,-6595.29,2600.685
1764505881.32591,1508.985,12165.345,-35707.005,-14565.465,-25661.07,-16431.165,-6594.255,2601.72
1764505881.32591,1507.095,12163.68,-35708.49,-14567.445,-25662.96,-16433.235,-6596.639999999999,2600.01
1764505881.32591,1510.02,12166.83,-35705.475,-14564.52,-25660.755,-16431.704999999998,-6595.335,2602.26
1764505881.32591,1508.76,12164.67,-35707.23,-14565.015,-25659.945,-16429.005,-6595.245,2601.45
1764505881.32591,1508.76,12165.12,-35706.015,-14563.845,-25658.055,-16426.934999999998,-6593.94,2600.865
1764505881.32591,1508.94,12166.02,-35705.52,-14563.62,-25658.55,-16427.745,-6594.525,2600.73
1764505881.32591,1508.13,12164.76,-35707.23,-14564.88,-25658.955,-16427.204999999998,-6593.94,2600.28
1764505881.32591,1512.27,12168.495,-35703.27,-14560.92,-25654.23,-16423.11,-6590.745,2604.33
1764505881.32591,1512.09,12168.855,-35704.17,-14561.1,-25655.76,-16423.515,-6591.96,2602.89
1764505881.3737829,1511.235,12167.73,-35705.115,-14562.675,-25657.065,-16423.965,-6592.545,2602.305
1764505881.3737829,1509.12,12165.39,-35706.689999999995,-14563.53,-25658.055,-16425.27,-6594.12,2600.685
1764505881.3737829,1506.015,12163.41,-35708.22,-14565.465,-25660.44,-16428.465,-6596.054999999999,2598.705
1764505881.3737829,1506.015,12163.275,-35708.355,-14566.77,-25661.34,-16429.274999999998,-6596.46,2598.795
1764505881.3737829,1505.79,12162.105,-35708.85,-14567.4,-25660.89,-16428.87,-6597.405,2597.535
1764505881.3737829,1507.23,12164.31,-35706.42,-14564.205,-25657.425,-16425.809999999998,-6596.19,2598.975
1764505881.3737829,1507.6799999999998,12163.815,-35707.814999999995,-14564.745,-25657.2,-16425.0,-6595.469999999999,2599.65
1764505881.3737829,1509.3,12165.12,-35707.455,-14564.34,-25657.02,-16424.82,-6594.165,2601.495
1764505881.3737829,1513.53,12170.475,-35701.064999999995,-14560.965,-25654.59,-16423.065,-6591.96,2604.555
1764505881.3737829,1509.705,12167.145,-35703.855,-14564.115,-25657.515,-16425.765,-6595.02,2600.145
1764505881.3737829,1510.38,12167.235,-35703.405,-14563.08,-25656.345,-16424.64,-6595.065,2600.46
1764505881.3737829,1510.47,12167.685,-35702.369999999995,-14562.18,-25655.625,-16423.875,-6594.57,2601.495
1764505881.3737829,1513.53,12171.645,-35699.355,-14558.715,-25652.295,-16420.5,-6593.67,2604.06
1764505881.3737829,1513.8,12173.085,-35697.465,-14557.365,-25650.945,-16418.745,-6595.065,2603.115
1764505881.3737829,1514.61,12172.365,-35697.24,-14556.015,-25648.02,-16413.93,-6592.23,2605.455
1764505881.3737829,1505.7,12162.285,-35708.13,-14561.46,-25650.405,-16413.93,-6594.525,2599.965
1764505881.3737829,1510.9199999999998,12168.045,-35703.27,-14561.235,-25654.59,-16423.065,-6595.514999999999,2601.765
1764505881.3737829,1512.36,12168.81,-35704.439999999995,-14564.115,-25658.415,-16426.89,-6593.67,2603.745
1764505881.3737829,1511.37,12166.695,-35707.05,-14564.79,-25654.59,-16418.88,-6592.005,2604.96
1764505881.3737829,1510.605,12166.335,-35706.78,-14566.995,-25659.405,-16427.295,-6596.325,2602.485
1764505881.3737829,1512.225,12169.08,-35703.585,-14561.955,-25655.13,-16425.315,-6595.514999999999,2603.16
1764505881.3737829,1511.0549999999998,12167.865,-35706.105,-14567.805,-25665.345,-16437.96,-6598.215,2601.99
1764505881.3747647,1511.73,12168.135,-35705.97,-14569.155,-25669.98,-16444.17,-6597.405,2604.33
1764505881.3747647,1508.895,12164.49,-35710.155,-14572.575,-25670.97,-16442.684999999998,-6597.855,2601.63
1764505881.418834,1511.0549999999998,12168.045,-35706.555,-14570.505,-25669.35,-16441.47,-6597.945,2601.9
1764505881.418834,1508.31,12165.03,-35707.23,-14570.505,-25669.17,-16441.29,-6598.755,2600.37
1764505881.418834,1502.55,12156.705,-35716.23,-14575.365,-25670.25,-16439.985,-6598.62,2599.065
1764505881.418834,1505.115,12159.495,-35713.935,-14573.88,-25669.665,-16439.085,-6598.44,2600.235
1764505881.418834,1508.895,12163.32,-35709.885,-14572.305,-25669.44,-16439.265,-6596.46,2602.485
1764505881.418834,1503.63,12158.055,-35715.15,-14577.255,-25672.545,-16442.82,-6600.15,2596.815
1764505881.418834,1503.135,12158.1,-35714.97,-14577.345,-25672.455,-16443.27,-6601.185,2596.59
1764505881.418834,1504.89,12160.35,-35713.035,-14574.15,-25669.395,-16440.93,-6600.105,2598.12
1764505881.418834,1509.7949999999998,12164.985,-35708.49,-14568.3,-25662.6,-16434.045,-6597.045,2602.395
1764505881.418834,1508.175,12162.555,-35710.74,-14568.39,-25661.16,-16430.13,-6596.145,2601.72
1764505881.418834,1504.44,12159.945,-35713.665,-14572.215,-25665.48,-16431.434999999998,-6598.08,2598.615
1764505881.418834,1507.86,12164.625,-35708.715,-14571.72,-25666.515,-16432.92,-6597.045,2600.595
1764505881.418834,1505.205,12161.16,-35711.145,-14572.8,-25666.92,-16433.82,-6598.349999999999,2598.03
1764505881.418834,1506.4199999999998,12162.78,-35708.939999999995,-14569.425,-25663.77,-16430.22,-6596.505,2599.83
1764505881.418834,1510.38,12168.27,-35703.99,-14563.98,-25657.965,-16424.82,-6593.264999999999,2604.87
1764505881.418834,1509.21,12166.74,-35705.475,-14565.24,-25658.955,-16426.035,-6595.02,2603.565
1764505881.4209044,1508.175,12166.2,-35706.15,-14565.915,-25659.18,-16426.26,-6595.245,2602.17
1764505881.4209044,1504.485,12162.195,-35710.56,-14569.29,-25662.69,-16429.005,-6598.035,2597.445
1764505881.4209044,1503.585,12160.125,-35712.63,-14569.875,-25660.8,-16424.37,-6596.82,2597.85
1764505881.4209044,1500.66,12156.705,-35715.195,-14572.17,-25662.51,-16426.035,-6598.44,2596.095
1764505881.4209044,1508.31,12165.525,-35706.96,-14568.66,-25665.48,-16432.47,-6596.73,2600.595
1764505881.4209044,1506.195,12163.455,-35708.4,-14571.27,-25668.45,-16438.77,-6599.655,2598.57
1764505881.4209044,1503.855,12161.79,-35710.875,-14572.08,-25666.92,-16435.98,-6599.565,2598.03
1764505881.4209044,1507.365,12164.625,-35708.04,-14569.425,-25663.41,-16431.614999999998,-6596.865,2601.405
1764505881.4659054,1507.23,12164.895,-35707.005,-14568.48,-25661.925,-16430.13,-6596.55,2601.63
1764505881.4659054,1501.155,12159.405,-35712.314999999995,-14572.125,-25664.805,-16431.21,-6599.565,2596.365
1764505881.4659054,1503.135,12161.475,-35710.244999999995,-14569.695,-25662.33,-16427.565,-6598.44,2597.265
1764505881.4669013,1503.405,12161.475,-35709.75,-14570.1,-25663.275,-16429.454999999998,-6599.429999999999,2595.735
1764505881.4669013,1504.035,12161.565,-35709.3,-14570.28,-25663.14,-16429.23,-6598.755,2596.545
1764505881.4669013,1503.1799999999998,12160.485,-35710.38,-14571.765,-25664.94,-16430.535,-6598.8,2596.86
1764505881.4669013,1505.115,12161.745,-35708.985,-14569.515,-25662.195,-16427.43,-6597.405,2598.345
1764505881.4679008,1508.4,12165.21,-35705.61,-14565.33,-25658.505,-16423.739999999998,-6594.48,2601.72
1764505881.4679008,1506.285,12163.68,-35707.545,-14567.76,-25660.98,-16427.655,-6596.639999999999,2599.92
1764505881.4679008,1511.145,12167.73,-35704.439999999995,-14565.06,-25657.65,-16426.215,-6594.255,2604.465
1764505881.4679008,1511.46,12168.0,-35704.98,-14566.095,-25660.395,-16430.04,-6594.705,2604.51
1764505881.4679008,1506.24,12163.005,-35709.21,-14570.775,-25667.37,-16438.77,-6600.105,2599.38
1764505881.4689004,1509.7949999999998,12168.135,-35704.71,-14566.32,-25663.77,-16435.215,-6597.99,2602.62
1764505881.4689004,1507.995,12166.245,-35707.365,-14568.57,-25662.915,-16430.489999999998,-6597.945,2600.73
1764505881.4689004,1505.835,12163.41,-35710.155,-14570.775,-25664.49,-16431.165,-6598.8,2599.38
1764505881.469901,1502.595,12158.955,-35713.305,-14573.34,-25666.65,-16434.63,-6598.755,2598.66
1764505881.4705172,1502.685,12159.945,-35713.305,-14573.835,-25666.29,-16432.38,-6598.53,2597.985
1764505881.4705172,1503.225,12160.98,-35710.74,-14571.765,-25665.165,-16431.12,-6598.98,2597.94
1764505881.4713783,1501.2,12159.18,-35712.54,-14572.8,-25666.965,-16433.145,-6599.474999999999,2595.87
1764505881.4713783,1504.62,12161.88,-35709.975,-14569.74,-25664.04,-16429.815,-6596.82,2600.1
1764505881.4713783,1505.565,12163.05,-35709.39,-14569.38,-25663.14,-16428.915,-6595.92,2601.135
1764505881.4713783,1503.63,12161.205,-35711.73,-14572.755,-25666.74,-16433.055,-6597.54,2599.83
1764505881.4713783,1502.0549999999998,12160.44,-35712.27,-14574.105,-25668.585,-16436.34,-6598.44,2598.345
1764505881.4713783,1503.81,12161.835,-35710.74,-14571.315,-25666.56,-16433.82,-6598.215,2599.11
1764505881.5111244,1501.155,12159.27,-35713.71,-14572.305,-25666.92,-16433.954999999998,-6599.7,2596.23
1764505881.5111244,1503.36,12160.53,-35713.53,-14569.605,-25662.15,-16429.364999999998,-6598.395,2597.76
1764505881.5111244,1504.08,12160.935,-35712.765,-14569.56,-25661.295,-16429.68,-6598.395,2597.895
1764505881.5111244,1505.25,12163.455,-35709.345,-14571.495,-25665.21,-16433.864999999998,-6597.99,2598.75
1764505881.5111244,1502.01,12158.28,-35716.005,-14578.155,-25671.555,-16439.579999999998,-6598.844999999999,2596.995
1764505881.5111244,1507.725,12165.975,-35707.725,-14569.425,-25663.14,-16431.975,-6597.0,2599.47
1764505881.5111244,1511.37,12173.805,-35695.755,-14559.705,-25654.185,-16423.965,-6596.19,2600.46
1764505881.5111244,1509.57,12174.66,-35691.39,-14554.98,-25649.505,-16419.915,-6597.54,2598.03
1764505881.5111244,1504.755,12169.935,-35694.54,-14554.665,-25645.68,-16413.03,-6597.315,2594.205
1764505881.5111244,1493.235,12152.025,-35714.34,-14565.015,-25647.345,-16409.97,-6596.73,2591.37
1764505881.5111244,1495.53,12156.435,-35714.835,-14565.555,-25649.685,-16414.47,-6604.695,2588.805
1764505881.5111244,1506.87,12172.77,-35698.68,-14558.67,-25647.165,-16414.605,-6600.285,2595.96
1764505881.5111244,1485.63,12137.535,-35738.01,-14587.02,-25665.75,-16424.01,-6596.865,2590.065
1764505881.5111244,1492.9199999999998,12146.175,-35726.355,-14574.33,-25655.085,-16415.864999999998,-6595.514999999999,2593.035
1764505881.5111244,1499.445,12158.46,-35711.775,-14570.145,-25660.8,-16428.239999999998,-6597.36,2594.565
1764505881.5111244,1501.155,12159.135,-35714.34,-14578.74,-25675.02,-16446.375,-6600.285,2597.31
1764505881.5111244,1516.86,12172.86,-35701.74,-14572.215,-25668.945,-16440.704999999998,-6593.625,2609.055
1764505881.5111244,1509.525,12165.57,-35709.255,-14574.105,-25666.605,-16436.565,-6596.28,2603.16
1764505881.5111244,1509.9299999999998,12169.98,-35700.39,-14570.505,-25666.83,-16437.465,-6598.349999999999,2600.64
1764505881.5123825,1510.47,12170.16,-35700.165,-14561.955,-25651.17,-16418.295,-6594.255,2602.845
1764505881.5123825,1504.71,12164.58,-35705.115,-14564.205,-25642.17,-16405.739999999998,-6596.775,2597.58
1764505881.5123825,1496.16,12157.47,-35709.48,-14562.855,-25635.735,-16397.37,-6597.045,2590.965
1764505881.560352,1490.535,12148.65,-35722.755,-14553.99,-25621.065,-16377.255,-6597.045,2587.86
1764505881.560352,1500.705,12153.42,-35718.03,-14568.525,-25660.395,-16426.89,-6593.31,2600.325
1764505881.560352,1517.22,12173.76,-35698.86,-14576.31,-25683.795,-16459.29,-6595.875,2608.605
1764505881.560352,1521.09,12181.68,-35692.56,-14570.145,-25674.39,-16451.37,-6596.145,2608.47
1764505881.560352,1517.58,12176.055,-35698.68,-14566.635,-25662.87,-16436.16,-6589.304999999999,2609.955
1764505881.560352,1510.74,12168.675,-35704.89,-14570.595,-25665.705,-16435.665,-6592.32,2604.735
1764505881.560352,1509.66,12168.495,-35703.494999999995,-14574.24,-25672.635,-16444.305,-6595.38,2601.9
1764505881.560352,1509.435,12167.955,-35705.34,-14574.825,-25672.77,-16445.52,-6595.605,2602.08
1764505881.560352,1510.02,12168.18,-35705.97,-14573.52,-25669.395,-16441.02,-6593.94,2603.835
1764505881.560352,1507.23,12165.615,-35707.95,-14575.32,-25670.565,-16441.605,-6595.155,2601.585
1764505881.560352,1504.3049999999998,12162.195,-35710.56,-14578.605,-25673.715,-16444.89,-6597.63,2597.895
1764505881.560352,1504.215,12161.745,-35710.56,-14577.075,-25671.375,-16441.965,-6596.82,2597.985
1764505881.560352,1503.675,12162.195,-35709.705,-14575.095,-25669.305,-16439.489999999998,-6596.505,2597.895
1764505881.560352,1507.185,12165.705,-35707.23,-14572.44,-25666.83,-16438.68,-6595.02,2600.82
1764505881.560352,1510.155,12167.91,-35705.7,-14571.99,-25666.29,-16437.239999999998,-6592.005,2604.285
1764505881.560352,1506.15,12164.22,-35708.76,-14575.725,-25669.665,-16439.355,-6594.03,2600.46
1764505881.560352,1502.415,12160.755,-35712.27,-14577.3,-25670.295,-16440.48,-6596.37,2596.77
1764505881.560352,1505.115,12162.87,-35710.02,-14574.195,-25666.47,-16436.835,-6594.974999999999,2598.66
1764505881.561365,1505.97,12164.76,-35708.355,-14572.755,-25665.03,-16434.72,-6594.48,2600.28
1764505881.561365,1506.195,12165.075,-35707.23,-14570.82,-25663.32,-16432.605,-6593.445,2600.91
1764505881.561365,1506.375,12164.58,-35706.6,-14570.37,-25662.51,-16432.515,-6592.86,2600.145
1764505881.561365,1504.935,12163.23,-35707.365,-14571.63,-25664.22,-16435.215,-6595.245,2598.165
1764505881.561365,1500.435,12158.46,-35711.73,-14576.67,-25668.765,-16438.364999999998,-6598.17,2594.79
1764505881.561365,1499.04,12156.57,-35714.52,-14577.885,-25668.405,-16433.774999999998,-6596.955,2594.97
1764505881.6072257,1503.9,12162.375,-35708.625,-14572.305,-25663.815,-16430.715,-6594.344999999999,2599.335
1764505881.6072257,1505.61,12163.77,-35707.23,-14571.54,-25664.355,-16433.954999999998,-6596.19,2599.11
1764505881.6072257,1507.455,12166.02,-35704.17,-14569.65,-25663.05,-16435.17,-6596.19,2599.92
1764505881.6072257,1509.03,12169.17,-35701.02,-14564.97,-25657.065,-16426.395,-6594.165,2600.955
1764505881.60823,1501.38,12160.71,-35709.119999999995,-14569.74,-25657.29,-16418.7,-6597.99,2593.26
1764505881.60823,1496.25,12153.42,-35717.265,-14578.335,-25664.715,-16426.665,-6595.155,2593.17
1764505881.60823,1496.025,12155.22,-35715.51,-14577.48,-25663.725,-16426.8,-6595.065,2594.16
1764505881.60823,1503.72,12161.565,-35709.66,-14575.14,-25663.725,-16429.32,-6593.849999999999,2600.28
1764505881.60823,1500.255,12157.83,-35711.955,-14575.995,-25663.905,-16430.535,-6595.56,2596.95
1764505881.60823,1503.405,12161.88,-35709.03,-14577.165,-25669.71,-16439.94,-6596.82,2597.985
1764505881.609742,1500.7949999999998,12159.72,-35711.145,-14579.91,-25673.58,-16444.98,-6599.295,2595.51
1764505881.610123,1495.53,12153.645,-35716.95,-14583.645,-25675.245,-16445.295,-6602.49,2590.38
1764505881.610123,1498.32,12156.57,-35713.845,-14579.865,-25668.27,-16436.79,-6598.575,2594.16
1764505881.610123,1496.745,12154.68,-35715.24,-14581.035,-25667.01,-16434.0,-6597.405,2593.395
1764505881.610123,1493.55,12151.395,-35719.515,-14581.17,-25665.84,-16432.515,-6599.655,2590.335
1764505881.6107495,1488.96,12146.265,-35725.635,-14583.51,-25669.395,-16436.565,-6603.705,2586.51
1764505881.6107495,1498.275,12157.965,-35714.295,-14583.33,-25677.54,-16447.905,-6601.59,2592.54
1764505881.6107495,1502.55,12163.68,-35708.625,-14577.12,-25671.105,-16441.829999999998,-6598.755,2596.995
1764505881.6107495,1500.84,12162.105,-35709.885,-14576.355,-25668.81,-16438.23,-6598.98,2596.32
1764505881.6107495,1499.535,12160.08,-35711.595,-14578.605,-25670.07,-16439.22,-6598.349999999999,2595.735
1764505881.6107495,1501.9199999999998,12161.655,-35710.56,-14577.435,-25667.55,-16436.295,-6596.37,2597.805
1764505881.6107495,1498.6799999999998,12158.91,-35713.305,-14578.875,-25668.63,-16437.78,-6599.835,2593.17
1764505881.6546245,1501.335,12164.13,-35707.77,-14573.565,-25663.365,-16433.595,-6599.115,2595.195
1764505881.6546245,1505.07,12168.18,-35702.055,-14568.345,-25657.965,-16427.745,-6595.92,2598.57
1764505881.6546245,1499.31,12159.405,-35712.045,-14573.745,-25660.125,-16428.645,-6597.045,2595.645
1764505881.6546245,1502.28,12162.33,-35708.04,-14570.28,-25656.435,-16425.63,-6594.615,2598.795
1764505881.6546245,1500.975,12159.72,-35710.244999999995,-14574.69,-25660.62,-16428.825,-6594.75,2596.5
1764505881.6546245,1497.24,12155.13,-35715.869999999995,-14578.515,-25663.68,-16429.005,-6595.56,2594.16
1764505881.6556354,1502.82,12160.8,-35710.29,-14574.105,-25661.52,-16429.005,-6593.895,2598.39
1764505881.6556354,1505.4299999999998,12164.22,-35706.869999999995,-14573.34,-25663.815,-16433.28,-6592.995,2600.91
1764505881.6556354,1505.025,12163.77,-35707.68,-14574.375,-25665.84,-16435.035,-6593.94,2601.0
1764505881.6556354,1501.605,12160.755,-35711.189999999995,-14577.48,-25668.27,-16438.5,-6597.54,2597.445
1764505881.6556354,1500.57,12159.81,-35712.494999999995,-14578.02,-25667.865,-16438.14,-6597.855,2596.725
1764505881.6556354,1496.835,12156.48,-35714.475,-14579.415,-25668.585,-16440.614999999998,-6601.455,2592.36
1764505881.6556354,1500.255,12162.06,-35707.005,-14572.17,-25662.555,-16435.305,-6600.96,2593.665
1764505881.6556354,1502.595,12164.535,-35705.7,-14568.48,-25655.895,-16425.54,-6598.844999999999,2595.285
1764505881.6556354,1498.23,12160.35,-35709.48,-14575.32,-25661.835,-16427.52,-6601.634999999999,2590.695
1764505881.6556354,1495.755,12156.885,-35711.775,-14576.76,-25665.93,-16433.774999999998,-6600.42,2592.495
1764505881.6556354,1488.51,12142.305,-35731.485,-14586.615,-25668.765,-16433.19,-6600.42,2591.82
1764505881.6556354,1499.715,12157.11,-35717.085,-14578.785,-25666.83,-16436.114999999998,-6601.59,2596.41
1764505881.6556354,1507.23,12166.515,-35705.744999999995,-14575.32,-25665.66,-16434.405,-6596.685,2601.99
1764505881.6556354,1502.595,12162.195,-35709.48,-14577.12,-25665.795,-16432.695,-6598.8,2597.76
1764505881.6556354,1503.72,12162.915,-35708.445,-14575.455,-25664.625,-16432.92,-6598.71,2597.985
1764505881.6556354,1501.695,12157.29,-35715.105,-14580.315,-25670.295,-16440.614999999998,-6598.215,2599.155
1764505881.6556354,1500.615,12157.02,-35715.465,-14581.845,-25672.14,-16442.19,-6600.69,2596.725
1764505881.6556354,1504.44,12163.86,-35708.175,-14576.355,-25667.505,-16437.87,-6599.565,2597.715
1764505881.7016716,1504.485,12164.085,-35708.22,-14574.69,-25663.86,-16434.0,-6597.315,2598.12
1764505881.7016716,1504.62,12163.41,-35708.49,-14574.015,-25663.32,-16432.47,-6596.054999999999,2599.38
1764505881.7016716,1508.13,12167.91,-35703.99,-14569.245,-25659.09,-16429.005,-6594.255,2603.16
1764505881.7016716,1513.845,12174.75,-35696.16,-14561.955,-25652.97,-16425.72,-6589.259999999999,2607.75
1764505881.7016716,1515.33,12176.01,-35694.99,-14562.09,-25654.23,-16427.88,-6587.865,2608.965
1764505881.7026737,1504.98,12163.95,-35709.03,-14575.14,-25664.31,-16432.605,-6591.735,2601.855
1764505881.7026737,1499.625,12157.83,-35715.869999999995,-14580.36,-25667.19,-16432.47,-6593.895,2597.265
1764505881.7026737,1503.1799999999998,12161.52,-35712.54,-14577.39,-25666.02,-16433.774999999998,-6592.995,2599.47
1764505881.7026737,1505.07,12163.815,-35709.3,-14575.815,-25663.59,-16432.065,-6590.835,2601.54
1764505881.7026737,1507.455,12167.46,-35705.295,-14570.595,-25655.805,-16424.28,-6588.0,2604.285
1764505881.7026737,1505.97,12166.875,-35707.275,-14568.795,-25651.845,-16419.78,-6587.594999999999,2603.88
1764505881.7026737,1501.11,12163.41,-35707.23,-14567.58,-25650.765,-16416.54,-6589.62,2598.75
1764505881.7026737,1501.155,12160.845,-35709.57,-14571.945,-25656.12,-16419.465,-6589.44,2600.235
1764505881.7026737,1503.27,12160.665,-35713.035,-14577.57,-25663.455,-16427.835,-6588.585,2602.575
1764505881.7026737,1502.325,12161.07,-35710.605,-14575.635,-25664.67,-16431.48,-6588.719999999999,2601.72
1764505881.7026737,1503.0449999999998,12163.905,-35708.265,-14577.525,-25673.67,-16446.69,-6593.58,2600.19
1764505881.7026737,1508.6699999999998,12170.88,-35702.189999999995,-14574.915,-25672.05,-16444.53,-6590.115,2604.96
1764505881.7026737,1508.445,12170.79,-35701.2,-14572.17,-25666.56,-16438.274999999998,-6590.969999999999,2604.42
1764505881.7026737,1510.65,12173.67,-35697.465,-14568.93,-25661.52,-16434.405,-6589.755,2605.41
1764505881.7026737,1508.4,12171.06,-35700.435,-14568.345,-25658.415,-16430.13,-6587.955,2605.23
1764505881.7026737,1504.08,12163.95,-35710.155,-14573.16,-25660.215,-16429.59,-6588.855,2603.745
1764505881.7026737,1507.32,12169.485,-35702.055,-14569.2,-25659.135,-16426.035,-6588.585,2603.07
1764505881.7026737,1506.375,12172.275,-35695.17,-14560.02,-25649.82,-16418.79,-6589.304999999999,2600.37
1764505881.7026737,1501.11,12163.23,-35705.295,-14565.24,-25648.74,-16414.965,-6587.325,2600.055
1764505881.748061,1500.66,12159.63,-35715.645,-14578.695,-25664.49,-16430.67,-6587.505,2602.035
1764505881.748061,1501.875,12162.78,-35712.765,-14581.395,-25674.255,-16445.835,-6590.925,2601.045
1764505881.748061,1500.66,12161.205,-35713.439999999995,-14582.43,-25674.84,-16445.43,-6591.96,2598.885
1764505881.7490542,1498.095,12158.64,-35715.78,-14584.815,-25676.505,-16447.5,-6592.59,2597.805
1764505881.7490542,1497.5549999999998,12158.01,-35716.814999999995,-14586.12,-25677.36,-16449.3,-6592.455,2597.85
1764505881.7490542,1497.33,12157.83,-35717.895,-14587.74,-25679.61,-16452.18,-6592.86,2598.435
1764505881.7490542,1499.355,12160.53,-35714.97,-14584.545,-25676.19,-16449.614999999998,-6591.465,2600.01
1764505881.7500577,1498.32,12162.96,-35710.695,-14581.305,-25673.535,-16446.69,-6593.04,2596.005
1764505881.7500577,1499.085,12164.805,-35708.13,-14578.695,-25670.43,-16443.405,-6591.465,2596.995
1764505881.7500577,1489.005,12150.36,-35723.52,-14589.855,-25677.855,-16447.77,-6588.99,2595.15
1764505881.7500577,1496.385,12157.83,-35717.265,-14585.76,-25673.085,-16442.82,-6586.92,2600.1
1764505881.7500577,1500.975,12162.96,-35712.09,-14582.205,-25667.505,-16439.22,-6586.92,2600.955
1764505881.7500577,1493.37,12150.135,-35727.975,-14589.495,-25672.725,-16441.965,-6588.36,2597.535
1764505881.7500577,1496.4299999999998,12157.38,-35716.185,-14584.05,-25673.355,-16444.934999999998,-6588.9,2596.77
1764505881.7511554,1496.52,12159.72,-35709.615,-14577.165,-25668.0,-16440.12,-6588.27,2596.77
1764505881.7511554,1497.4199999999998,12159.225,-35711.73,-14577.345,-25666.245,-16437.465,-6587.28,2598.525
1764505881.7511554,1498.5,12160.44,-35710.29,-14578.47,-25668.45,-16438.59,-6585.795,2599.56
1764505881.7511554,1497.645,12160.98,-35709.165,-14581.665,-25672.005,-16441.155,-6585.12,2598.75
1764505881.7511554,1500.3,12163.005,-35707.275,-14577.48,-25668.27,-16438.5,-6582.105,2602.125
1764505881.7511554,1502.73,12165.12,-35705.835,-14574.465,-25665.93,-16436.97,-6579.81,2604.285
1764505881.7511554,1502.235,12166.2,-35703.99,-14573.43,-25665.345,-16436.88,-6579.27,2604.105
1764505881.7511554,1496.61,12160.665,-35709.795,-14579.64,-25670.97,-16441.02,-6582.105,2599.47
1764505881.7521737,1498.455,12161.385,-35710.244999999995,-14580.0,-25670.115,-16438.815,-6580.349999999999,2600.955
1764505881.7521737,1499.8049999999998,12163.41,-35707.185,-14576.445,-25667.325,-16436.07,-6579.719999999999,2601.405
1764505881.7966003,1492.695,12159.36,-35710.65,-14581.035,-25671.465,-16440.93,-6583.724999999999,2595.645
1764505881.7966003,1498.905,12164.67,-35706.24,-14580.27,-25669.305,-16439.579999999998,-6578.955,2601.72
1764505881.7966003,1494.945,12160.845,-35708.49,-14575.725,-25659.09,-16424.954999999998,-6578.73,2598.975
1764505881.7966003,1492.83,12157.245,-35712.855,-14576.355,-25658.19,-16423.649999999998,-6577.29,2600.145
1764505881.7966003,1495.215,12159.27,-35712.945,-14586.84,-25671.87,-16439.22,-6576.615,2601.27
1764505881.7966003,1496.97,12161.925,-35710.2,-14577.975,-25657.83,-16427.204999999998,-6575.58,2600.955
1764505881.7966003,1492.9199999999998,12156.84,-35715.105,-14572.17,-25651.62,-16418.79,-6574.724999999999,2599.38
1764505881.7966003,1494.27,12162.645,-35704.215,-14571.945,-25664.895,-16434.72,-6578.415,2598.03
1764505881.797619,1499.715,12168.72,-35698.635,-14572.755,-25670.43,-16441.515,-6574.545,2603.205
1764505881.797619,1500.165,12168.72,-35699.67,-14571.63,-25664.31,-16434.54,-6572.16,2603.925
1764505881.797619,1494.855,12161.745,-35709.75,-14581.755,-25672.365,-16441.92,-6573.105,2601.09
1764505881.797619,1495.755,12158.145,-35715.15,-14589.495,-25678.035,-16446.105,-6568.425,2604.735
1764505881.797619,1498.6799999999998,12160.53,-35713.305,-14586.705,-25673.49,-16442.774999999998,-6568.83,2605.995
1764505881.797619,1494.495,12156.795,-35716.814999999995,-14586.48,-25672.14,-16444.755,-6573.645,2601.18
1764505881.797619,1495.1699999999998,12159.72,-35711.28,-14582.88,-25674.48,-16449.66,-6574.905,2601.27
1764505881.797619,1496.79,12162.96,-35706.24,-14579.82,-25672.77,-16444.62,-6573.375,2602.98
1764505881.797619,1494.495,12159.045,-35712.855,-14587.02,-25676.955,-16443.495,-6572.115,2602.98
1764505881.797619,1494.72,12159.63,-35714.925,-14590.53,-25683.03,-16451.91,-6573.915,2603.205
1764505881.797619,1497.87,12163.095,-35710.515,-14588.37,-25684.11,-16457.67,-6573.599999999999,2604.555
1764505881.797619,1492.02,12156.885,-35715.96,-14591.88,-25685.01,-16457.445,-6577.155,2598.84
1764505881.797619,1490.76,12154.635,-35718.48,-14593.32,-25685.685,-16456.59,-6579.224999999999,2597.31
1764505881.797619,1493.685,12157.65,-35714.835,-14589.675,-25681.23,-16451.864999999998,-6577.469999999999,2600.505
1764505881.797619,1493.865,12157.38,-35714.295,-14588.28,-25680.42,-16449.75,-6577.74,2600.865
1764505881.797619,1490.13,12154.365,-35716.994999999995,-14590.845,-25682.49,-16451.82,-6580.665,2596.86
1764505881.8426654,1491.885,12156.345,-35714.79,-14588.73,-25679.385,-16448.895,-6579.495,2598.12
1764505881.8426654,1495.035,12160.8,-35710.11,-14582.295,-25672.95,-16442.774999999998,-6576.84,2601.18
1764505881.8426654,1493.955,12159.495,-35711.82,-14584.005,-25673.76,-16442.64,-6577.514999999999,2600.37
1764505881.8426654,1492.11,12156.48,-35715.42,-14586.615,-25677.18,-16445.295,-6579.224999999999,2599.335
1764505881.8426654,1494.1799999999998,12159.495,-35711.325,-14583.915,-25675.965,-16446.42,-6578.82,2600.235
1764505881.8431764,1493.955,12159.81,-35710.965,-14584.32,-25678.035,-16450.649999999998,-6580.53,2598.48
1764505881.8431764,1493.145,12159.405,-35711.01,-14583.195,-25674.84,-16445.16,-6579.495,2598.03
1764505881.8431764,1490.94,12156.345,-35714.025,-14584.95,-25672.77,-16438.095,-6578.594999999999,2597.58
1764505881.8431764,1492.695,12158.73,-35710.875,-14582.52,-25671.735,-16437.78,-6577.965,2599.695
1764505881.8431764,1494.0449999999998,12160.935,-35708.805,-14580.63,-25670.655,-16438.32,-6575.895,2600.73
1764505881.8431764,1490.535,12157.605,-35712.855,-14583.87,-25671.24,-16436.52,-6576.974999999999,2598.345
1764505881.8435218,1495.35,12164.715,-35704.125,-14575.725,-25661.925,-16427.925,-6573.105,2602.26
1764505881.8435218,1497.96,12168.81,-35699.535,-14570.64,-25657.38,-16424.64,-6572.384999999999,2602.98
1764505881.8435218,1494.855,12162.735,-35708.31,-14576.355,-25663.815,-16430.76,-6575.985,2600.775
1764505881.8435218,1490.895,12157.515,-35714.025,-14583.42,-25672.32,-16438.68,-6575.67,2599.83
1764505881.8435218,1486.71,12151.71,-35720.865,-14588.865,-25675.47,-16439.67,-6576.795,2598.345
1764505881.8435218,1493.91,12161.205,-35711.955,-14581.755,-25667.775,-16432.245,-6574.59,2602.8
1764505881.8435218,1489.095,12155.13,-35717.805,-14583.69,-25667.595,-16433.415,-6576.75,2598.435
1764505881.8435218,1493.955,12160.665,-35711.595,-14581.44,-25671.51,-16443.09,-6578.91,2601.36
1764505881.8435218,1495.89,12163.455,-35708.805,-14586.57,-25680.69,-16453.17,-6580.259999999999,2601.99
1764505881.8435218,1497.06,12163.545,-35709.345,-14586.075,-25679.43,-16451.864999999998,-6581.25,2603.385
1764505881.8435218,1490.8049999999998,12154.185,-35719.74,-14592.195,-25680.78,-16448.22,-6581.88,2601.135
1764505881.892462,1490.76,12154.815,-35718.57,-14592.915,-25682.22,-16449.434999999998,-6583.995,2599.785
1764505881.892462,1489.365,12154.545,-35718.93,-14593.5,-25681.545,-16448.715,-6585.75,2597.625
1764505881.892462,1487.745,12152.88,-35720.01,-14591.79,-25676.955,-16441.155,-6584.67,2596.41
1764505881.892462,1479.915,12147.12,-35724.915,-14590.98,-25673.04,-16435.665,-6589.125,2589.57
1764505881.892462,1484.55,12150.135,-35721.314999999995,-14587.02,-25671.96,-16438.23,-6589.08,2595.105
1764505881.892462,1496.2949999999998,12162.915,-35707.95,-14588.595,-25685.955,-16457.22,-6587.145,2602.485
1764505881.892462,1492.02,12159.405,-35711.369999999995,-14588.64,-25683.57,-16454.655,-6589.485,2598.255
1764505881.892462,1490.895,12157.83,-35713.17,-14587.11,-25679.16,-16448.67,-6588.585,2597.85
1764505881.892462,1492.515,12158.91,-35711.369999999995,-14585.715,-25676.775,-16446.329999999998,-6588.675,2599.155
1764505881.892462,1498.32,12164.76,-35705.43,-14579.01,-25670.25,-16440.57,-6586.425,2604.195
1764505881.892462,1499.715,12168.765,-35699.085,-14570.505,-25660.305,-16430.76,-6585.525,2603.295
1764505881.892462,1492.155,12161.475,-35705.564999999995,-14575.545,-25661.925,-16430.535,-6590.52,2595.555
1764505881.892462,1485.585,12148.2,-35721.585,-14587.695,-25670.475,-16434.899999999998,-6591.06,2593.665
1764505881.892462,1490.6699999999998,12155.355,-35713.485,-14585.31,-25673.265,-16438.274999999998,-6591.014999999999,2596.005
1764505881.892462,1497.51,12164.13,-35704.98,-14579.64,-25669.8,-16439.445,-6589.17,2600.235
1764505881.892462,1497.465,12162.96,-35706.735,-14577.255,-25665.75,-16435.53,-6589.08,2601.045
1764505881.892462,1493.505,12156.93,-35713.53,-14582.97,-25669.53,-16435.575,-6590.88,2598.66
1764505881.892462,1492.785,12158.055,-35711.415,-14583.78,-25672.455,-16437.78,-6592.365,2597.985
1764505881.892462,1497.78,12163.5,-35705.79,-14577.03,-25666.83,-16433.55,-6590.205,2602.08
1764505881.892462,1494.9,12157.335,-35713.395,-14585.175,-25671.96,-16437.105,-6590.07,2600.28
1764505881.8939824,1501.29,12163.725,-35708.895,-14584.545,-25672.68,-16440.255,-6589.17,2604.42
1764505881.8939824,1502.46,12164.76,-35708.58,-14580.405,-25668.81,-16438.68,-6590.115,2605.545
1764505881.8939824,1498.86,12159.9,-35712.72,-14578.605,-25668.765,-16438.23,-6590.52,2603.97
1764505881.8939824,1500.48,12163.005,-35706.78,-14579.865,-25674.075,-16445.52,-6593.715,2601.72
1764505881.9343064,1503.405,12165.435,-35706.24,-14584.05,-25678.08,-16447.905,-6591.24,2605.41
1764505881.9343064,1500.255,12160.89,-35711.64,-14585.085,-25674.795,-16440.795,-6591.014999999999,2604.42
1764505881.9343064,1501.38,12162.33,-35709.525,-14582.115,-25671.87,-16438.59,-6591.24,2605.005
1764505881.9343064,1502.46,12163.68,-35708.04,-14581.08,-25670.205,-16438.454999999998,-6589.935,2606.13
1764505881.93584,1500.7949999999998,12161.655,-35711.01,-14582.925,-25672.32,-16440.524999999998,-6591.915,2603.97
1764505881.93584,1504.98,12165.48,-35706.869999999995,-14578.155,-25667.055,-16436.655,-6589.395,2607.93
1764505881.93584,1505.025,12165.885,-35707.14,-14579.055,-25669.395,-16440.075,-6590.88,2607.66
1764505881.93584,1502.91,12164.085,-35709.435,-14580.585,-25670.97,-16440.93,-6593.355,2605.455
1764505881.93584,1502.325,12163.185,-35709.795,-14580.27,-25671.51,-16440.885,-6593.759999999999,2604.555
1764505881.93584,1500.84,12161.205,-35710.29,-14581.08,-25671.69,-16441.335,-6595.29,2602.845
1764505881.93584,1501.56,12161.205,-35710.47,-14579.82,-25669.395,-16438.005,-6595.02,2603.25
1764505881.93584,1500.885,12160.35,-35711.64,-14580.18,-25669.485,-16436.024999999998,-6594.3,2603.205
1764505881.93584,1504.08,12164.085,-35707.14,-14575.32,-25664.715,-16431.345,-6592.95,2605.905
1764505881.93584,1502.685,12164.31,-35707.095,-14575.905,-25666.47,-16434.36,-6594.84,2604.285
1764505881.93584,1502.82,12164.67,-35707.32,-14576.445,-25668.0,-16436.07,-6595.245,2604.33
1764505881.93584,1504.485,12166.11,-35706.195,-14576.04,-25666.425,-16433.19,-6592.59,2606.355
1764505881.936856,1507.365,12167.775,-35704.485,-14573.475,-25662.87,-16429.184999999998,-6590.565,2608.785
1764505881.936856,1504.62,12166.38,-35704.665,-14573.52,-25663.005,-16431.93,-6595.514999999999,2604.555
1764505881.936856,1510.875,12176.595,-35693.01,-14562.675,-25654.77,-16425.63,-6595.605,2606.085
1764505881.936856,1510.47,12179.205,-35687.744999999995,-14557.455,-25647.39,-16416.495,-6594.795,2604.645
1764505881.936856,1489.455,12148.92,-35719.785,-14580.855,-25659.99,-16417.17,-6593.94,2597.625
1764505881.936856,1492.335,12146.58,-35728.83,-14590.44,-25672.41,-16430.76,-6595.02,2600.865
1764505881.936856,1505.745,12164.445,-35710.83,-14578.695,-25666.515,-16432.2,-6594.21,2606.625
1764505881.936856,1505.205,12166.92,-35704.125,-14571.045,-25660.08,-16427.43,-6594.48,2605.275
1764505881.981387,1508.895,12170.205,-35701.695,-14572.575,-25665.57,-16434.989999999998,-6593.264999999999,2608.56
1764505881.981387,1506.4199999999998,12164.265,-35709.84,-14576.445,-25664.94,-16429.95,-6591.78,2608.2
1764505881.981387,1507.86,12166.245,-35708.535,-14577.21,-25663.95,-16426.26,-6592.094999999999,2608.245
1764505881.981387,1500.255,12157.155,-35717.265,-14583.78,-25668.81,-16427.88,-6595.29,2602.98
1764505881.981387,1501.9199999999998,12159.855,-35713.305,-14583.24,-25675.335,-16441.29,-6598.575,2602.71
1764505881.981387,1510.2,12169.665,-35703.72,-14579.46,-25676.82,-16447.725,-6595.65,2609.28
1764505881.981387,1510.9199999999998,12170.16,-35704.17,-14577.615,-25672.23,-16442.37,-6593.895,2610.135
1764505881.981387,1510.83,12169.62,-35705.025,-14576.4,-25669.62,-16438.77,-6593.445,2609.82
1764505881.981387,1507.86,12166.515,-35707.635,-14578.02,-25669.665,-16438.545,-6594.48,2607.66
1764505881.981387,1510.9199999999998,12170.205,-35702.189999999995,-14572.71,-25664.76,-16434.18,-6592.679999999999,2610.72
1764505881.981387,1512.27,12172.095,-35699.085,-14569.785,-25662.33,-16432.965,-6592.41,2610.45
1764505881.981387,1509.03,12168.405,-35701.29,-14571.765,-25662.87,-16431.614999999998,-6592.5,2608.245
1764505881.982941,1504.98,12161.7,-35711.505,-14581.215,-25669.35,-16435.44,-6593.219999999999,2607.21
1764505881.982941,1507.6799999999998,12164.58,-35709.075,-14581.26,-25673.985,-16443.675,-6594.84,2607.93
1764505881.982941,1513.53,12171.195,-35702.865,-14574.87,-25668.945,-16439.085,-6591.24,2613.105
1764505881.982941,1513.26,12172.275,-35701.02,-14571.315,-25663.095,-16433.46,-6591.42,2610.855
1764505881.982941,1508.535,12167.82,-35705.88,-14575.275,-25664.985,-16434.54,-6594.21,2605.86
1764505881.982941,1507.41,12166.02,-35708.175,-14577.705,-25668.225,-16437.015,-6595.83,2606.13
1764505881.982941,1508.535,12168.36,-35703.135,-14569.74,-25659.225,-16427.204999999998,-6591.915,2607.255
1764505881.982941,1507.23,12166.38,-35704.215,-14571.36,-25659.585,-16428.87,-6592.32,2606.355
1764505881.982941,1503.855,12160.755,-35712.27,-14581.575,-25668.18,-16436.745,-6593.31,2604.42
1764505881.982941,1506.06,12164.31,-35708.265,-14579.28,-25667.28,-16436.925,-6591.78,2605.635
1764505882.029057,1511.82,12173.31,-35698.365,-14569.47,-25656.705,-16426.395,-6588.045,2609.82
1764505882.029057,1509.975,12169.35,-35703.945,-14570.775,-25655.49,-16423.065,-6588.764999999999,2608.47
1764505882.029057,1518.57,12177.81,-35694.9,-14563.53,-25653.06,-16422.345,-6584.58,2616.075
1764505882.029057,1515.33,12174.795,-35695.439999999995,-14566.86,-25657.785,-16425.09,-6582.645,2614.41
1764505882.029057,1511.955,12171.15,-35701.29,-14572.485,-25657.245,-16422.57,-6584.849999999999,2610.72
1764505882.030072,1518.7949999999998,12176.505,-35696.88,-14567.535,-25646.13,-16411.77,-6578.145,2617.875
1764505882.030072,1507.77,12165.03,-35705.97,-14560.92,-25634.79,-16400.114999999998,-6580.8,2610.765
1764505882.030072,1509.9299999999998,12169.08,-35700.57,-14566.005,-25655.535,-16424.505,-6583.724999999999,2610.585
1764505882.030072,1520.28,12182.535,-35688.78,-14567.445,-25666.02,-16438.545,-6582.15,2617.02
1764505882.030072,1521.63,12183.075,-35690.355,-14567.985,-25666.2,-16442.01,-6581.429999999999,2618.37
1764505882.030072,1519.11,12178.485,-35695.98,-14569.56,-25662.69,-16432.92,-6578.955,2619.045
1764505882.030072,1513.53,12172.905,-35701.335,-14574.105,-25664.13,-16430.715,-6580.53,2615.535
1764505882.030072,1511.91,12171.96,-35701.74,-14574.15,-25663.995,-16430.085,-6581.07,2612.835
1764505882.030072,1511.775,12171.555,-35700.93,-14572.98,-25662.42,-16429.545,-6581.34,2612.475
1764505882.030072,1510.515,12170.565,-35701.515,-14573.655,-25663.005,-16429.995,-6581.61,2612.025
1764505882.030072,1511.505,12172.455,-35698.68,-14572.17,-25662.195,-16429.454999999998,-6582.554999999999,2611.44
1764505882.030072,1512.45,12174.705,-35695.215,-14566.365,-25654.95,-16422.795,-6582.195,2611.845
1764505882.030072,1514.205,12174.93,-35697.869999999995,-14565.24,-25650.72,-16418.52,-6582.014999999999,2613.51
1764505882.030587,1511.145,12172.68,-35700.21,-14569.425,-25652.61,-16419.149999999998,-6582.645,2611.17
1764505882.030587,1499.265,12153.96,-35720.955,-14579.28,-25655.445,-16416.855,-6581.925,2609.055
1764505882.030587,1508.085,12164.175,-35711.64,-14578.38,-25665.165,-16429.86,-6585.03,2612.16
1764505882.030587,1511.325,12170.34,-35702.055,-14579.73,-25679.34,-16449.57,-6588.045,2611.17
1764505882.030587,1517.58,12179.835,-35690.715,-14567.13,-25669.62,-16445.79,-6585.57,2615.76
1764505882.030587,1517.8049999999998,12179.385,-35691.795,-14565.465,-25663.68,-16438.545,-6584.625,2616.48
1764505882.07927,1516.905,12177.36,-35694.54,-14566.905,-25663.14,-16435.62,-6585.075,2615.535
1764505882.07927,1511.505,12170.835,-35700.66,-14570.91,-25660.845,-16425.855,-6584.715,2612.61
1764505882.07927,1507.77,12165.885,-35705.655,-14577.66,-25666.65,-16429.32,-6586.965,2609.82
1764505882.07927,1509.84,12167.37,-35705.925,-14577.975,-25669.08,-16433.055,-6588.0,2611.755
1764505882.07927,1508.85,12167.685,-35705.97,-14576.895,-25668.54,-16434.225,-6589.8,2610.405
1764505882.07927,1507.77,12168.81,-35702.46,-14572.395,-25663.95,-16430.67,-6590.79,2608.515
1764505882.07927,1512.0449999999998,12174.525,-35695.125,-14564.025,-25654.77,-16421.085,-6586.83,2611.935
1764505882.07927,1506.4199999999998,12165.66,-35706.645,-14573.205,-25661.385,-16424.864999999998,-6589.665,2607.345
1764505882.07927,1509.975,12169.08,-35704.215,-14575.14,-25667.505,-16435.934999999998,-6590.745,2609.19
1764505882.07927,1509.84,12167.865,-35706.78,-14580.27,-25674.435,-16444.125,-6592.005,2610.36
1764505882.07927,1512.27,12169.98,-35704.89,-14577.93,-25671.105,-16439.67,-6590.429999999999,2612.7
1764505882.07927,1513.53,12172.635,-35700.525,-14572.755,-25666.605,-16435.26,-6590.025,2612.52
1764505882.07927,1508.22,12169.17,-35701.02,-14570.505,-25661.475,-16425.0,-6590.79,2606.895
1764505882.07927,1506.645,12166.425,-35703.54,-14570.64,-25659.675,-16421.579999999998,-6589.889999999999,2606.625
1764505882.07927,1501.65,12157.245,-35715.105,-14579.325,-25665.165,-16425.675,-6589.349999999999,2605.41
1764505882.080269,1515.105,12175.785,-35696.205,-14566.815,-25659.9,-16429.095,-6586.56,2612.61
1764505882.080269,1522.035,12185.01,-35685.765,-14557.95,-25651.845,-16422.57,-6583.094999999999,2617.785
1764505882.080269,1517.895,12181.86,-35688.06,-14559.705,-25650.63,-16417.845,-6585.525,2613.555
1764505882.080269,1507.32,12166.47,-35704.215,-14572.89,-25651.665,-16408.89,-6586.38,2606.805
1764505882.080269,1493.325,12147.12,-35724.105,-14580.495,-25652.295,-16407.989999999998,-6589.08,2599.65
1764505882.080269,1496.025,12152.16,-35721.81,-14580.855,-25666.74,-16433.145,-6595.469999999999,2599.29
1764505882.080269,1521.09,12181.95,-35691.435,-14576.58,-25681.905,-16457.715,-6588.63,2616.075
1764505882.080269,1507.635,12163.005,-35713.215,-14589.045,-25681.005,-16448.265,-6590.7,2609.235
1764505882.080269,1505.385,12162.78,-35711.775,-14587.155,-25680.24,-16448.625,-6593.13,2606.67
1764505882.124003,1506.06,12164.58,-35708.31,-14580.45,-25675.515,-16445.655,-6593.264999999999,2606.625
1764505882.124003,1504.845,12161.565,-35711.82,-14579.235,-25670.43,-16437.78,-6592.275,2607.345
1764505882.124003,1508.6699999999998,12167.685,-35703.36,-14575.455,-25671.915,-16440.434999999998,-6591.96,2608.695
1764505882.124003,1508.6699999999998,12167.64,-35704.35,-14581.755,-25679.745,-16449.165,-6593.264999999999,2607.435
1764505882.124003,1508.58,12166.47,-35706.33,-14581.53,-25677.045,-16447.454999999998,-6592.23,2608.47
1764505882.124003,1508.85,12166.92,-35706.33,-14580.18,-25674.705,-16443.945,-6592.365,2608.335
1764505882.124003,1509.255,12167.28,-35705.564999999995,-14578.11,-25669.755,-16435.485,-6590.25,2609.46
1764505882.1255443,1505.835,12164.355,-35708.939999999995,-14579.73,-25670.97,-16437.239999999998,-6590.61,2607.66
1764505882.1255443,1509.57,12169.17,-35704.755,-14577.795,-25669.08,-16438.005,-6590.16,2610.27
1764505882.1255443,1512.135,12172.365,-35701.605,-14575.365,-25668.675,-16440.39,-6589.304999999999,2612.16
1764505882.1255443,1514.07,12174.885,-35698.5,-14572.215,-25666.92,-16440.165,-6588.9,2613.105
1764505882.1255443,1515.4199999999998,12177.585,-35693.865,-14568.345,-25660.98,-16432.02,-6587.73,2612.205
1764505882.1255443,1512.0449999999998,12175.335,-35695.125,-14566.095,-25652.565,-16417.215,-6585.57,2609.64
1764505882.1255443,1501.2,12160.26,-35712.63,-14577.255,-25656.93,-16416.989999999998,-6589.755,2602.485
1764505882.1255443,1497.195,12152.925,-35720.28,-14584.32,-25665.345,-16424.505,-6588.134999999999,2603.655
1764505882.1255443,1494.1799999999998,12150.27,-35722.485,-14590.98,-25677.72,-16439.22,-6591.15,2601.72
1764505882.1255443,1508.355,12169.71,-35702.865,-14580.54,-25675.56,-16442.73,-6589.575,2608.335
1764505882.1255443,1511.595,12172.77,-35698.32,-14575.545,-25669.305,-16438.454999999998,-6586.92,2611.17
1764505882.1255443,1506.915,12167.055,-35704.395,-14578.02,-25668.99,-16435.62,-6587.955,2607.525
1764505882.1255443,1508.04,12167.73,-35703.765,-14576.265,-25666.335,-16431.03,-6584.985,2609.46
1764505882.1255443,1507.6799999999998,12168.36,-35702.145,-14576.265,-25667.46,-16434.855,-6586.38,2608.515
1764505882.1255443,1512.135,12173.085,-35696.97,-14572.08,-25665.435,-16435.125,-6583.995,2612.97
1764505882.1255443,1511.28,12171.105,-35699.265,-14574.69,-25667.19,-16436.7,-6583.995,2613.33
1764505882.1255443,1504.26,12162.96,-35708.76,-14584.815,-25674.795,-16440.795,-6588.315,2608.38
1764505882.1698792,1504.935,12163.59,-35707.41,-14583.6,-25673.13,-16438.905,-6588.179999999999,2607.885
1764505882.1698792,1504.485,12163.545,-35706.6,-14580.81,-25670.205,-16436.43,-6588.224999999999,2606.67
1764505882.1698792,1501.155,12160.305,-35710.38,-14584.5,-25673.94,-16439.67,-6591.105,2604.69
1764505882.1698792,1504.845,12163.905,-35707.05,-14581.8,-25671.78,-16438.905,-6588.945,2608.245
1764505882.1698792,1504.44,12163.32,-35707.545,-14581.53,-25672.905,-16440.84,-6590.429999999999,2607.075
1764505882.1698792,1501.2,12161.7,-35707.814999999995,-14582.205,-25673.85,-16442.91,-6593.49,2602.935
1764505882.1698792,1502.01,12163.5,-35706.015,-14580.315,-25670.43,-16439.22,-6592.815,2604.33
1764505882.1698792,1501.425,12161.52,-35708.04,-14580.225,-25668.9,-16433.1,-6590.655,2605.32
1764505882.1698792,1505.745,12166.2,-35702.955,-14573.52,-25659.72,-16420.905,-6585.48,2609.1
1764505882.1698792,1508.535,12170.88,-35696.655,-14567.04,-25654.545,-16418.16,-6585.03,2610.72
1764505882.1698792,1512.81,12177.135,-35689.32,-14560.74,-25650.225,-16417.44,-6583.815,2612.88
