Timestamp,Channel1,Channel2,Channel3,Channel4,Channel5,Channel6,Channel7,Channel8
1764504943.0780191,-4566.42,5661.585,-42777.27,-31659.255,-38872.215,-29945.7,-14396.04,1227.105
1764504943.0780191,-4568.264999999999,5659.56,-42778.35,-31660.02,-38871.63,-29946.69,-14397.48,1225.26
1764504943.0780191,-4572.585,5655.33,-42782.67,-31665.24,-38877.165,-29952.405,-14400.585,1221.3
1764504943.0780191,-4568.04,5659.335,-42779.34,-31661.37,-38873.835,-29948.265,-14397.615,1225.485
1764504943.0780191,-4567.139999999999,5660.594999999999,-42778.98,-31660.2,-38872.62,-29947.995,-14397.525,1226.745
1764504943.0780191,-4571.91,5655.78,-42782.49,-31664.43,-38877.615,-29952.855,-14400.99,1222.02
1764504943.0780191,-4569.705,5658.165,-42780.375,-31662.765,-38875.635,-29949.3,-14398.38,1224.18
1764504943.0780191,-4565.655,5661.585,-42778.53,-31661.64,-38873.88,-29945.79,-14394.78,1228.5
1764504943.0780191,-4565.429999999999,5661.495,-42778.71,-31661.955,-38874.555,-29945.52,-14394.105,1229.13
1764504943.0780191,-4566.645,5660.594999999999,-42779.52,-31661.28,-38874.24,-29946.195,-14394.555,1227.6
1764504943.0780191,-4567.185,5660.685,-42779.025,-31660.74,-38874.96,-29947.455,-14395.59,1226.88
1764504943.0780191,-4566.24,5661.9,-42777.855,-31659.165,-38874.015,-29946.285,-14394.825,1227.465
1764504943.0780191,-4565.025,5663.385,-42775.65,-31656.465,-38870.91,-29944.62,-14393.655,1228.095
1764504943.0780191,-4567.32,5661.45,-42777.27,-31658.76,-38872.44,-29946.375,-14395.365,1225.305
1764504943.07902,-4563.72,5664.825,-42774.39,-31655.025,-38867.49,-29939.49,-14392.62,1228.95
1764504943.07902,-4570.29,5657.535,-42782.445,-31662.45,-38874.06,-29942.505,-14396.58,1223.28
1764504943.07902,-4566.24,5661.99,-42777.72,-31658.895,-38870.64,-29940.885,-14393.475,1226.97
1764504943.07902,-4566.42,5662.44,-42777.0,-31657.815,-38870.415,-29941.515,-14393.52,1227.285
1764504943.07902,-4567.5,5661.27,-42778.755,-31658.715,-38871.27,-29942.145,-14394.105,1226.7
1764504943.07902,-4572.224999999999,5656.455,-42783.39,-31663.395,-38875.815,-29946.33,-14395.995,1223.01
1764504943.07902,-4570.29,5658.3,-42781.14,-31661.73,-38874.555,-29947.14,-14395.005,1224.855
1764504943.07902,-4572.09,5656.95,-42782.22,-31662.63,-38875.68,-29948.715,-14396.895,1223.46
1764504943.07902,-4575.915,5653.035,-42786.0,-31667.31,-38880.18,-29952.27,-14399.505,1220.175
1764504943.07902,-4570.605,5658.48,-42781.815,-31663.395,-38877.795,-29948.67,-14395.545,1225.08
1764504943.1216466,-4569.12,5660.639999999999,-42779.655,-31662.72,-38876.895,-29948.31,-14393.43,1226.655
1764504943.1216466,-4573.08,5656.77,-42782.355,-31666.545,-38881.215,-29952.99,-14396.715,1222.785
1764504943.1222038,-4576.724999999999,5653.44,-42786.045,-31668.93,-38884.32,-29956.455,-14399.1,1219.41
1764504943.1222038,-4576.05,5655.195,-42785.415,-31667.715,-38881.53,-29955.015,-14398.29,1220.49
1764504943.1222038,-4573.17,5658.12,-42782.355,-31664.745,-38876.67,-29950.02,-14396.13,1224.18
1764504943.1222038,-4574.565,5656.635,-42782.76,-31664.43,-38874.69,-29948.13,-14396.49,1223.595
1764504943.1222038,-4575.06,5656.05,-42782.31,-31662.18,-38871.99,-29944.755,-14395.995,1222.56
1764504943.1222038,-4578.3,5652.719999999999,-42785.1,-31664.205,-38873.43,-29943.945,-14397.705,1219.14
1764504943.1222038,-4573.62,5657.535,-42779.88,-31658.805,-38867.985,-29938.41,-14393.61,1223.37
1764504943.1222038,-4573.035,5658.795,-42778.665,-31657.455,-38867.85,-29938.59,-14392.305,1224.36
1764504943.1222038,-4573.17,5658.435,-42779.88,-31658.22,-38868.705,-29939.94,-14391.9,1224.27
1764504943.1222038,-4574.97,5656.23,-42781.68,-31660.605,-38871.36,-29942.73,-14394.42,1222.38
1764504943.1222038,-4573.08,5658.84,-42779.97,-31659.255,-38871.045,-29942.82,-14393.97,1224.315
1764504943.1222038,-4572.764999999999,5659.469999999999,-42779.79,-31658.22,-38870.595,-29943.63,-14393.385,1224.585
1764504943.123218,-4576.32,5656.185,-42783.57,-31663.035,-38876.175,-29950.38,-14395.59,1221.21
1764504943.123218,-4577.445,5655.33,-42784.965,-31665.33,-38877.975,-29949.48,-14395.275,1221.165
1764504943.123218,-4574.88,5656.86,-42783.345,-31663.8,-38875.32,-29944.53,-14392.845,1223.595
1764504943.123218,-4578.165,5653.17,-42785.73,-31667.13,-38879.28,-29949.66,-14396.04,1219.905
1764504943.123218,-4577.895,5652.9,-42786.63,-31667.805,-38879.46,-29950.245,-14396.715,1220.445
1764504943.123218,-4574.61,5656.905,-42783.435,-31664.655,-38876.49,-29946.78,-14393.97,1223.415
1764504943.123218,-4570.965,5660.235,-42780.825,-31662.405,-38874.105,-29945.205,-14391.9,1227.555
1764504943.123218,-4577.13,5653.8,-42786.945,-31668.12,-38880.09,-29951.505,-14397.3,1221.48
1764504943.123218,-4578.525,5652.945,-42787.08,-31667.715,-38878.83,-29951.01,-14398.56,1220.355
1764504943.123218,-4574.52,5658.03,-42782.58,-31662.81,-38874.645,-29946.285,-14395.095,1224.09
1764504943.1680489,-4575.195,5657.355,-42782.94,-31663.215,-38875.32,-29946.285,-14394.33,1223.28
1764504943.1680489,-4570.47,5661.54,-42777.855,-31658.67,-38870.91,-29941.92,-14391.45,1228.185
1764504943.1680489,-4570.605,5661.855,-42777.72,-31658.04,-38870.28,-29941.065,-14390.955,1228.095
1764504943.1680489,-4575.105,5656.995,-42782.175,-31663.305,-38875.95,-29947.095,-14394.42,1224.225
1764504943.1680489,-4575.51,5656.365,-42782.985,-31664.07,-38877.255,-29949.03,-14395.32,1223.685
1764504943.1680489,-4572.855,5659.065,-42780.555,-31660.875,-38874.285,-29946.69,-14393.295,1225.755
1764504943.1680489,-4569.795,5662.26,-42776.865,-31657.14,-38870.145,-29942.055,-14390.775,1230.39
1764504943.1680489,-4573.889999999999,5657.49,-42781.905,-31663.08,-38875.14,-29945.745,-14394.78,1226.205
1764504943.1680489,-4569.03,5662.17,-42777.45,-31658.67,-38871.18,-29941.29,-14391.855,1230.03
1764504943.1680489,-4571.054999999999,5659.514999999999,-42780.645,-31661.55,-38874.015,-29943.765,-14392.98,1227.51
1764504943.1680489,-4568.04,5662.035,-42779.07,-31658.13,-38871.36,-29940.03,-14390.73,1230.435
1764504943.1680489,-4568.355,5662.755,-42778.17,-31656.015,-38868.39,-29936.88,-14389.47,1230.975
1764504943.1700711,-4570.83,5660.46,-42779.655,-31657.365,-38868.885,-29938.23,-14391.405,1227.33
1764504943.1700711,-4569.165,5660.685,-42778.26,-31656.69,-38868.525,-29937.96,-14391.72,1227.645
1764504943.1700711,-4565.07,5664.87,-42774.03,-31653.765,-38866.725,-29935.44,-14389.785,1231.2
1764504943.1700711,-4564.215,5665.679999999999,-42773.49,-31653.45,-38867.4,-29936.97,-14389.11,1231.695
1764504943.1700711,-4559.76,5670.585,-42769.17,-31649.76,-38863.53,-29933.73,-14386.41,1235.385
1764504943.1700711,-4565.429999999999,5665.32,-42773.805,-31654.71,-38868.345,-29940.66,-14392.395,1229.13
1764504943.1700711,-4565.655,5664.96,-42773.805,-31654.53,-38867.13,-29940.39,-14393.925,1228.77
1764504943.1700711,-4562.325,5668.38,-42771.015,-31651.02,-38862.855,-29936.475,-14391.18,1233.135
1764504943.1700711,-4562.775,5667.435,-42771.105,-31651.47,-38863.215,-29938.365,-14392.17,1232.73
1764504943.1715918,-4567.32,5661.36,-42777.225,-31657.095,-38867.31,-29939.13,-14394.33,1228.095
1764504943.1715918,-4565.429999999999,5662.844999999999,-42776.595,-31655.925,-38866.32,-29938.725,-14392.395,1230.885
1764504943.1715918,-4568.49,5660.505,-42779.97,-31660.38,-38872.26,-29945.07,-14394.015,1228.86
1764504943.215683,-4566.915,5661.36,-42780.015,-31661.1,-38874.285,-29947.185,-14394.51,1229.13
1764504943.215683,-4564.575,5663.295,-42777.81,-31658.445,-38871.9,-29944.755,-14394.24,1231.29
1764504943.215683,-4565.52,5663.61,-42777.18,-31657.275,-38870.865,-29944.125,-14394.375,1231.29
1764504943.215683,-4566.375,5662.215,-42777.945,-31657.32,-38871.72,-29945.565,-14395.77,1230.66
1764504943.215683,-4564.08,5664.195,-42776.01,-31655.07,-38869.65,-29943.405,-14394.105,1232.595
1764504943.215683,-4565.835,5663.07,-42777.315,-31657.545,-38871.81,-29944.845,-14395.725,1230.7949999999998
1764504943.215683,-4569.57,5658.57,-42781.32,-31662.36,-38874.87,-29945.655,-14396.58,1227.4199999999998
1764504943.215683,-4567.86,5660.55,-42779.835,-31659.75,-38872.17,-29941.92,-14395.23,1229.445
1764504943.215683,-4561.965,5666.175,-42774.615,-31654.35,-38867.13,-29937.195,-14390.73,1235.025
1764504943.215683,-4564.755,5664.375,-42777.09,-31657.815,-38869.965,-29940.84,-14391.99,1233.0
1764504943.215683,-4562.865,5665.635,-42775.29,-31656.105,-38868.255,-29939.895,-14390.505,1234.845
1764504943.215683,-4557.195,5670.27,-42770.475,-31651.29,-38863.62,-29935.395,-14385.825,1240.245
1764504943.215683,-4557.96,5668.83,-42771.465,-31652.415,-38863.845,-29936.88,-14387.22,1239.525
1764504943.2162192,-4564.304999999999,5663.61,-42776.865,-31657.14,-38869.785,-29943.27,-14393.07,1233.135
1764504943.2162192,-4563.63,5664.375,-42776.19,-31655.745,-38869.74,-29942.64,-14392.395,1232.82
1764504943.2162192,-4562.37,5665.275,-42774.48,-31654.305,-38867.895,-29940.165,-14391.855,1234.26
1764504943.2162192,-4557.87,5669.145,-42770.79,-31650.795,-38864.43,-29936.745,-14389.515,1238.535
1764504943.2162192,-4558.545,5669.19,-42770.61,-31651.2,-38864.43,-29938.275,-14390.415,1237.32
1764504943.2162192,-4562.28,5665.32,-42775.47,-31655.52,-38868.075,-29940.66,-14391.675,1233.0449999999998
1764504943.2162192,-4562.01,5665.094999999999,-42775.245,-31655.565,-38867.58,-29938.545,-14390.865,1233.81
1764504943.2172327,-4563.855,5663.969999999999,-42776.145,-31655.835,-38868.975,-29940.435,-14391.99,1231.695
1764504943.2172327,-4559.58,5669.099999999999,-42770.925,-31650.48,-38863.44,-29935.125,-14388.165,1236.555
1764504943.2630208,-4558.724999999999,5669.37,-42770.385,-31649.85,-38862.18,-29933.46,-14387.715,1237.005
1764504943.2630208,-4564.17,5664.87,-42774.12,-31653.495,-38865.465,-29935.845,-14390.595,1232.055
1764504943.2630208,-4564.575,5665.005,-42774.03,-31652.505,-38864.61,-29934.405,-14390.1,1232.505
1764504943.2630208,-4561.605,5667.435,-42771.69,-31650.84,-38864.34,-29934.315,-14388.795,1235.025
1764504943.2630208,-4560.12,5668.74,-42770.745,-31650.03,-38863.62,-29934.99,-14388.57,1235.2949999999998
1764504943.2630208,-4561.605,5667.03,-42771.78,-31651.605,-38862.585,-29933.19,-14388.75,1234.53
1764504943.2630208,-4563.179999999999,5664.87,-42774.795,-31653.405,-38862.045,-29929.68,-14387.805,1234.215
1764504943.2630208,-4559.895,5668.469999999999,-42770.7,-31648.95,-38857.68,-29925.945,-14385.42,1237.725
1764504943.2639992,-4562.415,5665.815,-42773.085,-31652.955,-38862.945,-29931.84,-14388.03,1234.98
1764504943.2639992,-4561.065,5666.895,-42772.995,-31654.8,-38866.905,-29935.395,-14387.67,1235.7
1764504943.2639992,-4555.935,5671.8,-42768.765,-31650.57,-38864.16,-29933.73,-14384.835,1240.515
1764504943.2639992,-4560.03,5667.3,-42773.31,-31655.565,-38869.02,-29939.04,-14388.84,1236.195
1764504943.2639992,-4564.485,5662.755,-42778.08,-31658.76,-38871.36,-29942.955,-14391.99,1231.29
1764504943.2639992,-4562.595,5664.735,-42775.47,-31653.675,-38865.69,-29937.915,-14390.055,1233.0449999999998
1764504943.2639992,-4558.815,5668.92,-42770.655,-31647.915,-38859.255,-29931.075,-14386.635,1237.41
1764504943.2639992,-4562.595,5665.635,-42773.94,-31651.74,-38863.17,-29934.765,-14389.335,1234.26
1764504943.2639992,-4559.895,5668.785,-42771.375,-31649.265,-38861.145,-29932.425,-14387.04,1237.005
1764504943.2639992,-4561.245,5667.435,-42773.535,-31650.795,-38862.855,-29934.18,-14389.155,1234.53
1764504943.2639992,-4563.135,5664.42,-42776.505,-31653.855,-38866.05,-29937.51,-14391.63,1231.965
1764504943.2639992,-4559.715,5667.929999999999,-42771.195,-31650.21,-38862.135,-29933.46,-14388.48,1235.61
1764504943.2639992,-4559.355,5669.325,-42770.565,-31648.815,-38859.57,-29930.58,-14387.805,1236.195
1764504943.2639992,-4561.74,5666.76,-42773.49,-31651.2,-38861.415,-29931.975,-14389.785,1234.35
1764504943.2639992,-4563.495,5664.24,-42775.02,-31652.055,-38862.945,-29933.82,-14390.775,1231.605
1764504943.2639992,-4559.22,5668.245,-42770.025,-31647.78,-38858.265,-29929.725,-14387.67,1235.2949999999998
1764504943.3070426,-4561.92,5666.355,-42772.59,-31650.3,-38860.74,-29932.425,-14388.615,1234.08
1764504943.3070426,-4563.63,5664.735,-42775.02,-31651.56,-38862.09,-29931.66,-14389.245,1233.18
1764504943.3070426,-4560.12,5667.929999999999,-42771.825,-31649.04,-38860.56,-29929.275,-14387.175,1236.735
1764504943.3070426,-4559.445,5668.92,-42771.33,-31649.355,-38862.405,-29932.695,-14387.715,1237.005
1764504943.3070426,-4562.505,5665.32,-42774.93,-31654.215,-38867.13,-29938.905,-14390.865,1233.405
1764504943.3070426,-4561.875,5666.219999999999,-42774.525,-31654.035,-38866.455,-29937.69,-14389.83,1234.98
1764504943.3070426,-4557.375,5670.27,-42771.465,-31649.76,-38863.08,-29934.495,-14387.22,1239.435
1764504943.3070426,-4559.849999999999,5667.885,-42774.66,-31653.09,-38866.455,-29939.04,-14390.37,1236.015
1764504943.3070426,-4562.955,5665.139999999999,-42777.315,-31656.465,-38870.055,-29943.63,-14393.115,1232.775
1764504943.3070426,-4561.83,5666.804999999999,-42775.605,-31654.845,-38869.74,-29943.855,-14392.665,1234.125
1764504943.3070426,-4559.625,5668.335,-42773.355,-31651.92,-38866.725,-29940.12,-14390.325,1235.43
1764504943.3070426,-4561.74,5665.05,-42776.73,-31654.305,-38866.5,-29936.295,-14390.325,1234.53
1764504943.3070426,-4557.78,5668.74,-42773.625,-31651.74,-38862.495,-29930.985,-14386.77,1238.6699999999998
1764504943.3070426,-4555.98,5670.179999999999,-42771.69,-31649.805,-38860.605,-29929.86,-14386.095,1239.84
1764504943.3070426,-4556.745,5669.505,-42772.275,-31650.345,-38861.64,-29930.13,-14386.905,1239.75
1764504943.3070426,-4555.665,5671.485,-42770.97,-31649.355,-38861.145,-29929.005,-14385.15,1241.1
1764504943.3070426,-4555.98,5671.62,-42770.52,-31648.95,-38859.3,-29929.095,-14385.555,1240.9199999999998
1764504943.3070426,-4558.5,5668.83,-42773.085,-31652.1,-38863.26,-29933.415,-14388.48,1237.32
1764504943.3099988,-4558.139999999999,5668.469999999999,-42772.59,-31652.865,-38865.735,-29935.395,-14388.84,1236.96
1764504943.3099988,-4557.42,5669.054999999999,-42772.005,-31650.705,-38863.395,-29933.055,-14388.435,1238.265
1764504943.3099988,-4559.445,5667.389999999999,-42774.255,-31651.2,-38863.17,-29932.74,-14389.605,1236.375
1764504943.3115113,-4565.025,5661.585,-42779.925,-31655.115,-38865.645,-29935.305,-14392.935,1231.515
1764504943.3558598,-4563.81,5662.44,-42778.62,-31653.81,-38863.125,-29932.515,-14391.495,1232.46
1764504943.3558598,-4562.775,5663.745,-42777.72,-31652.28,-38862.81,-29931.975,-14391.45,1233.0
1764504943.3558598,-4558.139999999999,5669.099999999999,-42772.275,-31646.295,-38856.87,-29926.215,-14388.795,1237.5449999999998
1764504943.3558598,-4556.429999999999,5671.08,-42769.575,-31645.035,-38854.665,-29924.955,-14387.31,1239.39
1764504943.3558598,-4558.005,5669.955,-42770.745,-31646.43,-38857.32,-29927.295,-14388.615,1238.13
1764504943.3558598,-4560.795,5666.58,-42773.625,-31649.76,-38861.64,-29931.345,-14392.575,1234.1699999999998
1764504943.3568623,-4561.245,5665.995,-42774.795,-31652.28,-38864.565,-29934.18,-14394.105,1233.405
1764504943.3568623,-4561.514999999999,5665.41,-42775.74,-31654.395,-38867.22,-29938.14,-14392.89,1233.855
1764504943.3568623,-4565.16,5661.719999999999,-42781.005,-31659.57,-38874.24,-29946.24,-14395.68,1231.11
1764504943.3568623,-4564.035,5663.925,-42778.35,-31657.545,-38874.015,-29948.895,-14395.77,1231.605
1764504943.3568623,-4560.615,5666.804999999999,-42774.12,-31654.215,-38869.245,-29945.25,-14394.195,1234.8
1764504943.3568623,-4563.09,5664.96,-42776.415,-31654.89,-38868.12,-29942.235,-14394.015,1232.37
1764504943.3568623,-4560.12,5668.2,-42773.355,-31651.83,-38863.26,-29934.81,-14391.045,1236.015
1764504943.3568623,-4559.804999999999,5668.56,-42773.04,-31649.94,-38859.93,-29928.96,-14389.605,1235.79
1764504943.3568623,-4558.365,5670.179999999999,-42771.78,-31647.645,-38856.735,-29922.12,-14386.005,1237.365
1764504943.3568623,-4560.615,5668.155,-42773.31,-31649.94,-38859.975,-29925.315,-14388.255,1235.43
1764504943.3568623,-4562.28,5665.905,-42775.83,-31652.91,-38863.53,-29929.77,-14389.695,1233.45
1764504943.3568623,-4558.77,5669.505,-42771.645,-31650.39,-38861.865,-29929.32,-14387.49,1236.735
1764504943.357879,-4557.78,5671.44,-42770.16,-31647.78,-38860.065,-29929.995,-14388.39,1236.915
1764504943.357879,-4560.389999999999,5668.875,-42773.175,-31649.625,-38860.74,-29931.84,-14389.605,1234.89
1764504943.357879,-4561.605,5666.58,-42775.695,-31650.885,-38859.525,-29927.79,-14388.93,1234.305
1764504943.357879,-4559.264999999999,5668.92,-42774.03,-31648.005,-38856.24,-29923.965,-14387.895,1235.88
1764504943.357879,-4560.255,5667.344999999999,-42774.345,-31649.31,-38858.355,-29927.115,-14389.425,1233.675
1764504943.357879,-4555.53,5672.429999999999,-42769.53,-31644.495,-38854.62,-29923.47,-14385.42,1238.76
1764504943.3991897,-4555.26,5673.195,-42769.305,-31645.305,-38854.98,-29922.21,-14383.665,1240.155
1764504943.3991897,-4557.735,5670.135,-42771.78,-31648.365,-38859.75,-29926.08,-14385.465,1238.13
1764504943.3991897,-4560.615,5666.67,-42774.93,-31652.01,-38864.16,-29931.12,-14387.805,1235.61
1764504943.3991897,-4556.7,5670.179999999999,-42771.555,-31648.095,-38860.155,-29927.925,-14385.96,1238.985
1764504943.3991897,-4557.24,5669.91,-42772.365,-31648.545,-38860.515,-29928.42,-14386.095,1238.445
1764504943.400224,-4561.65,5665.995,-42776.595,-31653.27,-38864.565,-29933.235,-14388.39,1234.845
1764504943.400224,-4561.425,5666.13,-42776.145,-31652.595,-38863.665,-29933.73,-14389.11,1235.07
1764504943.400224,-4560.345,5667.48,-42774.21,-31649.985,-38860.515,-29931.345,-14388.255,1235.88
1764504943.400224,-4555.755,5671.98,-42769.305,-31645.215,-38856.015,-29925.855,-14385.69,1240.155
1764504943.400224,-4555.62,5672.429999999999,-42769.215,-31645.53,-38856.69,-29926.755,-14385.195,1241.19
1764504943.400224,-4556.025,5672.745,-42770.25,-31647.465,-38859.615,-29929.59,-14385.555,1241.325
1764504943.400224,-4557.465,5670.719999999999,-42771.015,-31649.22,-38862.135,-29932.47,-14387.715,1238.985
1764504943.400224,-4559.67,5668.875,-42772.725,-31650.57,-38863.89,-29935.17,-14389.83,1236.69
1764504943.400224,-4559.13,5670.09,-42771.915,-31648.995,-38862.09,-29933.91,-14389.47,1237.275
1764504943.400224,-4559.4,5668.155,-42773.625,-31649.625,-38860.965,-29930.895,-14388.705,1237.635
1764504943.400224,-4564.08,5662.935,-42779.43,-31655.43,-38865.465,-29933.415,-14390.145,1234.26
1764504943.400224,-4561.695,5665.139999999999,-42776.73,-31653.9,-38865.33,-29933.955,-14389.02,1235.925
1764504943.400224,-4556.88,5669.099999999999,-42772.32,-31649.895,-38860.74,-29929.545,-14386.68,1239.435
1764504943.400224,-4555.665,5669.955,-42771.42,-31648.455,-38860.515,-29930.535,-14385.555,1239.57
1764504943.400224,-4554.179999999999,5672.25,-42769.62,-31646.475,-38860.29,-29929.68,-14383.845,1241.775
1764504943.400224,-4550.31,5676.21,-42766.29,-31642.515,-38855.97,-29925.72,-14381.325,1246.14
1764504943.400224,-4552.83,5674.094999999999,-42768.135,-31643.73,-38856.87,-29926.935,-14383.62,1243.62
1764504943.400224,-4548.42,5678.775,-42762.96,-31638.645,-38851.02,-29920.59,-14380.605,1247.49
1764504943.400224,-4549.59,5677.56,-42763.68,-31639.815,-38851.92,-29921.085,-14380.83,1247.13
1764504943.4494529,-4550.49,5675.355,-42765.705,-31643.01,-38853.99,-29922.345,-14380.965,1246.5449999999998
1764504943.4494529,-4550.94,5675.76,-42765.795,-31641.57,-38854.125,-29922.345,-14380.335,1246.095
1764504943.4494529,-4553.145,5673.33,-42767.73,-31643.19,-38856.105,-29924.37,-14382.495,1242.81
1764504943.45045,-4550.94,5675.31,-42765.795,-31641.57,-38854.485,-29923.245,-14382.0,1244.16
1764504943.45045,-4547.295,5679.495,-42762.42,-31638.105,-38850.705,-29919.645,-14379.57,1247.625
1764504943.45045,-4544.639999999999,5681.7,-42760.53,-31636.08,-38848.59,-29918.115,-14376.825,1249.9199999999998
1764504943.45045,-4541.849999999999,5685.03,-42756.75,-31632.84,-38845.485,-29916.135,-14374.575,1252.665
1764504943.45045,-4546.035,5681.295,-42760.845,-31637.34,-38848.905,-29919.105,-14378.13,1249.965
1764504943.45045,-4553.28,5673.15,-42768.945,-31644.99,-38854.44,-29922.795,-14382.135,1243.665
1764504943.45045,-4552.65,5674.455,-42767.415,-31643.73,-38853.855,-29923.065,-14381.82,1243.08
1764504943.45045,-4548.96,5677.92,-42764.805,-31640.94,-38852.955,-29924.82,-14381.055,1245.87
1764504943.45045,-4543.065,5683.545,-42759.225,-31634.955,-38848.635,-29920.68,-14377.095,1252.1699999999998
1764504943.45045,-4544.145,5682.42,-42760.305,-31635.09,-38847.645,-29918.07,-14376.375,1251.81
1764504943.45045,-4548.78,5677.83,-42764.805,-31639.59,-38849.4,-29917.305,-14378.49,1248.075
1764504943.45045,-4550.804999999999,5676.255,-42766.29,-31642.02,-38852.055,-29919.645,-14380.74,1245.735
1764504943.45045,-4554.179999999999,5672.969999999999,-42769.89,-31647.105,-38857.365,-29924.73,-14382.405,1242.45
1764504943.45045,-4549.545,5676.525,-42765.255,-31643.055,-38853.18,-29919.735,-14379.48,1246.905
1764504943.45045,-4550.67,5674.41,-42766.875,-31643.775,-38853.675,-29919.33,-14380.605,1245.24
1764504943.45045,-4553.099999999999,5671.98,-42770.07,-31646.205,-38854.665,-29922.165,-14382.72,1242.315
1764504943.45045,-4550.535,5675.219999999999,-42767.145,-31642.965,-38851.47,-29918.88,-14381.28,1244.52
1764504943.45045,-4550.625,5674.275,-42767.73,-31643.19,-38852.55,-29919.015,-14381.235,1244.16
1764504943.45045,-4548.33,5676.795,-42764.58,-31641.165,-38850.705,-29918.205,-14379.39,1246.995
1764504943.45045,-4548.87,5676.12,-42764.715,-31642.155,-38852.82,-29920.275,-14380.065,1245.645
1764504943.45045,-4554.09,5671.98,-42768.99,-31646.88,-38858.265,-29925.54,-14383.71,1241.28
1764504943.4947965,-4554.54,5671.53,-42769.98,-31646.79,-38859.03,-29926.665,-14385.015,1240.65
1764504943.4947965,-4549.905,5676.255,-42765.165,-31641.975,-38853.99,-29921.49,-14381.73,1243.98
1764504943.4947965,-4549.139999999999,5677.155,-42763.905,-31641.48,-38853.09,-29921.265,-14380.74,1244.61
1764504943.4947965,-4550.264999999999,5675.849999999999,-42765.48,-31642.38,-38853.945,-29921.895,-14380.83,1244.16
1764504943.4958093,-4549.95,5676.57,-42765.48,-31641.48,-38852.685,-29920.635,-14379.345,1245.105
1764504943.4958093,-4551.66,5674.455,-42768.45,-31643.955,-38855.7,-29923.38,-14381.1,1243.71
1764504943.4958093,-4556.429999999999,5668.92,-42773.175,-31650.255,-38863.44,-29930.67,-14384.88,1239.39
1764504943.4958093,-4553.46,5672.969999999999,-42769.845,-31647.285,-38860.695,-29927.745,-14382.99,1242.135
1764504943.4958093,-4554.045,5673.195,-42769.53,-31646.7,-38859.795,-29927.295,-14382.9,1241.73
1764504943.4958093,-4556.52,5671.125,-42771.33,-31648.365,-38860.2,-29927.07,-14383.8,1239.165
1764504943.4958093,-4553.955,5673.285,-42769.53,-31645.89,-38857.23,-29922.795,-14381.1,1243.26
1764504943.4958093,-4555.62,5671.035,-42771.645,-31648.905,-38859.255,-29926.035,-14380.38,1242.315
1764504943.4968266,-4555.215,5671.62,-42769.98,-31648.59,-38858.58,-29928.15,-14381.91,1241.595
1764504943.4968266,-4559.22,5668.605,-42772.545,-31651.29,-38861.685,-29932.785,-14386.275,1236.825
1764504943.4968266,-4559.175,5668.38,-42772.5,-31649.715,-38859.615,-29929.455,-14385.645,1236.555
1764504943.4977193,-4559.22,5668.155,-42773.04,-31649.31,-38857.68,-29925.765,-14383.98,1236.96
1764504943.4977193,-4558.77,5668.514999999999,-42772.095,-31648.68,-38857.095,-29925.765,-14383.44,1237.5449999999998
1764504943.4977193,-4556.925,5670.585,-42770.385,-31646.88,-38856.645,-29925.765,-14383.215,1239.345
1764504943.4977193,-4561.155,5666.625,-42774.705,-31650.66,-38861.1,-29928.105,-14385.105,1236.015
1764504943.4977193,-4560.21,5667.344999999999,-42773.58,-31650.3,-38860.92,-29926.8,-14384.835,1236.555
1764504943.4977193,-4557.645,5669.865,-42771.015,-31648.095,-38858.49,-29925.36,-14382.585,1239.255
1764504943.4977193,-4555.44,5672.025,-42768.675,-31646.34,-38856.465,-29923.065,-14380.695,1241.46
1764504943.5425522,-4550.849999999999,5676.525,-42763.95,-31641.39,-38851.83,-29919.105,-14378.625,1245.33
1764504943.5425522,-4553.37,5674.32,-42765.84,-31642.965,-38853.585,-29921.49,-14382.09,1242.585
1764504943.5425522,-4554.45,5673.285,-42766.695,-31643.1,-38853.72,-29922.84,-14381.82,1242.135
1764504943.5425522,-4557.42,5670.81,-42770.025,-31645.665,-38856.42,-29927.07,-14383.485,1238.355
1764504943.5425522,-4558.365,5669.91,-42771.42,-31646.88,-38858.67,-29929.23,-14384.925,1238.22
1764504943.5425522,-4557.105,5670.495,-42770.7,-31646.925,-38857.545,-29928.105,-14384.385,1239.345
1764504943.5425522,-4555.665,5672.295,-42769.8,-31646.07,-38854.845,-29922.03,-14381.73,1241.64
1764504943.5425522,-4559.445,5667.885,-42774.12,-31650.165,-38859.84,-29925.585,-14383.35,1237.5449999999998
1764504943.5425522,-4557.105,5669.82,-42772.725,-31648.68,-38860.515,-29925.945,-14383.395,1238.76
1764504943.5425522,-4558.679999999999,5669.37,-42773.445,-31650.345,-38862.63,-29927.295,-14384.025,1237.86
1764504943.5425522,-4557.375,5670.855,-42771.06,-31648.095,-38860.245,-29925.18,-14384.565,1239.03
1764504943.5425522,-4559.13,5669.145,-42772.365,-31649.445,-38861.91,-29927.565,-14387.49,1236.33
1764504943.5425522,-4558.815,5670.09,-42771.33,-31647.51,-38859.93,-29926.71,-14387.94,1236.96
1764504943.5425522,-4559.264999999999,5670.045,-42770.79,-31645.215,-38855.97,-29922.615,-14386.77,1237.635
1764504943.5425522,-4560.615,5668.29,-42773.13,-31647.24,-38856.6,-29922.75,-14387.22,1236.4199999999998
1764504943.5425522,-4562.595,5665.5,-42777.405,-31652.37,-38861.775,-29928.96,-14390.145,1233.27
1764504943.5425522,-4558.679999999999,5669.505,-42772.5,-31649.715,-38859.84,-29927.79,-14388.57,1237.005
1764504943.5425522,-4561.56,5665.32,-42775.695,-31653.9,-38863.035,-29928.96,-14390.28,1234.8
1764504943.5425522,-4565.34,5660.594999999999,-42780.825,-31658.94,-38866.905,-29930.895,-14391.72,1231.245
1764504943.5425522,-4560.389999999999,5666.31,-42775.065,-31652.505,-38862.18,-29927.25,-14388.48,1235.34
1764504943.5451212,-4557.915,5669.01,-42772.59,-31649.49,-38859.57,-29924.28,-14386.815,1237.635
1764504943.5451212,-4558.275,5668.695,-42772.68,-31649.715,-38859.84,-29923.83,-14387.805,1237.635
1764504943.5451212,-4561.155,5666.219999999999,-42775.29,-31652.28,-38862.54,-29927.115,-14389.83,1234.935
1764504943.5451212,-4560.84,5666.31,-42776.145,-31652.46,-38862.72,-29928.015,-14389.965,1235.34
1764504943.5881145,-4559.264999999999,5667.705,-42774.75,-31652.235,-38862.855,-29928.06,-14389.155,1236.96
1764504943.5886254,-4554.09,5672.835,-42769.935,-31647.69,-38858.04,-29924.415,-14386.005,1241.685
1764504943.5886254,-4554.63,5672.429999999999,-42770.88,-31647.735,-38859.03,-29925.225,-14386.59,1240.9199999999998
1764504943.5886254,-4558.905,5667.929999999999,-42774.3,-31652.505,-38863.8,-29930.22,-14390.325,1235.97
1764504943.5886254,-4557.375,5668.2,-42773.625,-31651.47,-38862.135,-29929.005,-14390.595,1236.285
1764504943.5886254,-4554.99,5670.855,-42771.105,-31647.96,-38859.255,-29926.98,-14388.255,1238.895
1764504943.5886254,-4553.955,5672.385,-42769.215,-31646.61,-38858.085,-29925.855,-14387.445,1239.75
1764504943.5886254,-4557.014999999999,5669.73,-42771.69,-31649.58,-38861.235,-29928.645,-14389.695,1236.735
1764504943.5886254,-4554.54,5671.26,-42771.105,-31649.355,-38859.66,-29924.505,-14387.58,1239.03
1764504943.5886254,-4558.365,5667.21,-42775.29,-31652.955,-38863.485,-29928.915,-14391.54,1234.665
1764504943.5886254,-4558.32,5667.66,-42774.57,-31652.145,-38863.89,-29931.255,-14392.665,1235.2949999999998
1764504943.5891352,-4562.639999999999,5663.295,-42778.665,-31656.555,-38867.49,-29935.53,-14395.365,1231.38
1764504943.5891352,-4559.445,5665.185,-42777.54,-31654.755,-38865.33,-29933.595,-14393.79,1233.27
1764504943.5891352,-4552.65,5671.935,-42771.15,-31648.365,-38859.66,-29927.115,-14388.255,1239.66
1764504943.5891352,-4552.47,5673.285,-42769.62,-31646.205,-38857.95,-29925.09,-14387.085,1240.11
1764504943.5891352,-4552.47,5673.645,-42769.17,-31645.215,-38857.32,-29923.65,-14386.815,1241.235
1764504943.5891352,-4557.42,5668.155,-42774.39,-31650.93,-38862.045,-29928.24,-14390.055,1236.87
1764504943.5891352,-4561.605,5663.385,-42779.205,-31656.06,-38867.13,-29933.415,-14393.565,1231.29
1764504943.5891352,-4557.33,5668.065,-42774.525,-31651.245,-38863.89,-29931.165,-14391.45,1234.98
1764504943.5891352,-4555.8,5669.145,-42773.445,-31650.345,-38863.62,-29930.58,-14390.955,1236.645
1764504943.5891352,-4560.03,5664.06,-42778.845,-31656.33,-38868.615,-29932.965,-14393.07,1233.405
1764504943.5891352,-4564.215,5660.145,-42781.995,-31660.38,-38871.765,-29936.7,-14395.68,1229.58
1764504943.5891352,-4563.45,5661.719999999999,-42780.555,-31659.795,-38871.045,-29936.295,-14395.545,1231.11
1764504943.5891352,-4558.455,5666.58,-42777.18,-31655.835,-38866.14,-29931.795,-14391.495,1236.735
1764504943.6389832,-4558.095,5666.804999999999,-42777.495,-31655.25,-38864.655,-29930.94,-14390.82,1237.14
1764504943.6389832,-4563.179999999999,5661.81,-42782.49,-31659.57,-38867.94,-29935.44,-14395.14,1231.47
1764504943.6389832,-4559.175,5666.804999999999,-42775.92,-31652.955,-38860.56,-29928.15,-14391.81,1235.655
1764504943.6389832,-4559.625,5665.995,-42774.615,-31651.065,-38858.625,-29926.395,-14392.62,1233.855
1764504943.6389832,-4562.19,5663.295,-42777.81,-31654.08,-38862.405,-29929.905,-14394.645,1230.57
1764504943.6400025,-4561.92,5663.655,-42777.765,-31654.35,-38862.945,-29929.815,-14393.835,1232.595
1764504943.6400025,-4557.51,5668.785,-42773.04,-31650.21,-38858.985,-29925.54,-14390.055,1237.005
1764504943.6400025,-4560.974999999999,5665.32,-42775.83,-31653.0,-38861.775,-29928.87,-14391.27,1233.27
1764504943.6400025,-4559.715,5665.815,-42775.02,-31651.2,-38859.705,-29926.305,-14390.595,1234.62
1764504943.6400025,-4556.474999999999,5669.955,-42771.69,-31647.015,-38856.51,-29922.57,-14388.165,1238.6699999999998
1764504943.6400025,-4556.835,5669.82,-42771.645,-31647.69,-38857.275,-29922.93,-14388.21,1237.275
1764504943.6400025,-4556.61,5669.91,-42771.015,-31647.915,-38857.05,-29922.66,-14387.715,1237.635
1764504943.6400025,-4556.295,5670.719999999999,-42771.24,-31648.59,-38857.905,-29924.415,-14386.995,1238.535
1764504943.6400025,-4561.514999999999,5665.185,-42776.82,-31654.665,-38864.52,-29932.155,-14390.91,1233.585
1764504943.6400025,-4560.66,5665.59,-42777.315,-31654.755,-38864.835,-29932.29,-14390.685,1234.26
1764504943.6400025,-4558.77,5667.705,-42775.83,-31653.675,-38863.89,-29931.615,-14389.65,1236.195
1764504943.6400025,-4556.52,5670.764999999999,-42772.5,-31651.11,-38861.505,-29929.635,-14388.12,1238.985
1764504943.6415102,-4558.635,5668.695,-42773.895,-31651.605,-38860.965,-29929.905,-14388.525,1236.555
1764504943.6415102,-4558.365,5668.965,-42773.67,-31651.74,-38860.335,-29929.14,-14387.67,1236.96
1764504943.6415102,-4559.085,5667.3,-42775.065,-31652.73,-38860.92,-29928.87,-14387.49,1237.185
1764504943.6415102,-4556.97,5670.63,-42771.285,-31648.905,-38858.31,-29926.08,-14385.555,1239.39
1764504943.6419375,-4558.095,5670.0,-42772.455,-31650.165,-38859.615,-29926.755,-14386.005,1238.4
1764504943.681748,-4553.415,5674.23,-42768.585,-31645.8,-38854.575,-29921.265,-14382.81,1243.8
1764504943.681748,-4555.44,5672.52,-42769.35,-31646.385,-38855.475,-29923.29,-14383.44,1241.775
1764504943.681748,-4557.285,5670.719999999999,-42771.915,-31648.275,-38857.905,-29925.135,-14383.98,1239.12
1764504943.681748,-4559.175,5669.099999999999,-42774.03,-31649.715,-38859.165,-29926.665,-14384.745,1237.005
1764504943.6827629,-4556.97,5672.16,-42771.24,-31647.015,-38856.33,-29923.155,-14382.81,1239.525
1764504943.6827629,-4560.12,5669.73,-42773.715,-31649.445,-38857.725,-29925.18,-14384.97,1237.005
1764504943.6827629,-4560.705,5668.92,-42774.39,-31650.12,-38859.39,-29926.08,-14386.365,1236.285
1764504943.6827629,-4562.145,5667.885,-42774.93,-31651.29,-38862.36,-29928.51,-14387.895,1234.98
1764504943.6827629,-4561.74,5667.929999999999,-42774.975,-31651.56,-38861.865,-29928.645,-14387.625,1235.07
1764504943.6827629,-4557.915,5671.71,-42772.275,-31648.86,-38858.715,-29925.315,-14385.195,1238.625
1764504943.6827629,-4557.554999999999,5671.8,-42772.23,-31649.04,-38859.165,-29925.945,-14384.97,1238.76
1764504943.6827629,-4562.099999999999,5666.76,-42776.505,-31653.315,-38863.755,-29930.265,-14388.57,1234.125
1764504943.6827629,-4558.77,5669.594999999999,-42773.13,-31650.66,-38860.695,-29927.07,-14386.095,1237.14
1764504943.6827629,-4560.435,5667.705,-42775.11,-31651.875,-38862.405,-29928.33,-14386.14,1235.97
1764504943.6827629,-4556.88,5671.26,-42771.78,-31647.285,-38858.445,-29923.875,-14383.53,1240.02
1764504943.6827629,-4556.565,5671.71,-42771.105,-31645.755,-38856.645,-29922.795,-14382.81,1240.9199999999998
1764504943.6827629,-4554.54,5673.42,-42769.485,-31644.54,-38855.205,-29920.41,-14381.55,1241.955
1764504943.6827629,-4556.429999999999,5672.385,-42770.835,-31647.105,-38857.185,-29922.57,-14382.81,1240.515
1764504943.6827629,-4559.175,5669.19,-42774.12,-31650.75,-38860.695,-29926.8,-14384.925,1237.68
1764504943.6827629,-4555.845,5671.53,-42771.375,-31647.51,-38858.58,-29924.19,-14382.63,1240.29
1764504943.6827629,-4546.53,5680.485,-42762.78,-31638.42,-38849.13,-29915.19,-14375.61,1248.975
1764504943.6827629,-4550.49,5676.705,-42765.84,-31641.255,-38851.785,-29918.205,-14378.94,1245.735
1764504943.6827629,-4555.349999999999,5672.52,-42770.295,-31645.17,-38855.745,-29921.355,-14381.82,1241.505
1764504943.6827629,-4557.195,5671.035,-42772.23,-31646.745,-38857.14,-29922.84,-14383.035,1239.75
1764504943.6827629,-4558.23,5669.82,-42772.545,-31648.32,-38858.04,-29924.73,-14385.195,1238.22
1764504943.6827629,-4553.415,5673.105,-42769.305,-31645.125,-38854.845,-29921.04,-14382.945,1242.63
1764504943.7293334,-4550.895,5675.49,-42766.965,-31642.245,-38853.27,-29919.105,-14381.46,1243.485
1764504943.7293334,-4550.67,5677.02,-42765.3,-31640.535,-38851.83,-29918.295,-14381.235,1244.52
1764504943.7293334,-4554.224999999999,5672.16,-42769.845,-31645.575,-38855.745,-29921.04,-14382.315,1241.82
1764504943.7293334,-4553.775,5672.205,-42771.105,-31647.195,-38855.7,-29917.755,-14381.19,1243.035
1764504943.7293334,-4553.685,5671.755,-42771.69,-31648.14,-38855.97,-29919.24,-14382.63,1242.45
1764504943.730373,-4558.95,5667.075,-42775.605,-31652.73,-38860.83,-29925.54,-14388.03,1236.96
1764504943.730373,-4554.99,5671.98,-42770.52,-31647.33,-38855.79,-29920.5,-14384.52,1241.73
1764504943.730373,-4552.514999999999,5673.96,-42768.405,-31645.215,-38853.585,-29919.33,-14382.855,1243.485
1764504943.730373,-4552.514999999999,5673.599999999999,-42769.575,-31645.755,-38855.655,-29920.905,-14384.115,1242.27
1764504943.730373,-4555.53,5671.125,-42772.23,-31648.23,-38858.49,-29923.29,-14386.32,1239.345
1764504943.7313466,-4552.02,5674.995,-42767.955,-31644.495,-38854.395,-29919.33,-14382.99,1243.26
1764504943.7313466,-4553.955,5672.79,-42768.63,-31646.295,-38855.07,-29920.005,-14384.115,1240.47
1764504943.7313466,-4550.4,5676.075,-42766.11,-31642.74,-38851.155,-29915.145,-14382.27,1243.1699999999998
1764504943.7313466,-4550.085,5675.58,-42766.785,-31642.83,-38849.895,-29912.85,-14381.145,1243.71
1764504943.7327762,-4549.679999999999,5675.94,-42766.335,-31642.605,-38850.795,-29914.425,-14380.74,1244.2949999999998
1764504943.7327762,-4550.985,5673.87,-42768.09,-31644.855,-38854.08,-29918.565,-14383.125,1242.315
1764504943.7327762,-4553.595,5670.855,-42772.455,-31648.5,-38858.895,-29924.775,-14386.05,1239.165
1764504943.7327762,-4553.595,5671.26,-42772.23,-31648.23,-38859.615,-29925.855,-14387.355,1239.075
1764504943.733789,-4553.73,5670.495,-42772.455,-31648.23,-38858.58,-29923.29,-14387.22,1238.85
1764504943.7341115,-4551.929999999999,5672.61,-42771.33,-31645.71,-38855.295,-29920.23,-14385.555,1240.47
1764504943.7341115,-4546.755,5677.83,-42764.94,-31639.005,-38849.49,-29914.515,-14382.27,1245.87
1764504943.7341115,-4544.955,5679.224999999999,-42763.095,-31637.565,-38847.33,-29912.265,-14380.38,1247.4
1764504943.778109,-4544.775,5679.045,-42762.645,-31637.61,-38847.015,-29910.825,-14379.93,1246.68
1764504943.778109,-4545.72,5677.605,-42764.355,-31639.275,-38850.075,-29912.13,-14380.155,1247.13
1764504943.778109,-4546.035,5677.065,-42766.74,-31641.3,-38851.74,-29914.065,-14380.2,1248.255
1764504943.778109,-4549.32,5673.735,-42770.565,-31645.53,-38855.88,-29918.925,-14384.115,1244.61
1764504943.778109,-4551.57,5671.26,-42772.005,-31648.77,-38860.29,-29924.64,-14386.095,1241.505
1764504943.778109,-4549.59,5672.925,-42769.305,-31647.645,-38859.525,-29925.585,-14384.07,1243.935
1764504943.778109,-4553.235,5669.865,-42773.58,-31650.795,-38862.405,-29928.645,-14386.995,1241.01
1764504943.778109,-4552.02,5671.71,-42772.86,-31648.77,-38859.39,-29924.46,-14386.365,1242.135
1764504943.778109,-4547.745,5676.389999999999,-42768.27,-31643.1,-38852.685,-29917.98,-14382.675,1246.41
1764504943.778109,-4549.32,5674.545,-42769.845,-31644.72,-38853.945,-29919.015,-14383.26,1244.61
1764504943.778109,-4545.135,5679.045,-42765.75,-31640.04,-38850.165,-29915.415,-14380.695,1248.075
1764504943.778109,-4541.895,5681.34,-42761.79,-31636.395,-38847.105,-29912.4,-14378.535,1250.46
1764504943.778109,-4541.22,5682.51,-42760.17,-31634.73,-38844.855,-29910.015,-14377.365,1251.99
1764504943.778109,-4544.639999999999,5679.36,-42763.77,-31638.285,-38848.185,-29912.22,-14379.21,1248.57
1764504943.778109,-4545.63,5678.325,-42765.39,-31640.715,-38849.715,-29915.595,-14380.065,1247.85
1764504943.778109,-4544.415,5679.315,-42764.535,-31640.085,-38849.805,-29917.17,-14380.2,1249.065
1764504943.778109,-4544.55,5679.135,-42763.77,-31639.95,-38849.895,-29917.845,-14380.695,1248.705
1764504943.778109,-4548.87,5674.365,-42767.865,-31644.63,-38853.99,-29920.095,-14383.71,1243.755
1764504943.778109,-4550.67,5671.98,-42770.79,-31646.97,-38854.935,-29918.34,-14383.575,1242.27
1764504943.7793014,-4548.465,5674.23,-42768.495,-31644.945,-38853.945,-29918.34,-14382.99,1244.745
1764504943.7793014,-4544.145,5679.0,-42764.4,-31640.175,-38849.895,-29915.28,-14379.57,1248.66
1764504943.7793014,-4545.315,5678.145,-42765.84,-31641.255,-38851.245,-29916.99,-14379.75,1247.535
1764504943.7793014,-4543.065,5680.395,-42763.635,-31638.735,-38849.58,-29916.0,-14378.355,1250.055
1764504943.7793014,-4548.69,5675.219999999999,-42769.215,-31644.855,-38855.835,-29922.57,-14382.765,1244.52
1764504943.823374,-4548.014999999999,5675.264999999999,-42768.405,-31643.955,-38854.935,-29921.355,-14382.135,1244.835
1764504943.8244095,-4545.764999999999,5677.065,-42766.605,-31641.39,-38851.695,-29918.205,-14380.965,1247.535
1764504943.8244095,-4549.32,5673.06,-42770.79,-31645.35,-38854.575,-29921.49,-14383.395,1243.26
1764504943.8244095,-4547.97,5674.185,-42768.855,-31643.37,-38851.47,-29918.475,-14382.405,1244.43
1764504943.8244095,-4543.47,5679.585,-42763.545,-31637.115,-38845.305,-29911.815,-14378.58,1248.705
1764504943.8244095,-4544.865,5678.594999999999,-42763.905,-31637.16,-38844.81,-29910.33,-14379.165,1247.265
1764504943.8244095,-4549.41,5673.735,-42768.09,-31641.93,-38849.04,-29913.795,-14382.18,1243.1699999999998
1764504943.8244095,-4548.195,5674.094999999999,-42767.64,-31641.435,-38848.995,-29913.93,-14381.46,1244.07
1764504943.8244095,-4543.56,5679.0,-42763.005,-31637.07,-38845.62,-29910.87,-14379.525,1248.345
1764504943.8244095,-4546.44,5676.75,-42765.615,-31641.3,-38849.85,-29916.945,-14382.45,1244.88
1764504943.8262956,-4548.465,5674.905,-42767.595,-31643.55,-38852.325,-29921.445,-14384.295,1242.585
1764504943.8262956,-4547.655,5675.535,-42766.245,-31642.02,-38849.715,-29917.26,-14382.855,1244.475
1764504943.8262956,-4551.66,5671.575,-42770.835,-31646.16,-38853.27,-29919.78,-14384.475,1240.695
1764504943.8262956,-4552.38,5670.855,-42772.185,-31648.05,-38856.105,-29920.815,-14385.6,1240.11
1764504943.8262956,-4550.445,5672.88,-42770.565,-31646.565,-38855.475,-29919.42,-14384.61,1241.46
1764504943.8262956,-4546.035,5677.11,-42766.56,-31641.66,-38850.345,-29914.92,-14381.865,1245.51
1764504943.8262956,-4544.955,5678.415,-42764.805,-31638.555,-38847.915,-29913.705,-14381.055,1246.005
1764504943.8262956,-4543.605,5680.889999999999,-42762.645,-31635.81,-38845.845,-29912.265,-14379.705,1246.5449999999998
1764504943.8262956,-4544.19,5681.16,-42762.87,-31636.62,-38846.115,-29914.245,-14380.155,1245.87
1764504943.8262956,-4550.445,5674.59,-42769.44,-31642.875,-38850.345,-29916.0,-14384.295,1240.65
1764504943.8262956,-4546.889999999999,5677.155,-42766.83,-31639.725,-38846.07,-29910.465,-14381.64,1243.8
1764504943.8262956,-4544.82,5679.405,-42764.49,-31637.43,-38844.81,-29910.555,-14381.1,1245.69
1764504943.870422,-4545.675,5678.82,-42764.445,-31637.565,-38844.81,-29909.97,-14381.235,1246.14
1764504943.870422,-4546.935,5677.38,-42765.705,-31639.365,-38847.105,-29912.085,-14381.955,1245.06
1764504943.870422,-4545.99,5678.82,-42764.895,-31638.96,-38847.375,-29912.355,-14380.155,1245.96
1764504943.870422,-4546.215,5678.415,-42765.795,-31639.41,-38848.5,-29913.345,-14379.525,1245.96
1764504943.871811,-4548.465,5676.389999999999,-42767.82,-31642.2,-38850.345,-29915.505,-14381.37,1245.06
1764504943.871811,-4548.105,5676.255,-42766.38,-31641.84,-38849.085,-29915.28,-14381.235,1244.655
1764504943.871811,-4548.06,5675.4,-42767.46,-31642.785,-38850.93,-29916.225,-14380.74,1243.935
1764504943.871811,-4555.44,5668.065,-42776.55,-31651.785,-38859.615,-29924.505,-14386.32,1237.455
1764504943.871811,-4554.585,5669.685,-42775.83,-31651.245,-38859.525,-29925.045,-14385.015,1238.22
1764504943.871811,-4553.145,5670.99,-42773.715,-31650.345,-38858.355,-29926.485,-14384.385,1239.255
1764504943.871811,-4549.77,5674.679999999999,-42769.53,-31645.98,-38853.315,-29921.22,-14382.0,1242.855
1764504943.871811,-4553.595,5671.53,-42772.455,-31648.41,-38855.565,-29923.56,-14385.33,1238.625
1764504943.871811,-4553.054999999999,5671.26,-42770.52,-31647.87,-38854.395,-29922.12,-14383.71,1238.805
1764504943.871811,-4550.22,5674.41,-42768.27,-31644.45,-38851.29,-29918.205,-14380.245,1243.08
1764504943.871811,-4547.385,5677.695,-42765.885,-31640.805,-38848.41,-29914.875,-14377.365,1246.77
1764504943.871811,-4543.56,5681.565,-42761.475,-31636.665,-38844.09,-29910.015,-14374.395,1250.325
1764504943.871811,-4543.56,5682.06,-42760.935,-31637.385,-38843.55,-29909.97,-14374.215,1249.56
1764504943.871811,-4548.69,5676.929999999999,-42766.245,-31643.955,-38850.03,-29916.315,-14378.22,1245.015
1764504943.871811,-4545.855,5679.63,-42763.77,-31640.715,-38847.42,-29912.58,-14376.06,1247.94
1764504943.871811,-4549.905,5676.255,-42767.055,-31643.505,-38851.335,-29915.595,-14378.67,1244.07
1764504943.871811,-4547.385,5678.955,-42764.67,-31640.175,-38847.78,-29912.58,-14376.195,1247.31
1764504943.871811,-4547.52,5679.179999999999,-42764.49,-31639.77,-38846.835,-29912.535,-14376.78,1247.13
1764504943.871811,-4546.889999999999,5679.224999999999,-42763.32,-31638.645,-38845.71,-29912.265,-14376.6,1247.715
1764504943.871811,-4549.32,5676.929999999999,-42765.93,-31641.345,-38848.68,-29915.19,-14378.67,1245.24
1764504943.915768,-4552.74,5673.42,-42770.07,-31645.62,-38853.63,-29919.735,-14381.73,1241.055
1764504943.915768,-4548.645,5677.38,-42766.38,-31642.515,-38850.795,-29916.81,-14379.03,1245.6
1764504943.915768,-4547.429999999999,5679.945,-42764.49,-31641.48,-38851.245,-29918.43,-14377.905,1247.13
1764504943.915768,-4548.69,5678.955,-42764.895,-31643.64,-38853.63,-29922.165,-14380.245,1245.06
1764504943.915768,-4549.365,5678.19,-42766.245,-31643.82,-38854.08,-29920.905,-14379.255,1245.33
1764504943.915768,-4553.19,5673.285,-42771.42,-31647.465,-38855.79,-29919.42,-14380.425,1242.81
1764504943.915768,-4553.73,5673.375,-42770.745,-31646.07,-38853.585,-29918.34,-14380.29,1242.36
1764504943.915768,-4554.495,5673.69,-42770.07,-31644.135,-38851.02,-29916.99,-14381.595,1241.685
1764504943.915768,-4555.755,5672.429999999999,-42772.05,-31645.485,-38852.01,-29916.45,-14382.315,1240.695
1764504943.915768,-4557.24,5670.405,-42774.075,-31649.04,-38856.285,-29920.23,-14382.675,1237.725
1764504943.915768,-4555.889999999999,5670.945,-42773.265,-31649.715,-38857.68,-29921.805,-14382.585,1238.445
1764504943.915768,-4554.179999999999,5672.88,-42771.96,-31649.355,-38857.995,-29922.57,-14382.315,1239.705
1764504943.915768,-4549.679999999999,5677.065,-42766.74,-31645.98,-38855.07,-29921.22,-14379.48,1243.8
1764504943.915768,-4552.92,5673.69,-42769.755,-31649.4,-38859.165,-29927.34,-14382.495,1240.02
1764504943.915768,-4549.455,5676.84,-42767.775,-31645.98,-38855.07,-29923.2,-14380.02,1242.99
1764504943.915768,-4550.985,5675.04,-42769.62,-31647.195,-38854.89,-29921.22,-14381.1,1241.595
1764504943.915768,-4553.685,5672.61,-42769.665,-31646.43,-38854.305,-29917.845,-14380.29,1239.7949999999998
1764504943.915768,-4556.34,5669.82,-42773.04,-31649.445,-38857.185,-29920.275,-14381.505,1237.095
1764504943.915768,-4555.08,5671.62,-42772.86,-31648.815,-38856.42,-29920.545,-14381.055,1238.085
1764504943.915768,-4554.855,5672.52,-42772.005,-31645.89,-38853.045,-29918.115,-14381.775,1238.085
1764504943.915768,-4553.639999999999,5673.554999999999,-42769.71,-31642.335,-38849.715,-29915.91,-14382.0,1239.21
1764504943.915768,-4550.445,5677.065,-42765.975,-31639.365,-38846.61,-29913.615,-14379.615,1241.775
1764504943.964207,-4546.215,5680.62,-42762.555,-31635.99,-38842.74,-29908.62,-14375.115,1245.87
1764504943.964207,-4553.73,5671.8,-42772.545,-31645.44,-38851.065,-29914.065,-14379.255,1240.47
1764504943.964207,-4550.715,5674.77,-42771.105,-31645.305,-38852.415,-29916.045,-14378.13,1243.62
1764504943.964207,-4549.545,5675.895,-42770.43,-31646.07,-38854.89,-29920.86,-14379.84,1243.755
1764504943.964207,-4550.49,5674.95,-42771.24,-31647.735,-38858.49,-29923.38,-14381.865,1242.27
1764504943.964207,-4553.01,5672.7,-42772.32,-31649.58,-38861.37,-29926.89,-14384.205,1239.39
1764504943.964207,-4548.33,5676.885,-42768.27,-31645.215,-38855.97,-29922.48,-14380.92,1244.475
1764504943.964207,-4548.105,5677.335,-42767.46,-31643.055,-38853.0,-29920.815,-14381.46,1244.07
1764504943.964207,-4550.895,5675.175,-42768.99,-31643.955,-38853.135,-29919.78,-14383.62,1241.01
1764504943.964207,-4547.474999999999,5677.965,-42766.29,-31640.94,-38848.77,-29913.3,-14379.975,1244.88
1764504943.964207,-4547.655,5677.02,-42767.64,-31641.165,-38847.825,-29909.07,-14378.175,1245.15
1764504943.964207,-4548.51,5676.705,-42768.315,-31641.03,-38847.42,-29909.115,-14379.885,1243.8
1764504943.964207,-4548.96,5675.445,-42768.315,-31639.905,-38846.07,-29907.405,-14380.245,1242.855
1764504943.964207,-4549.995,5673.87,-42768.99,-31639.23,-38844.135,-29907.18,-14381.28,1241.19
1764504943.964207,-4551.435,5672.88,-42769.8,-31640.58,-38845.395,-29909.205,-14383.08,1239.48
1764504943.964207,-4544.865,5679.63,-42763.995,-31636.485,-38844.99,-29912.04,-14381.775,1245.105
1764504943.964207,-4541.895,5681.25,-42762.105,-31638.96,-38852.37,-29922.84,-14382.72,1246.905
1764504943.964207,-4545.675,5678.099999999999,-42766.11,-31646.88,-38864.925,-29938.365,-14388.75,1242.405
1764504943.964207,-4545.855,5678.82,-42766.47,-31648.815,-38869.65,-29945.79,-14391.405,1241.82
1764504943.9652183,-4543.605,5680.62,-42764.895,-31647.285,-38869.155,-29945.655,-14390.37,1243.53
1764504943.9652183,-4536.72,5686.605,-42759.45,-31642.425,-38866.005,-29943.045,-14385.375,1250.19
1764504943.9652183,-4537.62,5685.12,-42760.485,-31645.215,-38870.055,-29948.31,-14387.715,1250.37
1764504943.9652183,-4539.645,5682.42,-42763.995,-31648.59,-38871.36,-29947.68,-14389.74,1248.435
1764504943.9652183,-4541.22,5680.215,-42764.625,-31645.665,-38863.71,-29939.13,-14388.39,1247.13
1764504944.0131772,-4546.665,5673.78,-42770.295,-31646.97,-38858.715,-29928.15,-14386.815,1243.98
1764504944.0131772,-4543.74,5676.165,-42769.53,-31646.16,-38854.755,-29919.555,-14382.45,1247.22
1764504944.0131772,-4542.389999999999,5677.469999999999,-42768.405,-31643.775,-38852.19,-29918.79,-14381.73,1248.255
1764504944.0131772,-4544.505,5676.389999999999,-42769.44,-31642.965,-38849.445,-29916.945,-14382.18,1246.5449999999998
1764504944.0131772,-4551.165,5670.36,-42774.435,-31644.945,-38848.14,-29912.49,-14384.79,1241.01
1764504944.014176,-4552.83,5667.48,-42775.47,-31642.155,-38840.31,-29898.18,-14381.955,1240.83
1764504944.014176,-4548.645,5671.575,-42771.015,-31636.845,-38833.155,-29887.965,-14376.42,1245.645
1764504944.014176,-4550.264999999999,5671.17,-42771.645,-31638.24,-38835.09,-29890.26,-14378.445,1242.63
1764504944.014176,-4551.21,5671.26,-42772.41,-31640.355,-38838.87,-29895.615,-14380.155,1240.47
1764504944.014176,-4546.575,5675.58,-42767.955,-31636.215,-38835.27,-29892.465,-14377.95,1244.385
1764504944.014176,-4546.53,5675.985,-42767.505,-31635.765,-38835.45,-29893.32,-14377.815,1244.025
1764504944.014176,-4550.895,5671.62,-42772.23,-31641.12,-38842.515,-29901.105,-14381.73,1239.21
1764504944.014176,-4550.04,5672.474999999999,-42771.825,-31642.605,-38845.755,-29904.93,-14381.505,1240.605
1764504944.014176,-4545.045,5676.12,-42769.17,-31642.695,-38847.645,-29907.99,-14379.84,1244.835
1764504944.014176,-4548.33,5673.06,-42773.31,-31648.275,-38855.07,-29917.62,-14383.08,1240.965
1764504944.014176,-4547.565,5674.005,-42771.375,-31647.285,-38855.79,-29920.365,-14383.305,1242.27
1764504944.014176,-4542.974999999999,5678.73,-42766.695,-31642.065,-38850.975,-29917.62,-14381.775,1246.005
1764504944.014176,-4545.855,5675.625,-42769.17,-31644.45,-38852.64,-29920.725,-14385.24,1243.26
1764504944.014176,-4549.59,5671.575,-42772.815,-31647.96,-38855.16,-29922.705,-14388.345,1239.435
1764504944.014176,-4549.905,5671.53,-42773.985,-31646.655,-38851.965,-29919.195,-14387.895,1240.38
1764504944.014176,-4552.155,5670.27,-42774.165,-31646.79,-38851.605,-29918.79,-14388.345,1238.445
1764504944.014176,-4550.49,5671.62,-42772.455,-31644.99,-38850.48,-29915.055,-14386.86,1239.7949999999998
1764504944.014176,-4554.0,5668.56,-42776.37,-31648.77,-38854.17,-29918.205,-14389.155,1236.6
1764504944.014176,-4553.505,5668.695,-42776.37,-31649.805,-38854.935,-29918.88,-14389.695,1236.915
1764504944.0582995,-4548.69,5673.195,-42772.05,-31644.855,-38850.795,-29913.975,-14386.41,1240.875
1764504944.0582995,-4550.804999999999,5671.485,-42772.95,-31645.44,-38852.1,-29913.885,-14387.04,1238.895
1764504944.0582995,-4547.07,5675.849999999999,-42768.0,-31641.345,-38847.06,-29909.25,-14384.115,1242.225
1764504944.0593262,-4551.165,5671.304999999999,-42771.87,-31645.26,-38852.28,-29915.955,-14387.85,1237.68
1764504944.0593262,-4548.78,5673.554999999999,-42770.205,-31643.505,-38851.11,-29915.55,-14386.68,1240.11
1764504944.0593262,-4543.605,5678.37,-42765.165,-31639.545,-38847.42,-29913.075,-14383.53,1243.98
1764504944.0593262,-4546.17,5674.5,-42769.755,-31643.37,-38850.12,-29912.04,-14382.99,1241.955
1764504944.0593262,-4547.565,5672.7,-42771.42,-31645.44,-38854.08,-29916.135,-14384.79,1240.605
1764504944.0593262,-4549.455,5671.755,-42772.59,-31647.87,-38857.455,-29920.545,-14387.355,1237.815
1764504944.0593262,-4549.545,5671.98,-42772.725,-31647.15,-38855.97,-29920.14,-14388.255,1237.68
1764504944.0593262,-4548.915,5673.33,-42772.095,-31645.935,-38853.54,-29917.89,-14387.76,1239.21
1764504944.0593262,-4544.19,5677.38,-42767.19,-31639.905,-38845.845,-29909.43,-14383.17,1244.385
1764504944.0593262,-4544.595,5677.065,-42766.965,-31639.455,-38844.945,-29908.125,-14382.855,1243.845
1764504944.0593262,-4550.67,5670.99,-42772.995,-31645.53,-38851.605,-29915.505,-14389.38,1236.195
1764504944.0593262,-4550.94,5671.575,-42772.905,-31645.62,-38851.74,-29915.82,-14390.28,1235.2949999999998
1764504944.0593262,-4551.345,5670.63,-42774.345,-31647.24,-38853.855,-29918.16,-14389.92,1235.745
1764504944.0593262,-4551.389999999999,5669.46,-42775.875,-31650.525,-38857.095,-29919.96,-14390.19,1235.655
1764504944.0593262,-4552.47,5668.065,-42776.505,-31652.145,-38858.67,-29922.435,-14390.82,1234.935
1764504944.0593262,-4551.57,5669.19,-42776.235,-31651.695,-38858.355,-29922.795,-14390.64,1234.755
1764504944.0593262,-4550.264999999999,5670.405,-42775.74,-31651.56,-38858.355,-29922.255,-14390.955,1235.655
1764504944.0593262,-4549.05,5672.025,-42774.48,-31649.625,-38856.69,-29919.645,-14389.74,1237.005
1764504944.0593262,-4547.205,5674.094999999999,-42771.87,-31646.655,-38853.72,-29916.72,-14387.355,1239.03
1764504944.0593262,-4543.155,5677.92,-42767.415,-31643.505,-38851.29,-29914.47,-14385.42,1242.63
1764504944.0593262,-4544.639999999999,5675.804999999999,-42769.665,-31645.665,-38853.18,-29916.765,-14388.21,1240.785
1764504944.106668,-4544.595,5675.445,-42769.935,-31645.845,-38854.08,-29917.935,-14388.345,1239.66
1764504944.106668,-4547.16,5673.51,-42772.545,-31649.49,-38857.995,-29922.435,-14390.28,1236.87
1764504944.106668,-4543.245,5676.929999999999,-42769.89,-31646.07,-38853.945,-29918.34,-14386.455,1240.29
1764504944.106668,-4543.155,5677.335,-42768.765,-31644.09,-38851.965,-29916.405,-14385.465,1240.695
1764504944.106668,-4543.875,5677.335,-42768.63,-31644.495,-38853.09,-29917.845,-14385.69,1240.605
1764504944.106668,-4546.845,5675.13,-42770.925,-31646.34,-38855.025,-29921.355,-14387.805,1237.5
1764504944.106668,-4545.179999999999,5676.12,-42769.665,-31644.45,-38851.2,-29917.89,-14387.805,1238.31
1764504944.106668,-4542.03,5679.27,-42766.92,-31640.085,-38844.18,-29909.43,-14383.71,1242.36
1764504944.106668,-4540.275,5680.844999999999,-42765.615,-31637.925,-38842.605,-29908.89,-14381.955,1244.385
1764504944.107681,-4541.175,5678.775,-42767.01,-31640.355,-38847.33,-29914.515,-14385.105,1242.27
1764504944.107681,-4544.325,5675.535,-42770.835,-31645.305,-38853.945,-29920.725,-14387.715,1238.535
1764504944.107681,-4542.48,5677.335,-42769.305,-31644.18,-38853.09,-29919.42,-14386.995,1239.345
1764504944.107681,-4543.965,5675.804999999999,-42771.42,-31646.205,-38854.215,-29920.05,-14388.345,1237.185
1764504944.107681,-4543.875,5676.12,-42770.745,-31644.9,-38852.1,-29917.44,-14388.75,1237.77
1764504944.107681,-4541.625,5678.505,-42767.595,-31639.995,-38847.015,-29913.255,-14386.905,1239.705
1764504944.107681,-4539.51,5681.385,-42764.895,-31636.08,-38842.605,-29910.24,-14385.105,1242.27
1764504944.107681,-4542.075,5678.145,-42768.135,-31640.265,-38846.79,-29913.75,-14387.715,1239.615
1764504944.107681,-4538.16,5681.835,-42764.265,-31638.015,-38844.315,-29911.005,-14385.33,1243.26
1764504944.107681,-4536.585,5684.31,-42761.16,-31636.08,-38844.675,-29912.985,-14383.44,1244.52
1764504944.107681,-4537.53,5683.635,-42762.78,-31638.15,-38848.68,-29917.665,-14384.565,1243.935
1764504944.107681,-4538.79,5682.42,-42764.985,-31639.995,-38851.065,-29921.31,-14385.195,1243.62
1764504944.107681,-4543.83,5676.84,-42770.07,-31645.53,-38856.69,-29927.655,-14389.065,1239.075
1764504944.107681,-4542.705,5678.594999999999,-42767.865,-31644.54,-38854.17,-29923.335,-14387.04,1240.83
1764504944.107681,-4543.02,5678.28,-42768.855,-31644.945,-38854.35,-29922.39,-14385.15,1240.29
1764504944.1506355,-4538.295,5682.51,-42765.66,-31641.615,-38851.065,-29916.72,-14380.875,1244.61
1764504944.1506355,-4538.52,5682.42,-42765.705,-31640.805,-38847.6,-29911.32,-14379.48,1244.7
1764504944.1506355,-4538.97,5681.52,-42765.795,-31639.68,-38844.99,-29908.08,-14379.48,1244.25
1764504944.1506355,-4538.565,5682.599999999999,-42764.715,-31636.935,-38843.415,-29907.0,-14379.3,1244.52
1764504944.1506355,-4537.755,5683.77,-42763.905,-31636.17,-38843.145,-29906.1,-14379.12,1245.78
1764504944.1506355,-4540.185,5681.429999999999,-42765.03,-31637.745,-38843.19,-29905.56,-14380.515,1243.1699999999998
1764504944.1506355,-4542.03,5678.775,-42767.055,-31639.185,-38841.075,-29898.945,-14378.85,1242.495
1764504944.1506355,-4542.84,5678.685,-42768.09,-31640.175,-38841.165,-29898.945,-14378.85,1242.0449999999998
1764504944.1516583,-4544.955,5676.705,-42770.385,-31642.605,-38845.395,-29905.29,-14380.92,1238.535
1764504944.1516583,-4543.83,5678.145,-42768.855,-31642.155,-38845.89,-29907.27,-14379.39,1239.66
1764504944.1516583,-4542.615,5680.485,-42767.415,-31641.66,-38846.655,-29908.845,-14379.03,1242.18
1764504944.1516583,-4539.195,5684.13,-42764.49,-31638.465,-38843.82,-29906.595,-14376.915,1246.365
1764504944.152817,-4537.575,5684.849999999999,-42763.14,-31638.645,-38844.225,-29907.63,-14375.61,1246.905
1764504944.152817,-4539.554999999999,5682.195,-42764.85,-31641.435,-38847.87,-29912.4,-14377.365,1244.79
1764504944.152817,-4537.035,5686.02,-42760.935,-31636.17,-38843.55,-29908.08,-14374.935,1248.435
1764504944.153819,-4541.22,5683.005,-42764.49,-31639.68,-38846.565,-29910.06,-14378.13,1244.43
1764504944.153819,-4543.695,5680.62,-42766.965,-31641.255,-38846.88,-29909.43,-14379.57,1241.685
1764504944.153819,-4541.49,5683.094999999999,-42763.32,-31636.71,-38842.605,-29904.705,-14378.265,1243.935
1764504944.153819,-4545.72,5678.775,-42768.405,-31641.12,-38846.115,-29907.72,-14379.3,1240.11
1764504944.153819,-4545.9,5678.82,-42767.865,-31640.49,-38845.665,-29907.18,-14378.4,1240.83
1764504944.153819,-4541.445,5684.49,-42761.97,-31635.36,-38840.805,-29903.355,-14375.34,1244.7
1764504944.153819,-4543.02,5683.32,-42761.745,-31635.855,-38841.57,-29905.29,-14375.565,1243.98
1764504944.2006104,-4545.945,5679.585,-42765.705,-31640.895,-38848.095,-29910.69,-14376.87,1241.82
1764504944.2006104,-4546.62,5679.0,-42768.0,-31644.135,-38851.56,-29914.2,-14377.725,1242.18
1764504944.2006104,-4546.935,5679.09,-42767.73,-31643.55,-38851.56,-29914.02,-14378.265,1241.91
1764504944.2006104,-4548.78,5677.425,-42769.485,-31644.495,-38853.225,-29916.855,-14379.705,1239.48
1764504944.2006104,-4549.365,5677.92,-42769.98,-31644.315,-38852.415,-29916.945,-14379.48,1238.805
1764504944.2006104,-4551.389999999999,5676.21,-42771.015,-31645.665,-38852.505,-29917.44,-14380.515,1236.78
1764504944.2006104,-4554.315,5673.195,-42773.355,-31647.555,-38853.18,-29918.79,-14383.305,1233.495
1764504944.2006104,-4551.84,5676.48,-42770.835,-31643.865,-38850.03,-29915.685,-14381.37,1236.555
1764504944.2006104,-4555.665,5673.06,-42773.67,-31646.25,-38852.775,-29918.7,-14382.63,1234.035
1764504944.2006104,-4558.095,5671.17,-42774.93,-31648.32,-38854.35,-29920.455,-14383.845,1232.19
1764504944.2006104,-4557.554999999999,5671.8,-42775.515,-31648.545,-38854.035,-29917.845,-14382.45,1232.955
1764504944.2006104,-4554.72,5674.635,-42772.68,-31646.25,-38850.975,-29913.84,-14380.38,1235.52
1764504944.2006104,-4554.36,5673.825,-42772.995,-31646.565,-38851.245,-29913.39,-14380.155,1235.43
1764504944.2016077,-4557.105,5671.53,-42775.425,-31648.14,-38853.18,-29915.505,-14381.595,1233.855
1764504944.2016077,-4558.995,5671.62,-42775.29,-31648.365,-38853.855,-29917.17,-14382.36,1232.73
1764504944.2016077,-4559.94,5670.9,-42775.785,-31649.4,-38856.24,-29920.77,-14383.62,1230.66
1764504944.2016077,-4555.935,5674.545,-42772.455,-31646.34,-38853.405,-29917.08,-14380.605,1235.205
1764504944.2016077,-4558.77,5671.485,-42776.19,-31650.165,-38855.655,-29916.855,-14381.19,1233.18
1764504944.2016077,-4561.155,5669.01,-42778.89,-31653.63,-38859.57,-29922.39,-14383.935,1229.715
1764504944.2016077,-4557.825,5672.745,-42774.57,-31650.885,-38856.825,-29920.86,-14381.865,1233.81
1764504944.2016077,-4560.075,5671.485,-42775.74,-31652.73,-38857.995,-29922.39,-14382.495,1231.83
1764504944.2016077,-4556.429999999999,5675.849999999999,-42772.095,-31648.41,-38854.62,-29919.105,-14379.795,1235.745
1764504944.2016077,-4556.88,5674.41,-42772.59,-31648.86,-38855.655,-29920.59,-14380.245,1234.98
1764504944.2016077,-4562.325,5669.054999999999,-42777.99,-31653.0,-38859.885,-29924.325,-14384.43,1230.255
1764504944.2497368,-4560.389999999999,5670.585,-42777.09,-31650.345,-38856.06,-29917.71,-14382.315,1231.875
1764504944.2507398,-4563.495,5667.75,-42779.34,-31652.1,-38856.915,-29918.835,-14383.575,1229.22
1764504944.2507398,-4562.099999999999,5669.639999999999,-42777.09,-31650.21,-38855.61,-29917.215,-14382.54,1230.66
1764504944.2507398,-4557.69,5674.41,-42772.815,-31645.665,-38851.065,-29912.49,-14379.975,1235.43
1764504944.2507398,-4557.554999999999,5674.545,-42771.87,-31644.855,-38849.715,-29911.23,-14379.39,1235.52
1764504944.2507398,-4559.355,5672.79,-42773.985,-31646.745,-38851.155,-29911.815,-14380.425,1234.53
1764504944.2507398,-4558.77,5673.42,-42772.815,-31645.98,-38850.57,-29911.23,-14379.84,1235.34
1764504944.2507398,-4556.52,5674.815,-42770.52,-31644.405,-38849.58,-29911.185,-14379.075,1237.005
1764504944.2507398,-4554.945,5675.175,-42770.97,-31644.495,-38850.255,-29911.14,-14378.58,1237.23
1764504944.2507398,-4558.995,5669.685,-42776.01,-31648.905,-38855.7,-29916.99,-14383.215,1233.405
1764504944.2507398,-4555.26,5673.599999999999,-42772.365,-31644.675,-38852.055,-29913.975,-14380.74,1237.455
1764504944.2507398,-4558.905,5671.304999999999,-42775.335,-31647.105,-38853.765,-29916.54,-14382.72,1233.945
1764504944.2507398,-4558.5,5672.34,-42774.705,-31646.34,-38853.09,-29915.325,-14383.08,1233.9
1764504944.2507398,-4556.115,5674.77,-42772.14,-31643.955,-38850.795,-29913.12,-14382.63,1235.61
1764504944.2507398,-4551.03,5679.585,-42767.19,-31639.545,-38845.8,-29907.99,-14378.94,1240.965
1764504944.2507398,-4550.445,5679.945,-42767.28,-31639.77,-38846.7,-29908.755,-14377.41,1241.82
1764504944.2507398,-4553.325,5676.795,-42770.88,-31644.225,-38852.595,-29914.605,-14379.705,1237.86
1764504944.2507398,-4549.185,5680.98,-42766.335,-31640.31,-38849.76,-29913.255,-14378.355,1241.28
1764504944.2507398,-4548.554999999999,5681.565,-42766.74,-31640.805,-38849.31,-29912.265,-14377.365,1243.665
1764504944.2507398,-4551.84,5677.2,-42772.23,-31646.115,-38853.36,-29914.965,-14379.435,1241.46
1764504944.2507398,-4554.72,5673.87,-42776.37,-31649.31,-38857.185,-29919.105,-14381.55,1238.805
1764504944.2507398,-4551.885,5676.12,-42773.985,-31647.015,-38855.43,-29917.395,-14381.505,1240.785
1764504944.2507398,-4553.865,5674.185,-42775.47,-31647.915,-38855.79,-29917.53,-14382.63,1237.95
1764504944.2507398,-4552.965,5675.4,-42772.995,-31646.115,-38853.945,-29915.82,-14381.865,1238.625
1764504944.2947588,-4549.365,5678.82,-42769.395,-31642.245,-38850.57,-29912.31,-14379.615,1242.36
1764504944.2947588,-4551.255,5676.84,-42771.78,-31642.65,-38851.11,-29912.4,-14379.795,1241.46
1764504944.2947588,-4548.645,5679.54,-42768.675,-31639.995,-38847.645,-29909.115,-14378.22,1243.845
1764504944.2947588,-4549.23,5679.45,-42768.945,-31641.165,-38849.085,-29910.06,-14378.76,1242.765
1764504944.2947588,-4549.995,5677.965,-42770.34,-31643.19,-38852.415,-29913.03,-14379.48,1241.01
1764504944.2947588,-4555.889999999999,5672.61,-42775.425,-31648.545,-38857.545,-29918.61,-14383.89,1235.25
1764504944.2947588,-4552.155,5677.155,-42770.88,-31644.225,-38852.595,-29915.1,-14381.235,1238.895
1764504944.2947588,-4551.795,5676.66,-42770.88,-31643.955,-38852.46,-29914.74,-14380.92,1239.93
1764504944.295407,-4555.17,5674.139999999999,-42773.58,-31645.44,-38853.315,-29916.36,-14382.63,1237.68
1764504944.295407,-4551.345,5677.875,-42769.89,-31641.3,-38848.77,-29911.23,-14379.975,1240.605
1764504944.295407,-4550.94,5677.425,-42769.845,-31640.67,-38847.87,-29911.005,-14379.84,1240.9199999999998
1764504944.295407,-4554.945,5673.735,-42773.4,-31644.495,-38851.11,-29913.885,-14382.72,1236.825
1764504944.295407,-4553.054999999999,5676.255,-42772.185,-31643.145,-38849.625,-29911.77,-14381.73,1239.255
1764504944.295407,-4554.495,5674.77,-42773.715,-31645.125,-38850.705,-29913.03,-14382.945,1238.04
1764504944.295407,-4549.5,5680.035,-42768.135,-31640.13,-38846.295,-29908.71,-14379.705,1242.72
1764504944.295407,-4549.815,5679.45,-42769.215,-31640.805,-38848.05,-29909.52,-14380.02,1242.585
1764504944.295407,-4550.715,5677.695,-42771.33,-31641.93,-38848.86,-29909.34,-14379.705,1242.0
1764504944.295407,-4553.82,5674.23,-42775.38,-31645.215,-38851.74,-29911.815,-14380.515,1239.39
1764504944.295407,-4549.185,5677.83,-42771.375,-31641.795,-38849.355,-29909.655,-14377.905,1242.63
1764504944.295407,-4550.264999999999,5676.974999999999,-42771.915,-31643.595,-38851.47,-29912.04,-14379.03,1241.46
1764504944.295407,-4551.345,5676.705,-42772.545,-31643.865,-38851.83,-29912.13,-14380.02,1240.605
1764504944.295407,-4552.38,5674.815,-42773.31,-31644.54,-38852.91,-29912.535,-14380.335,1239.57
1764504944.295407,-4554.179999999999,5673.105,-42775.2,-31645.665,-38853.63,-29913.795,-14381.37,1237.635
1764504944.295407,-4549.95,5677.875,-42770.88,-31640.13,-38847.24,-29908.35,-14378.175,1241.595
1764504944.339674,-4549.139999999999,5679.045,-42770.565,-31639.05,-38845.305,-29906.145,-14377.14,1242.72
1764504944.3402178,-4553.46,5674.32,-42774.21,-31643.28,-38849.67,-29909.925,-14380.155,1238.355
1764504944.3402178,-4549.05,5678.46,-42769.935,-31639.05,-38846.34,-29906.595,-14377.05,1242.225
1764504944.3402178,-4552.74,5675.264999999999,-42773.175,-31642.92,-38850.795,-29911.545,-14380.92,1238.13
1764504944.3402178,-4552.875,5674.185,-42773.985,-31644.09,-38852.64,-29914.2,-14382.675,1237.815
1764504944.3402178,-4548.42,5678.73,-42769.89,-31641.255,-38851.92,-29915.28,-14379.795,1241.415
1764504944.3402178,-4549.95,5678.28,-42771.195,-31643.19,-38854.08,-29918.34,-14381.145,1239.12
1764504944.3402178,-4549.365,5678.73,-42770.295,-31643.37,-38855.115,-29918.34,-14380.92,1239.255
1764504944.3402178,-4548.735,5678.145,-42770.88,-31644.18,-38854.53,-29914.515,-14379.255,1241.415
1764504944.3402178,-4551.165,5674.95,-42773.895,-31646.655,-38857.275,-29918.16,-14380.65,1239.21
1764504944.3402178,-4548.24,5678.415,-42771.285,-31642.605,-38851.965,-29914.155,-14379.03,1242.0449999999998
1764504944.3402178,-4552.695,5674.41,-42775.47,-31645.44,-38852.19,-29912.49,-14381.73,1237.5449999999998
1764504944.3402178,-4556.429999999999,5670.224999999999,-42779.07,-31648.185,-38852.685,-29912.895,-14383.08,1233.585
1764504944.3402178,-4556.295,5669.594999999999,-42778.71,-31647.285,-38851.425,-29911.005,-14382.135,1233.63
1764504944.3402178,-4552.92,5673.285,-42775.83,-31642.605,-38847.78,-29906.595,-14379.03,1237.14
1764504944.3402178,-4547.835,5678.73,-42769.89,-31639.005,-38844.54,-29903.49,-14374.98,1242.495
1764504944.3402178,-4547.745,5678.639999999999,-42770.43,-31640.67,-38847.645,-29908.08,-14375.655,1242.405
1764504944.3402178,-4551.929999999999,5674.724999999999,-42774.57,-31644.45,-38852.37,-29913.615,-14379.615,1239.12
1764504944.3402178,-4550.264999999999,5677.2,-42772.185,-31641.39,-38849.58,-29911.275,-14378.31,1241.055
1764504944.3402178,-4545.54,5682.06,-42767.325,-31635.855,-38844.18,-29906.055,-14374.89,1246.185
1764504944.3402178,-4545.315,5680.935,-42768.09,-31637.835,-38847.06,-29907.405,-14374.08,1246.185
1764504944.3402178,-4550.04,5675.49,-42774.165,-31645.215,-38854.26,-29914.245,-14378.445,1240.56
1764504944.387672,-4547.429999999999,5678.55,-42770.745,-31642.83,-38851.425,-29911.23,-14376.96,1242.495
1764504944.387672,-4544.37,5682.465,-42766.335,-31638.465,-38846.88,-29906.595,-14374.53,1246.86
1764504944.387672,-4547.61,5679.179999999999,-42768.99,-31640.355,-38848.005,-29907.63,-14376.69,1243.53
1764504944.387672,-4546.53,5680.304999999999,-42767.19,-31637.16,-38844.54,-29903.715,-14375.88,1244.43
1764504944.387672,-4546.8,5679.63,-42767.145,-31636.755,-38844.72,-29904.075,-14376.51,1243.8
1764504944.3890655,-4547.52,5679.63,-42767.37,-31636.98,-38844.18,-29904.03,-14377.005,1243.71
1764504944.3890655,-4547.565,5679.719999999999,-42766.74,-31636.89,-38843.55,-29904.075,-14376.69,1243.53
1764504944.3890655,-4547.429999999999,5679.719999999999,-42767.145,-31636.98,-38843.415,-29903.805,-14377.14,1243.53
1764504944.3890655,-4546.395,5681.34,-42766.83,-31635.855,-38843.64,-29904.345,-14377.095,1244.115
1764504944.3890655,-4548.15,5680.035,-42768.72,-31638.06,-38846.52,-29907.99,-14379.255,1241.505
1764504944.3890655,-4550.76,5677.965,-42770.97,-31641.435,-38849.985,-29912.895,-14381.82,1238.445
1764504944.3890655,-4550.849999999999,5677.74,-42772.095,-31642.38,-38852.1,-29914.65,-14382.045,1239.12
1764504944.3890655,-4550.4,5677.65,-42771.87,-31642.56,-38851.605,-29912.76,-14380.605,1241.01
1764504944.3890655,-4544.415,5684.445,-42765.03,-31635.63,-38844.045,-29907.405,-14376.96,1246.5449999999998
1764504944.3890655,-4542.165,5686.74,-42761.745,-31631.445,-38839.635,-29903.445,-14374.935,1248.48
1764504944.3890655,-4545.045,5683.724999999999,-42764.085,-31633.515,-38841.03,-29904.12,-14376.42,1244.7
1764504944.3890655,-4542.255,5687.01,-42761.745,-31630.905,-38837.88,-29898.9,-14373.495,1248.615
1764504944.3890655,-4543.74,5685.705,-42763.5,-31633.2,-38840.535,-29899.53,-14373.45,1248.12
1764504944.3890655,-4545.179999999999,5683.86,-42766.02,-31635.9,-38843.37,-29900.835,-14372.82,1248.21
1764504944.3890655,-4545.179999999999,5683.59,-42766.47,-31636.845,-38844.72,-29904.345,-14374.08,1247.94
1764504944.3890655,-4544.639999999999,5683.86,-42766.83,-31638.33,-38846.07,-29906.505,-14374.17,1248.21
1764504944.3890655,-4545.27,5683.365,-42767.37,-31639.095,-38847.78,-29908.395,-14375.295,1247.76
1764504944.3890655,-4545.72,5682.42,-42767.64,-31640.13,-38849.31,-29909.52,-14375.115,1247.985
1764504944.3890655,-4546.08,5682.105,-42768.27,-31641.975,-38851.695,-29912.49,-14375.655,1247.085
1764504944.4334347,-4548.69,5679.99,-42771.24,-31645.62,-38856.06,-29917.305,-14378.985,1244.115
1764504944.4334347,-4548.42,5679.81,-42771.33,-31646.07,-38857.59,-29919.195,-14379.48,1243.35
1764504944.4334347,-4546.44,5681.429999999999,-42769.125,-31643.865,-38854.89,-29917.215,-14378.445,1244.25
1764504944.4334347,-4542.255,5685.795,-42763.815,-31637.565,-38848.995,-29911.365,-14375.025,1248.48
1764504944.4334347,-4542.075,5685.48,-42763.95,-31635.99,-38846.25,-29908.395,-14373.225,1249.56
1764504944.4334347,-4544.91,5682.51,-42766.47,-31636.62,-38844.855,-29906.505,-14375.655,1247.265
1764504944.4334347,-4546.44,5682.51,-42766.515,-31636.08,-38842.515,-29902.23,-14375.43,1246.095
1764504944.4334347,-4549.815,5679.135,-42770.43,-31640.13,-38845.305,-29902.365,-14376.645,1241.505
1764504944.4334347,-4548.51,5680.485,-42768.27,-31639.41,-38846.745,-29904.705,-14376.78,1242.45
1764504944.4334347,-4546.395,5681.969999999999,-42767.55,-31641.39,-38850.795,-29909.565,-14377.095,1245.33
1764504944.4334347,-4542.21,5686.02,-42764.265,-31639.905,-38851.605,-29911.995,-14375.565,1249.38
1764504944.4334347,-4542.075,5686.83,-42763.545,-31639.725,-38852.73,-29914.47,-14375.16,1250.145
1764504944.4334347,-4544.19,5685.12,-42764.94,-31639.77,-38851.47,-29915.415,-14376.645,1248.21
1764504944.4334347,-4546.62,5681.745,-42766.74,-31639.68,-38849.445,-29915.37,-14377.545,1246.095
1764504944.4334347,-4544.775,5682.825,-42764.085,-31635.585,-38844.63,-29909.655,-14376.015,1247.175
1764504944.4334347,-4551.389999999999,5676.57,-42769.935,-31640.265,-38847.465,-29910.105,-14379.84,1241.37
1764504944.4334347,-4550.175,5677.92,-42768.675,-31637.88,-38843.775,-29905.155,-14378.445,1242.405
1764504944.4334347,-4547.295,5681.969999999999,-42765.795,-31635.675,-38841.39,-29899.575,-14376.15,1245.105
1764504944.4334347,-4550.355,5679.405,-42768.405,-31639.14,-38845.755,-29904.525,-14377.5,1242.45
1764504944.4334347,-4548.465,5680.935,-42766.515,-31638.015,-38846.115,-29907.675,-14377.77,1243.035
1764504944.4334347,-4544.099999999999,5685.03,-42762.69,-31635.45,-38845.08,-29908.035,-14375.61,1246.905
1764504944.4334347,-4547.429999999999,5681.7,-42765.57,-31639.68,-38850.705,-29916.765,-14378.49,1243.845
1764504944.4826868,-4547.07,5682.285,-42766.29,-31641.345,-38853.09,-29920.185,-14378.805,1244.385
1764504944.4826868,-4545.855,5683.005,-42766.065,-31640.94,-38853.72,-29921.49,-14378.265,1244.97
1764504944.4826868,-4544.099999999999,5684.94,-42763.14,-31637.25,-38850.165,-29917.71,-14376.06,1247.625
1764504944.4826868,-4549.86,5679.224999999999,-42769.665,-31642.965,-38853.54,-29916.315,-14377.5,1243.98
1764504944.4826868,-4552.02,5677.02,-42772.32,-31648.185,-38860.11,-29922.795,-14379.03,1241.28
1764504944.4826868,-4547.115,5681.835,-42768.09,-31645.26,-38859.705,-29923.605,-14376.645,1245.015
1764504944.4826868,-4546.53,5682.06,-42768.675,-31645.98,-38863.575,-29927.43,-14377.23,1245.06
1764504944.4826868,-4550.355,5678.685,-42772.275,-31649.13,-38866.185,-29929.32,-14380.47,1241.055
1764504944.4826868,-4547.7,5682.06,-42767.37,-31642.38,-38855.565,-29917.665,-14377.77,1243.755
1764504944.4826868,-4552.74,5678.054999999999,-42770.205,-31643.145,-38853.675,-29914.785,-14379.93,1239.48
1764504944.4826868,-4554.72,5676.12,-42771.87,-31642.65,-38848.77,-29909.07,-14379.39,1238.58
1764504944.4826868,-4552.335,5677.605,-42769.755,-31637.97,-38838.915,-29897.145,-14376.015,1242.36
1764504944.483694,-4552.965,5677.469999999999,-42768.63,-31635.045,-38833.875,-29890.98,-14375.16,1242.54
1764504944.483694,-4555.304999999999,5674.59,-42771.465,-31636.215,-38833.92,-29888.1,-14376.6,1240.11
1764504944.483694,-4552.92,5677.56,-42767.73,-31633.47,-38831.67,-29886.345,-14374.26,1241.145
1764504944.483694,-4554.179999999999,5676.705,-42769.845,-31637.205,-38836.89,-29893.005,-14376.915,1239.93
1764504944.483694,-4555.08,5675.535,-42772.14,-31641.345,-38843.91,-29902.005,-14380.47,1237.635
1764504944.483694,-4550.985,5680.304999999999,-42768.225,-31641.84,-38847.825,-29906.865,-14380.875,1240.335
1764504944.483694,-4553.145,5678.145,-42770.97,-31646.79,-38857.14,-29919.285,-14384.97,1237.005
1764504944.483694,-4552.74,5678.955,-42769.62,-31646.88,-38860.11,-29926.305,-14385.195,1237.905
1764504944.483694,-4551.345,5679.585,-42769.44,-31647.555,-38861.865,-29929.005,-14384.97,1239.435
1764504944.483694,-4550.13,5680.17,-42768.99,-31645.53,-38859.03,-29929.005,-14384.34,1240.11
1764504944.483694,-4547.565,5682.825,-42766.695,-31640.355,-38853.18,-29922.525,-14380.65,1243.665
1764504944.483694,-4551.615,5677.83,-42772.005,-31643.685,-38854.035,-29920.5,-14382.54,1240.47
1764504944.5273082,-4556.52,5672.07,-42777.18,-31646.745,-38851.785,-29911.41,-14381.1,1237.005
1764504944.5273082,-4556.565,5672.969999999999,-42775.245,-31642.2,-38842.965,-29898.495,-14376.6,1238.355
1764504944.5273082,-4559.67,5670.585,-42777.135,-31643.73,-38843.775,-29897.235,-14378.535,1236.06
1764504944.5273082,-4556.385,5673.645,-42773.805,-31642.47,-38844.27,-29897.64,-14378.625,1238.895
1764504944.5278172,-4551.03,5679.45,-42767.955,-31637.7,-38841.66,-29897.865,-14375.745,1243.35
1764504944.5278172,-4552.74,5678.28,-42769.575,-31639.77,-38846.7,-29906.28,-14378.31,1241.505
1764504944.5278172,-4549.139999999999,5681.88,-42766.92,-31638.465,-38847.6,-29909.115,-14377.275,1244.88
1764504944.5278172,-4548.96,5682.96,-42766.425,-31639.185,-38850.12,-29914.695,-14377.905,1243.53
1764504944.5278172,-4541.849999999999,5690.385,-42759.27,-31633.29,-38844.855,-29910.42,-14373.09,1249.785
1764504944.5278172,-4544.28,5687.505,-42761.97,-31636.755,-38849.175,-29915.505,-14377.095,1247.445
1764504944.5278172,-4550.58,5680.395,-42769.215,-31642.02,-38851.335,-29913.795,-14379.93,1242.09
1764504944.5278172,-4554.224999999999,5676.705,-42773.895,-31645.17,-38851.92,-29908.98,-14379.21,1240.335
1764504944.5278172,-4550.715,5679.855,-42770.7,-31642.74,-38850.57,-29907.36,-14376.195,1243.575
1764504944.5278172,-4553.865,5677.02,-42772.545,-31646.34,-38855.34,-29916.18,-14381.055,1239.57
1764504944.5278172,-4550.94,5679.81,-42771.24,-31649.895,-38865.105,-29931.345,-14384.43,1240.335
1764504944.5278172,-4546.53,5685.165,-42767.55,-31649.13,-38869.74,-29937.78,-14384.07,1244.52
1764504944.5278172,-4549.545,5680.889999999999,-42772.05,-31653.855,-38874.24,-29942.19,-14386.77,1242.585
1764504944.5278172,-4546.575,5682.06,-42770.025,-31649.715,-38866.59,-29929.095,-14382.36,1245.15
1764504944.5278172,-4545.179999999999,5683.23,-42767.64,-31644.315,-38859.12,-29918.43,-14377.725,1246.455
1764504944.5278172,-4548.465,5680.62,-42770.565,-31645.08,-38856.915,-29917.98,-14379.12,1243.71
1764504944.5278172,-4555.889999999999,5672.969999999999,-42778.62,-31648.095,-38853.9,-29911.77,-14382.315,1237.95
1764504944.5278172,-4556.25,5673.15,-42775.92,-31639.995,-38838.78,-29889.495,-14378.715,1239.615
1764504944.5278172,-4556.88,5671.98,-42774.66,-31634.64,-38826.72,-29870.01,-14373.54,1238.76
1764504944.5278172,-4558.32,5669.955,-42775.92,-31634.955,-38827.125,-29868.885,-14373.54,1236.15
1764504944.5752325,-4550.849999999999,5677.74,-42768.27,-31630.365,-38826.63,-29872.26,-14371.47,1242.27
1764504944.5762465,-4547.34,5681.655,-42764.22,-31629.735,-38829.465,-29878.245,-14370.57,1245.78
1764504944.5762465,-4546.71,5682.69,-42764.265,-31630.815,-38832.03,-29881.845,-14369.805,1247.085
1764504944.5762465,-4546.08,5683.455,-42764.04,-31631.355,-38834.37,-29884.95,-14369.49,1247.85
1764504944.5762465,-4544.235,5685.165,-42761.88,-31630.095,-38833.02,-29884.77,-14368.77,1249.065
1764504944.5762465,-4546.889999999999,5682.825,-42763.545,-31631.625,-38833.875,-29888.73,-14372.1,1246.185
1764504944.5762465,-4549.23,5680.215,-42766.38,-31634.775,-38837.61,-29894.985,-14374.665,1243.485
1764504944.5762465,-4549.095,5679.764999999999,-42767.01,-31635.585,-38839.68,-29897.55,-14376.15,1243.08
1764504944.5762465,-4547.16,5681.474999999999,-42765.93,-31634.64,-38839.545,-29896.47,-14375.565,1244.7
1764504944.5762465,-4542.3,5687.19,-42760.305,-31630.815,-38836.35,-29892.645,-14372.595,1248.66
1764504944.5762465,-4541.22,5688.135,-42759.09,-31631.355,-38837.79,-29895.21,-14372.28,1249.695
1764504944.5762465,-4544.145,5684.31,-42762.195,-31635.63,-38842.29,-29899.035,-14375.115,1246.905
1764504944.5762465,-4550.445,5677.83,-42770.115,-31641.975,-38847.06,-29901.195,-14379.165,1241.82
1764504944.5762465,-4547.52,5681.52,-42765.525,-31635.72,-38840.31,-29896.245,-14376.78,1243.935
1764504944.5762465,-4543.875,5685.48,-42759.855,-31630.59,-38834.955,-29891.07,-14374.08,1247.085
1764504944.5762465,-4549.32,5679.9,-42766.92,-31638.69,-38843.37,-29898.45,-14378.22,1241.64
1764504944.5762465,-4548.33,5680.349999999999,-42768.18,-31640.4,-38845.935,-29900.52,-14377.545,1242.99
1764504944.5762465,-4542.615,5685.929999999999,-42763.32,-31636.17,-38842.695,-29899.845,-14375.43,1247.895
1764504944.5762465,-4541.4,5687.505,-42760.575,-31634.145,-38842.83,-29901.06,-14375.655,1248.93
1764504944.5762465,-4543.695,5685.48,-42762.78,-31636.485,-38845.53,-29904.57,-14377.77,1246.5449999999998
1764504944.5762465,-4542.48,5686.02,-42763.005,-31635.405,-38841.705,-29899.17,-14375.655,1248.7949999999998
1764504944.5762465,-4547.88,5679.945,-42769.08,-31640.265,-38845.215,-29901.645,-14379.03,1243.62
1764504944.5762465,-4547.565,5679.495,-42769.17,-31639.86,-38845.035,-29901.6,-14378.895,1243.44
1764504944.5762465,-4540.23,5687.054999999999,-42762.42,-31632.165,-38837.565,-29891.97,-14372.19,1250.595
1764504944.6195295,-4537.889999999999,5689.035,-42759.945,-31630.815,-38836.89,-29889.855,-14371.245,1251.72
1764504944.6195295,-4541.22,5685.435,-42762.69,-31634.055,-38840.13,-29894.94,-14373.72,1248.255
1764504944.6195295,-4539.735,5687.325,-42761.34,-31632.39,-38838.78,-29894.715,-14372.73,1250.82
1764504944.6195295,-4544.054999999999,5683.094999999999,-42765.255,-31635.81,-38842.335,-29899.44,-14376.735,1247.445
1764504944.6195295,-4542.48,5684.264999999999,-42764.445,-31633.605,-38839.455,-29897.91,-14375.61,1248.48
1764504944.6195295,-4545.045,5682.195,-42766.605,-31635.72,-38841.615,-29901.87,-14378.355,1245.555
1764504944.6195295,-4542.389999999999,5684.76,-42763.725,-31633.515,-38839.995,-29898.945,-14377.14,1248.48
1764504944.6195295,-4546.575,5681.205,-42768.045,-31638.645,-38844.765,-29902.68,-14379.975,1244.835
1764504944.6195295,-4543.965,5684.849999999999,-42764.85,-31635.18,-38842.875,-29901.42,-14379.12,1246.815
1764504944.6195295,-4544.73,5683.724999999999,-42764.715,-31635.585,-38842.965,-29901.465,-14378.67,1245.375
1764504944.6195295,-4541.76,5686.605,-42762.78,-31633.92,-38840.895,-29898.54,-14376.555,1248.975
1764504944.6195295,-4547.429999999999,5680.844999999999,-42768.63,-31641.705,-38850.525,-29907.45,-14382.09,1242.405
1764504944.6195295,-4547.385,5681.745,-42768.99,-31642.74,-38851.83,-29908.665,-14382.495,1242.72
1764504944.6195295,-4546.26,5683.32,-42768.09,-31640.04,-38848.185,-29903.625,-14380.65,1244.52
1764504944.6195295,-4541.715,5687.505,-42763.41,-31634.775,-38841.84,-29896.515,-14376.6,1248.48
1764504944.6195295,-4537.845,5691.554999999999,-42759.18,-31631.265,-38839.545,-29896.92,-14375.115,1251.18
1764504944.6195295,-4537.889999999999,5690.925,-42759.54,-31631.49,-38839.635,-29897.595,-14374.71,1251.27
1764504944.6195295,-4537.485,5691.195,-42759.765,-31630.95,-38838.78,-29896.83,-14373.72,1252.125
1764504944.6195295,-4538.52,5690.52,-42760.485,-31632.66,-38841.165,-29899.53,-14374.17,1252.1699999999998
1764504944.62055,-4541.4,5686.92,-42763.275,-31635.36,-38842.695,-29900.88,-14375.16,1249.38
1764504944.62055,-4537.215,5690.835,-42760.35,-31631.715,-38838.915,-29896.2,-14372.325,1253.205
1764504944.62055,-4540.86,5687.91,-42762.87,-31634.19,-38839.59,-29898.45,-14376.015,1249.56
1764504944.6682456,-4544.28,5684.445,-42765.705,-31635.09,-38839.86,-29900.34,-14377.635,1247.22
1764504944.6682456,-4541.22,5688.045,-42761.61,-31631.4,-38836.26,-29900.205,-14376.105,1249.695
1764504944.6682456,-4541.94,5687.685,-42761.115,-31631.715,-38836.62,-29901.6,-14376.915,1248.48
1764504944.6682456,-4547.655,5682.33,-42766.65,-31637.205,-38843.055,-29905.965,-14380.74,1243.125
1764504944.6682456,-4545.27,5683.545,-42764.715,-31635.63,-38841.435,-29901.24,-14379.12,1245.4199999999998
1764504944.6682456,-4547.79,5680.62,-42768.45,-31639.14,-38845.44,-29904.345,-14381.325,1242.405
1764504944.6692452,-4546.44,5682.554999999999,-42767.01,-31638.42,-38844.36,-29904.12,-14380.02,1244.2949999999998
1764504944.6692452,-4546.8,5681.79,-42767.82,-31639.05,-38844.315,-29902.59,-14378.895,1243.89
1764504944.6692452,-4541.895,5686.605,-42762.51,-31633.11,-38837.205,-29893.455,-14373.54,1249.335
1764504944.6692452,-4544.054999999999,5684.4,-42764.94,-31635.135,-38838.555,-29892.555,-14374.44,1247.58
1764504944.6692452,-4546.889999999999,5682.24,-42767.955,-31637.79,-38843.055,-29898.135,-14375.79,1245.555
1764504944.6692452,-4544.37,5684.895,-42765.165,-31635.09,-38841.84,-29898.765,-14375.115,1248.075
1764504944.6692452,-4548.105,5682.06,-42767.91,-31637.43,-38844.0,-29900.79,-14377.455,1244.115
1764504944.6692452,-4547.52,5682.33,-42766.515,-31636.26,-38842.065,-29896.47,-14376.645,1245.645
1764504944.6692452,-4545.54,5683.59,-42765.57,-31635.27,-38840.265,-29891.745,-14374.8,1247.49
1764504944.6692452,-4545.179999999999,5683.679999999999,-42766.02,-31635.315,-38839.905,-29889.675,-14373.99,1246.86
1764504944.6692452,-4539.06,5691.375,-42758.955,-31629.645,-38836.575,-29888.505,-14371.065,1252.485
1764504944.6692452,-4537.215,5692.995,-42757.245,-31629.375,-38837.565,-29891.295,-14369.58,1255.23
1764504944.6692452,-4535.91,5693.355,-42757.065,-31628.925,-38838.645,-29894.355,-14369.94,1256.085
1764504944.6692452,-4539.014999999999,5691.42,-42759.27,-31630.14,-38839.5,-29898.0,-14372.01,1253.25
1764504944.6692452,-4543.605,5687.19,-42762.96,-31632.39,-38839.68,-29897.91,-14374.26,1248.615
1764504944.6692452,-4544.505,5684.94,-42764.76,-31631.805,-38835.225,-29890.305,-14372.595,1248.165
1764504944.6692452,-4548.51,5680.755,-42767.955,-31635.495,-38837.79,-29891.025,-14373.855,1245.105
1764504944.6692452,-4549.005,5680.575,-42768.315,-31635.945,-38838.24,-29889.855,-14372.82,1244.25
1764504944.7135105,-4547.205,5683.185,-42767.055,-31634.28,-38837.88,-29889.72,-14372.775,1245.825
1764504944.714543,-4543.83,5686.11,-42764.13,-31632.255,-38837.205,-29890.71,-14371.965,1248.885
1764504944.714543,-4547.25,5682.645,-42767.235,-31636.35,-38841.12,-29897.055,-14374.395,1245.645
1764504944.714543,-4543.965,5686.38,-42764.445,-31633.695,-38839.455,-29896.47,-14373.0,1247.805
1764504944.714543,-4539.51,5690.745,-42759.72,-31631.04,-38838.69,-29895.93,-14370.705,1252.53
1764504944.714543,-4544.099999999999,5686.425,-42764.265,-31636.71,-38846.43,-29903.04,-14373.855,1247.895
1764504944.714543,-4541.445,5689.08,-42762.015,-31635.54,-38845.62,-29902.545,-14373.09,1250.1
1764504944.714543,-4544.46,5685.389999999999,-42766.2,-31640.085,-38849.895,-29906.415,-14375.7,1247.58
1764504944.714543,-4539.915,5689.485,-42760.62,-31634.19,-38843.145,-29899.62,-14372.73,1251.855
1764504944.714543,-4540.59,5689.395,-42759.99,-31631.535,-38837.745,-29894.22,-14371.965,1251.18
1764504944.714543,-4543.56,5686.965,-42761.88,-31632.525,-38837.07,-29895.75,-14373.54,1248.12
1764504944.714543,-4539.69,5691.195,-42758.64,-31628.475,-38834.415,-29893.14,-14371.83,1252.215
1764504944.714543,-4538.88,5691.78,-42757.83,-31627.71,-38834.595,-29892.24,-14370.84,1252.755
1764504944.714543,-4544.46,5685.03,-42764.13,-31634.19,-38839.635,-29895.84,-14372.91,1248.615
1764504944.714543,-4540.095,5689.304999999999,-42759.945,-31628.745,-38832.255,-29887.56,-14368.275,1253.475
1764504944.714543,-4543.605,5686.245,-42762.465,-31631.265,-38834.145,-29890.125,-14370.975,1249.515
1764504944.714543,-4547.429999999999,5683.005,-42765.705,-31634.415,-38835.9,-29891.475,-14373.675,1246.005
1764504944.714543,-4549.455,5680.889999999999,-42767.01,-31635.135,-38834.415,-29889.585,-14375.745,1244.205
1764504944.714543,-4548.42,5682.87,-42765.03,-31634.1,-38833.92,-29888.865,-14376.645,1245.24
1764504944.714543,-4546.53,5684.535,-42763.725,-31632.525,-38834.55,-29889.18,-14375.295,1246.68
1764504944.7160711,-4542.255,5689.485,-42760.215,-31630.455,-38834.1,-29890.17,-14373.315,1250.46
1764504944.7160711,-4541.31,5690.25,-42759.99,-31632.255,-38838.555,-29897.055,-14375.34,1250.64
1764504944.759895,-4538.97,5692.635,-42757.875,-31631.58,-38840.49,-29901.015,-14375.205,1252.845
1764504944.759895,-4537.71,5694.525,-42756.39,-31631.355,-38841.93,-29903.265,-14374.71,1254.24
1764504944.759895,-4535.73,5695.469999999999,-42756.165,-31631.085,-38842.245,-29904.255,-14372.145,1255.5449999999998
1764504944.759895,-4538.52,5692.455,-42759.18,-31634.775,-38845.71,-29907.63,-14372.37,1253.34
1764504944.759895,-4544.55,5685.255,-42765.93,-31641.615,-38852.01,-29910.42,-14376.285,1247.805
1764504944.759895,-4545.315,5683.59,-42768.54,-31642.2,-38850.615,-29904.12,-14376.555,1247.85
1764504944.759895,-4549.995,5679.045,-42773.175,-31644.225,-38850.345,-29902.5,-14379.48,1243.845
1764504944.759895,-4547.385,5681.969999999999,-42769.71,-31638.555,-38842.155,-29894.445,-14376.42,1246.68
1764504944.759895,-4548.51,5680.62,-42770.43,-31638.645,-38840.805,-29893.59,-14375.565,1246.005
1764504944.759895,-4544.505,5684.31,-42767.055,-31637.115,-38841.03,-29894.175,-14373.45,1249.38
1764504944.759895,-4544.91,5683.545,-42767.415,-31639.725,-38845.755,-29900.565,-14374.44,1248.21
1764504944.759895,-4538.429999999999,5689.26,-42761.475,-31636.215,-38844.225,-29903.58,-14372.01,1253.835
1764504944.759895,-4536.315,5690.79,-42760.035,-31637.115,-38847.015,-29908.98,-14371.92,1255.59
1764504944.759895,-4539.42,5688.585,-42762.645,-31640.58,-38851.785,-29914.965,-14374.89,1252.53
1764504944.759895,-4535.28,5692.724999999999,-42758.055,-31636.17,-38846.655,-29910.24,-14371.875,1256.625
1764504944.759895,-4536.855,5691.51,-42759.135,-31636.665,-38846.43,-29907.72,-14373.63,1255.77
1764504944.759895,-4540.59,5687.865,-42762.42,-31638.51,-38848.455,-29909.295,-14375.745,1251.81
1764504944.759895,-4537.71,5690.52,-42760.89,-31634.64,-38842.74,-29898.63,-14372.055,1254.87
1764504944.759895,-4536.81,5690.655,-42760.44,-31631.49,-38835.315,-29886.57,-14369.085,1256.13
1764504944.759895,-4535.55,5692.545,-42756.84,-31626.54,-38827.98,-29879.28,-14366.565,1256.76
1764504944.759895,-4535.01,5693.804999999999,-42754.59,-31623.3,-38824.11,-29875.905,-14365.08,1257.435
1764504944.759895,-4536.585,5692.05,-42756.345,-31624.02,-38822.715,-29873.385,-14364.09,1257.12
1764504944.759895,-4535.82,5692.5,-42755.355,-31622.445,-38822.22,-29874.24,-14364.72,1257.39
1764504944.7609088,-4535.054999999999,5693.76,-42753.33,-31621.545,-38823.345,-29877.615,-14366.745,1256.85
1764504944.8083396,-4534.02,5694.615,-42752.745,-31620.825,-38823.165,-29878.02,-14366.745,1257.57
1764504944.8083396,-4534.11,5694.84,-42752.79,-31621.275,-38825.055,-29881.755,-14368.185,1256.76
1764504944.8083396,-4534.29,5694.795,-42752.97,-31622.895,-38827.53,-29884.275,-14368.86,1255.95
1764504944.8083396,-4535.685,5692.77,-42755.22,-31626.045,-38829.645,-29886.03,-14369.76,1255.32
1764504944.8083396,-4535.145,5693.31,-42755.445,-31626.405,-38831.355,-29887.965,-14369.04,1256.175
1764504944.8083396,-4535.37,5694.435,-42755.67,-31626.405,-38832.435,-29888.145,-14367.78,1256.58
1764504944.8083396,-4537.935,5690.925,-42759.27,-31630.14,-38835.72,-29890.755,-14368.995,1253.835
1764504944.8083396,-4532.804999999999,5695.245,-42754.59,-31624.38,-38827.665,-29883.915,-14363.64,1258.83
1764504944.8083396,-4532.625,5695.469999999999,-42753.96,-31622.85,-38824.875,-29882.295,-14362.515,1259.73
1764504944.8083396,-4535.46,5692.635,-42757.695,-31625.415,-38826.72,-29882.79,-14365.44,1256.31
1764504944.8083396,-4535.865,5692.275,-42757.56,-31624.29,-38826.27,-29880.9,-14365.44,1255.68
1764504944.8083396,-4538.429999999999,5690.295,-42759.27,-31627.305,-38830.095,-29884.995,-14368.635,1253.2949999999998
1764504944.8083396,-4538.655,5689.665,-42759.855,-31628.79,-38831.85,-29887.92,-14369.715,1252.575
1764504944.8083396,-4540.32,5688.135,-42762.87,-31631.895,-38836.215,-29893.41,-14371.2,1250.505
1764504944.8083396,-4539.15,5689.935,-42760.935,-31631.58,-38836.89,-29895.075,-14371.29,1251.45
1764504944.8083396,-4538.295,5690.835,-42760.35,-31631.85,-38837.655,-29896.2,-14370.795,1252.575
1764504944.8083396,-4535.415,5692.635,-42758.64,-31631.22,-38837.115,-29894.94,-14368.995,1254.735
1764504944.8083396,-4537.889999999999,5690.655,-42760.575,-31632.03,-38838.69,-29896.425,-14369.67,1252.53
1764504944.8083396,-4537.889999999999,5690.655,-42759.63,-31631.175,-38837.43,-29895.255,-14370.84,1253.025
1764504944.8083396,-4540.815,5687.01,-42763.23,-31634.955,-38840.76,-29898.18,-14373.765,1249.515
1764504944.8083396,-4544.415,5684.175,-42766.47,-31639.5,-38845.8,-29903.175,-14376.87,1246.005
1764504944.8083396,-4544.775,5684.355,-42766.965,-31640.895,-38847.465,-29905.38,-14377.68,1245.06
1764504944.8524673,-4542.705,5686.065,-42764.805,-31638.87,-38846.745,-29905.155,-14376.33,1247.22
1764504944.8524673,-4540.59,5688.224999999999,-42762.6,-31636.215,-38843.73,-29899.44,-14374.17,1251.0449999999998
1764504944.8524673,-4543.965,5684.31,-42766.065,-31638.51,-38844.585,-29898.405,-14374.845,1248.12
1764504944.8524673,-4545.675,5682.645,-42767.955,-31639.59,-38846.295,-29901.33,-14376.96,1245.735
1764504944.8524673,-4544.415,5685.03,-42765.21,-31636.845,-38843.415,-29900.115,-14377.32,1246.86
1764504944.8524673,-4546.304999999999,5683.23,-42766.065,-31636.935,-38843.865,-29902.14,-14378.67,1244.835
1764504944.8524673,-4542.435,5687.054999999999,-42763.365,-31634.91,-38843.055,-29902.41,-14376.96,1248.03
1764504944.8524673,-4545.54,5684.355,-42765.75,-31638.15,-38847.42,-29906.955,-14379.885,1245.465
1764504944.8524673,-4542.389999999999,5687.235,-42762.33,-31634.37,-38843.19,-29902.635,-14376.555,1248.975
1764504944.8524673,-4545.945,5683.679999999999,-42766.38,-31637.925,-38845.35,-29902.95,-14377.77,1245.105
1764504944.8524673,-4548.15,5682.42,-42768.675,-31638.24,-38844.09,-29900.52,-14378.4,1243.08
1764504944.8524673,-4547.295,5682.78,-42767.28,-31636.305,-38842.515,-29900.07,-14377.455,1244.205
1764504944.8524673,-4544.865,5684.49,-42765.165,-31633.515,-38839.275,-29897.595,-14374.71,1246.5449999999998
1764504944.8524673,-4548.06,5682.554999999999,-42767.19,-31635.765,-38842.29,-29899.98,-14376.645,1243.26
1764504944.8524673,-4547.115,5683.185,-42766.965,-31636.08,-38842.83,-29900.34,-14376.195,1244.565
1764504944.8524673,-4542.66,5687.28,-42764.58,-31633.875,-38840.895,-29898.99,-14373.09,1249.515
1764504944.8524673,-4543.785,5685.66,-42766.29,-31635.63,-38843.865,-29901.465,-14375.025,1248.3
1764504944.8524673,-4548.195,5681.385,-42769.62,-31639.365,-38847.105,-29904.075,-14378.715,1243.485
1764504944.8524673,-4545.855,5683.545,-42766.245,-31635.18,-38840.895,-29896.965,-14375.43,1246.23
1764504944.8524673,-4549.139999999999,5680.71,-42767.865,-31635.585,-38839.095,-29892.645,-14376.645,1244.07
1764504944.8524673,-4545.585,5684.985,-42763.5,-31630.545,-38831.94,-29884.68,-14372.685,1247.76
1764504944.8524673,-4544.639999999999,5686.605,-42761.34,-31628.835,-38829.915,-29883.825,-14372.505,1248.66
1764504944.8524673,-4543.47,5688.045,-42759.945,-31627.71,-38831.4,-29886.48,-14373.09,1249.02
1764504944.8524673,-4543.65,5687.685,-42760.35,-31628.34,-38833.47,-29889.9,-14374.125,1248.345
1764504944.897554,-4545.27,5686.469999999999,-42762.15,-31630.59,-38837.43,-29895.615,-14376.06,1247.31
1764504944.897554,-4547.34,5683.59,-42764.94,-31634.055,-38842.155,-29899.845,-14376.96,1246.095
1764504944.897554,-4546.08,5683.86,-42765.84,-31637.52,-38845.71,-29902.05,-14376.33,1248.21
1764504944.897554,-4551.795,5678.685,-42770.655,-31643.19,-38853.27,-29911.77,-14382.495,1242.585
1764504944.897554,-4546.889999999999,5683.455,-42766.245,-31638.015,-38848.05,-29906.955,-14378.22,1246.725
1764504944.897554,-4551.615,5678.865,-42771.06,-31642.965,-38851.38,-29908.17,-14380.38,1242.405
1764504944.897554,-4550.22,5680.395,-42769.71,-31641.345,-38849.805,-29907.135,-14379.12,1243.98
1764504944.897554,-4549.185,5680.395,-42769.395,-31641.03,-38849.985,-29907.0,-14377.59,1245.69
1764504944.897554,-4549.77,5679.585,-42770.745,-31640.67,-38847.195,-29899.62,-14376.825,1246.275
1764504944.897554,-4551.345,5678.054999999999,-42771.285,-31638.6,-38841.48,-29891.475,-14376.195,1244.79
1764504944.897554,-4554.179999999999,5675.31,-42772.905,-31639.005,-38839.815,-29889.045,-14377.14,1240.47
1764504944.897554,-4549.095,5680.62,-42768.09,-31635.225,-38837.25,-29887.2,-14373.945,1245.78
1764504944.8993697,-4549.815,5679.675,-42769.53,-31636.845,-38840.76,-29890.71,-14375.205,1245.195
1764504944.8993697,-4551.974999999999,5678.73,-42770.97,-31639.905,-38844.675,-29895.03,-14377.41,1243.395
1764504944.8993697,-4552.38,5678.685,-42770.565,-31641.255,-38846.97,-29898.45,-14377.14,1242.81
1764504944.8993697,-4554.179999999999,5677.245,-42770.655,-31642.02,-38847.735,-29900.79,-14379.345,1241.505
1764504944.8993697,-4552.56,5679.945,-42768.27,-31639.95,-38845.845,-29898.855,-14377.815,1243.53
1764504944.8993697,-4552.514999999999,5679.315,-42770.205,-31641.705,-38848.23,-29901.015,-14378.445,1243.1699999999998
1764504944.8993697,-4548.24,5683.77,-42766.065,-31637.07,-38844.54,-29899.125,-14376.645,1246.86
1764504944.8993697,-4547.7,5684.445,-42764.895,-31636.17,-38844.18,-29899.53,-14376.915,1247.445
1764504944.8993697,-4549.455,5682.465,-42766.65,-31638.555,-38846.655,-29902.995,-14378.58,1245.735
1764504944.8993697,-4551.525,5679.224999999999,-42769.44,-31641.21,-38849.22,-29906.505,-14380.38,1242.585
1764504944.8993697,-4549.5,5681.385,-42767.865,-31639.545,-38847.555,-29905.56,-14379.21,1244.655
1764504944.8993697,-4553.91,5677.155,-42771.87,-31644.99,-38852.055,-29910.735,-14381.82,1240.83
1764504944.9482763,-4552.605,5678.955,-42770.295,-31643.415,-38849.985,-29908.08,-14380.515,1242.18
1764504944.9482763,-4549.05,5682.42,-42766.74,-31638.555,-38845.305,-29902.05,-14377.32,1245.645
1764504944.9482763,-4550.175,5680.53,-42768.315,-31639.23,-38846.43,-29900.43,-14377.23,1244.43
1764504944.9482763,-4552.065,5678.82,-42769.53,-31640.445,-38847.42,-29901.645,-14378.04,1241.505
1764504944.9482763,-4546.8,5684.219999999999,-42763.68,-31634.01,-38840.58,-29894.895,-14373.99,1246.995
1764504944.9482763,-4548.825,5682.014999999999,-42764.895,-31635.405,-38839.995,-29895.39,-14375.565,1244.925
1764504944.9482763,-4548.735,5681.655,-42764.175,-31632.795,-38835.765,-29890.215,-14375.925,1244.61
1764504944.9482763,-4545.764999999999,5685.12,-42761.79,-31628.43,-38830.995,-29884.14,-14372.595,1247.355
1764504944.9482763,-4545.0,5686.74,-42761.34,-31628.205,-38831.265,-29881.215,-14370.21,1250.01
1764504944.9482763,-4552.605,5679.0,-42769.215,-31636.935,-38839.635,-29888.955,-14375.16,1242.945
1764504944.9482763,-4551.75,5680.62,-42768.045,-31637.07,-38839.545,-29890.53,-14376.015,1243.53
1764504944.9482763,-4554.135,5676.84,-42770.565,-31641.3,-38845.845,-29898.585,-14379.075,1240.38
1764504944.9482763,-4550.175,5680.844999999999,-42768.63,-31640.22,-38846.655,-29900.835,-14377.23,1244.475
1764504944.9482763,-4551.03,5679.495,-42770.835,-31643.415,-38851.56,-29906.955,-14379.525,1242.585
1764504944.9482763,-4554.09,5676.389999999999,-42773.49,-31646.52,-38857.455,-29915.37,-14383.08,1238.31
1764504944.9482763,-4552.29,5678.639999999999,-42771.87,-31645.125,-38856.42,-29916.36,-14382.405,1240.155
1764504944.9482763,-4549.815,5681.205,-42769.89,-31643.64,-38855.34,-29917.395,-14382.09,1243.26
1764504944.9482763,-4551.435,5679.719999999999,-42771.33,-31644.405,-38856.96,-29919.015,-14383.08,1241.73
1764504944.9492776,-4545.0,5685.12,-42765.84,-31638.15,-38848.275,-29907.54,-14376.195,1248.12
1764504944.9492776,-4547.07,5682.825,-42768.045,-31639.23,-38846.565,-29903.13,-14376.375,1246.59
1764504944.9492776,-4547.429999999999,5683.094999999999,-42768.36,-31637.88,-38842.65,-29897.19,-14374.845,1246.86
1764504944.9492776,-4547.925,5683.724999999999,-42767.595,-31635.315,-38838.375,-29892.285,-14374.575,1246.815
1764504944.9964406,-4548.69,5683.23,-42766.29,-31634.37,-38838.15,-29891.205,-14374.575,1245.87
1764504944.9964406,-4551.75,5680.26,-42769.395,-31637.97,-38841.255,-29893.86,-14375.835,1242.945
1764504944.9964406,-4549.995,5681.969999999999,-42767.46,-31635.495,-38839.095,-29891.835,-14374.17,1245.51
1764504944.9964406,-4549.59,5682.195,-42767.145,-31635.855,-38840.67,-29894.445,-14375.385,1244.52
1764504944.9964406,-4545.405,5686.2,-42762.915,-31633.245,-38838.42,-29893.005,-14372.82,1248.39
1764504944.9964406,-4543.335,5687.594999999999,-42762.105,-31633.92,-38841.165,-29896.92,-14371.155,1250.595
1764504944.9964406,-4541.49,5689.53,-42760.845,-31632.57,-38841.12,-29896.965,-14369.31,1252.755
1764504944.9964406,-4547.205,5682.51,-42768.09,-31639.725,-38848.59,-29903.445,-14374.575,1246.32
1764504944.9964406,-4545.63,5683.635,-42766.335,-31638.51,-38846.79,-29902.59,-14374.08,1248.12
1764504944.9964406,-4541.49,5688.585,-42761.205,-31633.92,-38841.615,-29899.44,-14372.46,1252.89
1764504944.9964406,-4538.115,5691.78,-42758.37,-31629.15,-38838.42,-29900.835,-14371.245,1255.5449999999998
1764504944.9964406,-4539.915,5690.969999999999,-42759.045,-31629.42,-38839.095,-29903.445,-14372.595,1253.835
1764504944.9964406,-4542.3,5689.215,-42760.575,-31630.68,-38839.365,-29904.795,-14373.225,1251.36
1764504944.9964406,-4542.165,5688.764999999999,-42760.8,-31630.32,-38838.33,-29901.51,-14372.415,1253.16
1764504944.9964406,-4536.9,5692.815,-42756.795,-31624.065,-38830.185,-29890.17,-14366.115,1258.9199999999998
1764504944.9964406,-4536.09,5693.625,-42755.76,-31621.275,-38826.45,-29884.59,-14365.44,1258.9199999999998
1764504944.9964406,-4538.52,5691.195,-42758.055,-31622.805,-38826.72,-29881.08,-14364.54,1257.255
1764504944.9964406,-4542.255,5686.514999999999,-42762.24,-31627.17,-38829.555,-29879.865,-14365.575,1253.97
1764504944.9974413,-4544.639999999999,5683.95,-42763.905,-31629.645,-38830.905,-29881.08,-14367.51,1251.09
1764504944.9974413,-4541.76,5686.92,-42761.745,-31626.855,-38828.34,-29877.705,-14366.115,1254.105
1764504944.9974413,-4541.94,5686.155,-42763.275,-31629.24,-38831.355,-29881.755,-14368.59,1253.475
1764504944.9974413,-4544.955,5683.05,-42765.57,-31631.4,-38834.19,-29885.805,-14371.38,1249.38
1764504944.9974413,-4543.605,5685.21,-42763.905,-31629.96,-38833.695,-29885.13,-14370.57,1249.605
1764504944.9974413,-4540.32,5688.675,-42760.62,-31626.405,-38831.31,-29882.34,-14368.905,1253.2949999999998
1764504944.9974413,-4544.28,5685.03,-42764.04,-31630.365,-38836.305,-29887.605,-14372.28,1249.425
1764504944.9974413,-4543.695,5685.21,-42763.815,-31631.445,-38837.34,-29889.855,-14372.73,1248.885
1764504945.040994,-4540.095,5688.99,-42760.935,-31629.105,-38835.99,-29888.415,-14369.94,1251.9
1764504945.040994,-4544.145,5685.435,-42764.715,-31633.38,-38840.67,-29893.41,-14373.99,1248.435
1764504945.040994,-4540.77,5688.855,-42761.25,-31629.735,-38838.015,-29890.845,-14372.64,1252.035
1764504945.040994,-4543.29,5686.469999999999,-42763.59,-31632.21,-38841.39,-29895.075,-14374.935,1249.965
1764504945.040994,-4542.974999999999,5687.639999999999,-42762.195,-31630.41,-38838.915,-29894.58,-14374.215,1249.965
1764504945.040994,-4543.065,5687.685,-42762.42,-31630.185,-38836.89,-29892.15,-14373.72,1250.235
1764504945.040994,-4544.55,5685.389999999999,-42765.165,-31632.795,-38840.04,-29893.815,-14375.115,1249.245
1764504945.040994,-4544.415,5686.245,-42764.49,-31631.715,-38840.265,-29895.075,-14375.34,1248.615
1764504945.040994,-4542.21,5688.63,-42761.385,-31629.195,-38837.97,-29893.05,-14373.405,1249.605
1764504945.040994,-4543.02,5687.639999999999,-42764.22,-31630.995,-38838.33,-29891.115,-14372.055,1250.955
1764504945.040994,-4540.679999999999,5689.17,-42763.185,-31630.635,-38838.24,-29890.44,-14370.615,1254.06
1764504945.040994,-4546.98,5682.33,-42769.845,-31636.665,-38844.18,-29896.56,-14375.52,1247.6699999999998
1764504945.0432563,-4544.37,5685.165,-42767.55,-31633.605,-38840.805,-29894.22,-14374.665,1249.56
1764504945.0432563,-4546.215,5683.365,-42768.18,-31634.19,-38840.31,-29894.67,-14376.375,1247.985
1764504945.0432563,-4547.34,5682.42,-42768.315,-31636.62,-38843.055,-29898.315,-14377.68,1246.95
1764504945.0432563,-4550.445,5679.405,-42771.42,-31641.57,-38849.94,-29905.155,-14381.595,1243.71
1764504945.0432563,-4545.36,5685.255,-42766.29,-31637.925,-38848.365,-29904.57,-14378.985,1247.985
1764504945.0432563,-4545.764999999999,5685.795,-42765.93,-31639.095,-38850.795,-29908.53,-14379.165,1248.345
1764504945.0432563,-4548.285,5683.455,-42769.89,-31642.83,-38855.97,-29914.92,-14381.505,1245.735
1764504945.0432563,-4546.215,5684.804999999999,-42768.135,-31641.615,-38854.62,-29915.145,-14379.84,1247.6699999999998
1764504945.0432563,-4540.905,5688.719999999999,-42764.175,-31637.655,-38848.41,-29910.465,-14375.295,1252.305
1764504945.0432563,-4542.929999999999,5686.11,-42766.695,-31638.33,-38847.645,-29908.89,-14376.6,1249.605
1764504945.0873337,-4548.465,5681.88,-42770.385,-31639.23,-38846.835,-29907.18,-14379.075,1244.88
1764504945.0873337,-4549.139999999999,5682.78,-42767.415,-31634.19,-38838.915,-29896.605,-14377.545,1244.745
1764504945.0873337,-4546.44,5684.94,-42764.175,-31629.15,-38830.545,-29884.005,-14373.315,1248.3
1764504945.0873337,-4550.04,5679.945,-42769.08,-31633.38,-38833.155,-29882.565,-14373.405,1246.275
1764504945.0873337,-4548.105,5682.06,-42768.09,-31631.805,-38833.335,-29881.44,-14372.28,1247.76
1764504945.0873337,-4551.03,5679.63,-42770.16,-31635.945,-38837.88,-29887.74,-14375.61,1244.925
1764504945.0873337,-4549.23,5681.565,-42767.37,-31634.64,-38837.79,-29888.235,-14375.7,1246.5
1764504945.0873337,-4551.929999999999,5679.045,-42769.08,-31637.07,-38841.12,-29892.96,-14377.86,1243.53
1764504945.0873337,-4545.72,5686.11,-42764.175,-31632.12,-38837.745,-29890.98,-14374.395,1249.2
1764504945.0873337,-4545.945,5685.84,-42764.805,-31633.425,-38840.715,-29896.38,-14376.105,1248.57
1764504945.0873337,-4545.54,5685.21,-42765.93,-31634.325,-38842.47,-29899.305,-14376.015,1249.11
1764504945.0873337,-4547.925,5682.06,-42769.89,-31638.06,-38845.575,-29899.44,-14376.465,1246.905
1764504945.0873337,-4548.554999999999,5682.51,-42769.17,-31637.7,-38845.26,-29900.115,-14377.41,1246.005
1764504945.08835,-4551.165,5680.53,-42769.71,-31639.41,-38846.7,-29903.58,-14379.93,1242.855
1764504945.08835,-4551.885,5679.675,-42770.115,-31639.815,-38845.53,-29902.095,-14378.985,1243.8
1764504945.08835,-4550.804999999999,5680.71,-42768.18,-31638.33,-38843.415,-29898.99,-14378.805,1244.61
1764504945.08835,-4546.304999999999,5684.625,-42764.22,-31633.065,-38838.33,-29892.195,-14374.755,1248.75
1764504945.08835,-4545.585,5685.705,-42763.725,-31631.94,-38835.99,-29887.92,-14371.605,1250.235
1764504945.08835,-4545.27,5685.525,-42763.23,-31630.185,-38833.965,-29885.67,-14371.065,1250.82
1764504945.08835,-4549.005,5682.51,-42765.48,-31632.3,-38836.08,-29888.55,-14373.72,1247.265
1764504945.08835,-4547.429999999999,5683.995,-42765.03,-31633.11,-38836.44,-29889.0,-14373.09,1249.155
1764504945.08835,-4551.255,5679.585,-42769.845,-31639.68,-38844.495,-29898.315,-14376.87,1244.97
1764504945.08835,-4549.59,5682.06,-42768.405,-31638.375,-38843.415,-29898.45,-14377.005,1245.915
1764504945.08835,-4546.44,5685.795,-42764.67,-31634.19,-38840.355,-29896.065,-14375.295,1248.57
1764504945.136547,-4550.22,5682.42,-42767.595,-31637.61,-38845.26,-29901.6,-14377.23,1245.825
1764504945.136547,-4550.22,5682.42,-42768.765,-31639.23,-38845.98,-29900.565,-14376.735,1247.31
1764504945.1368704,-4551.389999999999,5681.429999999999,-42769.53,-31640.58,-38847.195,-29902.365,-14377.59,1245.87
1764504945.1368704,-4548.105,5684.085,-42766.875,-31637.655,-38845.17,-29901.87,-14376.6,1248.705
1764504945.1368704,-4549.635,5682.42,-42768.945,-31639.5,-38848.455,-29906.64,-14379.03,1247.535
1764504945.1368704,-4557.24,5674.77,-42777.18,-31647.42,-38855.97,-29914.29,-14385.24,1240.245
1764504945.1368704,-4557.105,5674.5,-42776.73,-31644.99,-38852.415,-29909.025,-14384.115,1240.245
1764504945.1368704,-4555.755,5676.21,-42773.895,-31642.65,-38849.67,-29905.83,-14382.63,1241.64
1764504945.1368704,-4554.09,5678.594999999999,-42771.105,-31640.985,-38848.995,-29906.64,-14381.865,1243.305
1764504945.1368704,-4552.065,5679.719999999999,-42770.745,-31640.175,-38848.005,-29904.39,-14380.29,1244.835
1764504945.1368704,-4555.935,5675.4,-42776.145,-31645.08,-38852.415,-29906.595,-14382.495,1241.055
1764504945.1368704,-4554.63,5677.38,-42774.03,-31643.19,-38852.01,-29909.16,-14382.72,1241.37
1764504945.1368704,-4552.02,5679.855,-42770.835,-31640.265,-38849.22,-29906.19,-14380.29,1243.1699999999998
1764504945.1368704,-4548.15,5683.005,-42766.515,-31635.495,-38843.505,-29899.8,-14376.42,1247.085
1764504945.1368704,-4549.95,5681.115,-42768.495,-31635.99,-38842.29,-29896.965,-14377.275,1245.87
1764504945.1368704,-4556.79,5674.679999999999,-42774.03,-31640.535,-38844.315,-29898.585,-14381.775,1239.3
1764504945.1368704,-4553.775,5678.054999999999,-42770.565,-31636.08,-38840.265,-29893.365,-14377.995,1243.035
1764504945.1375434,-4553.82,5678.82,-42770.34,-31637.025,-38840.715,-29893.095,-14377.545,1242.9
1764504945.1375434,-4556.88,5675.535,-42775.065,-31641.885,-38845.62,-29895.795,-14378.625,1240.875
1764504945.1375434,-4554.179999999999,5678.37,-42772.59,-31639.815,-38844.855,-29896.065,-14377.725,1243.1699999999998
1764504945.1375434,-4555.304999999999,5678.01,-42773.31,-31641.615,-38848.005,-29902.95,-14379.03,1242.18
1764504945.1375434,-4548.78,5684.085,-42766.92,-31636.215,-38845.17,-29904.345,-14376.15,1247.58
1764504945.1375434,-4545.764999999999,5686.155,-42764.4,-31633.875,-38845.125,-29905.875,-14375.475,1249.56
1764504945.1375434,-4545.09,5687.054999999999,-42763.635,-31633.605,-38845.44,-29907.225,-14375.925,1249.875
1764504945.1820185,-4548.96,5683.41,-42768.675,-31638.375,-38849.76,-29908.17,-14376.915,1247.895
1764504945.1820185,-4558.185,5674.275,-42777.765,-31648.545,-38857.77,-29913.705,-14382.72,1240.245
1764504945.1820185,-4556.88,5675.895,-42775.965,-31646.385,-38854.845,-29910.375,-14380.965,1241.37
1764504945.1820185,-4555.62,5677.514999999999,-42773.265,-31641.705,-38848.59,-29903.625,-14379.345,1241.955
1764504945.1820185,-4552.65,5681.295,-42768.855,-31634.82,-38839.95,-29893.14,-14375.745,1245.06
1764504945.1820185,-4556.115,5677.785,-42771.87,-31636.62,-38839.77,-29891.43,-14375.835,1242.945
1764504945.1820185,-4553.82,5679.54,-42769.62,-31634.64,-38836.575,-29888.055,-14374.08,1245.78
1764504945.1820185,-4557.599999999999,5676.21,-42773.805,-31638.465,-38841.975,-29894.715,-14378.13,1242.855
1764504945.1820185,-4556.52,5676.84,-42772.455,-31639.185,-38843.055,-29895.165,-14377.59,1243.755
1764504945.1820185,-4559.22,5674.77,-42774.705,-31642.83,-38848.545,-29901.465,-14379.165,1241.145
1764504945.1820185,-4556.295,5677.245,-42772.545,-31641.345,-38848.095,-29902.68,-14377.23,1243.98
1764504945.1820185,-4560.84,5672.835,-42776.955,-31645.8,-38854.17,-29910.195,-14382.495,1238.6699999999998
1764504945.1820185,-4556.88,5678.01,-42771.69,-31639.905,-38848.185,-29905.02,-14380.425,1242.855
1764504945.1820185,-4558.32,5676.929999999999,-42773.085,-31639.635,-38846.79,-29903.49,-14379.345,1241.73
1764504945.1820185,-4563.855,5671.575,-42778.935,-31645.035,-38850.075,-29904.39,-14380.74,1237.41
1764504945.1830325,-4560.075,5674.77,-42775.155,-31641.48,-38844.405,-29896.56,-14377.23,1241.73
1764504945.1830325,-4558.41,5676.03,-42773.805,-31640.445,-38843.235,-29894.355,-14376.735,1242.63
1764504945.1830325,-4557.554999999999,5676.75,-42773.13,-31641.12,-38845.17,-29897.865,-14377.455,1242.54
1764504945.1830325,-4556.745,5678.054999999999,-42771.78,-31640.805,-38845.17,-29900.52,-14377.23,1243.125
1764504945.1830325,-4555.665,5679.81,-42770.835,-31639.815,-38845.62,-29902.14,-14376.825,1244.655
1764504945.1830325,-4554.99,5679.99,-42771.285,-31640.265,-38846.925,-29904.255,-14377.365,1245.78
1764504945.184038,-4558.724999999999,5676.12,-42775.92,-31645.395,-38852.055,-29908.08,-14380.02,1243.035
1764504945.184038,-4557.69,5676.389999999999,-42775.92,-31645.17,-38851.335,-29903.04,-14376.195,1245.4199999999998
1764504945.184038,-4561.245,5673.51,-42778.08,-31647.24,-38853.315,-29906.46,-14379.165,1241.955
1764504945.22777,-4558.455,5676.974999999999,-42773.985,-31641.885,-38847.015,-29899.62,-14377.23,1244.16
1764504945.2282846,-4559.804999999999,5674.679999999999,-42774.39,-31641.84,-38845.8,-29897.055,-14376.915,1241.73
1764504945.2282846,-4555.665,5679.45,-42770.07,-31635.99,-38840.4,-29891.835,-14373.675,1245.24
1764504945.2282846,-4554.764999999999,5680.62,-42768.72,-31634.415,-38839.005,-29891.34,-14373.27,1246.275
1764504945.2282846,-4555.71,5680.485,-42768.495,-31634.865,-38839.77,-29893.5,-14373.495,1246.23
1764504945.2282846,-4557.42,5679.45,-42769.305,-31637.07,-38842.02,-29897.955,-14375.34,1244.2949999999998
1764504945.2282846,-4553.955,5682.014999999999,-42766.965,-31634.595,-38840.265,-29894.94,-14373.63,1246.77
1764504945.2282846,-4558.23,5676.84,-42773.175,-31639.365,-38846.565,-29901.33,-14378.13,1242.855
1764504945.2282846,-4554.675,5680.71,-42770.295,-31637.52,-38846.205,-29904.57,-14377.59,1246.185
1764504945.2282846,-4556.52,5680.26,-42770.295,-31640.04,-38850.57,-29910.87,-14380.83,1242.945
1764504945.2282846,-4554.315,5683.365,-42767.055,-31637.97,-38849.67,-29911.905,-14379.93,1244.88
1764504945.2282846,-4556.835,5680.17,-42770.97,-31638.915,-38848.23,-29906.91,-14378.625,1243.575
1764504945.2282846,-4557.87,5678.775,-42773.58,-31639.095,-38845.305,-29900.43,-14377.005,1244.79
1764504945.2282846,-4560.165,5675.76,-42776.1,-31643.865,-38850.435,-29905.605,-14380.245,1241.325
1764504945.2282846,-4558.455,5677.335,-42774.39,-31642.29,-38848.05,-29900.655,-14378.265,1243.71
1764504945.2282846,-4560.255,5675.895,-42774.975,-31643.28,-38848.995,-29902.23,-14379.48,1241.955
1764504945.2282846,-4555.215,5680.935,-42770.295,-31638.735,-38846.34,-29900.565,-14376.285,1246.86
1764504945.2282846,-4560.255,5674.679999999999,-42775.92,-31644.495,-38852.73,-29908.755,-14381.325,1241.37
1764504945.2282846,-4556.88,5677.29,-42772.995,-31640.535,-38847.24,-29903.895,-14379.795,1245.06
1764504945.2282846,-4557.465,5676.57,-42773.805,-31640.22,-38845.485,-29900.115,-14379.795,1244.745
1764504945.2282846,-4559.31,5674.185,-42775.605,-31643.01,-38847.87,-29900.385,-14381.19,1242.675
1764504945.2293017,-4562.19,5672.295,-42777.63,-31644.9,-38850.48,-29902.23,-14383.395,1239.48
1764504945.2293017,-4560.885,5674.185,-42775.695,-31641.615,-38848.365,-29899.665,-14383.35,1241.235
1764504945.2293017,-4558.995,5675.849999999999,-42773.805,-31640.265,-38846.34,-29895.84,-14382.135,1243.08
1764504945.27648,-4560.615,5674.545,-42775.425,-31642.425,-38848.14,-29897.82,-14383.395,1240.83
1764504945.27648,-4555.125,5679.405,-42770.43,-31636.35,-38843.865,-29894.04,-14380.605,1245.645
1764504945.27648,-4553.595,5679.585,-42770.205,-31636.62,-38844.27,-29896.83,-14380.515,1246.095
1764504945.27648,-4558.5,5674.32,-42775.47,-31643.235,-38850.75,-29904.39,-14384.745,1241.775
1764504945.27648,-4557.645,5675.085,-42774.84,-31643.19,-38850.57,-29904.84,-14384.925,1242.495
1764504945.27648,-4555.845,5676.075,-42774.615,-31642.38,-38850.48,-29904.93,-14384.115,1243.395
1764504945.27648,-4555.304999999999,5676.66,-42773.355,-31642.245,-38850.57,-29905.02,-14383.44,1243.71
1764504945.27648,-4556.16,5676.525,-42772.275,-31641.3,-38848.635,-29903.67,-14383.8,1243.53
1764504945.27648,-4553.054999999999,5679.585,-42768.18,-31637.025,-38844.495,-29898.495,-14382.495,1246.32
1764504945.27648,-4551.705,5681.385,-42766.695,-31635.855,-38844.225,-29897.865,-14381.505,1247.22
1764504945.27648,-4550.849999999999,5681.925,-42767.01,-31635.765,-38844.045,-29897.01,-14381.685,1247.715
1764504945.27648,-4549.86,5682.465,-42765.84,-31635.27,-38842.695,-29893.23,-14380.425,1248.435
1764504945.27648,-4550.175,5681.205,-42767.505,-31636.575,-38844.09,-29895.12,-14380.965,1247.805
1764504945.27648,-4555.17,5676.165,-42773.355,-31642.11,-38849.13,-29902.365,-14385.825,1242.27
1764504945.27648,-4553.415,5678.235,-42772.095,-31639.815,-38846.745,-29900.97,-14385.24,1244.205
1764504945.27648,-4549.815,5681.565,-42768.495,-31637.07,-38845.845,-29903.31,-14384.97,1246.815
1764504945.27648,-4550.355,5681.205,-42769.125,-31639.14,-38849.4,-29911.545,-14387.13,1244.79
1764504945.27648,-4548.825,5682.87,-42767.415,-31638.06,-38848.95,-29911.95,-14386.59,1246.5449999999998
1764504945.27648,-4548.014999999999,5682.96,-42768.405,-31638.06,-38847.015,-29904.57,-14383.845,1248.93
1764504945.27648,-4551.48,5678.955,-42772.05,-31641.48,-38849.67,-29904.39,-14385.375,1245.555
1764504945.277522,-4547.88,5682.42,-42768.405,-31636.845,-38845.125,-29898.765,-14382.135,1248.885
1764504945.277522,-4549.724999999999,5680.485,-42770.295,-31638.78,-38845.89,-29896.515,-14380.56,1247.895
1764504945.3237283,-4545.63,5684.31,-42765.615,-31634.055,-38840.94,-29891.97,-14377.545,1251.855
1764504945.3237283,-4550.985,5679.179999999999,-42770.205,-31637.79,-38843.595,-29894.175,-14381.955,1246.77
1764504945.3237283,-4549.679999999999,5680.844999999999,-42768.18,-31635.945,-38840.715,-29891.07,-14381.325,1247.445
1764504945.3237283,-4545.405,5684.895,-42763.05,-31631.265,-38836.89,-29888.865,-14378.175,1251.405
1764504945.3237283,-4548.33,5682.285,-42765.795,-31633.965,-38841.615,-29895.435,-14380.83,1248.21
1764504945.3237283,-4546.98,5684.535,-42763.995,-31632.615,-38840.805,-29896.065,-14380.155,1249.605
1764504945.3237283,-4542.75,5688.764999999999,-42759.045,-31628.34,-38836.665,-29892.465,-14377.14,1254.555
1764504945.3237283,-4548.554999999999,5683.005,-42765.21,-31634.595,-38842.695,-29896.29,-14380.2,1249.74
1764504945.3237283,-4547.97,5683.635,-42765.48,-31635.135,-38842.605,-29895.66,-14379.57,1250.28
1764504945.3237283,-4542.48,5688.855,-42760.665,-31629.735,-38836.98,-29891.655,-14376.87,1255.05
1764504945.3237283,-4541.76,5688.27,-42761.52,-31629.195,-38836.26,-29892.915,-14375.655,1255.365
1764504945.3237283,-4546.08,5682.96,-42766.38,-31634.1,-38840.67,-29898.81,-14379.3,1251.36
1764504945.3252704,-4547.79,5682.78,-42767.505,-31634.19,-38841.57,-29901.195,-14379.84,1249.695
1764504945.3252704,-4545.315,5685.885,-42763.32,-31630.185,-38839.365,-29899.44,-14378.895,1251.36
1764504945.3252704,-4545.764999999999,5685.165,-42763.86,-31633.02,-38842.605,-29902.005,-14380.245,1249.38
1764504945.3252704,-4541.264999999999,5689.26,-42759.945,-31628.745,-38838.87,-29897.82,-14378.13,1252.755
1764504945.3252704,-4542.435,5687.685,-42761.385,-31629.6,-38839.05,-29895.615,-14378.175,1252.755
1764504945.3252704,-4549.185,5680.485,-42769.08,-31637.565,-38845.755,-29899.98,-14381.19,1247.31
1764504945.3252704,-4549.77,5679.45,-42770.655,-31638.42,-38846.115,-29897.505,-14380.65,1246.815
1764504945.3252704,-4547.07,5682.51,-42767.82,-31634.775,-38841.705,-29890.485,-14376.78,1250.145
1764504945.3252704,-4547.295,5682.15,-42767.55,-31633.83,-38838.78,-29887.38,-14376.6,1250.055
1764504945.3252704,-4552.38,5677.38,-42771.69,-31638.42,-38843.415,-29892.87,-14381.19,1244.835
1764504945.3252704,-4553.19,5676.885,-42771.375,-31638.735,-38844.585,-29894.04,-14381.955,1244.43
1764504945.3252704,-4551.885,5678.91,-42769.215,-31635.495,-38841.03,-29892.42,-14381.28,1246.185
1764504945.3682375,-4546.62,5683.77,-42765.165,-31630.005,-38833.965,-29885.895,-14375.655,1252.035
1764504945.3682375,-4551.21,5679.675,-42769.17,-31635.18,-38839.77,-29891.385,-14379.3,1248.03
1764504945.3682375,-4550.22,5681.385,-42766.74,-31634.235,-38839.725,-29892.51,-14379.255,1247.895
1764504945.369238,-4546.8,5684.445,-42762.6,-31630.14,-38835.315,-29887.83,-14377.005,1251.405
1764504945.369238,-4550.58,5681.205,-42766.56,-31633.785,-38839.185,-29892.015,-14379.075,1248.12
1764504945.369238,-4549.005,5683.005,-42765.3,-31634.28,-38841.48,-29894.58,-14377.995,1249.605
1764504945.369238,-4545.54,5687.054999999999,-42761.385,-31631.715,-38840.58,-29895.165,-14375.34,1253.7
1764504945.369238,-4549.095,5683.365,-42765.345,-31636.08,-38845.305,-29900.34,-14378.445,1250.01
1764504945.3702357,-4544.145,5687.73,-42762.105,-31632.165,-38842.29,-29898.09,-14375.925,1254.24
1764504945.3702357,-4543.875,5687.82,-42761.34,-31631.535,-38839.455,-29896.695,-14374.845,1254.105
1764504945.3702357,-4546.575,5685.795,-42763.095,-31630.995,-38836.755,-29893.59,-14375.43,1251.765
1764504945.3702357,-4551.57,5681.205,-42768.315,-31633.83,-38838.78,-29894.22,-14379.345,1247.625
1764504945.3702357,-4551.435,5681.52,-42767.73,-31633.47,-38837.925,-29891.205,-14377.23,1248.21
1764504945.3702357,-4550.49,5682.78,-42764.805,-31631.31,-38835.54,-29888.055,-14375.475,1249.515
1764504945.3702357,-4548.014999999999,5685.66,-42761.115,-31627.755,-38831.895,-29883.915,-14372.955,1252.755
1764504945.371745,-4549.455,5684.31,-42763.23,-31630.005,-38835.315,-29887.245,-14374.305,1251.36
1764504945.3722184,-4545.495,5688.27,-42759.945,-31627.17,-38833.56,-29885.715,-14372.415,1255.995
1764504945.3722184,-4548.375,5685.344999999999,-42763.365,-31630.815,-38837.745,-29890.98,-14374.755,1252.755
1764504945.3722184,-4552.965,5681.385,-42767.775,-31635.945,-38843.46,-29896.155,-14376.87,1248.39
1764504945.3722184,-4552.92,5682.51,-42767.37,-31636.08,-38843.19,-29896.965,-14377.77,1248.885
1764504945.372754,-4548.24,5687.054999999999,-42762.69,-31631.58,-38839.68,-29895.165,-14375.61,1253.16
1764504945.372754,-4549.5,5686.335,-42764.13,-31634.1,-38843.055,-29899.845,-14376.87,1250.685
1764504945.4177787,-4547.655,5687.91,-42762.105,-31633.155,-38841.255,-29897.19,-14375.07,1252.62
1764504945.4177787,-4549.995,5684.535,-42765.705,-31636.17,-38844.45,-29899.395,-14376.915,1251.135
1764504945.418228,-4548.645,5686.245,-42763.365,-31633.155,-38839.59,-29893.77,-14376.06,1253.52
1764504945.418228,-4551.525,5683.59,-42765.165,-31633.785,-38838.51,-29892.105,-14374.53,1251.855
1764504945.418228,-4547.61,5687.865,-42762.15,-31629.87,-38835.495,-29891.115,-14371.875,1254.69
1764504945.418228,-4552.74,5682.42,-42767.055,-31635.27,-38840.355,-29896.515,-14377.05,1249.38
1764504945.418228,-4549.41,5685.21,-42763.05,-31631.13,-38835.585,-29889.945,-14373.36,1252.305
1764504945.418228,-4549.23,5685.48,-42763.14,-31629.06,-38833.515,-29885.175,-14371.92,1252.8
1764504945.418228,-4552.02,5682.915,-42766.92,-31631.85,-38835.72,-29885.805,-14373.09,1250.595
1764504945.4192245,-4548.87,5687.37,-42762.555,-31628.205,-38831.535,-29882.295,-14370.39,1254.105
1764504945.4192245,-4549.905,5686.785,-42762.915,-31629.375,-38832.795,-29885.13,-14371.02,1251.72
1764504945.4192245,-4549.455,5687.415,-42762.015,-31630.095,-38834.145,-29888.64,-14371.515,1251.45
1764504945.4192245,-4545.99,5690.79,-42759.765,-31628.16,-38834.055,-29889.225,-14369.265,1255.185
1764504945.4192245,-4548.06,5688.585,-42763.14,-31631.04,-38836.395,-29888.82,-14369.22,1254.33
1764504945.4192245,-4546.98,5689.08,-42761.79,-31630.32,-38836.665,-29890.665,-14369.49,1255.275
1764504945.4192245,-4548.78,5686.83,-42763.23,-31632.39,-38840.265,-29895.975,-14371.965,1253.025
1764504945.420246,-4551.48,5683.635,-42766.245,-31636.035,-38844.225,-29899.62,-14375.025,1250.28
1764504945.420246,-4552.965,5682.78,-42767.46,-31637.88,-38844.27,-29898.855,-14376.915,1248.12
1764504945.420246,-4550.04,5686.469999999999,-42764.04,-31633.425,-38840.085,-29894.715,-14374.44,1250.73
1764504945.420246,-4547.88,5688.99,-42760.215,-31630.545,-38838.51,-29896.605,-14372.955,1253.43
1764504945.420246,-4547.97,5689.08,-42759.585,-31628.655,-38835.315,-29893.815,-14371.515,1253.385
