Timestamp,Channel1,Channel2,Channel3,Channel4,Channel5,Channel6,Channel7,Channel8
1764505567.4530532,19765.485,-18859.14,-8758.44,-16671.915,-28935.405,-49179.105,-24920.505,-25791.3
1764505567.4530532,19765.26,-18859.365,-8758.845,-16672.32,-28934.955,-49179.69,-24920.955,-25791.57
1764505567.4530532,19767.465,-18857.88,-8757.09,-16670.385,-28932.12,-49176.945,-24918.075,-25789.23
1764505567.4530532,19766.835,-18859.5,-8757.945,-16670.204999999998,-28931.58,-49175.73,-24917.04,-25788.375
1764505567.4530532,19765.53,-18860.94,-8758.755,-16671.555,-28932.48,-49176.675,-24917.355,-25788.69
1764505567.4530532,19763.64,-18863.28,-8760.69,-16674.48,-28935.0,-49178.97,-24919.38,-25790.805
1764505567.4530532,19768.23,-18856.98,-8756.64,-16671.239999999998,-28933.02,-49177.305,-24917.715,-25788.555
1764505567.4530532,19765.485,-18857.745,-8758.89,-16674.704999999998,-28937.295,-49181.445,-24922.17,-25792.38
1764505567.4530532,19764.945,-18858.78,-8758.17,-16674.255,-28937.79,-49181.265,-24921.09,-25792.605
1764505567.4530532,19768.23,-18855.405,-8753.58,-16669.755,-28933.695,-49177.53,-24917.58,-25789.95
1764505567.4530532,19766.07,-18858.42,-8756.414999999999,-16672.905,-28935.495,-49179.555,-24919.83,-25792.02
1764505567.4530532,19769.13,-18855.27,-8753.13,-16669.17,-28932.255,-49176.18,-24916.905,-25788.33
1764505567.4530532,19769.04,-18855.765,-8752.949999999999,-16668.495,-28932.255,-49176.45,-24916.23,-25787.88
1764505567.4530532,19767.645,-18857.97,-8754.435,-16669.53,-28933.695,-49177.575,-24916.905,-25789.185
1764505567.4530532,19764.81,-18860.265,-8757.36,-16672.545,-28936.44,-49180.005,-24919.695,-25791.84
1764505567.4530532,19762.2,-18861.795,-8759.88,-16674.84,-28938.78,-49181.94,-24922.53,-25794.27
1764505567.4530532,19766.07,-18858.915,-8756.595,-16671.87,-28935.855,-49178.79,-24919.605,-25791.21
1764505567.4530532,19765.035,-18860.445,-8757.765,-16673.76,-28936.575,-49179.915,-24920.865,-25792.74
1764505567.4530532,19765.845,-18859.68,-8757.63,-16672.95,-28935.945,-49179.645,-24921.09,-25792.065
1764505567.4530532,19765.62,-18860.175,-8757.99,-16672.905,-28936.665,-49180.005,-24921.315,-25791.39
1764505567.4530532,19763.28,-18861.795,-8760.15,-16675.11,-28937.925,-49182.165,-24922.53,-25793.595
1764505567.4530532,19765.08,-18860.04,-8757.99,-16672.86,-28936.395,-49179.51,-24920.19,-25792.065
1764505567.4530532,19764.045,-18861.57,-8759.475,-16673.895,-28937.7,-49180.185,-24922.395,-25793.28
1764505567.4530532,19763.955,-18861.795,-8759.61,-16673.94,-28937.34,-49180.77,-24922.8,-25792.83
1764505567.494341,19766.475,-18858.285,-8756.19,-16670.34,-28934.28,-49177.89,-24919.29,-25789.995
1764505567.494341,19766.52,-18858.555,-8755.515,-16670.25,-28934.415,-49177.62,-24920.1,-25790.58
1764505567.494341,19766.745,-18858.69,-8755.74,-16670.475,-28934.46,-49177.08,-24920.28,-25790.04
1764505567.494341,19764.72,-18860.715,-8758.305,-16672.5,-28937.34,-49179.78,-24922.35,-25791.93
1764505567.4953537,19765.395,-18859.5,-8757.404999999999,-16671.51,-28936.305,-49179.24,-24921.495,-25790.715
1764505567.4953537,19763.955,-18861.165,-8758.395,-16672.95,-28936.845,-49180.185,-24922.755,-25791.615
1764505567.4953537,19761.12,-18864.495,-8761.32,-16675.559999999998,-28939.23,-49182.93,-24925.59,-25794.99
1764505567.4953537,19762.515,-18862.74,-8759.835,-16673.399999999998,-28937.79,-49181.13,-24924.69,-25794.045
1764505567.4953537,19764.72,-18859.68,-8757.135,-16670.655,-28935.675,-49178.43,-24922.08,-25791.615
1764505567.4953537,19761.39,-18863.28,-8761.14,-16674.885,-28939.635,-49182.165,-24925.635,-25796.16
1764505567.4953537,19762.38,-18863.145,-8761.05,-16674.704999999998,-28939.455,-49182.345,-24925.815,-25795.755
1764505567.4953537,19765.26,-18860.22,-8757.945,-16671.329999999998,-28936.305,-49179.195,-24923.115,-25792.38
1764505567.4968953,19765.035,-18859.95,-8757.494999999999,-16670.43,-28935.72,-49178.34,-24922.17,-25791.03
1764505567.4968953,19763.685,-18861.525,-8758.08,-16671.555,-28936.89,-49179.285,-24923.61,-25792.065
1764505567.4968953,19763.73,-18861.12,-8758.44,-16671.195,-28936.62,-49178.745,-24923.115,-25792.155
1764505567.4968953,19759.635,-18865.215,-8762.535,-16675.02,-28940.94,-49183.56,-24927.39,-25796.97
1764505567.4968953,19759.68,-18864.9,-8761.86,-16674.84,-28941.03,-49184.01,-24926.895,-25796.61
1764505567.4974413,19763.865,-18861.39,-8757.855,-16670.655,-28936.215,-49180.32,-24922.44,-25792.875
1764505567.4974413,19763.055,-18862.56,-8758.619999999999,-16671.69,-28937.385,-49181.085,-24923.52,-25793.685
1764505567.4974413,19759.86,-18866.16,-8761.5,-16674.84,-28940.805,-49184.01,-24926.265,-25796.43
1764505567.4974413,19761.93,-18863.73,-8759.295,-16672.32,-28938.42,-49182.255,-24923.295,-25794.18
1764505567.4974413,19765.935,-18859.14,-8755.199999999999,-16668.72,-28934.46,-49178.655,-24919.29,-25790.04
1764505567.4974413,19767.105,-18857.835,-8754.75,-16667.37,-28933.11,-49178.07,-24918.705,-25788.555
1764505567.4974413,19765.755,-18860.04,-8756.414999999999,-16668.45,-28933.965,-49179.78,-24919.74,-25789.59
1764505567.544129,19762.92,-18863.01,-8759.205,-16671.239999999998,-28936.98,-49182.255,-24922.575,-25792.47
1764505567.544129,19764.81,-18861.03,-8757.18,-16669.845,-28935.09,-49180.59,-24920.37,-25790.895
1764505567.544129,19764.36,-18861.39,-8757.539999999999,-16670.295,-28935.18,-49181.355,-24920.415,-25791.21
1764505567.544129,19761.075,-18864.9,-8761.455,-16673.715,-28938.645,-49184.46,-24923.61,-25794.63
1764505567.544129,19764.135,-18861.48,-8758.529999999999,-16671.69,-28935.675,-49181.67,-24920.685,-25792.065
1764505567.5446682,19763.685,-18862.29,-8759.25,-16672.364999999998,-28937.025,-49182.615,-24921.495,-25793.37
1764505567.5446682,19760.58,-18866.07,-8761.77,-16674.704999999998,-28940.535,-49185.855,-24924.69,-25796.835
1764505567.5446682,19763.145,-18863.1,-8758.395,-16671.105,-28936.395,-49182.255,-24921.675,-25793.415
1764505567.5446682,19761.615,-18863.865,-8758.8,-16672.095,-28937.115,-49182.975,-24922.44,-25793.865
1764505567.5446682,19756.755,-18868.86,-8763.39,-16676.64,-28941.615,-49187.52,-24926.67,-25798.905
1764505567.5446682,19758.285,-18867.33,-8762.039999999999,-16675.829999999998,-28940.445,-49185.675,-24925.275,-25797.105
1764505567.5446682,19761.885,-18865.395,-8760.779999999999,-16675.02,-28939.68,-49185.045,-24923.79,-25793.37
1764505567.5446682,19762.92,-18863.505,-8759.205,-16673.76,-28939.005,-49183.965,-24922.89,-25792.38
1764505567.5446682,19766.43,-18860.04,-8755.065,-16669.125,-28934.505,-49179.69,-24918.57,-25788.735
1764505567.5446682,19766.07,-18860.49,-8755.56,-16668.989999999998,-28934.82,-49179.915,-24918.345,-25789.635
1764505567.5446682,19762.92,-18864.045,-8758.17,-16671.42,-28938.195,-49182.75,-24920.955,-25792.605
1764505567.5446682,19762.2,-18863.865,-8758.529999999999,-16671.87,-28938.015,-49182.615,-24921.315,-25793.055
1764505567.5446682,19763.505,-18862.02,-8757.494999999999,-16670.52,-28936.53,-49180.815,-24921.045,-25792.11
1764505567.5446682,19766.655,-18858.69,-8753.895,-16667.055,-28933.065,-49177.395,-24917.58,-25788.51
1764505567.5446682,19764.9,-18859.77,-8754.255,-16667.864999999998,-28934.685,-49179.105,-24919.155,-25789.905
1764505567.5446682,19763.19,-18861.705,-8756.19,-16670.204999999998,-28935.495,-49181.265,-24921.18,-25791.21
1764505567.5446682,19760.625,-18864.09,-8758.305,-16672.14,-28937.745,-49182.705,-24923.52,-25793.46
1764505567.5446682,19765.89,-18859.275,-8752.815,-16667.055,-28933.38,-49177.53,-24918.48,-25788.51
1764505567.5446682,19766.655,-18858.465,-8753.039999999999,-16667.235,-28932.84,-49177.26,-24917.58,-25787.88
1764505567.5878215,19765.845,-18859.86,-8753.535,-16668.315,-28933.47,-49178.565,-24918.795,-25789.23
1764505567.5878215,19764.81,-18861.57,-8754.84,-16668.945,-28934.595,-49179.105,-24920.325,-25789.59
1764505567.5878215,19762.38,-18863.55,-8756.685,-16670.88,-28937.115,-49181.13,-24922.35,-25791.795
1764505567.5878215,19763.325,-18862.155,-8756.414999999999,-16670.07,-28936.845,-49180.86,-24921.36,-25791.615
1764505567.5878215,19762.11,-18863.235,-8758.664999999999,-16671.42,-28938.645,-49181.715,-24922.44,-25792.02
1764505567.5878215,19757.79,-18867.645,-8763.119999999999,-16674.93,-28941.795,-49185.27,-24926.265,-25795.62
1764505567.5878215,19761.345,-18864.45,-8758.98,-16671.69,-28938.87,-49181.895,-24922.71,-25792.2
1764505567.5878215,19761.39,-18864.675,-8756.91,-16670.7,-28937.52,-49181.625,-24922.89,-25792.245
1764505567.5878215,19760.94,-18866.07,-8758.664999999999,-16671.69,-28937.88,-49182.84,-24923.88,-25793.01
1764505567.5878215,19758.195,-18868.725,-8761.904999999999,-16675.785,-28941.48,-49186.305,-24927.21,-25795.665
1764505567.5878215,19759.68,-18865.98,-8757.494999999999,-16671.915,-28938.24,-49183.875,-24924.915,-25793.865
1764505567.5878215,19757.61,-18867.42,-8759.34,-16673.579999999998,-28940.49,-49185.135,-24926.58,-25795.8
1764505567.5878215,19757.88,-18866.88,-8759.654999999999,-16673.265,-28940.355,-49184.325,-24926.445,-25795.62
1764505567.5878215,19760.985,-18864.405,-8757.27,-16671.059999999998,-28937.52,-49181.805,-24924.195,-25792.965
1764505567.5878215,19760.04,-18865.935,-8758.98,-16672.815,-28938.915,-49183.695,-24925.725,-25794.18
1764505567.5878215,19755.495,-18870.705,-8764.38,-16677.405,-28943.91,-49187.925,-24930.405,-25798.95
1764505567.5893502,19758.51,-18867.465,-8761.095,-16674.075,-28940.67,-49184.64,-24927.165,-25795.62
1764505567.5893502,19760.31,-18866.025,-8759.52,-16672.545,-28938.825,-49183.2,-24925.68,-25794.18
1764505567.5893502,19760.265,-18866.745,-8759.43,-16673.085,-28939.545,-49183.92,-24925.365,-25794.675
1764505567.5893502,19759.77,-18867.06,-8760.06,-16672.905,-28939.68,-49183.695,-24925.23,-25794.405
1764505567.5893502,19757.295,-18868.815,-8762.76,-16674.975,-28942.29,-49185.72,-24927.705,-25796.61
1764505567.5893502,19757.655,-18868.545,-8761.725,-16674.39,-28941.165,-49184.91,-24928.065,-25796.43
1764505567.5893502,19761.75,-18864.99,-8758.529999999999,-16670.745,-28937.25,-49181.04,-24924.285,-25793.055
1764505567.5893502,19762.65,-18864.135,-8757.72,-16669.44,-28936.485,-49180.14,-24922.755,-25792.515
1764505567.6379232,19761.525,-18865.035,-8757.945,-16670.7,-28937.61,-49181.49,-24923.97,-25793.82
1764505567.6379232,19758.105,-18868.365,-8760.96,-16673.489999999998,-28941.03,-49184.955,-24926.94,-25797.195
1764505567.6379232,19760.805,-18865.755,-8757.99,-16671.059999999998,-28938.33,-49181.535,-24924.105,-25794.495
1764505567.6379232,19757.025,-18869.76,-8761.949999999999,-16675.605,-28942.38,-49185.72,-24928.74,-25799.085
1764505567.6379232,19755.72,-18871.29,-8763.39,-16677.225,-28943.235,-49186.755,-24930.09,-25799.445
1764505567.6379232,19755.9,-18870.525,-8762.175,-16676.19,-28941.705,-49185.585,-24928.56,-25798.23
1764505567.6379232,19757.79,-18869.49,-8761.095,-16674.524999999998,-28940.535,-49184.685,-24927.615,-25796.655
1764505567.6379232,19759.995,-18866.835,-8758.17,-16671.465,-28937.745,-49182.075,-24924.915,-25794.18
1764505567.6379232,19758.465,-18867.78,-8759.385,-16672.364999999998,-28938.555,-49182.705,-24925.905,-25795.08
1764505567.6389391,19761.435,-18864.54,-8756.414999999999,-16669.665,-28935.45,-49179.915,-24923.025,-25791.795
1764505567.6389391,19760.67,-18865.53,-8757.585,-16670.97,-28937.07,-49181.445,-24924.285,-25793.82
1764505567.6389391,19757.25,-18869.49,-8761.14,-16673.445,-28940.22,-49184.73,-24926.94,-25797.105
1764505567.6389391,19759.86,-18866.925,-8757.855,-16671.465,-28937.745,-49182.3,-24924.735,-25793.64
1764505567.6389391,19758.195,-18868.77,-8759.52,-16673.67,-28939.995,-49184.595,-24926.49,-25795.71
1764505567.6389391,19762.38,-18864.315,-8755.74,-16669.71,-28936.35,-49180.23,-24922.53,-25791.885
1764505567.6389391,19761.165,-18865.26,-8756.235,-16670.565,-28936.845,-49181.04,-24922.845,-25792.065
1764505567.6389391,19757.88,-18867.51,-8758.935,-16673.13,-28939.95,-49184.145,-24925.005,-25795.215
1764505567.6389391,19760.085,-18866.565,-8757.945,-16671.465,-28938.51,-49182.075,-24923.52,-25794.225
1764505567.6389391,19759.185,-18867.96,-8758.215,-16671.96,-28939.185,-49182.795,-24924.015,-25794.27
1764505567.6389391,19759.95,-18866.88,-8756.73,-16670.34,-28938.285,-49182.075,-24923.115,-25793.37
1764505567.6389391,19763.955,-18862.74,-8752.904999999999,-16666.739999999998,-28934.82,-49178.07,-24919.605,-25789.815
1764505567.6389391,19761.12,-18865.44,-8756.279999999999,-16669.98,-28937.295,-49180.905,-24922.98,-25792.74
1764505567.682227,19758.285,-18869.445,-8760.24,-16674.255,-28940.67,-49184.73,-24926.715,-25796.745
1764505567.682227,19760.895,-18866.61,-8756.82,-16670.97,-28937.655,-49182.255,-24923.205,-25793.415
1764505567.682227,19758.87,-18868.275,-8758.619999999999,-16671.69,-28939.05,-49184.19,-24925.32,-25794.09
1764505567.682227,19760.085,-18866.97,-8757.045,-16670.204999999998,-28938.555,-49183.65,-24923.52,-25793.505
1764505567.682227,19761.12,-18865.62,-8754.164999999999,-16668.0,-28936.53,-49181.715,-24921.45,-25792.29
1764505567.6827595,19759.23,-18867.42,-8756.775,-16670.204999999998,-28938.375,-49183.155,-24923.34,-25794.27
1764505567.6827595,19761.885,-18864.9,-8754.84,-16667.505,-28935.27,-49180.635,-24921.405,-25791.345
1764505567.6827595,19762.11,-18865.26,-8755.47,-16668.27,-28935.81,-49180.05,-24921.135,-25791.39
1764505567.6827595,19762.83,-18864.63,-8754.48,-16668.36,-28935.27,-49179.465,-24920.28,-25790.715
1764505567.6827595,19761.255,-18866.07,-8755.965,-16668.989999999998,-28936.35,-49181.535,-24922.215,-25792.02
1764505567.6827595,19757.88,-18868.815,-8759.025,-16672.005,-28939.365,-49183.965,-24925.095,-25794.63
1764505567.6827595,19758.915,-18867.6,-8757.18,-16670.565,-28937.7,-49182.48,-24923.34,-25793.415
1764505567.6827595,19760.355,-18866.565,-8755.92,-16669.215,-28936.395,-49181.13,-24922.125,-25792.02
1764505567.6827595,19759.5,-18867.33,-8756.91,-16670.43,-28937.79,-49182.12,-24922.665,-25793.19
1764505567.6827595,19762.515,-18864.045,-8754.164999999999,-16667.01,-28935.36,-49179.105,-24920.145,-25789.545
1764505567.6827595,19759.815,-18866.565,-8756.595,-16669.17,-28936.755,-49181.265,-24922.755,-25791.435
1764505567.6827595,19756.305,-18870.165,-8760.6,-16673.445,-28940.04,-49185.315,-24925.68,-25795.485
1764505567.6827595,19757.88,-18867.78,-8758.035,-16671.465,-28938.15,-49183.515,-24923.52,-25793.505
1764505567.6827595,19762.515,-18862.83,-8752.815,-16666.38,-28932.615,-49177.845,-24918.84,-25788.51
1764505567.6827595,19760.355,-18865.395,-8754.48,-16667.73,-28934.37,-49179.6,-24920.505,-25791.165
1764505567.6827595,19760.67,-18864.495,-8754.255,-16666.515,-28934.325,-49179.015,-24920.055,-25790.67
1764505567.6827595,19757.835,-18867.375,-8757.539999999999,-16670.25,-28938.06,-49182.165,-24923.88,-25794.315
1764505567.730069,19760.805,-18866.295,-8757.315,-16670.34,-28937.475,-49181.31,-24922.71,-25791.075
1764505567.730069,19758.645,-18868.32,-8759.789999999999,-16673.805,-28940.535,-49184.055,-24925.41,-25793.19
1764505567.730069,19759.95,-18867.285,-8757.404999999999,-16671.42,-28937.475,-49182.525,-24923.34,-25791.795
1764505567.730069,19762.02,-18864.72,-8755.02,-16667.73,-28935.045,-49180.275,-24920.955,-25789.455
1764505567.730069,19758.96,-18867.825,-8757.36,-16670.43,-28937.745,-49182.84,-24923.79,-25792.65
1764505567.730069,19760.58,-18866.43,-8754.795,-16669.395,-28936.26,-49181.175,-24921.99,-25790.94
1764505567.730069,19767.24,-18860.265,-8748.9,-16662.735,-28930.275,-49174.92,-24916.005,-25784.91
1764505567.730069,19765.62,-18861.57,-8750.654999999999,-16664.265,-28931.58,-49176.27,-24917.175,-25786.62
1764505567.7310886,19765.395,-18861.84,-8750.789999999999,-16665.48,-28932.39,-49176.63,-24917.715,-25787.295
1764505567.7310886,19764.81,-18863.145,-8751.645,-16666.38,-28933.065,-49178.07,-24918.705,-25788.645
1764505567.7310886,19762.785,-18865.395,-8753.58,-16668.63,-28935.405,-49180.815,-24921.54,-25790.31
1764505567.7310886,19763.415,-18864.72,-8753.085,-16667.684999999998,-28935.36,-49179.69,-24920.685,-25789.59
1764505567.7310886,19765.8,-18861.615,-8750.43,-16664.895,-28931.94,-49176.54,-24917.4,-25786.53
1764505567.7310886,19765.62,-18862.47,-8750.61,-16665.84,-28932.39,-49177.44,-24917.85,-25787.52
1764505567.7310886,19764.675,-18864.36,-8752.545,-16667.505,-28933.65,-49178.97,-24920.01,-25789.365
1764505567.7310886,19764.315,-18864.045,-8753.085,-16667.73,-28933.965,-49179.24,-24919.605,-25789.095
1764505567.7310886,19763.955,-18864.18,-8752.725,-16667.954999999998,-28934.37,-49179.105,-24919.38,-25788.87
1764505567.7310886,19759.815,-18868.995,-8756.64,-16671.915,-28938.195,-49182.885,-24923.79,-25792.875
1764505567.7310886,19760.985,-18867.285,-8755.244999999999,-16670.61,-28937.34,-49181.895,-24923.655,-25791.84
1764505567.7310886,19758.735,-18869.94,-8758.305,-16673.399999999998,-28939.14,-49184.37,-24925.995,-25794.045
1764505567.7326052,19762.29,-18866.115,-8755.02,-16669.8,-28934.955,-49180.23,-24921.585,-25789.77
1764505567.7326052,19760.625,-18867.78,-8757.36,-16670.925,-28936.935,-49181.805,-24922.89,-25791.255
1764505567.7326052,19762.83,-18864.27,-8754.074999999999,-16668.36,-28934.73,-49179.015,-24920.415,-25788.78
1764505567.7326052,19760.535,-18865.305,-8753.13,-16668.765,-28936.08,-49180.095,-24922.08,-25790.13
1764505567.7769785,19764.27,-18862.02,-8749.664999999999,-16665.66,-28932.615,-49177.26,-24918.885,-25786.665
1764505567.7769785,19765.8,-18861.435,-8749.08,-16665.12,-28932.345,-49176.54,-24917.94,-25785.855
1764505567.7769785,19766.295,-18860.805,-8748.404999999999,-16664.175,-28931.85,-49175.415,-24917.805,-25784.595
1764505567.7769785,19762.785,-18864.54,-8752.949999999999,-16667.82,-28935.045,-49178.745,-24922.215,-25788.6
1764505567.7769785,19763.01,-18864.72,-8752.14,-16667.28,-28934.28,-49178.745,-24921.855,-25789.05
1764505567.7769785,19765.485,-18861.57,-8749.574999999999,-16664.895,-28931.13,-49175.64,-24919.02,-25785.54
1764505567.7769785,19764.315,-18862.02,-8750.34,-16665.434999999998,-28931.85,-49176.585,-24919.605,-25786.305
1764505567.7769785,19762.92,-18864.225,-8752.365,-16667.37,-28933.47,-49178.655,-24921.27,-25788.06
1764505567.7769785,19761.21,-18866.205,-8754.525,-16669.215,-28935.72,-49180.725,-24924.06,-25790.355
1764505567.7779963,19764.0,-18862.605,-8752.23,-16666.29,-28933.515,-49178.205,-24922.485,-25787.88
1764505567.7779963,19761.885,-18864.63,-8753.94,-16668.27,-28935.36,-49180.14,-24924.105,-25790.265
1764505567.7779963,19764.675,-18862.605,-8750.43,-16665.48,-28932.48,-49177.17,-24920.37,-25787.385
1764505567.7779963,19762.92,-18864.72,-8751.869999999999,-16667.145,-28933.965,-49178.025,-24921.45,-25788.78
1764505567.7779963,19758.51,-18868.905,-8756.865,-16671.69,-28938.735,-49182.48,-24926.535,-25793.55
1764505567.7779963,19762.02,-18866.43,-8753.265,-16669.079999999998,-28935.18,-49179.015,-24923.205,-25790.265
1764505567.779003,19761.795,-18866.295,-8752.904999999999,-16669.305,-28935.495,-49179.285,-24923.07,-25790.175
1764505567.779003,19758.645,-18869.94,-8755.875,-16672.545,-28938.78,-49182.705,-24925.995,-25793.415
1764505567.779003,19758.195,-18871.11,-8757.09,-16673.175,-28939.14,-49183.695,-24927.66,-25794.405
1764505567.779003,19758.78,-18870.975,-8757.404999999999,-16672.274999999998,-28938.78,-49183.29,-24926.355,-25793.865
1764505567.779003,19759.005,-18870.885,-8757.09,-16672.184999999998,-28938.87,-49183.605,-24925.365,-25793.685
1764505567.779003,19759.455,-18870.03,-8756.46,-16672.32,-28938.69,-49182.795,-24924.78,-25793.325
1764505567.779003,19761.21,-18867.06,-8753.94,-16670.16,-28936.395,-49180.545,-24922.35,-25791.57
1764505567.779003,19766.52,-18862.02,-8748.945,-16664.085,-28931.04,-49176.09,-24917.085,-25786.305
1764505567.779003,19765.755,-18863.64,-8750.97,-16666.155,-28932.66,-49177.26,-24918.21,-25787.475
1764505567.8231754,19762.155,-18867.24,-8754.705,-16669.934999999998,-28936.035,-49180.23,-24922.035,-25791.39
1764505567.8231754,19761.03,-18869.265,-8755.965,-16671.329999999998,-28937.745,-49182.075,-24923.61,-25793.505
1764505567.8231754,19763.01,-18867.33,-8754.21,-16669.755,-28936.53,-49180.455,-24922.08,-25791.66
1764505567.8231754,19760.265,-18870.03,-8756.235,-16672.59,-28939.41,-49182.21,-24924.42,-25793.55
1764505567.8231754,19761.795,-18868.23,-8753.625,-16670.114999999998,-28937.7,-49180.14,-24922.98,-25792.2
1764505567.8231754,19760.895,-18869.58,-8754.705,-16670.34,-28937.43,-49181.22,-24923.88,-25793.55
1764505567.8231754,19760.13,-18870.39,-8755.56,-16671.239999999998,-28937.97,-49182.345,-24925.14,-25794.72
1764505567.8231754,19760.895,-18869.715,-8755.875,-16671.149999999998,-28937.565,-49181.805,-24925.005,-25793.91
1764505567.8231754,19762.65,-18867.645,-8754.21,-16669.62,-28936.35,-49180.005,-24923.61,-25792.155
1764505567.8231754,19759.41,-18871.155,-8757.765,-16672.545,-28939.32,-49183.335,-24926.805,-25795.08
1764505567.8231754,19756.89,-18874.305,-8760.69,-16675.065,-28941.795,-49186.44,-24929.1,-25798.32
1764505567.8231754,19759.32,-18870.84,-8756.369999999999,-16671.149999999998,-28938.555,-49182.435,-24925.59,-25794.99
1764505567.8231754,19759.725,-18869.58,-8755.92,-16670.52,-28937.745,-49181.58,-24925.365,-25794.405
1764505567.8251789,19759.23,-18870.57,-8756.055,-16670.565,-28937.88,-49182.39,-24925.68,-25795.305
1764505567.8251789,19757.16,-18872.64,-8757.99,-16672.635,-28940.715,-49184.73,-24928.065,-25797.42
1764505567.8251789,19756.485,-18872.055,-8757.0,-16672.364999999998,-28939.32,-49183.695,-24927.93,-25797.825
1764505567.8251789,19759.23,-18868.68,-8753.31,-16668.63,-28935.855,-49180.365,-24924.87,-25794.945
1764505567.8251789,19759.275,-18868.455,-8753.58,-16668.585,-28935.315,-49180.185,-24924.51,-25794.54
1764505567.8251789,19764.945,-18864.36,-8749.305,-16664.76,-28931.67,-49175.73,-24920.685,-25789.365
1764505567.8251789,19764.45,-18865.89,-8751.195,-16666.47,-28934.01,-49178.07,-24922.305,-25790.13
1764505567.8261764,19761.075,-18868.77,-8754.255,-16669.35,-28936.395,-49180.77,-24925.455,-25793.865
1764505567.8261764,19762.56,-18866.7,-8752.275,-16667.415,-28933.425,-49178.745,-24923.115,-25791.615
1764505567.8261764,19760.445,-18868.95,-8754.48,-16669.845,-28935.945,-49181.31,-24925.68,-25793.91
1764505567.8261764,19760.13,-18868.68,-8753.94,-16668.945,-28935.765,-49181.31,-24925.455,-25793.28
1764505567.8710237,19763.82,-18864.945,-8750.654999999999,-16664.265,-28931.805,-49176.45,-24921.18,-25789.68
1764505567.8710237,19762.92,-18865.17,-8750.744999999999,-16664.625,-28932.435,-49176.18,-24921.18,-25789.275
1764505567.8710237,19762.38,-18866.385,-8752.32,-16666.02,-28933.92,-49177.395,-24922.89,-25790.13
1764505567.8710237,19761.615,-18867.87,-8753.22,-16667.505,-28934.91,-49178.835,-24924.69,-25791.57
1764505567.8710237,19764.945,-18864.27,-8749.44,-16663.995,-28931.04,-49175.19,-24921.495,-25788.15
1764505567.8710237,19763.73,-18865.35,-8750.699999999999,-16664.715,-28931.985,-49175.91,-24922.26,-25789.23
1764505567.8710237,19763.1,-18865.98,-8751.465,-16665.165,-28932.75,-49176.495,-24922.89,-25790.625
1764505567.8710237,19762.335,-18867.24,-8752.455,-16666.605,-28933.425,-49177.62,-24923.655,-25791.75
1764505567.8710237,19759.77,-18870.03,-8754.795,-16669.17,-28936.08,-49180.815,-24925.77,-25794.495
1764505567.8720288,19760.85,-18868.77,-8754.074999999999,-16668.09,-28935.54,-49178.835,-24924.24,-25792.83
1764505567.8720288,19758.645,-18870.345,-8755.74,-16670.07,-28937.115,-49180.68,-24926.625,-25795.53
1764505567.8720288,19761.48,-18868.77,-8753.58,-16667.864999999998,-28935.135,-49178.655,-24924.51,-25792.605
1764505567.8720288,19761.12,-18869.175,-8753.805,-16668.18,-28935.99,-49178.79,-24924.645,-25792.515
1764505567.8720288,19759.32,-18870.66,-8755.02,-16669.44,-28937.565,-49180.815,-24926.265,-25794.315
1764505567.8720288,19762.47,-18867.42,-8752.005,-16666.245,-28933.83,-49177.44,-24923.61,-25791.48
1764505567.8720288,19761.03,-18869.49,-8754.119999999999,-16668.405,-28935.63,-49178.835,-24925.23,-25793.73
1764505567.8720288,19764.36,-18866.25,-8749.619999999999,-16664.805,-28931.31,-49174.965,-24921.63,-25789.86
1764505567.8720288,19763.955,-18865.62,-8748.539999999999,-16664.399999999998,-28931.58,-49174.92,-24921.405,-25789.23
1764505567.8720288,19762.785,-18867.195,-8750.115,-16665.84,-28932.345,-49175.505,-24922.665,-25789.635
1764505567.8720288,19762.11,-18868.095,-8751.779999999999,-16666.695,-28933.245,-49176.405,-24923.52,-25790.49
1764505567.8720288,19759.905,-18870.66,-8753.895,-16668.765,-28934.73,-49178.655,-24925.23,-25792.785
1764505567.8720288,19762.245,-18867.195,-8750.744999999999,-16666.739999999998,-28932.705,-49177.035,-24923.43,-25790.31
1764505567.8720288,19760.625,-18868.59,-8750.565,-16666.739999999998,-28934.595,-49178.43,-24925.455,-25791.705
1764505567.8720288,19763.37,-18865.395,-8747.64,-16663.635,-28930.5,-49174.515,-24921.315,-25788.735
1764505567.921144,19764.18,-18864.9,-8747.414999999999,-16663.5,-28930.095,-49174.605,-24921.09,-25788.105
1764505567.921144,19760.085,-18869.355,-8752.815,-16668.54,-28934.505,-49178.925,-24924.69,-25792.515
1764505567.921144,19759.95,-18869.895,-8754.57,-16669.44,-28935.63,-49179.555,-24924.825,-25793.415
1764505567.9221456,19760.715,-18868.41,-8753.58,-16668.989999999998,-28934.685,-49178.745,-24924.6,-25792.02
1764505567.9221456,19762.74,-18865.755,-8747.595,-16664.67,-28932.705,-49176.315,-24923.025,-25789.455
1764505567.9226904,19765.17,-18863.865,-8744.94,-16661.385,-28929.555,-49173.795,-24920.1,-25787.025
1764505567.9226904,19761.885,-18867.51,-8749.574999999999,-16666.02,-28933.38,-49177.845,-24923.655,-25790.445
1764505567.9226904,19761.48,-18867.465,-8749.17,-16665.84,-28933.02,-49177.395,-24923.25,-25790.85
1764505567.9226904,19762.335,-18866.61,-8748.27,-16665.3,-28932.39,-49176.63,-24922.62,-25789.815
1764505567.9226904,19766.52,-18862.245,-8744.265,-16660.98,-28927.98,-49172.445,-24919.02,-25785.63
1764505567.9226904,19768.275,-18859.725,-8742.42,-16659.36,-28926.675,-49171.095,-24917.13,-25783.92
1764505567.9226904,19765.53,-18862.11,-8744.58,-16661.34,-28929.42,-49173.93,-24920.055,-25786.71
1764505567.9226904,19764.045,-18863.415,-8745.029999999999,-16661.745,-28930.68,-49175.415,-24921.225,-25787.385
1764505567.9226904,19762.155,-18865.845,-8746.785,-16663.005,-28932.075,-49177.395,-24923.205,-25789.32
1764505567.9226904,19760.13,-18867.69,-8749.17,-16665.165,-28934.73,-49179.42,-24924.24,-25791.57
1764505567.9226904,19764.18,-18863.73,-8745.48,-16661.61,-28930.77,-49175.46,-24920.1,-25787.88
1764505567.9226904,19765.8,-18862.92,-8745.48,-16661.07,-28929.555,-49174.47,-24919.515,-25787.34
1764505567.9226904,19764.36,-18863.64,-8746.74,-16662.375,-28931.04,-49175.73,-24920.685,-25788.555
1764505567.9226904,19761.795,-18865.935,-8748.72,-16664.13,-28932.57,-49178.025,-24922.89,-25790.085
1764505567.9226904,19759.545,-18867.51,-8750.699999999999,-16665.57,-28934.145,-49179.555,-24924.735,-25791.48
1764505567.9226904,19763.82,-18862.965,-8745.795,-16661.16,-28930.32,-49174.83,-24920.955,-25787.385
1764505567.923141,19762.335,-18865.17,-8747.1,-16662.105,-28931.22,-49176.36,-24923.07,-25789.275
1764505567.923141,19759.005,-18868.815,-8751.375,-16665.795,-28934.955,-49179.915,-24926.715,-25792.695
1764505567.923141,19759.635,-18868.365,-8750.34,-16664.76,-28934.55,-49179.51,-24925.635,-25791.39
1764505567.969993,19761.795,-18866.115,-8748.09,-16662.149999999998,-28931.76,-49177.215,-24922.89,-25788.69
1764505567.969993,19765.71,-18861.795,-8743.725,-16657.2,-28927.26,-49172.4,-24918.39,-25784.145
1764505567.969993,19765.98,-18861.93,-8743.949999999999,-16657.515,-28927.395,-49173.03,-24918.84,-25784.325
1764505567.969993,19762.875,-18864.765,-8746.515,-16660.575,-28930.86,-49176.135,-24922.08,-25787.475
1764505567.969993,19762.605,-18864.945,-8746.605,-16660.8,-28932.165,-49176.36,-24922.755,-25788.24
1764505567.969993,19764.585,-18862.695,-8745.39,-16658.954999999998,-28930.005,-49174.695,-24920.37,-25786.44
1764505567.969993,19768.86,-18858.465,-8741.205,-16655.04,-28926.09,-49170.285,-24916.095,-25782.03
1764505567.969993,19767.42,-18860.4,-8742.824999999999,-16656.66,-28927.485,-49172.625,-24918.345,-25783.47
1764505567.969993,19766.205,-18861.48,-8743.545,-16657.695,-28928.475,-49173.84,-24919.38,-25783.83
1764505567.969993,19766.025,-18862.065,-8743.904999999999,-16657.739999999998,-28928.745,-49174.29,-24919.605,-25784.37
1764505567.969993,19765.08,-18863.19,-8744.085,-16658.864999999998,-28929.24,-49174.74,-24920.37,-25786.17
1764505567.969993,19764.585,-18863.28,-8744.355,-16659.675,-28929.105,-49174.83,-24921.045,-25786.125
1764505567.969993,19764.585,-18863.73,-8744.85,-16659.72,-28929.87,-49175.415,-24921.45,-25786.98
1764505567.969993,19760.895,-18866.43,-8747.505,-16662.329999999998,-28932.66,-49178.385,-24924.195,-25789.32
1764505567.969993,19763.73,-18864.225,-8744.67,-16659.899999999998,-28930.185,-49175.82,-24921.81,-25786.62
1764505567.969993,19765.305,-18863.28,-8743.32,-16658.46,-28928.7,-49174.65,-24920.28,-25785.63
1764505567.969993,19766.97,-18860.805,-8741.115,-16656.614999999998,-28926.72,-49172.355,-24917.58,-25783.245
1764505567.969993,19764.09,-18862.74,-8743.635,-16658.864999999998,-28929.42,-49174.92,-24920.235,-25785.36
1764505567.969993,19761.075,-18866.52,-8746.92,-16661.97,-28933.065,-49178.205,-24923.16,-25789.005
1764505567.970991,19762.92,-18864.315,-8744.805,-16659.405,-28930.68,-49175.775,-24920.82,-25786.755
1764505567.970991,19759.32,-18866.97,-8748.539999999999,-16662.42,-28933.425,-49179.6,-24923.97,-25790.13
1764505567.970991,19760.49,-18866.745,-8748.539999999999,-16661.79,-28932.93,-49179.465,-24923.52,-25790.04
1764505567.970991,19762.965,-18864.54,-8745.615,-16659.675,-28929.96,-49176.315,-24921.81,-25787.16
1764505567.970991,19762.38,-18864.675,-8745.93,-16660.755,-28930.32,-49176.045,-24921.27,-25786.395
1764505568.0143297,19761.21,-18866.61,-8747.145,-16661.565,-28931.715,-49176.99,-24921.99,-25787.25
1764505568.0153291,19760.22,-18868.455,-8748.045,-16662.87,-28933.83,-49178.295,-24923.34,-25788.645
1764505568.0153291,19763.595,-18865.08,-8744.22,-16659.63,-28930.32,-49174.47,-24919.47,-25784.82
1764505568.0153291,19759.77,-18868.77,-8748.81,-16663.59,-28933.965,-49179.06,-24923.61,-25788.69
1764505568.0153291,19762.38,-18865.62,-8745.84,-16661.204999999998,-28931.49,-49176.36,-24921.27,-25786.08
1764505568.0153291,19762.56,-18864.99,-8745.795,-16660.71,-28930.815,-49175.325,-24920.955,-25785.315
1764505568.0153291,19761.615,-18866.07,-8746.605,-16661.114999999998,-28930.815,-49175.82,-24921.495,-25786.215
1764505568.0153291,19758.375,-18869.445,-8749.98,-16664.04,-28934.055,-49179.015,-24925.005,-25789.095
1764505568.0153291,19759.05,-18869.67,-8749.845,-16664.445,-28933.92,-49179.465,-24925.23,-25789.365
1764505568.0153291,19760.805,-18868.14,-8748.0,-16662.735,-28932.66,-49178.16,-24923.565,-25788.375
1764505568.0153291,19760.31,-18868.59,-8747.865,-16662.555,-28933.29,-49177.98,-24922.62,-25788.645
1764505568.0153291,19761.525,-18866.97,-8746.154999999999,-16661.204999999998,-28932.03,-49176.0,-24920.91,-25787.34
1764505568.0153291,19764.945,-18863.505,-8743.275,-16657.875,-28929.06,-49173.165,-24917.94,-25785.09
1764505568.0153291,19763.505,-18865.845,-8745.435,-16659.405,-28930.59,-49174.83,-24920.595,-25786.035
1764505568.0153291,19762.2,-18868.095,-8746.83,-16661.745,-28932.255,-49177.17,-24923.475,-25787.43
1764505568.016328,19758.96,-18871.335,-8750.52,-16665.345,-28934.955,-49180.095,-24926.445,-25791.3
1764505568.0168383,19761.57,-18868.68,-8747.505,-16662.555,-28931.985,-49177.395,-24923.655,-25788.33
1764505568.0168383,19761.75,-18867.555,-8747.369999999999,-16662.239999999998,-28931.805,-49176.81,-24923.52,-25788.24
1764505568.0168383,19762.38,-18867.69,-8747.145,-16662.105,-28931.625,-49176.0,-24923.295,-25787.97
1764505568.0168383,19762.875,-18867.87,-8746.875,-16660.89,-28931.445,-49175.865,-24922.89,-25787.88
1764505568.01785,19761.66,-18868.905,-8747.685,-16661.52,-28932.435,-49176.405,-24923.52,-25788.69
1764505568.01785,19761.75,-18868.77,-8747.145,-16661.204999999998,-28931.67,-49176.045,-24922.8,-25787.79
1764505568.0187793,19760.895,-18868.59,-8747.369999999999,-16661.25,-28932.075,-49176.585,-24923.385,-25787.88
1764505568.0187793,19759.23,-18869.94,-8748.63,-16661.97,-28932.705,-49177.62,-24924.78,-25789.68
1764505568.064157,19760.175,-18869.265,-8747.865,-16661.114999999998,-28931.535,-49176.675,-24923.97,-25788.78
1764505568.064157,19761.075,-18868.59,-8747.19,-16660.755,-28931.445,-49176.675,-24923.205,-25787.97
1764505568.064157,19760.445,-18869.715,-8748.045,-16661.52,-28932.57,-49177.485,-24923.835,-25789.095
1764505568.064157,19759.095,-18871.155,-8749.44,-16663.184999999998,-28933.065,-49178.43,-24925.185,-25790.895
1764505568.0651495,19755.045,-18874.845,-8753.49,-16667.28,-28937.07,-49182.48,-24929.37,-25794.27
1764505568.0651495,19756.035,-18873.315,-8751.779999999999,-16665.93,-28935.945,-49180.995,-24928.11,-25792.425
1764505568.0651495,19757.745,-18870.795,-8749.08,-16662.51,-28933.47,-49178.655,-24925.635,-25789.86
1764505568.0651495,19757.43,-18871.29,-8749.845,-16663.454999999998,-28934.1,-49179.33,-24926.535,-25790.895
1764505568.0651495,19759.995,-18869.445,-8748.135,-16660.89,-28933.2,-49177.125,-24924.33,-25789.23
1764505568.0651495,19756.575,-18873.495,-8752.095,-16664.579999999998,-28936.44,-49180.86,-24927.57,-25792.425
1764505568.0651495,19759.185,-18870.93,-8748.945,-16661.52,-28932.93,-49177.755,-24923.88,-25789.905
1764505568.0651495,19757.07,-18871.965,-8750.835,-16663.454999999998,-28935.135,-49179.33,-24925.545,-25790.985
1764505568.0651495,19756.665,-18872.505,-8750.385,-16663.14,-28935.675,-49180.635,-24926.805,-25791.84
1764505568.0651495,19758.33,-18871.065,-8748.36,-16661.295,-28933.695,-49179.24,-24925.365,-25790.805
1764505568.0651495,19760.625,-18869.625,-8746.875,-16659.855,-28931.76,-49176.945,-24922.98,-25788.915
1764505568.0651495,19757.61,-18873.36,-8750.744999999999,-16663.05,-28934.73,-49180.095,-24926.715,-25792.02
1764505568.0651495,19757.79,-18874.08,-8751.735,-16664.13,-28935.405,-49180.095,-24927.12,-25792.245
1764505568.0651495,19761.03,-18870.57,-8747.64,-16660.215,-28931.355,-49176.315,-24923.07,-25788.825
1764505568.0651495,19760.985,-18870.48,-8747.46,-16660.215,-28931.13,-49176.585,-24922.08,-25789.275
1764505568.0651495,19757.205,-18874.08,-8750.654999999999,-16664.13,-28934.685,-49180.59,-24925.59,-25792.335
1764505568.0651495,19756.17,-18875.34,-8750.925,-16665.075,-28935.945,-49181.85,-24926.94,-25793.235
1764505568.0651495,19755.81,-18875.52,-8751.285,-16664.535,-28935.54,-49181.49,-24927.57,-25793.73
1764505568.0651495,19756.395,-18874.845,-8750.43,-16664.175,-28935.27,-49181.535,-24926.76,-25793.64
1764505568.0651495,19758.15,-18872.955,-8748.539999999999,-16662.015,-28933.605,-49179.33,-24925.23,-25792.38
1764505568.1104512,19757.655,-18874.17,-8750.115,-16663.14,-28934.73,-49179.555,-24926.445,-25793.37
1764505568.1104512,19756.26,-18874.71,-8750.744999999999,-16663.995,-28935.225,-49180.77,-24927.705,-25793.28
1764505568.1104512,19757.43,-18873.18,-8749.17,-16662.645,-28933.515,-49179.555,-24926.985,-25791.66
1764505568.1104512,19758.06,-18872.73,-8748.855,-16662.42,-28932.57,-49178.43,-24925.905,-25790.94
1764505568.1104512,19758.33,-18873.63,-8748.855,-16662.329999999998,-28932.48,-49178.52,-24925.68,-25790.67
1764505568.1104512,19755.495,-18876.87,-8752.095,-16664.76,-28936.17,-49182.12,-24927.66,-25793.865
1764505568.1104512,19755.135,-18877.995,-8752.5,-16666.02,-28936.62,-49182.885,-24928.47,-25794.45
1764505568.1104512,19754.055,-18878.895,-8752.994999999999,-16666.965,-28937.88,-49183.11,-24929.82,-25795.845
1764505568.1104512,19755.9,-18876.33,-8750.835,-16664.94,-28935.855,-49181.49,-24927.615,-25793.73
1764505568.1104512,19752.93,-18878.58,-8752.365,-16666.92,-28937.385,-49184.01,-24929.685,-25795.89
1764505568.1104512,19756.17,-18874.845,-8749.26,-16663.635,-28934.685,-49180.815,-24927.03,-25792.515
1764505568.1104512,19756.845,-18874.53,-8749.08,-16663.364999999998,-28934.19,-49180.005,-24926.985,-25791.48
1764505568.1104512,19754.595,-18877.815,-8752.05,-16665.84,-28936.755,-49182.66,-24929.145,-25793.955
1764505568.1104512,19757.115,-18875.115,-8748.539999999999,-16662.915,-28934.37,-49180.14,-24926.085,-25791.12
1764505568.1104512,19756.395,-18875.88,-8749.8,-16663.905,-28935.315,-49181.13,-24927.705,-25792.29
1764505568.1104512,19755.81,-18876.285,-8750.43,-16664.355,-28935.45,-49181.265,-24928.74,-25793.055
1764505568.1104512,19755.36,-18876.69,-8750.654999999999,-16665.075,-28936.08,-49182.165,-24929.28,-25793.775
1764505568.111452,19752.795,-18879.21,-8753.039999999999,-16667.145,-28938.15,-49184.415,-24931.395,-25795.935
1764505568.111452,19752.075,-18879.255,-8753.265,-16666.739999999998,-28938.465,-49184.37,-24931.08,-25796.475
1764505568.111452,19751.985,-18878.895,-8752.949999999999,-16666.425,-28938.24,-49184.145,-24930.945,-25796.835
1764505568.111452,19752.435,-18878.535,-8752.32,-16666.29,-28938.24,-49184.19,-24931.215,-25796.34
1764505568.111452,19752.615,-18878.445,-8751.824999999999,-16666.649999999998,-28937.565,-49183.695,-24931.17,-25795.8
1764505568.111452,19754.865,-18876.105,-8749.89,-16664.085,-28934.955,-49181.805,-24928.47,-25793.19
1764505568.111452,19755.72,-18875.295,-8748.765,-16662.105,-28933.695,-49180.68,-24927.75,-25792.785
1764505568.1555452,19754.955,-18876.15,-8749.08,-16663.095,-28935.045,-49181.625,-24929.28,-25793.64
1764505568.1555452,19752.03,-18879.03,-8752.14,-16666.829999999998,-28938.42,-49184.775,-24932.52,-25796.295
1764505568.1555452,19755.045,-18875.79,-8748.765,-16663.545,-28935.045,-49181.265,-24928.245,-25792.92
1764505568.1555452,19752.84,-18877.77,-8751.105,-16665.524999999998,-28937.52,-49183.65,-24930.54,-25794.315
1764505568.1555452,19754.82,-18874.98,-8748.63,-16662.915,-28935.495,-49181.94,-24929.055,-25791.615
1764505568.1555452,19754.685,-18875.7,-8748.63,-16663.184999999998,-28935.765,-49183.2,-24928.875,-25792.65
1764505568.1555452,19756.26,-18875.34,-8747.865,-16663.364999999998,-28935.495,-49182.57,-24927.615,-25791.795
1764505568.1555452,19757.655,-18872.775,-8745.705,-16660.755,-28932.885,-49179.195,-24924.96,-25788.96
1764505568.1555452,19755.045,-18875.25,-8747.46,-16662.285,-28935.315,-49181.895,-24926.76,-25790.31
1764505568.1555452,19758.87,-18871.74,-8744.625,-16658.37,-28931.715,-49177.62,-24923.43,-25785.9
1764505568.1555452,19757.385,-18873.09,-8746.02,-16659.09,-28932.57,-49178.88,-24924.87,-25787.34
1764505568.1555452,19755.225,-18876.015,-8748.135,-16661.295,-28935.18,-49180.77,-24927.39,-25789.77
1764505568.1560545,19755.63,-18876.24,-8748.135,-16661.745,-28935.18,-49180.815,-24927.165,-25790.04
1764505568.1560545,19755.405,-18876.555,-8748.9,-16661.79,-28935.54,-49181.805,-24928.02,-25790.76
1764505568.1560545,19754.55,-18876.87,-8749.619999999999,-16662.78,-28935.945,-49182.84,-24928.74,-25791.57
1764505568.1560545,19753.785,-18877.905,-8750.43,-16664.309999999998,-28936.845,-49183.335,-24929.64,-25792.155
1764505568.1560545,19752.93,-18879.03,-8751.06,-16665.57,-28937.79,-49184.37,-24930.45,-25793.505
1764505568.1560545,19750.185,-18881.595,-8753.49,-16668.765,-28940.445,-49186.8,-24933.195,-25796.925
1764505568.1560545,19750.095,-18881.955,-8754.119999999999,-16668.989999999998,-28940.58,-49186.755,-24932.88,-25796.835
1764505568.1560545,19752.3,-18880.065,-8752.365,-16666.829999999998,-28939.095,-49185.0,-24930.72,-25794.36
1764505568.157586,19754.01,-18878.4,-8750.07,-16666.065,-28937.61,-49183.47,-24929.01,-25792.155
1764505568.157586,19752.795,-18879.345,-8751.735,-16667.325,-28939.005,-49183.83,-24930.54,-25793.37
1764505568.2052436,19751.13,-18881.055,-8752.994999999999,-16668.585,-28940.355,-49185.045,-24931.62,-25795.665
1764505568.2052436,19753.605,-18879.57,-8750.744999999999,-16667.505,-28938.555,-49183.695,-24929.865,-25794.63
1764505568.2052436,19750.095,-18882.36,-8753.4,-16670.114999999998,-28941.795,-49186.485,-24933.33,-25797.825
1764505568.2052436,19752.885,-18880.02,-8750.97,-16667.505,-28938.78,-49183.29,-24930.315,-25794.315
1764505568.2052436,19750.905,-18882.045,-8752.904999999999,-16669.98,-28940.58,-49185.045,-24932.565,-25795.62
1764505568.2052436,19750.905,-18881.82,-8753.4,-16670.295,-28940.58,-49185.09,-24932.34,-25796.205
1764505568.2052436,19752.795,-18879.885,-8750.295,-16667.64,-28938.735,-49182.795,-24930.945,-25793.91
1764505568.2052436,19751.4,-18881.82,-8752.095,-16668.989999999998,-28939.95,-49184.595,-24933.555,-25795.98
1764505568.2052436,19754.325,-18879.795,-8750.16,-16666.515,-28937.52,-49181.805,-24930.495,-25793.82
1764505568.2052436,19753.02,-18880.695,-8750.925,-16667.19,-28938.105,-49183.02,-24931.845,-25794.765
1764505568.2052436,19750.725,-18882.63,-8753.445,-16669.125,-28940.715,-49185.0,-24933.555,-25796.88
1764505568.2052436,19747.17,-18885.51,-8756.19,-16672.364999999998,-28943.865,-49188.645,-24936.57,-25800.345
1764505568.2052436,19749.06,-18883.845,-8754.029999999999,-16670.295,-28941.255,-49186.845,-24935.355,-25798.455
1764505568.2052436,19747.71,-18884.88,-8755.695,-16670.745,-28942.605,-49188.33,-24936.75,-25799.805
1764505568.2052436,19747.935,-18884.7,-8755.695,-16670.97,-28942.74,-49188.015,-24936.615,-25800.21
1764505568.2052436,19749.285,-18883.08,-8754.75,-16670.655,-28942.02,-49187.205,-24935.76,-25799.355
1764505568.2052436,19751.94,-18879.57,-8751.69,-16667.415,-28938.105,-49184.37,-24932.61,-25795.44
1764505568.2052436,19751.13,-18881.37,-8752.275,-16667.954999999998,-28938.42,-49185.135,-24933.105,-25797.15
1764505568.2052436,19753.155,-18879.255,-8749.98,-16666.155,-28935.405,-49183.245,-24931.17,-25795.305
1764505568.2052436,19750.455,-18881.415,-8752.904999999999,-16668.36,-28937.925,-49185.54,-24933.87,-25797.825
1764505568.2052436,19747.845,-18884.745,-8755.605,-16670.97,-28941.57,-49187.925,-24936.795,-25800.165
1764505568.2052436,19748.025,-18883.395,-8754.39,-16669.485,-28940.355,-49187.07,-24935.265,-25798.095
1764505568.249466,19749.645,-18881.64,-8752.994999999999,-16667.73,-28939.68,-49186.26,-24933.42,-25796.565
1764505568.249466,19748.475,-18881.46,-8752.994999999999,-16667.73,-28939.68,-49186.395,-24933.51,-25797.195
1764505568.249466,19749.06,-18881.145,-8752.5,-16667.82,-28939.23,-49185.855,-24932.79,-25796.52
1764505568.249466,19751.67,-18878.895,-8749.98,-16664.94,-28936.98,-49183.65,-24930.27,-25793.82
1764505568.249466,19755.135,-18875.385,-8746.74,-16661.835,-28933.875,-49180.14,-24926.85,-25790.445
1764505568.249466,19756.035,-18874.395,-8745.3,-16660.485,-28932.3,-49179.06,-24925.815,-25789.68
1764505568.249466,19755.585,-18875.385,-8745.66,-16661.204999999998,-28933.245,-49180.185,-24926.715,-25789.59
1764505568.249466,19753.605,-18876.825,-8747.369999999999,-16662.69,-28934.64,-49182.21,-24928.65,-25791.03
1764505568.250488,19753.335,-18876.555,-8746.335,-16662.69,-28933.425,-49181.805,-24928.56,-25790.67
1764505568.250488,19753.515,-18876.105,-8746.154999999999,-16662.195,-28932.84,-49181.715,-24928.245,-25791.39
1764505568.250488,19752.345,-18877.59,-8747.73,-16663.545,-28934.46,-49182.795,-24928.74,-25792.155
1764505568.250488,19750.95,-18878.76,-8748.585,-16665.12,-28935.855,-49183.02,-24928.965,-25792.56
1764505568.250488,19749.51,-18880.83,-8749.98,-16667.01,-28937.115,-49184.64,-24930.675,-25793.865
1764505568.250488,19752.525,-18877.68,-8746.83,-16664.355,-28934.19,-49181.94,-24928.515,-25791.66
1764505568.250488,19750.635,-18878.94,-8748.855,-16666.245,-28936.215,-49183.29,-24929.91,-25793.595
1764505568.2530162,19753.605,-18876.195,-8746.47,-16663.005,-28932.705,-49179.78,-24927.165,-25790.85
1764505568.2530162,19753.785,-18876.105,-8746.11,-16661.97,-28931.94,-49179.735,-24927.165,-25790.085
1764505568.2530162,19752.39,-18878.445,-8747.91,-16663.635,-28933.74,-49181.445,-24929.145,-25791.66
1764505568.2530162,19750.095,-18880.245,-8749.26,-16665.345,-28935.18,-49182.75,-24930.045,-25793.055
1764505568.2530162,19752.165,-18876.465,-8745.75,-16662.69,-28932.255,-49180.095,-24927.12,-25790.985
1764505568.2530162,19750.635,-18878.67,-8747.505,-16664.67,-28934.1,-49181.625,-24929.505,-25792.92
1764505568.2530162,19753.11,-18878.49,-8747.145,-16665.03,-28934.865,-49182.03,-24929.955,-25791.21
1764505568.2530162,19755.99,-18875.565,-8745.39,-16662.465,-28932.705,-49179.825,-24927.12,-25788.42
1764505568.2530162,19756.035,-18875.205,-8744.895,-16661.655,-28931.715,-49178.43,-24926.265,-25787.88
1764505568.2980497,19755.495,-18876.195,-8745.345,-16662.42,-28933.11,-49179.285,-24928.065,-25788.78
1764505568.2980497,19756.26,-18875.07,-8743.725,-16660.575,-28931.67,-49177.17,-24926.445,-25787.475
1764505568.2984097,19755.135,-18875.79,-8743.77,-16660.53,-28931.715,-49177.755,-24926.265,-25787.61
1764505568.2984097,19752.255,-18879.435,-8747.414999999999,-16664.22,-28935.18,-49180.86,-24929.415,-25791.885
1764505568.2984097,19755.27,-18876.465,-8744.76,-16661.565,-28932.03,-49178.88,-24926.265,-25789.77
1764505568.2984097,19753.83,-18877.59,-8746.199999999999,-16663.05,-28933.2,-49180.68,-24928.02,-25791.525
1764505568.2984097,19755.855,-18875.295,-8744.445,-16660.485,-28930.995,-49178.205,-24925.32,-25789.14
1764505568.2984097,19752.975,-18878.085,-8746.515,-16662.285,-28933.92,-49180.68,-24927.84,-25791.795
1764505568.2984097,19755.225,-18875.7,-8744.039999999999,-16659.945,-28931.715,-49178.7,-24926.13,-25789.185
1764505568.2984097,19752.66,-18878.13,-8746.425,-16662.239999999998,-28934.1,-49180.905,-24928.515,-25791.39
1764505568.2984097,19754.19,-18876.78,-8744.895,-16660.665,-28932.165,-49179.465,-24926.76,-25789.995
1764505568.2984097,19757.61,-18873.72,-8741.07,-16657.065,-28928.7,-49176.225,-24923.745,-25786.71
1764505568.2984097,19757.205,-18873.72,-8741.61,-16657.739999999998,-28929.15,-49176.72,-24923.745,-25787.205
1764505568.2984097,19754.73,-18876.24,-8743.949999999999,-16660.305,-28931.445,-49179.015,-24926.22,-25789.455
1764505568.2984097,19751.625,-18878.895,-8746.785,-16662.6,-28934.64,-49181.94,-24928.965,-25792.02
1764505568.2984097,19752.57,-18876.96,-8745.39,-16660.44,-28932.84,-49180.68,-24927.255,-25790.355
1764505568.2984097,19755.18,-18875.025,-8743.05,-16658.28,-28930.545,-49177.845,-24924.87,-25787.475
1764505568.2984097,19752.21,-18878.22,-8745.93,-16661.655,-28933.695,-49181.085,-24928.2,-25790.085
1764505568.2984097,19751.895,-18878.715,-8746.289999999999,-16661.385,-28934.055,-49181.355,-24928.56,-25790.355
1764505568.2984097,19752.93,-18877.77,-8744.895,-16660.35,-28933.92,-49180.14,-24927.795,-25789.5
1764505568.2984097,19754.145,-18876.465,-8744.085,-16659.495,-28932.705,-49179.24,-24926.94,-25788.645
1764505568.2984097,19758.24,-18871.65,-8739.99,-16655.445,-28927.935,-49174.74,-24922.44,-25783.74
1764505568.299054,19759.32,-18869.805,-8738.505,-16653.78,-28925.775,-49172.805,-24920.73,-25782.345
1764505568.299054,19757.835,-18870.84,-8739.855,-16654.77,-28927.125,-49173.705,-24921.675,-25783.515
1764505568.3430996,19753.38,-18875.205,-8744.355,-16658.64,-28931.85,-49177.71,-24925.995,-25788.105
1764505568.3430996,19752.345,-18876.87,-8745.255,-16659.54,-28933.02,-49178.79,-24927.12,-25789.545
1764505568.343621,19752.705,-18876.825,-8744.94,-16659.315,-28932.12,-49178.655,-24927.39,-25789.185
1764505568.343621,19752.57,-18876.51,-8744.49,-16659.405,-28931.94,-49177.845,-24927.57,-25789.005
1764505568.343621,19753.92,-18876.105,-8743.23,-16658.505,-28931.49,-49176.54,-24926.715,-25788.06
1764505568.343621,19754.775,-18874.62,-8742.24,-16656.93,-28930.275,-49175.775,-24925.815,-25786.575
1764505568.343621,19756.44,-18872.91,-8739.99,-16654.905,-28928.52,-49174.38,-24924.465,-25785.18
1764505568.343621,19754.595,-18874.8,-8741.699999999999,-16657.425,-28930.455,-49176.09,-24926.175,-25787.475
1764505568.343621,19758.6,-18870.93,-8737.425,-16653.69,-28926.585,-49172.49,-24922.17,-25782.75
1764505568.343621,19755.63,-18873.63,-8740.215,-16655.67,-28929.33,-49175.955,-24924.825,-25785.495
1764505568.343621,19757.835,-18871.83,-8737.605,-16653.6,-28927.35,-49173.84,-24923.52,-25783.47
1764505568.343621,19755.18,-18875.205,-8740.664999999999,-16656.75,-28929.87,-49176.81,-24926.67,-25786.71
1764505568.343621,19757.61,-18872.73,-8738.235,-16654.274999999998,-28927.44,-49174.515,-24923.79,-25783.785
1764505568.343621,19756.44,-18873.675,-8739.404999999999,-16655.355,-28928.295,-49175.055,-24925.23,-25784.91
1764505568.343621,19753.515,-18877.23,-8742.555,-16658.415,-28931.805,-49177.845,-24928.335,-25788.06
1764505568.343621,19755.945,-18873.945,-8739.945,-16654.995,-28929.33,-49175.055,-24925.905,-25785.405
1764505568.343621,19755.135,-18874.215,-8741.43,-16655.715,-28929.33,-49176.0,-24926.31,-25785.99
1764505568.343621,19753.29,-18876.42,-8743.815,-16657.695,-28931.04,-49176.945,-24927.39,-25787.295
1764505568.343621,19756.71,-18873.315,-8740.215,-16655.67,-28928.52,-49173.525,-24923.88,-25784.37
1764505568.343621,19752.795,-18875.745,-8742.779999999999,-16658.37,-28932.48,-49177.26,-24927.57,-25788.285
1764505568.343621,19754.595,-18873.27,-8738.865,-16654.545,-28929.51,-49174.155,-24926.04,-25785.585
1764505568.343621,19752.3,-18876.15,-8741.88,-16657.829999999998,-28931.94,-49176.9,-24928.65,-25788.555
1764505568.343621,19751.805,-18877.32,-8743.32,-16658.864999999998,-28932.93,-49177.98,-24929.415,-25789.77
1764505568.343621,19753.65,-18875.835,-8742.24,-16657.649999999998,-28931.895,-49176.585,-24927.39,-25788.42
1764505568.3903968,19756.845,-18872.28,-8737.83,-16653.015,-28927.395,-49172.94,-24923.34,-25784.415
1764505568.3903968,19756.575,-18871.965,-8737.289999999999,-16653.42,-28927.17,-49172.805,-24923.925,-25784.145
1764505568.3903968,19752.93,-18875.97,-8741.61,-16656.84,-28931.355,-49176.045,-24927.66,-25787.655
1764505568.3903968,19753.425,-18874.8,-8740.845,-16655.579999999998,-28930.365,-49175.19,-24926.58,-25786.485
1764505568.3903968,19756.35,-18872.415,-8737.515,-16652.88,-28926.855,-49172.625,-24923.34,-25783.515
1764505568.3903968,19751.805,-18876.6,-8741.789999999999,-16656.66,-28931.04,-49177.17,-24927.075,-25787.7
1764505568.3903968,19751.985,-18876.825,-8741.61,-16656.614999999998,-28931.265,-49176.945,-24926.625,-25786.935
1764505568.3903968,19753.74,-18874.305,-8738.82,-16654.59,-28928.88,-49174.47,-24923.925,-25784.37
1764505568.3903968,19751.625,-18876.465,-8741.07,-16656.48,-28931.265,-49176.54,-24926.58,-25786.53
1764505568.3914137,19754.865,-18873.585,-8738.46,-16654.184999999998,-28928.97,-49174.155,-24923.745,-25783.47
1764505568.3914137,19754.595,-18873.765,-8738.19,-16653.915,-28928.385,-49173.48,-24923.565,-25783.38
1764505568.3914137,19754.145,-18874.17,-8738.369999999999,-16654.005,-28928.79,-49173.795,-24924.105,-25784.145
1764505568.3914137,19752.39,-18875.205,-8739.315,-16654.41,-28929.51,-49175.145,-24925.545,-25785.54
1764505568.3914137,19750.635,-18877.365,-8741.205,-16656.885,-28931.49,-49177.395,-24928.335,-25787.025
1764505568.3914137,19753.56,-18873.54,-8738.145,-16654.005,-28928.025,-49174.515,-24925.725,-25784.19
1764505568.3914137,19751.535,-18876.195,-8739.449999999999,-16655.489999999998,-28930.23,-49176.405,-24927.345,-25786.395
1764505568.392932,19753.785,-18874.08,-8737.38,-16653.015,-28928.295,-49174.425,-24924.42,-25783.92
1764505568.392932,19751.445,-18876.15,-8739.855,-16655.04,-28930.545,-49176.495,-24926.985,-25786.035
1764505568.392932,19753.245,-18874.08,-8738.369999999999,-16653.015,-28928.97,-49174.245,-24925.23,-25784.37
1764505568.392932,19750.095,-18877.32,-8741.115,-16655.94,-28932.075,-49177.8,-24928.2,-25787.745
1764505568.392932,19751.13,-18876.33,-8740.619999999999,-16654.86,-28931.13,-49176.945,-24926.445,-25786.44
1764505568.3939464,19748.655,-18878.22,-8743.455,-16657.02,-28933.29,-49178.565,-24928.56,-25788.78
1764505568.3939464,19751.31,-18875.385,-8740.215,-16654.32,-28930.77,-49175.37,-24925.23,-25785.675
1764505568.3939464,19752.975,-18873.855,-8738.324999999999,-16652.43,-28929.33,-49174.38,-24924.24,-25784.64
1764505568.4381406,19753.065,-18874.08,-8738.414999999999,-16652.114999999998,-28929.465,-49174.515,-24924.96,-25784.505
1764505568.4381406,19749.555,-18876.96,-8741.07,-16655.445,-28932.075,-49176.765,-24927.795,-25787.205
1764505568.439674,19747.17,-18878.715,-8742.869999999999,-16657.155,-28933.74,-49178.52,-24928.965,-25789.095
1764505568.439674,19748.205,-18878.13,-8741.789999999999,-16655.805,-28932.3,-49177.575,-24927.93,-25788.555
1764505568.439674,19749.555,-18877.005,-8741.115,-16655.13,-28931.13,-49176.045,-24927.12,-25787.97
1764505568.439674,19751.31,-18875.565,-8739.404999999999,-16654.23,-28929.555,-49174.38,-24926.175,-25786.08
1764505568.439674,19753.83,-18873.135,-8737.289999999999,-16652.295,-28927.26,-49172.22,-24924.06,-25783.155
1764505568.439674,19752.03,-18874.395,-8737.92,-16652.925,-28927.89,-49173.12,-24925.095,-25784.415
1764505568.439674,19748.835,-18878.94,-8742.33,-16657.155,-28931.13,-49176.855,-24928.605,-25788.69
1764505568.439674,19749.33,-18877.995,-8741.52,-16656.614999999998,-28930.41,-49176.45,-24928.245,-25788.06
1764505568.439674,19753.47,-18874.8,-8737.74,-16653.015,-28926.855,-49172.31,-24924.015,-25783.56
1764505568.439674,19752.93,-18874.845,-8737.47,-16653.239999999998,-28927.53,-49172.085,-24924.465,-25783.47
1764505568.439674,19753.02,-18873.99,-8737.065,-16652.52,-28927.35,-49171.635,-24924.915,-25782.57
1764505568.439674,19753.02,-18874.71,-8737.38,-16653.42,-28928.97,-49172.58,-24925.68,-25782.93
1764505568.439674,19752.795,-18875.385,-8738.055,-16654.005,-28928.205,-49172.715,-24925.14,-25783.245
1764505568.439674,19751.31,-18876.915,-8739.045,-16654.274999999998,-28929.555,-49173.93,-24925.995,-25784.865
1764505568.439674,19748.025,-18879.975,-8742.33,-16657.559999999998,-28932.435,-49177.17,-24929.28,-25788.24
1764505568.439674,19749.285,-18878.94,-8741.789999999999,-16657.47,-28932.165,-49176.675,-24928.02,-25787.115
1764505568.4406943,19752.48,-18875.745,-8737.92,-16654.095,-28929.195,-49173.3,-24925.23,-25783.47
1764505568.4416893,19751.58,-18876.69,-8738.595,-16655.04,-28929.555,-49174.29,-24926.085,-25785.225
1764505568.4416893,19754.415,-18874.215,-8735.895,-16652.655,-28926.54,-49171.77,-24923.115,-25782.93
1764505568.4416893,19750.995,-18877.77,-8739.63,-16655.67,-28930.23,-49175.415,-24926.175,-25785.63
1764505568.4416893,19753.875,-18874.62,-8736.705,-16652.07,-28926.72,-49172.535,-24923.385,-25781.445
1764505568.4416893,19753.83,-18874.665,-8736.164999999999,-16652.07,-28926.54,-49172.805,-24924.15,-25781.355
1764505568.4873402,19751.085,-18877.95,-8739.765,-16655.67,-28930.14,-49175.73,-24927.57,-25784.865
1764505568.4873402,19751.895,-18877.545,-8739.404999999999,-16655.13,-28930.59,-49175.775,-24927.75,-25784.73
1764505568.4873402,19753.38,-18876.195,-8738.145,-16654.005,-28929.42,-49173.84,-24926.265,-25782.75
1764505568.4879344,19756.485,-18872.73,-8735.445,-16651.35,-28925.82,-49171.095,-24923.25,-25779.96
1764505568.4879344,19756.755,-18873.315,-8735.265,-16651.44,-28926.045,-49171.59,-24922.755,-25780.32
1764505568.4879344,19757.16,-18872.415,-8733.96,-16650.045,-28925.28,-49170.465,-24922.08,-25779.195
1764505568.4879344,19756.08,-18873.135,-8735.22,-16650.899999999998,-28925.19,-49171.815,-24923.205,-25780.23
1764505568.4879344,19752.66,-18875.79,-8738.46,-16653.645,-28928.115,-49175.055,-24926.94,-25783.155
1764505568.4879344,19755.27,-18873.315,-8736.119999999999,-16651.44,-28926.36,-49172.355,-24924.06,-25781.265
1764505568.4879344,19751.4,-18877.14,-8739.494999999999,-16654.86,-28929.51,-49175.775,-24928.2,-25784.595
1764505568.4879344,19750.725,-18877.005,-8739.63,-16654.815,-28930.365,-49176.315,-24928.605,-25785.18
1764505568.4879344,19750.86,-18876.42,-8739.045,-16654.23,-28930.185,-49176.225,-24928.245,-25785.18
1764505568.4879344,19753.605,-18873.405,-8736.074999999999,-16651.26,-28927.08,-49172.805,-24924.33,-25781.895
1764505568.4879344,19753.155,-18873.585,-8736.345,-16651.079999999998,-28927.17,-49172.895,-24924.96,-25782.345
1764505568.4879344,19749.96,-18876.78,-8740.035,-16655.04,-28930.275,-49176.72,-24929.1,-25785.765
1764505568.4879344,19751.94,-18876.24,-8738.73,-16653.69,-28929.015,-49175.73,-24927.84,-25784.1
1764505568.4879344,19756.08,-18872.37,-8734.545,-16649.19,-28924.83,-49171.59,-24923.745,-25779.69
1764505568.4879344,19756.575,-18872.01,-8733.779999999999,-16648.785,-28924.695,-49171.095,-24923.07,-25778.97
1764505568.4879344,19756.08,-18872.145,-8733.779999999999,-16649.145,-28925.145,-49170.78,-24923.79,-25779.6
1764505568.4879344,19755.495,-18872.55,-8733.869999999999,-16650.225,-28925.145,-49171.32,-24923.7,-25779.96
1764505568.4879344,19755.0,-18873.495,-8734.86,-16650.765,-28925.595,-49172.265,-24923.745,-25780.32
1764505568.4879344,19756.08,-18872.415,-8733.42,-16649.595,-28924.11,-49170.69,-24923.205,-25778.385
1764505568.5326152,19755.9,-18873.315,-8733.105,-16650.495,-28925.28,-49171.905,-24923.925,-25778.52
1764505568.5326152,19753.785,-18875.79,-8735.535,-16652.61,-28927.395,-49174.47,-24925.815,-25781.94
1764505568.5335977,19757.025,-18872.28,-8732.789999999999,-16648.965,-28923.795,-49170.555,-24922.08,-25778.43
1764505568.5335977,19758.42,-18869.985,-8730.72,-16646.85,-28922.13,-49168.935,-24920.64,-25776.27
1764505568.5335977,19759.005,-18870.255,-8730.36,-16646.625,-28921.59,-49167.99,-24920.19,-25776.18
1764505568.5335977,19757.205,-18872.19,-8732.699999999999,-16648.11,-28923.03,-49169.34,-24921.9,-25777.845
1764505568.5335977,19757.025,-18872.91,-8733.015,-16648.605,-28923.57,-49169.88,-24922.35,-25778.295
1764505568.5335977,19754.505,-18875.295,-8735.85,-16651.44,-28926.09,-49172.67,-24924.24,-25780.68
1764505568.5335977,19755.135,-18874.215,-8735.535,-16650.899999999998,-28925.73,-49171.77,-24922.44,-25779.87
1764505568.5335977,19758.555,-18871.56,-8732.295,-16647.12,-28922.805,-49167.675,-24919.47,-25776.27
1764505568.5335977,19758.195,-18871.965,-8733.15,-16647.03,-28922.895,-49168.17,-24919.425,-25776.765
1764505568.5335977,19758.51,-18872.055,-8733.465,-16647.345,-28922.445,-49168.26,-24919.875,-25777.26
1764505568.5335977,19756.935,-18874.305,-8735.22,-16649.954999999998,-28924.65,-49170.24,-24922.845,-25779.69
1764505568.5335977,19759.23,-18871.83,-8733.015,-16647.255,-28922.76,-49167.18,-24920.055,-25776.855
1764505568.5335977,19759.23,-18872.55,-8733.33,-16647.12,-28923.525,-49167.135,-24919.965,-25777.215
1764505568.5335977,19755.27,-18876.42,-8737.605,-16651.35,-28926.945,-49171.095,-24924.015,-25780.95
1764505568.5335977,19755.495,-18875.52,-8738.145,-16651.485,-28926.99,-49170.78,-24924.015,-25781.13
1764505568.5335977,19757.925,-18872.82,-8734.994999999999,-16648.38,-28924.065,-49167.765,-24921.36,-25777.845
1764505568.5335977,19757.205,-18873.675,-8734.725,-16648.739999999998,-28923.615,-49167.72,-24920.82,-25778.295
1764505568.5335977,19754.955,-18876.105,-8735.94,-16651.079999999998,-28925.775,-49170.24,-24923.07,-25780.635
1764505568.5335977,19754.73,-18875.34,-8733.105,-16648.829999999998,-28924.425,-49169.295,-24922.755,-25780.77
1764505568.5335977,19755.855,-18874.395,-8731.664999999999,-16647.345,-28922.805,-49167.72,-24922.08,-25779.78
1764505568.579273,19758.735,-18872.19,-8729.955,-16645.905,-28919.97,-49165.29,-24920.415,-25777.395
1764505568.579273,19759.455,-18872.37,-8731.08,-16646.985,-28921.41,-49166.505,-24921.225,-25776.315
1764505568.579273,19759.185,-18873.945,-8732.744999999999,-16648.245,-28923.165,-49168.305,-24922.71,-25776.81
1764505568.579273,19756.035,-18876.69,-8735.49,-16650.765,-28925.91,-49171.14,-24925.095,-25780.005
1764505568.579273,19758.24,-18873.495,-8731.574999999999,-16647.48,-28922.76,-49167.765,-24922.17,-25777.575
1764505568.5807872,19756.26,-18875.655,-8734.14,-16649.505,-28924.56,-49169.79,-24924.51,-25780.095
1764505568.5807872,19756.035,-18876.015,-8735.22,-16649.415,-28925.46,-49170.645,-24925.545,-25780.635
1764505568.5807872,19755.675,-18876.285,-8735.805,-16649.82,-28925.55,-49170.825,-24925.5,-25781.04
1764505568.5807872,19756.62,-18875.16,-8734.59,-16648.965,-28924.47,-49169.61,-24924.375,-25779.87
1764505568.5807872,19760.49,-18871.83,-8730.855,-16645.59,-28921.185,-49166.46,-24921.63,-25776.585
1764505568.5807872,19760.94,-18871.92,-8730.585,-16645.274999999998,-28921.725,-49166.64,-24921.18,-25776.09
1764505568.5807872,19758.42,-18873.045,-8732.565,-16646.805,-28923.75,-49167.855,-24922.17,-25777.845
1764505568.5807872,19760.085,-18870.615,-8730.36,-16644.465,-28921.185,-49166.145,-24919.515,-25776.135
1764505568.5807872,19756.035,-18874.98,-8734.23,-16649.055,-28924.965,-49170.285,-24923.7,-25780.095
1764505568.5807872,19756.35,-18875.475,-8734.32,-16649.684999999998,-28925.415,-49170.33,-24923.925,-25779.87
1764505568.5807872,19757.43,-18874.215,-8733.96,-16649.19,-28924.74,-49169.115,-24922.8,-25779.015
1764505568.5807872,19759.68,-18871.74,-8731.35,-16646.489999999998,-28921.725,-49166.685,-24920.46,-25776.315
1764505568.5807872,19757.025,-18874.26,-8733.15,-16648.47,-28923.48,-49168.62,-24922.665,-25778.25
1764505568.5807872,19758.06,-18873.405,-8731.98,-16646.67,-28922.445,-49167.315,-24922.44,-25776.99
1764505568.5807872,19761.93,-18869.58,-8728.244999999999,-16642.079999999998,-28918.98,-49164.12,-24918.57,-25773.255
1764505568.5807872,19762.02,-18869.355,-8728.56,-16642.755,-28919.115,-49164.255,-24918.39,-25773.48
1764505568.5807872,19759.86,-18871.92,-8730.225,-16644.915,-28921.32,-49165.83,-24921.18,-25775.64
1764505568.5807872,19762.56,-18869.445,-8727.525,-16642.395,-28918.575,-49163.535,-24917.49,-25772.265
1764505568.5807872,19760.355,-18871.515,-8729.73,-16644.329999999998,-28920.915,-49165.2,-24919.11,-25774.425
1764505568.6260743,19756.35,-18876.105,-8733.6,-16648.515,-28924.56,-49169.115,-24922.98,-25779.195
1764505568.6260743,19755.63,-18876.69,-8734.545,-16648.965,-28925.325,-49169.115,-24923.205,-25779.645
1764505568.6260743,19756.17,-18875.61,-8734.32,-16648.425,-28925.28,-49168.71,-24922.665,-25779.465
1764505568.6260743,19756.035,-18875.745,-8733.869999999999,-16649.415,-28925.235,-49168.08,-24922.44,-25779.24
1764505568.6260743,19757.07,-18874.89,-8732.88,-16648.245,-28924.02,-49167.18,-24921.585,-25778.16
1764505568.6260743,19759.185,-18872.28,-8730.494999999999,-16645.41,-28921.5,-49164.84,-24918.93,-25776.855
1764505568.6260743,19758.33,-18873.405,-8730.99,-16646.22,-28922.625,-49166.145,-24919.92,-25778.25
1764505568.6260743,19755.72,-18875.745,-8733.285,-16648.245,-28924.965,-49167.99,-24922.575,-25780.725
1764505568.6260743,19757.295,-18873.18,-8731.08,-16646.175,-28922.445,-49166.1,-24921.045,-25778.88
1764505568.6260743,19754.235,-18876.87,-8734.455,-16650.09,-28926.135,-49169.385,-24924.33,-25782.075
1764505568.6260743,19756.17,-18875.34,-8733.285,-16648.605,-28924.065,-49168.35,-24922.755,-25780.365
1764505568.6260743,19753.785,-18877.275,-8735.805,-16650.225,-28926.495,-49170.33,-24925.14,-25782.615
1764505568.6270847,19754.055,-18877.725,-8735.4,-16650.315,-28926.18,-49169.925,-24925.095,-25782.48
1764505568.6270847,19754.505,-18877.59,-8735.445,-16649.954999999998,-28925.73,-49170.015,-24925.005,-25781.805
1764505568.6270847,19756.17,-18875.475,-8733.33,-16648.29,-28924.29,-49167.81,-24923.07,-25779.69
1764505568.6270847,19753.335,-18877.77,-8735.67,-16650.855,-28926.99,-49170.465,-24925.455,-25782.075
1764505568.6270847,19756.035,-18875.385,-8732.744999999999,-16647.57,-28924.38,-49167.855,-24923.34,-25779.645
1764505568.6270847,19752.93,-18878.085,-8735.22,-16649.595,-28926.54,-49170.015,-24925.725,-25782.885
1764505568.6270847,19755.36,-18875.115,-8732.475,-16646.94,-28923.885,-49167.81,-24923.52,-25780.68
1764505568.6270847,19752.795,-18877.995,-8734.77,-16649.73,-28927.08,-49170.51,-24925.995,-25783.02
1764505568.6282032,19755.99,-18874.485,-8731.35,-16646.13,-28923.93,-49167.405,-24922.485,-25779.87
1764505568.6282032,19757.07,-18873.18,-8730.135,-16644.375,-28922.625,-49165.83,-24921.81,-25779.06
1764505568.6282032,19757.52,-18873.315,-8730.315,-16644.42,-28922.49,-49166.46,-24922.71,-25778.385
1764505568.6282032,19756.305,-18873.72,-8730.765,-16644.87,-28922.67,-49166.46,-24922.53,-25778.385
1764505568.672531,19753.785,-18876.645,-8733.33,-16647.345,-28925.235,-49169.565,-24925.365,-25780.905
1764505568.672531,19753.38,-18877.095,-8734.095,-16648.02,-28925.595,-49169.7,-24926.67,-25781.31
1764505568.672531,19754.46,-18876.42,-8733.015,-16647.165,-28924.155,-49168.665,-24926.04,-25779.96
1764505568.672531,19758.555,-18870.975,-8728.289999999999,-16642.35,-28919.52,-49163.895,-24921.9,-25774.875
1764505568.672531,19760.445,-18869.085,-8726.265,-16639.875,-28917.63,-49162.14,-24920.145,-25772.67
1764505568.672531,19756.935,-18873.09,-8729.1,-16642.71,-28920.6,-49165.695,-24924.015,-25775.82
1764505568.672531,19759.365,-18871.065,-8726.58,-16640.684999999998,-28918.485,-49163.13,-24921.315,-25773.84
1764505568.672531,19759.41,-18871.155,-8727.615,-16640.864999999998,-28919.385,-49163.04,-24920.865,-25773.75
1764505568.672531,19759.5,-18871.875,-8727.84,-16640.55,-28919.475,-49163.58,-24920.685,-25773.795
1764505568.672531,19759.005,-18872.505,-8727.705,-16640.954999999998,-28919.475,-49164.165,-24921.0,-25774.92
1764505568.672531,19757.745,-18873.585,-8729.01,-16642.89,-28920.42,-49165.875,-24922.53,-25776.765
1764505568.672531,19759.77,-18870.84,-8726.58,-16640.774999999998,-28917.27,-49163.175,-24920.145,-25774.155
1764505568.672531,19756.98,-18874.62,-8729.64,-16643.79,-28920.78,-49166.19,-24922.935,-25777.44
1764505568.672531,19757.025,-18873.945,-8729.145,-16643.52,-28920.51,-49165.875,-24922.665,-25776.99
1764505568.672531,19761.255,-18869.49,-8724.42,-16639.785,-28916.91,-49162.095,-24918.795,-25773.12
1764505568.672531,19760.13,-18871.155,-8726.355,-16641.945,-28918.44,-49164.39,-24920.19,-25775.19
1764505568.672531,19758.915,-18872.595,-8728.38,-16642.44,-28919.43,-49165.92,-24921.585,-25776.225
1764505568.672531,19757.835,-18873.72,-8729.64,-16643.475,-28920.33,-49166.505,-24921.63,-25776.405
1764505568.672531,19754.28,-18876.735,-8732.88,-16646.85,-28923.48,-49169.79,-24925.14,-25779.78
1764505568.672531,19756.08,-18875.52,-8731.35,-16645.364999999998,-28922.04,-49168.485,-24924.33,-25779.195
1764505568.672531,19759.68,-18872.415,-8727.525,-16642.755,-28919.115,-49164.525,-24920.415,-25776.045
1764505568.672531,19756.395,-18875.61,-8730.18,-16645.77,-28921.68,-49167.45,-24923.745,-25778.43
1764505568.672531,19756.395,-18875.475,-8729.55,-16645.005,-28921.095,-49167.315,-24923.43,-25777.98
1764505568.672531,19761.48,-18870.165,-8724.465,-16639.92,-28916.415,-49162.185,-24918.57,-25772.67
1764505568.720372,19761.885,-18869.715,-8725.095,-16640.37,-28915.92,-49162.32,-24918.345,-25772.76
1764505568.720372,19758.735,-18873.045,-8728.38,-16643.565,-28919.07,-49165.02,-24920.55,-25775.55
1764505568.720372,19759.41,-18873.54,-8727.93,-16643.024999999998,-28918.755,-49164.3,-24920.82,-25774.965
1764505568.720372,19758.42,-18873.945,-8728.154999999999,-16644.285,-28919.25,-49165.02,-24922.17,-25775.865
1764505568.720372,19755.81,-18876.96,-8730.72,-16646.805,-28922.31,-49167.99,-24925.68,-25778.925
1764505568.720372,19755.765,-18877.095,-8730.315,-16645.725,-28922.58,-49167.72,-24924.915,-25778.52
1764505568.720372,19757.88,-18875.115,-8728.38,-16644.239999999998,-28919.88,-49165.92,-24922.575,-25776.675
1764505568.720372,19760.13,-18872.64,-8726.265,-16641.855,-28917.405,-49164.165,-24920.37,-25774.83
1764505568.720372,19757.205,-18875.565,-8729.414999999999,-16644.329999999998,-28920.195,-49167.495,-24922.98,-25777.62
1764505568.720372,19759.41,-18873.855,-8727.255,-16641.989999999998,-28918.17,-49165.38,-24920.865,-25775.46
1764505568.720372,19759.455,-18872.82,-8726.265,-16641.63,-28917.72,-49164.48,-24919.965,-25774.65
1764505568.720372,19756.845,-18875.16,-8728.244999999999,-16643.655,-28920.15,-49166.64,-24922.62,-25776.945
1764505568.720372,19756.305,-18875.565,-8728.965,-16644.015,-28920.555,-49167.45,-24922.935,-25777.53
1764505568.720372,19754.91,-18876.69,-8730.539999999999,-16645.77,-28922.13,-49168.89,-24924.105,-25779.87
1764505568.720372,19758.06,-18873.45,-8728.335,-16643.295,-28919.295,-49166.145,-24921.63,-25776.945
1764505568.720372,19757.115,-18875.07,-8729.055,-16644.645,-28920.555,-49167.585,-24923.565,-25777.98
1764505568.720372,19755.135,-18877.23,-8730.315,-16646.04,-28922.625,-49168.845,-24925.32,-25780.365
1764505568.720372,19758.24,-18874.125,-8727.164999999999,-16642.755,-28919.205,-49165.38,-24922.305,-25777.215
1764505568.720372,19756.26,-18875.52,-8729.55,-16644.78,-28921.41,-49167.855,-24924.735,-25778.655
1764505568.720372,19757.52,-18873.99,-8727.975,-16642.89,-28919.295,-49165.92,-24923.025,-25777.035
1764505568.720372,19762.11,-18870.165,-8723.789999999999,-16639.02,-28915.155,-49162.41,-24918.93,-25772.67
1764505568.720372,19758.735,-18874.305,-8727.119999999999,-16642.215,-28918.8,-49165.695,-24922.845,-25776.405
1764505568.720372,19761.12,-18872.505,-8725.095,-16639.829999999998,-28916.865,-49162.95,-24920.595,-25774.335
1764505568.720372,19757.97,-18875.835,-8728.965,-16643.34,-28920.195,-49166.46,-24924.06,-25777.53
1764505568.7647033,19757.61,-18875.745,-8728.244999999999,-16643.88,-28920.42,-49167.27,-24923.745,-25776.99
1764505568.7647033,19760.985,-18872.415,-8724.555,-16640.64,-28917.18,-49162.635,-24920.28,-25773.345
1764505568.7647033,19760.805,-18873.45,-8725.815,-16640.774999999998,-28917.945,-49163.31,-24920.91,-25774.515
1764505568.7647033,19756.98,-18876.465,-8729.19,-16643.565,-28920.87,-49166.415,-24923.97,-25777.98
1764505568.7647033,19757.25,-18875.835,-8727.705,-16643.204999999998,-28920.645,-49166.19,-24922.62,-25777.44
1764505568.7647033,19761.12,-18872.82,-8724.015,-16639.425,-28917.045,-49163.085,-24919.65,-25774.335
1764505568.7647033,19760.085,-18874.08,-8724.869999999999,-16640.1,-28917.99,-49164.165,-24920.955,-25775.145
1764505568.7647033,19754.325,-18879.75,-8730.135,-16645.86,-28923.57,-49169.07,-24925.59,-25780.32
1764505568.7647033,19754.91,-18878.58,-8730.18,-16645.184999999998,-28922.715,-49167.81,-24924.735,-25779.69
1764505568.7647033,19759.365,-18874.665,-8726.13,-16641.495,-28918.53,-49163.715,-24920.82,-25775.865
1764505568.7647033,19759.59,-18874.62,-8725.365,-16641.45,-28918.305,-49164.345,-24920.73,-25776.0
1764505568.7647033,19757.565,-18876.555,-8727.3,-16642.665,-28920.51,-49166.37,-24922.125,-25777.08
1764505568.7647033,19760.67,-18873.27,-8724.24,-16639.965,-28917.765,-49162.68,-24918.705,-25773.84
1764505568.7647033,19761.255,-18872.415,-8723.925,-16639.155,-28916.82,-49162.32,-24918.12,-25773.84
1764505568.7647033,19761.03,-18872.28,-8723.97,-16639.515,-28916.73,-49162.32,-24918.39,-25773.75
1764505568.7647033,19760.13,-18872.64,-8724.33,-16639.065,-28917.09,-49162.59,-24918.21,-25773.93
1764505568.7647033,19759.095,-18873.495,-8724.645,-16640.325,-28917.675,-49163.895,-24919.02,-25775.505
1764505568.7647033,19756.08,-18876.42,-8727.795,-16644.69,-28920.15,-49167.54,-24922.35,-25778.115
1764505568.7647033,19752.48,-18880.515,-8731.845,-16648.02,-28924.155,-49170.555,-24926.4,-25781.265
1764505568.7647033,19752.435,-18880.965,-8732.25,-16647.39,-28924.2,-49170.015,-24926.94,-25781.49
1764505568.8136983,19753.74,-18879.795,-8730.72,-16646.265,-28922.715,-49169.115,-24925.68,-25780.86
1764505568.8136983,19756.755,-18877.32,-8727.795,-16643.655,-28919.925,-49166.28,-24922.98,-25778.745
1764505568.8136983,19755.855,-18878.49,-8728.38,-16645.05,-28921.14,-49167.495,-24924.465,-25780.32
1764505568.8136983,19753.11,-18880.695,-8731.08,-16647.075,-28924.155,-49170.195,-24927.525,-25783.695
1764505568.8136983,19754.37,-18878.31,-8729.145,-16645.23,-28921.95,-49168.305,-24925.275,-25782.255
1764505568.8136983,19752.03,-18880.47,-8730.72,-16647.255,-28924.065,-49170.555,-24927.255,-25784.28
1764505568.8136983,19756.395,-18876.6,-8726.85,-16643.07,-28920.105,-49166.415,-24923.205,-25779.33
1764505568.8136983,19755.315,-18877.23,-8727.21,-16643.565,-28920.645,-49167.045,-24923.97,-25780.365
1764505568.8136983,19754.64,-18878.085,-8727.84,-16644.6,-28921.095,-49167.405,-24924.78,-25780.455
1764505568.8136983,19752.12,-18881.28,-8730.494999999999,-16647.345,-28924.155,-49169.925,-24927.795,-25783.2
1764505568.8136983,19753.65,-18880.335,-8729.595,-16645.815,-28923.12,-49169.52,-24926.535,-25782.3
1764505568.8136983,19756.485,-18876.285,-8726.31,-16641.945,-28919.61,-49165.875,-24923.205,-25778.52
1764505568.8136983,19757.115,-18876.33,-8725.86,-16641.63,-28919.205,-49165.74,-24923.25,-25777.53
1764505568.8136983,19756.485,-18877.365,-8726.355,-16642.305,-28920.33,-49166.685,-24923.07,-25778.925
1764505568.8136983,19754.055,-18879.615,-8728.92,-16644.6,-28922.58,-49168.755,-24925.59,-25781.22
1764505568.8136983,19751.22,-18882.09,-8732.025,-16647.255,-28924.92,-49170.915,-24928.605,-25783.605
1764505568.8136983,19753.965,-18879.03,-8729.505,-16644.69,-28921.455,-49168.17,-24926.58,-25781.175
1764505568.8136983,19750.995,-18882.585,-8732.699999999999,-16648.02,-28924.515,-49171.32,-24929.955,-25784.19
1764505568.8136983,19752.12,-18881.865,-8731.215,-16647.165,-28923.525,-49170.78,-24929.1,-25782.48
1764505568.8136983,19756.395,-18877.41,-8726.67,-16642.755,-28919.79,-49166.055,-24924.33,-25778.43
1764505568.8136983,19756.17,-18877.32,-8726.895,-16642.485,-28919.565,-49166.055,-24924.195,-25778.43
1764505568.8136983,19756.035,-18877.68,-8726.715,-16642.8,-28919.88,-49166.955,-24923.79,-25779.51
1764505568.8136983,19755.765,-18878.58,-8727.164999999999,-16643.79,-28920.33,-49167.765,-24924.87,-25780.5
1764505568.8147044,19756.17,-18878.895,-8727.345,-16643.7,-28920.78,-49167.315,-24924.69,-25780.365
1764505568.8596425,19755.855,-18879.57,-8727.93,-16643.88,-28921.77,-49167.72,-24925.815,-25781.355
1764505568.8596425,19753.695,-18880.92,-8729.82,-16645.23,-28923.39,-49169.565,-24927.66,-25781.895
1764505568.8596425,19754.325,-18879.975,-8728.11,-16643.925,-28922.13,-49168.485,-24926.445,-25780.68
1764505568.8596425,19750.86,-18883.755,-8731.485,-16648.02,-28924.65,-49172.265,-24929.955,-25784.82
1764505568.8596425,19752.75,-18881.955,-8729.865,-16645.635,-28921.95,-49169.97,-24927.57,-25782.795
1764505568.8596425,19752.255,-18882.855,-8730.765,-16646.22,-28923.75,-49170.51,-24928.29,-25783.695
1764505568.8596425,19749.06,-18886.68,-8733.645,-16650.405,-28927.035,-49173.885,-24931.755,-25786.98
1764505568.8596425,19747.665,-18888.165,-8735.265,-16651.125,-28927.89,-49174.695,-24933.06,-25788.6
1764505568.8596425,19751.085,-18884.7,-8731.529999999999,-16648.155,-28924.245,-49170.78,-24929.415,-25785.0
1764505568.8596425,19752.12,-18883.53,-8730.585,-16646.895,-28923.165,-49169.88,-24928.515,-25783.65
1764505568.8596425,19751.67,-18883.845,-8730.72,-16647.57,-28924.47,-49170.105,-24928.56,-25784.415
1764505568.8596425,19750.905,-18884.61,-8731.26,-16648.92,-28925.415,-49171.05,-24928.965,-25784.775
1764505568.8596425,19751.67,-18883.44,-8730.765,-16648.2,-28924.2,-49170.195,-24928.65,-25784.37
1764505568.8596425,19747.845,-18886.095,-8733.645,-16651.125,-28926.99,-49173.03,-24930.855,-25787.52
1764505568.8596425,19751.265,-18883.665,-8730.765,-16647.84,-28923.705,-49170.24,-24928.11,-25784.37
1764505568.8596425,19752.435,-18882.54,-8729.73,-16645.815,-28922.49,-49168.935,-24927.075,-25782.615
1764505568.8596425,19751.445,-18883.575,-8730.045,-16646.22,-28923.705,-49169.61,-24927.975,-25783.515
1764505568.8606372,19748.34,-18886.77,-8732.97,-16650.27,-28927.755,-49173.03,-24931.89,-25787.43
1764505568.8606372,19748.565,-18886.725,-8732.835,-16650.405,-28926.99,-49173.12,-24930.99,-25786.71
1764505568.8606372,19750.635,-18884.43,-8730.09,-16647.12,-28923.93,-49170.735,-24927.75,-25784.46
1764505568.8606372,19750.185,-18885.645,-8731.395,-16647.614999999998,-28924.965,-49172.22,-24928.29,-25785.36
1764505568.8606372,19750.455,-18885.78,-8730.81,-16647.614999999998,-28924.785,-49171.59,-24928.605,-25785.63
1764505568.8606372,19750.86,-18885.195,-8730.9,-16647.93,-28924.245,-49171.275,-24928.74,-25785.27
1764505568.8606372,19749.42,-18887.04,-8732.115,-16649.73,-28925.415,-49172.67,-24930.405,-25785.99
1764505568.903828,19749.6,-18885.555,-8730.494999999999,-16647.795,-28925.1,-49171.185,-24928.875,-25784.955
1764505568.903828,19749.42,-18885.87,-8731.44,-16648.155,-28925.64,-49171.545,-24929.37,-25785.045
1764505568.904843,19747.755,-18887.58,-8733.465,-16651.485,-28927.575,-49173.705,-24931.395,-25787.385
1764505568.904843,19748.025,-18887.49,-8733.285,-16650.765,-28926.54,-49173.57,-24930.99,-25787.385
1764505568.904843,19748.88,-18886.725,-8732.88,-16650.225,-28925.865,-49173.255,-24930.63,-25786.755
1764505568.904843,19750.275,-18885.42,-8731.71,-16648.965,-28924.605,-49171.455,-24928.965,-25784.91
1764505568.904843,19750.725,-18884.43,-8730.539999999999,-16647.885,-28923.57,-49170.465,-24928.11,-25783.335
1764505568.904843,19753.245,-18882.405,-8728.154999999999,-16646.04,-28920.645,-49167.945,-24926.175,-25781.49
1764505568.904843,19754.46,-18882.72,-8728.02,-16646.265,-28920.42,-49168.125,-24925.95,-25781.04
1764505568.9058506,19752.795,-18884.295,-8729.73,-16647.255,-28922.04,-49169.835,-24927.57,-25781.985
1764505568.9058506,19751.49,-18885.42,-8730.27,-16647.704999999998,-28922.94,-49170.6,-24928.29,-25783.065
1764505568.9058506,19746.405,-18889.965,-8734.365,-16651.26,-28927.44,-49174.29,-24932.16,-25787.97
1764505568.9058506,19746.81,-18890.37,-8734.635,-16651.395,-28927.44,-49174.065,-24932.475,-25788.51
1764505568.9058506,19751.94,-18885.24,-8730.09,-16647.255,-28923.435,-49169.43,-24928.11,-25783.875
1764505568.9074314,19752.705,-18884.16,-8729.865,-16646.805,-28923.57,-49169.115,-24927.3,-25783.065
1764505568.9074314,19749.06,-18887.58,-8732.744999999999,-16649.954999999998,-28926.315,-49171.95,-24931.08,-25785.945
1764505568.9074314,19748.385,-18888.57,-8733.24,-16650.36,-28927.35,-49173.165,-24932.655,-25786.44
1764505568.90845,19749.96,-18887.985,-8731.845,-16648.829999999998,-28926.0,-49171.545,-24931.26,-25785.54
1764505568.90845,19754.685,-18883.44,-8727.345,-16644.915,-28921.275,-49166.595,-24926.49,-25780.77
1764505568.90845,19753.38,-18884.565,-8728.244999999999,-16647.075,-28922.625,-49168.035,-24928.065,-25782.525
1764505568.90845,19752.255,-18886.23,-8729.64,-16648.739999999998,-28923.615,-49169.43,-24929.595,-25784.19
1764505568.909443,19750.095,-18888.075,-8731.44,-16649.91,-28925.325,-49171.365,-24932.205,-25786.08
1764505568.909443,19754.415,-18883.44,-8727.3,-16645.364999999998,-28921.32,-49166.955,-24928.245,-25781.67
1764505568.909443,19754.28,-18882.72,-8727.164999999999,-16645.14,-28920.78,-49166.64,-24928.155,-25781.355
1764505568.9552908,19752.21,-18885.105,-8728.785,-16647.165,-28922.265,-49168.98,-24930.135,-25784.145
1764505568.9552908,19748.52,-18889.47,-8733.015,-16650.765,-28926.18,-49173.03,-24934.365,-25788.105
1764505568.9552908,19747.08,-18890.415,-8734.5,-16652.16,-28927.665,-49174.965,-24935.94,-25789.455
1764505568.9552908,19748.475,-18888.975,-8733.105,-16650.765,-28926.9,-49174.02,-24935.265,-25787.655
1764505568.9552908,19751.085,-18886.905,-8730.315,-16648.605,-28924.515,-49171.365,-24932.205,-25784.91
1764505568.9552908,19748.565,-18889.785,-8733.914999999999,-16651.53,-28927.62,-49174.695,-24934.545,-25788.105
1764505568.9552908,19751.67,-18886.59,-8731.08,-16648.29,-28924.425,-49171.635,-24931.26,-25785.405
1764505568.9552908,19748.295,-18890.01,-8733.869999999999,-16651.17,-28926.9,-49174.065,-24934.455,-25788.51
1764505568.9552908,19747.755,-18891.315,-8734.904999999999,-16651.934999999998,-28928.475,-49174.965,-24935.22,-25789.14
1764505568.9552908,19749.15,-18889.065,-8733.105,-16649.954999999998,-28926.855,-49173.21,-24933.105,-25786.98
1764505568.9552908,19748.025,-18888.165,-8731.26,-16649.325,-28926.99,-49172.895,-24934.005,-25787.655
1764505568.9552908,19748.43,-18887.85,-8730.494999999999,-16648.245,-28926.495,-49172.49,-24933.195,-25787.115
1764505568.9552908,19746.63,-18889.92,-8733.15,-16651.079999999998,-28928.835,-49175.595,-24934.68,-25789.185
1764505568.9552908,19747.89,-18887.94,-8730.855,-16648.695,-28926.63,-49173.21,-24933.51,-25786.845
1764505568.9552908,19751.895,-18883.665,-8727.21,-16644.329999999998,-28922.49,-49169.07,-24929.505,-25781.58
1764505568.9552908,19748.97,-18886.95,-8730.27,-16647.57,-28925.415,-49172.49,-24932.745,-25784.865
1764505568.9552908,19751.355,-18884.475,-8727.074999999999,-16645.14,-28922.58,-49170.06,-24929.955,-25782.12
1764505568.9552908,19748.7,-18886.365,-8729.01,-16647.03,-28924.29,-49172.94,-24931.215,-25784.28
1764505568.9552908,19751.22,-18884.295,-8726.22,-16643.52,-28922.13,-49170.285,-24928.425,-25781.715
1764505568.9552908,19751.31,-18884.79,-8726.67,-16643.745,-28922.67,-49169.79,-24928.74,-25782.21
1764505568.9552908,19749.465,-18886.635,-8728.244999999999,-16645.815,-28923.93,-49172.04,-24930.45,-25784.325
1764505568.9552908,19750.995,-18884.79,-8726.265,-16643.97,-28921.905,-49170.105,-24928.605,-25782.39
1764505568.9552908,19749.645,-18886.05,-8728.38,-16645.77,-28923.525,-49171.59,-24930.63,-25783.74
1764505568.9552908,19753.92,-18881.505,-8723.789999999999,-16641.36,-28918.035,-49166.145,-24925.995,-25779.33
1764505569.0010357,19754.505,-18880.83,-8723.07,-16640.055,-28917.495,-49165.515,-24925.815,-25779.105
1764505569.0010357,19752.75,-18882.54,-8724.735,-16641.09,-28919.34,-49166.955,-24927.165,-25780.365
1764505569.0021205,19749.87,-18885.78,-8727.84,-16644.555,-28922.445,-49169.79,-24930.36,-25782.66
1764505569.0021205,19750.185,-18884.7,-8727.885,-16643.79,-28921.59,-49168.98,-24929.415,-25781.4
1764505569.0021205,19754.145,-18880.425,-8723.97,-16639.559999999998,-28917.315,-49164.93,-24925.32,-25777.575
1764505569.0021205,19753.425,-18881.685,-8724.33,-16640.37,-28918.215,-49165.605,-24925.905,-25778.385
1764505569.0021205,19750.635,-18885.915,-8727.795,-16644.51,-28922.22,-49169.655,-24928.965,-25782.57
1764505569.0021205,19750.05,-18885.735,-8727.119999999999,-16643.52,-28921.815,-49169.43,-24928.65,-25782.03
1764505569.0021205,19753.47,-18882.225,-8723.07,-16640.19,-28917.9,-49165.515,-24924.87,-25778.88
1764505569.0021205,19754.19,-18880.965,-8723.115,-16639.515,-28917.945,-49165.065,-24924.42,-25778.475
1764505569.0021205,19752.66,-18881.64,-8723.565,-16641.045,-28918.305,-49166.46,-24924.915,-25779.69
1764505569.0021205,19749.96,-18884.34,-8726.49,-16643.114999999998,-28920.78,-49168.44,-24927.12,-25782.12
1764505569.0021205,19753.875,-18881.28,-8723.385,-16639.829999999998,-28917.99,-49165.11,-24924.33,-25778.61
1764505569.0021205,19754.01,-18881.1,-8722.529999999999,-16638.93,-28917.315,-49165.065,-24924.33,-25778.745
1764505569.0021205,19753.38,-18881.775,-8723.34,-16639.965,-28917.315,-49166.1,-24924.555,-25779.42
1764505569.0021205,19750.995,-18884.34,-8725.005,-16641.989999999998,-28919.25,-49168.485,-24926.445,-25781.49
1764505569.0021205,19754.37,-18881.19,-8721.27,-16638.66,-28916.28,-49164.93,-24924.105,-25778.115
1764505569.0021205,19754.685,-18880.425,-8721.225,-16638.434999999998,-28916.055,-49164.21,-24923.925,-25777.26
1764505569.0021205,19750.995,-18883.62,-8724.69,-16641.45,-28919.385,-49167.09,-24927.345,-25780.59
1764505569.0021205,19753.47,-18880.515,-8721.765,-16638.93,-28916.46,-49164.84,-24924.78,-25778.205
1764505569.0021205,19753.695,-18881.235,-8721.539999999999,-16639.29,-28917.18,-49165.47,-24924.87,-25778.565
1764505569.0021205,19749.33,-18885.6,-8725.41,-16643.52,-28921.59,-49169.43,-24928.92,-25782.48
1764505569.0021205,19750.5,-18883.845,-8724.824999999999,-16642.53,-28920.555,-49167.72,-24927.795,-25781.175
1764505569.0021205,19753.11,-18881.1,-8722.26,-16639.245,-28918.08,-49164.66,-24924.105,-25779.42
1764505569.0513327,19750.905,-18883.755,-8724.735,-16641.315,-28920.375,-49167.81,-24926.94,-25781.94
1764505569.0513327,19753.065,-18881.55,-8722.26,-16639.02,-28918.215,-49165.605,-24925.095,-25778.97
1764505569.0513327,19753.425,-18881.19,-8721.18,-16638.21,-28917.18,-49165.155,-24925.005,-25777.89
1764505569.0513327,19753.2,-18882.0,-8721.855,-16639.29,-28917.315,-49166.235,-24925.815,-25778.655
1764505569.0513327,19752.57,-18882.855,-8723.07,-16640.55,-28918.8,-49166.955,-24926.445,-25779.915
1764505569.0513327,19749.465,-18885.825,-8726.49,-16642.934999999998,-28921.275,-49169.295,-24929.685,-25782.885
1764505569.0513327,19752.12,-18882.675,-8723.61,-16640.684999999998,-28918.305,-49166.415,-24926.895,-25779.825
1764505569.0513327,19748.97,-18886.275,-8726.625,-16644.059999999998,-28920.825,-49169.925,-24929.415,-25782.48
1764505569.0543635,19749.915,-18884.925,-8725.545,-16642.395,-28919.385,-49168.305,-24927.975,-25781.265
1764505569.0543635,19753.605,-18880.56,-8721.63,-16638.12,-28915.695,-49164.48,-24923.43,-25777.485
1764505569.0553658,19751.31,-18883.26,-8723.744999999999,-16640.774999999998,-28918.395,-49166.82,-24925.59,-25779.555
1764505569.0553658,19750.455,-18884.34,-8724.33,-16641.765,-28919.295,-49168.215,-24927.075,-25780.86
1764505569.0553658,19750.77,-18884.34,-8724.555,-16641.27,-28918.89,-49168.125,-24926.715,-25780.545
1764505569.0553658,19753.56,-18881.82,-8721.72,-16638.614999999998,-28915.875,-49164.795,-24923.835,-25777.665
1764505569.0553658,19752.345,-18883.08,-8723.07,-16640.1,-28917.72,-49166.19,-24925.005,-25779.915
1764505569.0553658,19753.02,-18881.955,-8721.675,-16639.47,-28916.055,-49165.02,-24923.835,-25778.07
1764505569.0553658,19755.99,-18879.345,-8718.029999999999,-16637.04,-28914.12,-49162.815,-24921.27,-25774.74
1764505569.0553658,19754.055,-18881.64,-8721.27,-16639.515,-28917.315,-49164.705,-24924.195,-25777.305
1764505569.0553658,19752.93,-18883.215,-8721.99,-16639.875,-28917.495,-49165.695,-24925.095,-25778.16
1764505569.0553658,19750.815,-18884.79,-8723.925,-16641.72,-28918.8,-49167.72,-24926.58,-25780.815
1764505569.0553658,19752.48,-18882.18,-8721.494999999999,-16639.695,-28915.92,-49165.92,-24923.88,-25778.97
1764505569.0553658,19751.22,-18883.755,-8723.25,-16641.315,-28917.63,-49167.585,-24926.04,-25780.59
1764505569.0553658,19754.28,-18880.605,-8719.56,-16637.895,-28914.57,-49164.525,-24923.115,-25777.575
1764505569.0553658,19753.56,-18881.505,-8720.414999999999,-16638.57,-28915.47,-49165.02,-24923.205,-25778.34
1764505569.1013796,19751.625,-18883.26,-8722.664999999999,-16640.055,-28918.08,-49167.63,-24925.005,-25780.68
1764505569.1013796,19754.46,-18879.66,-8718.345,-16636.23,-28913.58,-49163.94,-24920.955,-25776.675
1764505569.1013796,19754.37,-18880.38,-8719.244999999999,-16637.265,-28913.85,-49164.12,-24920.865,-25777.035
1764505569.1013796,19750.14,-18885.24,-8723.88,-16641.945,-28918.845,-49168.35,-24926.265,-25781.31
1764505569.1013796,19750.725,-18884.88,-8723.295,-16641.27,-28918.08,-49167.765,-24925.185,-25780.68
1764505569.1013796,19754.685,-18880.47,-8718.795,-16637.22,-28913.985,-49164.21,-24920.55,-25777.17
1764505569.1013796,19754.46,-18879.93,-8717.805,-16635.87,-28913.13,-49163.805,-24920.505,-25776.315
1764505569.1013796,19752.975,-18881.325,-8719.154999999999,-16637.22,-28915.02,-49165.02,-24922.17,-25777.44
1764505569.1013796,19750.545,-18883.89,-8722.485,-16640.864999999998,-28917.72,-49167.945,-24924.195,-25781.04
1764505569.1013796,19753.155,-18880.74,-8718.164999999999,-16637.04,-28914.435,-49164.255,-24920.865,-25777.755
1764505569.1013796,19754.01,-18880.245,-8717.445,-16635.645,-28913.13,-49163.13,-24919.965,-25776.225
1764505569.1013796,19753.65,-18881.01,-8718.84,-16636.68,-28914.21,-49164.255,-24921.405,-25777.035
1764505569.1013796,19756.395,-18878.355,-8715.015,-16633.665,-28911.015,-49160.43,-24918.075,-25773.615
1764505569.1013796,19752.39,-18881.64,-8718.3,-16637.13,-28915.335,-49164.3,-24921.09,-25777.125
1764505569.1013796,19752.66,-18881.55,-8718.119999999999,-16636.545,-28915.245,-49164.48,-24921.18,-25777.08
1764505569.1013796,19753.965,-18880.38,-8717.67,-16635.329999999998,-28913.76,-49162.95,-24919.65,-25775.505
1764505569.1013796,19755.675,-18877.05,-8714.789999999999,-16632.045,-28909.89,-49159.17,-24916.5,-25773.255
1764505569.1013796,19752.75,-18880.965,-8717.985,-16636.364999999998,-28913.805,-49163.805,-24920.91,-25776.72
1764505569.1013796,19753.695,-18881.01,-8717.49,-16636.59,-28913.535,-49163.715,-24921.09,-25776.045
1764505569.1013796,19756.17,-18878.355,-8715.24,-16633.305,-28910.925,-49161.015,-24918.255,-25773.345
1764505569.1013796,19753.785,-18880.92,-8717.67,-16636.005,-28912.815,-49163.67,-24921.045,-25775.865
1764505569.1023817,19755.045,-18879.165,-8715.96,-16635.239999999998,-28911.6,-49162.185,-24919.56,-25774.92
1764505569.1023817,19758.195,-18875.97,-8712.045,-16631.235,-28907.73,-49158.63,-24916.095,-25770.87
1764505569.1023817,19757.115,-18877.815,-8712.72,-16632.495,-28909.215,-49159.845,-24918.39,-25772.58
1764505569.1482122,19755.27,-18878.94,-8714.475,-16634.07,-28910.655,-49161.24,-24919.515,-25774.47
1764505569.1482122,19754.505,-18879.435,-8715.105,-16633.934999999998,-28911.42,-49161.69,-24919.38,-25775.1
1764505569.1482122,19754.28,-18878.895,-8715.33,-16634.43,-28911.87,-49161.51,-24919.425,-25774.965
1764505569.1482122,19753.155,-18879.975,-8716.41,-16635.375,-28912.365,-49161.915,-24920.01,-25775.46
1764505569.1482122,19750.995,-18883.035,-8718.48,-16637.805,-28914.57,-49165.2,-24921.99,-25778.565
1764505569.1482122,19752.84,-18881.325,-8716.05,-16635.69,-28912.905,-49162.815,-24920.1,-25776.54
1764505569.1482122,19751.085,-18883.215,-8717.985,-16637.085,-28914.705,-49164.93,-24921.72,-25778.205
1764505569.1482122,19753.515,-18880.515,-8715.779999999999,-16634.43,-28912.005,-49163.175,-24919.515,-25776.135
1764505569.1482122,19754.37,-18880.065,-8715.015,-16634.97,-28912.005,-49162.77,-24919.605,-25775.595
1764505569.1482122,19751.04,-18882.855,-8717.94,-16638.345,-28915.56,-49164.795,-24922.755,-25778.88
1764505569.1482122,19751.895,-18881.82,-8717.625,-16637.895,-28914.705,-49163.895,-24921.945,-25777.665
1764505569.1482122,19754.865,-18880.38,-8714.925,-16635.42,-28911.6,-49161.42,-24919.245,-25775.415
1764505569.1482122,19751.94,-18883.17,-8717.805,-16638.12,-28914.435,-49164.615,-24922.215,-25778.565
1764505569.1482122,19752.03,-18882.765,-8717.805,-16637.985,-28914.48,-49165.02,-24922.98,-25778.16
1764505569.1482122,19753.2,-18881.73,-8716.815,-16636.274999999998,-28913.58,-49163.445,-24921.63,-25776.855
1764505569.1482122,19754.46,-18880.335,-8715.6,-16634.79,-28911.915,-49160.925,-24919.74,-25775.055
1764505569.1482122,19751.58,-18883.44,-8718.3,-16637.445,-28914.48,-49163.355,-24922.665,-25777.215
1764505569.1482122,19752.525,-18882.18,-8717.13,-16637.13,-28912.68,-49162.365,-24921.765,-25775.91
1764505569.1482122,19756.08,-18878.265,-8713.755,-16632.63,-28910.115,-49159.215,-24917.985,-25772.49
1764505569.149232,19755.495,-18878.895,-8713.44,-16632.63,-28910.565,-49159.755,-24918.3,-25773.435
1764505569.149232,19754.775,-18880.335,-8713.755,-16633.62,-28911.015,-49160.52,-24919.02,-25774.425
1764505569.149232,19751.175,-18884.115,-8717.355,-16637.445,-28914.66,-49163.895,-24922.575,-25778.43
1764505569.149232,19752.345,-18883.215,-8716.365,-16636.77,-28913.985,-49163.4,-24921.99,-25777.62
1764505569.149232,19757.745,-18879.57,-8713.98,-16633.62,-28910.745,-49160.34,-24918.48,-25772.535
1764505569.1933937,19756.8,-18879.93,-8714.789999999999,-16635.059999999998,-28911.42,-49161.24,-24919.11,-25772.715
1764505569.1933937,19753.785,-18882.72,-8717.31,-16637.399999999998,-28913.805,-49163.58,-24920.865,-25775.55
1764505569.1933937,19753.785,-18882.855,-8717.085,-16637.22,-28913.94,-49164.345,-24920.775,-25776.315
1764505569.1933937,19755.99,-18880.245,-8714.295,-16634.565,-28911.645,-49161.42,-24918.255,-25773.435
1764505569.1933937,19756.26,-18880.92,-8715.105,-16635.915,-28912.59,-49161.915,-24919.02,-25774.695
1764505569.1933937,19751.49,-18886.05,-8719.875,-16640.505,-28917.27,-49166.595,-24924.105,-25779.87
1764505569.1933937,19752.255,-18885.195,-8718.39,-16639.92,-28916.145,-49164.885,-24922.89,-25778.295
1764505569.1933937,19754.505,-18882.675,-8716.59,-16637.085,-28912.905,-49162.32,-24920.415,-25776.045
1764505569.1944191,19751.355,-18885.465,-8719.199999999999,-16640.73,-28915.74,-49165.605,-24923.475,-25779.69
1764505569.1944191,19752.39,-18884.43,-8718.029999999999,-16640.1,-28915.605,-49164.525,-24922.845,-25779.6
1764505569.1944191,19755.675,-18881.235,-8714.565,-16636.59,-28912.59,-49161.24,-24920.01,-25776.225
1764505569.1944191,19755.135,-18881.64,-8714.925,-16637.445,-28912.59,-49162.005,-24920.055,-25775.82
1764505569.1944191,19752.705,-18884.43,-8718.029999999999,-16640.73,-28915.2,-49164.12,-24922.44,-25778.295
1764505569.1944191,19756.8,-18880.155,-8714.025,-16636.41,-28910.655,-49159.62,-24917.895,-25774.245
1764505569.1944191,19757.79,-18879.705,-8713.44,-16635.375,-28909.71,-49159.08,-24917.445,-25773.75
1764505569.1944191,19753.785,-18883.665,-8716.635,-16638.704999999998,-28913.985,-49162.725,-24920.505,-25777.485
1764505569.1944191,19755.855,-18881.19,-8713.755,-16635.87,-28911.375,-49160.385,-24918.57,-25774.92
1764505569.1944191,19754.055,-18882.495,-8715.33,-16637.13,-28912.365,-49162.545,-24919.92,-25776.36
1764505569.1944191,19757.52,-18880.245,-8712.27,-16634.295,-28909.305,-49159.17,-24917.13,-25773.39
1764505569.1944191,19758.42,-18879.57,-8711.46,-16634.295,-28908.675,-49158.54,-24916.995,-25772.94
1764505569.1944191,19758.33,-18879.93,-8712.36,-16634.79,-28909.35,-49158.99,-24917.22,-25772.58
1764505569.1944191,19756.485,-18880.515,-8713.035,-16635.285,-28910.07,-49159.485,-24917.94,-25773.39
1764505569.1944191,19756.845,-18880.605,-8713.35,-16635.239999999998,-28910.34,-49159.215,-24917.76,-25773.75
1764505569.1944191,19757.295,-18880.74,-8712.18,-16634.655,-28909.575,-49158.585,-24917.805,-25773.3
1764505569.2414708,19757.655,-18880.605,-8712.765,-16635.059999999998,-28909.8,-49158.9,-24917.715,-25773.21
1764505569.2414708,19755.225,-18883.395,-8715.33,-16637.579999999998,-28912.32,-49161.6,-24920.685,-25775.415
1764505569.2414708,19755.27,-18882.99,-8715.645,-16637.04,-28912.545,-49161.555,-24921.405,-25774.965
1764505569.2414708,19752.795,-18885.195,-8717.4,-16639.695,-28914.795,-49164.3,-24923.34,-25777.62
1764505569.2414708,19753.56,-18885.33,-8716.77,-16639.605,-28914.3,-49164.39,-24922.53,-25777.08
1764505569.2414708,19758.105,-18880.74,-8712.225,-16634.16,-28909.62,-49159.935,-24918.48,-25772.67
1764505569.2414708,19757.745,-18880.83,-8712.09,-16633.89,-28910.745,-49159.71,-24918.57,-25773.345
1764505569.2414708,19753.335,-18884.79,-8715.33,-16637.04,-28913.67,-49161.69,-24921.27,-25777.395
1764505569.2414708,19749.645,-18889.47,-8720.145,-16642.035,-28917.54,-49166.955,-24925.68,-25781.58
1764505569.2414708,19751.67,-18887.94,-8718.795,-16641.0,-28916.37,-49165.74,-24924.195,-25780.365
1764505569.2414708,19754.775,-18884.43,-8715.285,-16637.985,-28913.265,-49162.095,-24921.675,-25777.17
1764505569.2414708,19751.265,-18888.345,-8718.345,-16642.215,-28916.505,-49165.74,-24925.23,-25780.995
1764505569.2414708,19752.84,-18886.95,-8717.085,-16640.415,-28914.66,-49164.165,-24923.43,-25779.015
1764505569.2414708,19750.185,-18890.685,-8720.73,-16643.34,-28917.855,-49167.45,-24926.04,-25782.165
1764505569.2419918,19750.5,-18890.865,-8720.64,-16643.43,-28917.675,-49166.955,-24925.545,-25781.985
1764505569.2419918,19750.545,-18890.235,-8720.73,-16643.07,-28918.305,-49166.955,-24925.59,-25782.165
1764505569.2419918,19750.815,-18889.875,-8720.369999999999,-16642.845,-28918.035,-49166.82,-24925.635,-25782.57
1764505569.2419918,19750.905,-18889.38,-8719.785,-16642.125,-28917.27,-49165.695,-24924.465,-25781.49
1764505569.2419918,19754.235,-18886.86,-8716.725,-16639.065,-28914.12,-49162.05,-24920.865,-25777.755
1764505569.2419918,19754.955,-18886.365,-8717.039999999999,-16638.3,-28913.175,-49161.96,-24920.28,-25777.62
1764505569.2419918,19755.585,-18886.14,-8716.86,-16638.03,-28912.545,-49161.51,-24920.055,-25776.36
1764505569.2419918,19752.03,-18887.49,-8717.715,-16638.84,-28913.13,-49161.24,-24920.82,-25777.98
1764505569.2419918,19750.77,-18887.895,-8716.904999999999,-16638.66,-28914.21,-49162.59,-24921.765,-25780.05
1764505569.2419918,19753.83,-18885.915,-8715.375,-16638.165,-28914.39,-49163.49,-24921.54,-25778.34
1764505569.2854507,19754.685,-18885.78,-8715.6,-16638.48,-28914.615,-49163.895,-24920.73,-25777.17
1764505569.2854507,19755.045,-18885.6,-8715.015,-16637.805,-28913.355,-49163.4,-24919.74,-25776.9
1764505569.2854507,19755.0,-18885.915,-8714.88,-16637.715,-28913.04,-49162.275,-24919.605,-25776.27
1764505569.2854507,19755.72,-18884.475,-8714.295,-16637.04,-28912.095,-49161.825,-24918.615,-25775.505
1764505569.2854507,19755.45,-18885.24,-8715.015,-16638.3,-28912.59,-49162.68,-24919.74,-25776.18
1764505569.2854507,19752.435,-18887.445,-8716.365,-16639.605,-28914.39,-49164.255,-24921.765,-25778.835
1764505569.2854507,19753.335,-18884.97,-8713.8,-16637.22,-28912.005,-49161.87,-24919.11,-25777.35
1764505569.2854507,19749.78,-18888.615,-8717.625,-16641.0,-28915.2,-49165.02,-24922.125,-25781.355
1764505569.2854507,19752.255,-18886.68,-8716.14,-16639.02,-28914.03,-49163.13,-24920.325,-25778.655
1764505569.2854507,19751.805,-18888.57,-8719.02,-16642.755,-28917.585,-49166.505,-24923.79,-25779.78
1764505569.2854507,19752.075,-18887.355,-8718.119999999999,-16642.079999999998,-28916.235,-49165.11,-24923.205,-25778.88
1764505569.2854507,19755.9,-18883.395,-8714.07,-16636.95,-28911.69,-49160.565,-24918.525,-25775.28
1764505569.2854507,19755.45,-18883.755,-8714.34,-16636.905,-28911.465,-49160.88,-24918.48,-25775.37
1764505569.2854507,19754.37,-18884.205,-8715.33,-16637.715,-28912.095,-49162.05,-24919.47,-25776.18
1764505569.2854507,19754.685,-18885.015,-8715.105,-16637.535,-28912.275,-49161.69,-24920.145,-25776.405
1764505569.2854507,19755.225,-18884.79,-8714.43,-16637.265,-28912.365,-49160.52,-24919.92,-25775.505
1764505569.2854507,19755.585,-18884.475,-8714.205,-16637.175,-28911.78,-49159.845,-24919.155,-25774.92
1764505569.2854507,19753.38,-18885.6,-8715.824999999999,-16638.66,-28913.4,-49161.78,-24921.495,-25777.17
1764505569.2869992,19756.035,-18882.45,-8712.63,-16635.42,-28910.745,-49159.215,-24918.525,-25774.515
1764505569.2869992,19753.785,-18884.88,-8714.52,-16637.94,-28912.545,-49160.745,-24919.83,-25776.765
1764505569.2869992,19749.96,-18888.84,-8718.029999999999,-16641.765,-28916.28,-49165.02,-24923.745,-25780.905
1764505569.2869992,19749.78,-18889.47,-8717.94,-16641.855,-28916.46,-49165.155,-24923.79,-25781.445
1764505569.3348558,19750.77,-18888.615,-8717.265,-16641.045,-28915.83,-49165.065,-24924.06,-25780.905
1764505569.3348558,19750.365,-18887.94,-8717.58,-16641.225,-28915.965,-49165.065,-24924.105,-25780.635
1764505569.335857,19750.14,-18887.895,-8717.31,-16640.505,-28915.965,-49164.705,-24924.465,-25780.23
1764505569.335857,19752.255,-18886.365,-8715.33,-16638.66,-28914.615,-49162.905,-24922.125,-25778.52
1764505569.335857,19755.765,-18882.45,-8711.955,-16635.239999999998,-28910.745,-49159.395,-24918.39,-25774.83
1764505569.335857,19754.775,-18883.44,-8713.305,-16636.635,-28911.87,-49161.33,-24920.19,-25775.82
1764505569.335857,19754.145,-18883.575,-8713.395,-16636.005,-28912.185,-49161.42,-24919.83,-25776.27
1764505569.335857,19755.0,-18883.215,-8712.72,-16635.555,-28911.24,-49161.105,-24919.47,-25775.28
1764505569.335857,19754.64,-18883.215,-8712.63,-16636.274999999998,-28911.42,-49160.88,-24919.695,-25775.1
1764505569.335857,19755.27,-18882.675,-8711.324999999999,-16634.475,-28910.25,-49159.845,-24918.705,-25773.57
1764505569.335857,19755.855,-18882.225,-8711.1,-16633.62,-28909.89,-49159.17,-24918.525,-25773.795
1764505569.335857,19755.495,-18882.765,-8711.595,-16634.79,-28910.79,-49159.395,-24919.245,-25774.47
1764505569.335857,19752.75,-18885.87,-8715.195,-16637.489999999998,-28913.895,-49161.915,-24921.99,-25777.35
1764505569.335857,19755.0,-18884.34,-8713.215,-16635.059999999998,-28912.14,-49159.89,-24920.01,-25775.28
1764505569.3373635,19755.585,-18882.855,-8711.865,-16634.925,-28911.69,-49159.035,-24919.245,-25774.83
1764505569.3373635,19754.91,-18883.53,-8712.72,-16635.645,-28911.51,-49159.35,-24919.965,-25775.415
1764505569.3373635,19755.0,-18883.665,-8713.44,-16635.78,-28911.15,-49159.89,-24919.425,-25775.64
1764505569.3373635,19752.21,-18886.23,-8715.24,-16638.12,-28914.075,-49163.04,-24921.675,-25778.655
1764505569.3373635,19754.505,-18884.475,-8712.63,-16636.14,-28912.14,-49161.15,-24920.055,-25776.54
1764505569.3373635,19752.435,-18886.41,-8713.35,-16637.265,-28913.895,-49163.175,-24922.44,-25778.565
1764505569.3373635,19754.37,-18884.07,-8711.369999999999,-16635.059999999998,-28912.365,-49160.655,-24919.92,-25776.405
1764505569.3373635,19751.085,-18886.455,-8714.565,-16638.075,-28915.47,-49162.68,-24922.53,-25778.79
1764505569.3373635,19751.895,-18885.42,-8713.619999999999,-16636.454999999998,-28914.255,-49162.275,-24922.35,-25777.665
1764505569.3373635,19755.54,-18880.65,-8710.244999999999,-16632.405,-28910.34,-49158.54,-24918.93,-25773.885
1764505569.3844357,19755.405,-18880.605,-8709.615,-16632.989999999998,-28910.34,-49158.18,-24918.57,-25774.38
1764505569.3844357,19753.425,-18882.945,-8711.64,-16635.239999999998,-28912.77,-49161.06,-24921.18,-25777.395
1764505569.3844357,19755.27,-18881.28,-8709.93,-16632.855,-28910.745,-49159.08,-24919.515,-25775.055
1764505569.3844357,19752.345,-18884.25,-8712.675,-16635.239999999998,-28913.805,-49161.465,-24921.99,-25777.125
1764505569.3844357,19752.21,-18884.295,-8712.09,-16635.329999999998,-28913.22,-49161.375,-24922.44,-25776.855
1764505569.3844357,19753.56,-18884.025,-8711.73,-16634.07,-28912.32,-49161.24,-24921.855,-25776.81
1764505569.3844357,19754.91,-18883.26,-8710.875,-16632.945,-28910.88,-49159.35,-24920.055,-25775.37
1764505569.3844357,19758.465,-18879.57,-8707.14,-16630.065,-28907.775,-49156.065,-24916.995,-25772.4
1764505569.3844357,19757.88,-18879.975,-8707.725,-16630.965,-28908.315,-49156.83,-24918.12,-25773.93
1764505569.3844357,19757.025,-18880.38,-8708.13,-16631.145,-28907.955,-49156.83,-24918.39,-25773.795
1764505569.3844357,19755.585,-18881.325,-8708.895,-16631.864999999998,-28908.63,-49157.865,-24918.93,-25774.335
1764505569.3844357,19750.23,-18886.68,-8714.88,-16636.995,-28913.895,-49163.355,-24924.24,-25779.69
1764505569.3844357,19751.985,-18885.33,-8714.115,-16636.095,-28912.95,-49162.14,-24923.655,-25778.52
1764505569.3844357,19755.18,-18881.415,-8708.94,-16632.675,-28909.395,-49157.91,-24920.1,-25774.155
1764505569.3844357,19755.225,-18880.965,-8708.085,-16631.73,-28908.99,-49157.37,-24919.74,-25773.57
1764505569.3844357,19753.515,-18883.08,-8709.885,-16632.855,-28910.52,-49159.17,-24921.09,-25775.82
1764505569.3844357,19756.485,-18880.425,-8707.949999999999,-16630.38,-28908.27,-49157.37,-24918.48,-25773.165
1764505569.3844357,19755.135,-18881.55,-8708.94,-16632.18,-28909.305,-49158.765,-24919.92,-25775.28
1764505569.3844357,19752.345,-18884.745,-8711.73,-16634.52,-28911.465,-49161.195,-24922.17,-25777.53
1764505569.3844357,19756.305,-18880.515,-8707.23,-16629.93,-28907.19,-49156.38,-24917.445,-25773.39
1764505569.3844357,19757.205,-18880.155,-8706.33,-16629.165,-28906.38,-49155.39,-24916.095,-25772.04
1764505569.3844357,19756.53,-18881.28,-8707.365,-16630.515,-28907.595,-49157.235,-24917.445,-25773.255
1764505569.429313,19755.765,-18882.045,-8708.22,-16631.55,-28908.0,-49158.09,-24918.3,-25774.155
1764505569.429313,19751.67,-18885.735,-8711.73,-16635.059999999998,-28911.555,-49162.095,-24921.855,-25777.845
1764505569.429313,19751.535,-18885.78,-8711.505,-16635.149999999998,-28911.735,-49161.96,-24921.81,-25777.485
1764505569.429313,19751.85,-18885.33,-8710.875,-16633.8,-28910.88,-49160.88,-24920.595,-25776.585
1764505569.429313,19751.805,-18885.15,-8711.279999999999,-16633.98,-28910.205,-49160.7,-24920.37,-25776.81
1764505569.429313,19753.515,-18884.115,-8709.885,-16633.079999999998,-28909.53,-49159.35,-24919.605,-25776.72
1764505569.429313,19756.575,-18880.245,-8705.52,-16629.66,-28906.155,-49155.48,-24915.645,-25772.805
1764505569.429313,19756.935,-18879.57,-8705.16,-16628.355,-28905.525,-49154.355,-24914.655,-25771.23
1764505569.429313,19757.79,-18879.795,-8704.664999999999,-16628.175,-28905.165,-49154.04,-24914.025,-25770.42
1764505569.429313,19756.935,-18880.605,-8706.869999999999,-16629.84,-28906.92,-49155.345,-24915.33,-25771.5
1764505569.429313,19755.63,-18880.56,-8705.43,-16628.805,-28907.595,-49155.03,-24915.78,-25772.04
1764505569.429313,19755.36,-18880.785,-8705.115,-16627.635,-28906.47,-49155.12,-24915.555,-25772.625
1764505569.429313,19754.64,-18881.415,-8706.195,-16628.265,-28906.74,-49156.02,-24915.69,-25773.39
1764505569.429313,19751.22,-18884.475,-8707.949999999999,-16630.92,-28909.44,-49158.315,-24918.795,-25776.315
1764505569.429313,19752.975,-18882.18,-8705.34,-16629.21,-28906.965,-49155.93,-24916.995,-25773.975
1764505569.429313,19752.705,-18885.33,-8709.885,-16633.53,-28911.735,-49160.295,-24920.28,-25776.09
1764505569.429313,19753.695,-18886.05,-8709.66,-16633.215,-28911.69,-49160.295,-24920.145,-25776.045
1764505569.429313,19758.15,-18880.38,-8704.845,-16628.265,-28906.335,-49155.435,-24915.465,-25771.275
1764505569.429313,19757.52,-18880.56,-8704.98,-16627.995,-28906.245,-49155.93,-24915.195,-25771.59
1764505569.429313,19754.01,-18884.475,-8708.49,-16631.505,-28909.53,-49159.53,-24918.84,-25775.505
1764505569.429313,19756.35,-18882.72,-8706.51,-16629.75,-28908.405,-49156.605,-24916.68,-25773.48
1764505569.429313,19753.65,-18884.97,-8708.715,-16632.225,-28911.33,-49158.36,-24919.605,-25775.505
1764505569.474602,19754.28,-18883.575,-8707.455,-16631.055,-28909.575,-49157.55,-24918.39,-25773.84
1764505569.474602,19752.48,-18885.465,-8709.48,-16632.315,-28911.33,-49159.575,-24920.19,-25775.865
1764505569.474602,19754.685,-18883.215,-8706.645,-16629.84,-28909.26,-49157.685,-24917.49,-25774.335
1764505569.474602,19751.625,-18886.41,-8710.199999999999,-16633.079999999998,-28912.185,-49159.665,-24920.46,-25777.44
1764505569.474602,19752.3,-18885.96,-8710.02,-16632.54,-28912.59,-49159.305,-24920.73,-25776.63
1764505569.474602,19756.485,-18881.235,-8705.52,-16628.445,-28908.495,-49155.48,-24916.545,-25772.895
1764505569.474602,19756.08,-18882.27,-8707.14,-16629.57,-28909.125,-49156.83,-24917.94,-25773.57
1764505569.474602,19753.02,-18885.51,-8710.065,-16632.72,-28912.68,-49159.845,-24921.09,-25776.81
1764505569.474602,19755.36,-18883.035,-8707.545,-16630.605,-28910.34,-49157.595,-24917.94,-25774.47
1764505569.474602,19754.505,-18883.8,-8708.31,-16630.92,-28910.79,-49158.495,-24918.255,-25775.505
1764505569.474602,19753.02,-18884.79,-8708.895,-16632.18,-28911.78,-49158.99,-24919.56,-25776.765
1764505569.474602,19750.32,-18887.76,-8711.505,-16635.105,-28914.03,-49160.79,-24922.26,-25778.88
1764505569.474602,19750.635,-18888.075,-8711.505,-16634.97,-28914.525,-49160.97,-24921.99,-25779.105
1764505569.474602,19753.11,-18885.78,-8709.255,-16632.09,-28911.78,-49158.315,-24919.335,-25776.045
1764505569.475596,19749.285,-18888.84,-8712.494999999999,-16635.645,-28914.12,-49161.375,-24922.26,-25778.97
1764505569.475596,19750.41,-18887.625,-8711.055,-16634.204999999998,-28913.445,-49160.07,-24921.585,-25778.16
1764505569.475596,19754.37,-18883.8,-8707.23,-16630.875,-28909.755,-49156.515,-24918.03,-25774.245
1764505569.475596,19752.975,-18885.375,-8708.67,-16633.079999999998,-28910.79,-49157.82,-24918.84,-25776.09
1764505569.475596,19750.995,-18887.355,-8710.289999999999,-16634.79,-28912.77,-49160.205,-24921.09,-25778.205
1764505569.475596,19753.155,-18884.745,-8708.22,-16632.405,-28910.43,-49158.135,-24919.155,-25775.64
1764505569.475596,19750.995,-18887.31,-8710.965,-16635.51,-28912.905,-49160.52,-24921.09,-25777.44
1764505569.475596,19753.425,-18884.745,-8707.77,-16631.82,-28909.755,-49157.595,-24918.615,-25774.47
1764505569.475596,19753.47,-18885.105,-8707.14,-16631.954999999998,-28909.08,-49157.685,-24918.57,-25774.29
1764505569.475596,19754.28,-18884.475,-8707.185,-16631.505,-28909.17,-49158.0,-24918.525,-25774.605
1764505569.5179086,19754.505,-18884.655,-8707.904999999999,-16631.415,-28910.16,-49158.27,-24919.065,-25775.505
1764505569.5179086,19752.255,-18887.355,-8710.065,-16634.43,-28912.365,-49160.52,-24920.82,-25778.34
1764505569.5179086,19755.855,-18883.755,-8706.779999999999,-16630.92,-28909.305,-49156.83,-24917.715,-25774.02
1764505569.5179086,19754.955,-18884.43,-8706.69,-16630.649999999998,-28909.845,-49156.335,-24918.03,-25774.425
1764505569.5179086,19753.83,-18885.33,-8707.815,-16631.1,-28909.53,-49158.18,-24919.155,-25775.55
1764505569.5179086,19751.76,-18886.32,-8709.57,-16633.125,-28911.195,-49160.34,-24921.0,-25777.08
1764505569.5179086,19755.36,-18883.62,-8705.654999999999,-16630.065,-28908.27,-49157.325,-24918.48,-25774.155
1764505569.5179086,19753.11,-18884.835,-8708.22,-16632.315,-28910.205,-49158.945,-24919.875,-25775.955
1764505569.5179086,19748.745,-18889.515,-8712.225,-16636.364999999998,-28913.67,-49163.175,-24924.195,-25779.87
1764505569.5179086,19748.61,-18889.065,-8711.685,-16635.96,-28913.625,-49163.085,-24924.015,-25779.465
1764505569.5179086,19751.67,-18886.455,-8709.164999999999,-16633.17,-28911.15,-49159.935,-24921.81,-25777.08
1764505569.5179086,19750.68,-18887.445,-8709.75,-16633.98,-28912.905,-49160.745,-24923.295,-25778.205
1764505569.5179086,19753.245,-18884.655,-8706.06,-16630.965,-28909.89,-49157.865,-24919.83,-25775.19
1764505569.519543,19750.14,-18887.67,-8708.805,-16633.53,-28912.545,-49160.115,-24921.72,-25776.99
1764505569.519543,19754.37,-18883.98,-8705.52,-16629.795,-28909.08,-49157.325,-24918.93,-25774.02
1764505569.519543,19754.1,-18884.07,-8705.654999999999,-16629.345,-28909.26,-49157.055,-24918.795,-25773.435
1764505569.519543,19751.76,-18886.095,-8707.14,-16631.235,-28910.88,-49158.45,-24920.37,-25774.965
1764505569.519543,19748.835,-18888.93,-8709.57,-16634.07,-28913.085,-49161.195,-24923.07,-25778.835
1764505569.519543,19748.475,-18889.38,-8710.65,-16634.79,-28913.265,-49161.915,-24923.295,-25778.295
1764505569.519543,19748.25,-18890.055,-8711.505,-16635.239999999998,-28913.49,-49161.96,-24923.79,-25779.33
1764505569.5225587,19748.16,-18889.47,-8710.695,-16634.88,-28913.535,-49162.005,-24923.655,-25779.015
1764505569.5225587,19750.32,-18887.355,-8708.445,-16632.945,-28912.455,-49159.845,-24921.63,-25776.09
1764505569.5225587,19750.185,-18887.805,-8708.625,-16633.305,-28913.4,-49160.385,-24922.125,-25777.305
1764505569.5225587,19749.24,-18888.48,-8709.525,-16633.845,-28913.67,-49161.42,-24922.89,-25778.43
1764505569.56816,19747.395,-18890.145,-8711.46,-16635.42,-28914.57,-49163.04,-24924.33,-25779.33
1764505569.56816,19749.33,-18887.985,-8709.57,-16633.53,-28912.995,-49161.015,-24922.35,-25777.665
1764505569.56816,19748.43,-18889.02,-8710.065,-16633.845,-28914.03,-49161.42,-24922.935,-25779.15
1764505569.56816,19746.225,-18889.875,-8711.055,-16635.6,-28914.435,-49162.275,-24923.835,-25781.535
1764505569.56816,19748.835,-18887.355,-8707.77,-16632.45,-28911.06,-49158.99,-24920.505,-25778.295
1764505569.56816,19746.81,-18889.515,-8708.625,-16633.44,-28912.86,-49160.745,-24921.54,-25779.645
1764505569.56816,19748.835,-18888.435,-8708.22,-16633.079999999998,-28912.905,-49160.88,-24921.54,-25777.98
1764505569.56816,19751.31,-18887.67,-8708.039999999999,-16632.945,-28912.14,-49160.205,-24921.99,-25776.9
1764505569.56816,19756.035,-18882.045,-8703.045,-16627.364999999998,-28906.2,-49154.265,-24916.005,-25771.455
1764505569.56816,19753.695,-18883.98,-8704.305,-16629.03,-28908.09,-49156.605,-24917.625,-25773.39
1764505569.56816,19749.87,-18886.5,-8707.005,-16632.405,-28911.6,-49160.205,-24921.09,-25777.125
1764505569.56816,19751.535,-18884.925,-8705.699999999999,-16630.785,-28910.565,-49158.72,-24919.425,-25774.875
1764505569.56816,19748.835,-18888.165,-8708.895,-16633.8,-28913.805,-49162.455,-24922.215,-25778.34
1764505569.56816,19748.97,-18888.075,-8708.805,-16633.62,-28913.49,-49162.005,-24922.17,-25778.52
1764505569.56816,19752.885,-18884.295,-8705.43,-16630.695,-28910.295,-49158.27,-24918.795,-25774.92
1764505569.56816,19751.535,-18884.835,-8705.789999999999,-16631.055,-28910.385,-49158.945,-24919.155,-25775.055
1764505569.56816,19749.15,-18886.635,-8707.5,-16632.585,-28912.77,-49160.43,-24920.685,-25776.495
1764505569.56816,19748.655,-18887.805,-8708.895,-16633.215,-28913.445,-49161.42,-24922.305,-25777.53
1764505569.56816,19753.335,-18883.755,-8705.07,-16629.21,-28909.53,-49157.64,-24918.435,-25773.795
1764505569.56816,19751.58,-18885.915,-8706.6,-16631.505,-28912.095,-49159.53,-24919.965,-25776.18
1764505569.56816,19748.97,-18888.165,-8708.985,-16634.204999999998,-28914.03,-49162.14,-24922.305,-25778.52
1764505569.56816,19751.355,-18885.465,-8706.24,-16631.505,-28910.925,-49159.53,-24919.65,-25775.145
1764505569.6121352,19750.86,-18885.51,-8706.735,-16631.28,-28911.33,-49159.98,-24919.92,-25774.515
1764505569.6121352,19748.34,-18888.255,-8709.119999999999,-16634.25,-28914.12,-49162.77,-24922.89,-25778.385
1764505569.6121352,19748.07,-18889.515,-8709.885,-16635.329999999998,-28914.21,-49163.265,-24923.43,-25779.15
1764505569.6126475,19748.385,-18888.93,-8708.715,-16633.755,-28913.625,-49161.78,-24922.26,-25778.43
1764505569.6126475,19751.76,-18885.465,-8704.98,-16630.155,-28910.52,-49157.775,-24918.345,-25774.515
1764505569.6126475,19752.57,-18885.105,-8704.305,-16629.704999999998,-28910.43,-49157.64,-24918.255,-25773.345
1764505569.6126475,19750.185,-18887.805,-8707.005,-16632.135,-28913.13,-49160.61,-24921.315,-25776.09
1764505569.6126475,19748.43,-18889.92,-8708.895,-16635.239999999998,-28914.795,-49162.23,-24923.34,-25778.52
1764505569.6126475,19752.525,-18885.87,-8704.664999999999,-16631.235,-28910.745,-49158.135,-24919.335,-25773.795
1764505569.6126475,19752.12,-18885.6,-8704.89,-16630.649999999998,-28910.88,-49158.45,-24919.83,-25773.84
1764505569.6126475,19749.96,-18888.12,-8706.42,-16632.585,-28912.95,-49159.98,-24921.54,-25776.54
1764505569.6126475,19752.84,-18886.23,-8703.99,-16630.245,-28910.79,-49157.37,-24918.93,-25773.975
1764505569.6126475,19750.86,-18888.615,-8707.005,-16633.125,-28912.635,-49159.71,-24920.685,-25775.46
1764505569.6126475,19748.61,-18890.775,-8709.525,-16635.285,-28915.065,-49161.69,-24922.575,-25778.475
1764505569.6131744,19750.635,-18889.2,-8707.815,-16632.989999999998,-28913.355,-49159.53,-24919.83,-25776.765
1764505569.6131744,19748.925,-18890.055,-8707.77,-16633.575,-28915.02,-49161.195,-24921.54,-25778.295
1764505569.6131744,19752.525,-18886.77,-8703.045,-16629.885,-28910.88,-49156.605,-24918.615,-25775.145
1764505569.6131744,19748.61,-18891.09,-8708.355,-16634.34,-28915.11,-49160.88,-24922.35,-25779.96
1764505569.6131744,19749.375,-18890.325,-8707.86,-16633.395,-28914.165,-49160.205,-24921.72,-25778.97
1764505569.6131744,19751.085,-18888.21,-8705.565,-16630.739999999998,-28911.78,-49158.18,-24920.37,-25777.26
1764505569.6131744,19750.455,-18889.02,-8706.465,-16631.19,-28912.095,-49158.675,-24920.55,-25777.44
1764505569.6131744,19750.23,-18889.695,-8707.095,-16632.27,-28911.87,-49159.215,-24920.19,-25777.755
1764505569.6131744,19749.195,-18890.82,-8708.445,-16633.89,-28914.075,-49161.195,-24922.53,-25779.33
1764505569.6131744,19746.315,-18893.52,-8710.47,-16636.23,-28917.27,-49163.94,-24925.365,-25781.67
1764505569.661221,19749.285,-18890.37,-8707.59,-16633.53,-28914.39,-49161.195,-24922.44,-25779.33
1764505569.661221,19749.96,-18889.335,-8707.32,-16631.73,-28913.22,-49159.89,-24921.27,-25777.98
1764505569.661221,19749.555,-18890.145,-8707.59,-16631.595,-28913.625,-49160.115,-24921.495,-25778.43
1764505569.661221,19748.79,-18890.73,-8708.039999999999,-16632.45,-28913.895,-49160.655,-24922.305,-25779.87
1764505569.6622243,19749.69,-18890.19,-8706.96,-16631.235,-28912.23,-49159.395,-24921.18,-25778.655
1764505569.6622243,19748.43,-18891.72,-8708.76,-16632.18,-28914.345,-49160.565,-24922.71,-25780.095
1764505569.6622243,19745.37,-18894.195,-8711.595,-16635.059999999998,-28917.72,-49164.57,-24925.95,-25783.065
1764505569.6622243,19744.785,-18893.88,-8711.279999999999,-16636.23,-28917.9,-49165.245,-24926.13,-25783.38
1764505569.6622243,19745.82,-18893.205,-8710.244999999999,-16635.149999999998,-28917.495,-49163.985,-24924.87,-25782.345
1764505569.6622243,19747.755,-18891.045,-8707.545,-16632.27,-28914.57,-49161.195,-24921.585,-25780.005
1764505569.6622243,19744.605,-18894.24,-8710.605,-16635.149999999998,-28917.18,-49164.57,-24925.05,-25783.38
1764505569.6622243,19745.19,-18892.755,-8708.58,-16633.845,-28914.885,-49163.4,-24923.835,-25782.48
1764505569.6622243,19750.05,-18888.795,-8705.654999999999,-16630.559999999998,-28911.69,-49159.665,-24920.505,-25777.665
1764505569.6622243,19749.42,-18891.0,-8708.49,-16633.215,-28914.795,-49162.77,-24922.8,-25779.15
1764505569.6622243,19746.945,-18894.015,-8710.335,-16635.239999999998,-28916.865,-49164.66,-24925.59,-25782.03
1764505569.6622243,19749.24,-18890.64,-8706.69,-16632.09,-28913.085,-49160.925,-24921.54,-25778.745
1764505569.6622243,19748.295,-18891.0,-8707.994999999999,-16632.765,-28914.255,-49161.915,-24922.44,-25779.33
1764505569.6622243,19746.675,-18892.935,-8710.065,-16635.42,-28916.145,-49163.715,-24925.005,-25781.49
1764505569.6622243,19748.925,-18890.145,-8707.545,-16632.18,-28913.13,-49161.195,-24922.44,-25779.06
1764505569.6622243,19746.9,-18890.73,-8708.039999999999,-16632.765,-28914.255,-49161.735,-24923.25,-25779.915
1764505569.6622243,19745.46,-18892.08,-8709.074999999999,-16633.62,-28914.705,-49163.22,-24924.015,-25780.275
1764505569.6622243,19743.48,-18894.735,-8711.369999999999,-16635.555,-28916.505,-49165.65,-24925.68,-25782.615
1764505569.7057996,19747.44,-18891.09,-8708.085,-16632.27,-28913.31,-49162.545,-24922.44,-25779.33
1764505569.7057996,19744.245,-18893.97,-8710.74,-16635.51,-28916.325,-49165.965,-24925.14,-25782.165
1764505569.7057996,19747.305,-18891.63,-8708.31,-16632.585,-28913.895,-49163.265,-24922.665,-25779.06
1764505569.7057996,19745.325,-18892.8,-8709.84,-16634.385,-28915.56,-49164.075,-24924.24,-25780.815
1764505569.7057996,19747.395,-18890.415,-8707.68,-16632.045,-28913.445,-49161.465,-24921.54,-25778.79
1764505569.7057996,19746.225,-18891.99,-8708.85,-16633.8,-28915.02,-49162.725,-24924.285,-25780.23
1764505569.7073514,19748.655,-18889.2,-8706.69,-16631.1,-28912.41,-49160.07,-24921.63,-25777.98
1764505569.7073514,19749.78,-18888.48,-8706.06,-16630.47,-28912.095,-49159.08,-24920.64,-25776.855
1764505569.7073514,19749.285,-18888.345,-8705.789999999999,-16629.84,-28912.005,-49158.9,-24920.595,-25776.72
1764505569.7073514,19747.395,-18890.55,-8707.545,-16631.864999999998,-28913.49,-49160.25,-24921.72,-25778.43
1764505569.7073514,19750.23,-18887.67,-8703.99,-16628.715,-28910.34,-49157.28,-24918.165,-25775.37
1764505569.7073514,19748.97,-18889.29,-8705.744999999999,-16630.515,-28912.23,-49158.765,-24919.965,-25777.17
1764505569.7073514,19749.195,-18888.795,-8706.195,-16630.92,-28912.14,-49158.405,-24920.01,-25777.035
1764505569.7073514,19748.205,-18889.065,-8706.465,-16630.739999999998,-28912.05,-49159.35,-24920.145,-25777.53
1764505569.7073514,19746.27,-18892.125,-8708.355,-16632.945,-28914.165,-49161.105,-24922.44,-25779.78
1764505569.7073514,19748.835,-18890.28,-8706.15,-16630.829999999998,-28912.005,-49158.945,-24921.135,-25778.025
1764505569.7073514,19748.07,-18890.325,-8706.195,-16631.19,-28912.23,-49159.26,-24921.315,-25777.8
1764505569.7073514,19745.505,-18891.765,-8708.039999999999,-16633.26,-28914.84,-49160.835,-24923.115,-25779.465
1764505569.7073514,19748.16,-18889.065,-8705.88,-16630.92,-28912.14,-49158.675,-24920.865,-25777.08
1764505569.708366,19746.36,-18890.775,-8706.914999999999,-16632.315,-28912.86,-49160.07,-24921.72,-25779.24
1764505569.710878,19750.14,-18887.58,-8703.99,-16629.704999999998,-28910.07,-49157.19,-24918.84,-25776.315
1764505569.710878,19748.52,-18889.245,-8706.6,-16630.739999999998,-28911.96,-49158.945,-24921.36,-25777.44
1764505569.710878,19746.45,-18891.54,-8708.76,-16632.809999999998,-28914.3,-49160.565,-24923.07,-25779.105
1764505569.710878,19749.24,-18888.255,-8705.205,-16629.93,-28911.825,-49158.09,-24920.325,-25776.54
1764505569.710878,19747.53,-18890.505,-8705.789999999999,-16631.055,-28912.455,-49160.205,-24923.025,-25778.52
1764505569.710878,19749.87,-18887.49,-8703.135,-16627.995,-28909.215,-49156.92,-24920.19,-25775.55
1764505569.7553947,19749.87,-18887.13,-8703.494999999999,-16628.355,-28909.305,-49156.695,-24920.19,-25775.055
1764505569.7553947,19749.15,-18888.075,-8703.945,-16629.39,-28909.935,-49157.415,-24920.64,-25775.145
1764505569.7553947,19747.26,-18890.595,-8705.88,-16630.965,-28912.32,-49159.53,-24923.07,-25777.575
