Timestamp,Channel1,Channel2,Channel3,Channel4,Channel5,Channel6,Channel7,Channel8
1764505645.5947714,18895.41,-20347.965,-8689.904999999999,-16716.87,-29065.41,-48900.105,-24561.09,-25791.39
1764505645.5947714,18894.285,-20349.54,-8691.345,-16718.715,-29067.165,-48901.68,-24562.08,-25792.695
1764505645.5947714,18898.38,-20345.805,-8688.15,-16715.295,-29063.88,-48897.81,-24559.2,-25788.6
1764505645.5947714,18897.885,-20347.02,-8689.23,-16716.195,-29064.42,-48898.575,-24560.82,-25789.365
1764505645.5947714,18901.89,-20343.69,-8685.539999999999,-16712.37,-29060.28,-48893.805,-24556.905,-25784.82
1764505645.5947714,18903.42,-20342.43,-8684.775,-16711.875,-29058.525,-48892.365,-24556.05,-25782.39
1764505645.5947714,18909.585,-20337.48,-8679.33,-16707.015,-29052.855,-48886.92,-24550.245,-25776.045
1764505645.5947714,18913.905,-20334.015,-8676.18,-16704.0,-29049.48,-48882.915,-24547.14,-25771.815
1764505645.5947714,18911.835,-20336.265,-8678.07,-16705.89,-29051.055,-48884.58,-24549.345,-25772.94
1764505645.5947714,18914.94,-20335.095,-8676.09,-16703.774999999998,-29049.12,-48882.195,-24547.41,-25770.285
1764505645.5947714,18919.17,-20331.495,-8671.86,-16699.86,-29044.62,-48877.65,-24543.315,-25766.505
1764505645.5947714,18918.18,-20332.53,-8673.48,-16702.38,-29046.42,-48878.775,-24545.07,-25767.495
1764505645.5947714,18919.125,-20331.495,-8673.255,-16701.255,-29045.745,-48877.47,-24543.9,-25765.605
1764505645.5947714,18920.835,-20330.415,-8671.545,-16700.085,-29044.08,-48875.76,-24543.0,-25763.895
1764505645.5947714,18923.4,-20328.795,-8669.385,-16698.285,-29042.325,-48873.555,-24541.065,-25760.7
1764505645.5947714,18925.155,-20327.76,-8668.935,-16697.295,-29040.705,-48872.115,-24540.255,-25759.17
1764505645.5947714,18928.935,-20324.16,-8665.74,-16693.515,-29036.79,-48868.29,-24536.835,-25755.84
1764505645.5947714,18931.995,-20321.82,-8663.445,-16691.22,-29035.125,-48865.545,-24534.36,-25752.42
1764505645.5947714,18932.4,-20322.45,-8663.355,-16691.489999999998,-29035.485,-48865.275,-24534.675,-25751.52
1764505645.5947714,18933.255,-20323.395,-8662.949999999999,-16691.489999999998,-29034.855,-48864.735,-24534.99,-25750.98
1764505645.5947714,18932.805,-20325.105,-8664.119999999999,-16692.075,-29035.215,-48865.635,-24535.26,-25751.565
1764505645.5947714,18931.86,-20326.23,-8665.47,-16693.785,-29036.565,-48866.805,-24536.97,-25752.42
1764505645.5947714,18931.32,-20327.715,-8667.449999999999,-16695.585,-29038.005,-48867.57,-24538.23,-25753.455
1764505645.642444,18935.91,-20323.305,-8663.58,-16691.805,-29033.955,-48863.52,-24533.28,-25748.82
1764505645.642444,18935.685,-20323.62,-8664.39,-16692.975,-29034.54,-48864.645,-24533.415,-25748.91
1764505645.642444,18939.87,-20321.19,-8660.34,-16690.274999999998,-29031.21,-48861.36,-24530.175,-25744.995
1764505645.642444,18940.95,-20320.965,-8660.789999999999,-16689.329999999998,-29030.535,-48860.37,-24528.915,-25744.005
1764505645.642444,18940.5,-20321.955,-8661.824999999999,-16690.41,-29031.345,-48861.045,-24529.725,-25744.41
1764505645.642444,18937.08,-20325.87,-8664.75,-16693.875,-29034.765,-48864.015,-24533.235,-25747.02
1764505645.642444,18940.86,-20323.485,-8662.05,-16690.995,-29031.93,-48861.54,-24530.445,-25744.095
1764505645.643438,18940.455,-20323.845,-8662.68,-16692.21,-29031.975,-48862.08,-24530.94,-25744.59
1764505645.643438,18937.62,-20326.86,-8665.065,-16695.18,-29035.35,-48864.87,-24533.505,-25747.02
1764505645.643438,18941.085,-20323.575,-8662.275,-16691.895,-29032.47,-48861.225,-24530.94,-25744.23
1764505645.643438,18941.805,-20323.35,-8662.05,-16691.489999999998,-29031.39,-48860.19,-24530.13,-25744.005
1764505645.643438,18941.355,-20323.62,-8663.085,-16691.895,-29032.245,-48860.73,-24530.4,-25744.77
1764505645.643438,18939.375,-20326.23,-8665.065,-16694.19,-29034.63,-48863.115,-24531.93,-25746.165
1764505645.643438,18944.28,-20321.73,-8660.565,-16689.69,-29029.545,-48858.21,-24527.655,-25741.125
1764505645.643438,18945.765,-20320.605,-8659.485,-16688.7,-29028.285,-48857.085,-24526.53,-25739.865
1764505645.643438,18941.895,-20325.51,-8663.805,-16693.47,-29033.19,-48861.99,-24530.22,-25744.23
1764505645.643438,18941.805,-20325.285,-8663.94,-16693.829999999998,-29033.145,-48861.765,-24529.14,-25743.915
1764505645.643438,18944.325,-20322.585,-8661.779999999999,-16691.579999999998,-29030.265,-48858.75,-24526.44,-25741.485
1764505645.643438,18940.815,-20325.6,-8664.164999999999,-16694.505,-29033.865,-48862.215,-24529.455,-25745.175
1764505645.643438,18938.745,-20327.04,-8665.56,-16695.899999999998,-29035.98,-48863.97,-24530.895,-25746.48
1764505645.643438,18938.655,-20326.32,-8665.38,-16695.045,-29035.215,-48863.295,-24529.815,-25745.49
1764505645.643438,18941.445,-20323.845,-8663.625,-16692.93,-29032.965,-48861.045,-24527.565,-25742.52
1764505645.6904442,18940.23,-20325.33,-8664.705,-16693.965,-29034.09,-48861.72,-24528.375,-25743.15
1764505645.6904442,18940.05,-20325.78,-8664.66,-16694.64,-29034.99,-48862.17,-24527.88,-25743.465
1764505645.6904442,18939.195,-20327.22,-8665.38,-16696.215,-29035.665,-48862.8,-24528.42,-25744.275
1764505645.6904442,18933.795,-20332.395,-8670.69,-16700.76,-29040.705,-48868.695,-24533.145,-25749.135
1764505645.6904442,18933.3,-20332.755,-8671.5,-16701.345,-29041.29,-48870.27,-24533.82,-25749.72
1764505645.6904442,18934.785,-20331.225,-8670.06,-16699.725,-29039.85,-48868.65,-24531.84,-25747.92
1764505645.6904442,18937.035,-20328.75,-8667.855,-16697.07,-29038.05,-48866.22,-24529.05,-25745.22
1764505645.6904442,18936.0,-20329.47,-8669.295,-16698.149999999998,-29039.13,-48866.49,-24530.22,-25745.76
1764505645.6904442,18935.775,-20329.065,-8668.89,-16698.059999999998,-29039.085,-48866.715,-24529.77,-25746.075
1764505645.6904442,18933.93,-20330.82,-8669.88,-16699.815,-29041.02,-48868.74,-24531.345,-25748.19
1764505645.6904442,18930.51,-20334.42,-8673.66,-16703.505,-29044.845,-48872.61,-24534.63,-25752.195
1764505645.6904442,18932.895,-20331.27,-8671.23,-16701.3,-29042.64,-48870.585,-24531.705,-25749.405
1764505645.6904442,18930.96,-20333.25,-8673.255,-16702.92,-29044.44,-48872.7,-24533.82,-25751.745
1764505645.6904442,18925.155,-20339.64,-8678.88,-16708.095,-29050.29,-48878.28,-24539.67,-25757.505
1764505645.6904442,18923.355,-20340.81,-8680.05,-16709.13,-29051.235,-48879.09,-24540.48,-25758.54
1764505645.6904442,18923.4,-20340.045,-8680.32,-16709.04,-29051.37,-48878.19,-24539.715,-25758.09
1764505645.6904442,18924.84,-20337.795,-8678.115,-16706.61,-29049.39,-48876.435,-24537.555,-25756.245
1764505645.6904442,18922.545,-20340.09,-8680.14,-16708.59,-29050.83,-48879.45,-24538.995,-25758.72
1764505645.6904442,18919.935,-20343.285,-8683.38,-16711.965,-29053.935,-48882.555,-24541.875,-25762.32
1764505645.6904442,18922.455,-20340.81,-8680.994999999999,-16709.489999999998,-29051.775,-48880.665,-24540.165,-25759.845
1764505645.6904442,18920.925,-20342.16,-8681.94,-16710.93,-29052.54,-48881.52,-24541.695,-25760.835
1764505645.6904442,18917.955,-20344.995,-8684.19,-16713.72,-29055.645,-48884.22,-24544.44,-25763.49
1764505645.6919827,18922.185,-20341.305,-8680.32,-16708.95,-29052.405,-48881.07,-24541.155,-25759.08
1764505645.6919827,18919.26,-20343.87,-8682.795,-16710.885,-29054.52,-48883.455,-24543.9,-25761.555
1764505645.6919827,18917.235,-20346.3,-8684.19,-16712.46,-29056.32,-48885.795,-24545.925,-25763.445
1764505645.6919827,18912.69,-20350.215,-8688.15,-16716.375,-29059.785,-48890.025,-24549.345,-25767.405
1764505645.7368274,18911.79,-20350.755,-8689.41,-16717.59,-29061.0,-48891.195,-24549.93,-25769.025
1764505645.7368274,18911.205,-20350.44,-8689.815,-16717.32,-29061.855,-48891.69,-24550.47,-25769.7
1764505645.7368274,18911.205,-20350.755,-8690.445,-16718.04,-29062.44,-48892.32,-24550.245,-25770.42
1764505645.7378345,18913.23,-20349.135,-8687.565,-16715.88,-29060.37,-48890.295,-24547.59,-25768.665
1764505645.7378345,18911.385,-20350.62,-8689.994999999999,-16717.23,-29062.215,-48891.78,-24549.615,-25770.6
1764505645.7378345,18907.875,-20354.265,-8693.865,-16721.325,-29065.59,-48896.19,-24553.08,-25773.795
1764505645.7378345,18911.205,-20351.385,-8690.445,-16717.32,-29062.17,-48893.13,-24549.12,-25769.115
1764505645.7378345,18906.75,-20355.795,-8694.09,-16722.0,-29066.76,-48897.18,-24553.17,-25772.805
1764505645.7378345,18904.995,-20357.055,-8695.08,-16722.989999999998,-29067.705,-48898.575,-24553.98,-25774.56
1764505645.7388332,18905.13,-20357.145,-8695.44,-16722.765,-29067.84,-48898.395,-24554.655,-25774.65
1764505645.7388332,18907.56,-20353.815,-8692.83,-16719.795,-29065.185,-48896.01,-24552.18,-25770.735
1764505645.7388332,18906.435,-20355.615,-8694.27,-16721.145,-29066.67,-48897.405,-24553.53,-25772.58
1764505645.7388332,18905.175,-20357.37,-8695.44,-16722.54,-29068.56,-48898.845,-24555.24,-25774.56
1764505645.7388332,18908.415,-20353.77,-8691.66,-16719.345,-29064.42,-48895.695,-24552.36,-25771.455
1764505645.7388332,18908.775,-20353.59,-8692.83,-16719.165,-29064.105,-48896.37,-24552.09,-25771.68
1764505645.7388332,18906.795,-20355.795,-8694.675,-16720.695,-29066.535,-48897.63,-24553.71,-25773.525
1764505645.7388332,18911.07,-20351.745,-8689.68,-16715.7,-29063.115,-48893.22,-24548.535,-25768.62
1764505645.7388332,18908.955,-20353.365,-8691.255,-16718.85,-29065.185,-48896.28,-24550.965,-25771.365
1764505645.7388332,18911.565,-20351.295,-8689.32,-16716.87,-29063.07,-48894.21,-24548.895,-25769.43
1764505645.7388332,18910.53,-20352.915,-8690.715,-16717.815,-29064.24,-48895.695,-24550.65,-25770.195
1764505645.7388332,18914.67,-20349.315,-8687.43,-16714.305,-29060.325,-48892.86,-24547.59,-25765.92
1764505645.7388332,18913.77,-20350.08,-8688.42,-16715.07,-29061.54,-48894.12,-24548.355,-25767.0
1764505645.7837894,18916.29,-20346.975,-8685.045,-16711.829999999998,-29058.48,-48890.835,-24545.295,-25764.345
1764505645.7837894,18916.875,-20346.93,-8685.0,-16712.145,-29057.985,-48891.195,-24545.43,-25764.345
1764505645.7837894,18914.715,-20349.765,-8687.205,-16715.114999999998,-29060.325,-48894.12,-24548.31,-25767.0
1764505645.7837894,18916.515,-20348.1,-8685.18,-16713.495,-29058.93,-48892.14,-24546.51,-25765.02
1764505645.7837894,18923.67,-20341.08,-8678.34,-16706.385,-29052.45,-48884.67,-24539.58,-25757.19
1764505645.7837894,18923.805,-20341.035,-8678.565,-16706.204999999998,-29052.72,-48884.445,-24540.12,-25757.28
1764505645.7837894,18925.605,-20340.045,-8678.025,-16704.765,-29051.595,-48883.275,-24538.86,-25756.245
1764505645.7837894,18924.93,-20341.17,-8678.115,-16705.35,-29052.405,-48883.41,-24539.355,-25756.02
1764505645.7837894,18923.58,-20342.835,-8679.465,-16707.555,-29054.025,-48884.76,-24540.84,-25758.045
1764505645.7837894,18928.08,-20338.56,-8676.09,-16704.855,-29050.245,-48880.98,-24536.97,-25753.725
1764505645.7837894,18926.73,-20340.09,-8677.845,-16706.024999999998,-29051.595,-48882.33,-24538.905,-25754.58
1764505645.7837894,18926.775,-20340.315,-8678.115,-16705.98,-29050.92,-48881.88,-24538.725,-25754.535
1764505645.7837894,18930.915,-20337.165,-8674.425,-16702.47,-29047.545,-48878.19,-24535.08,-25750.935
1764505645.7837894,18929.115,-20339.145,-8675.775,-16704.045,-29049.03,-48879.855,-24536.925,-25752.645
1764505645.7837894,18931.77,-20336.715,-8673.93,-16702.245,-29047.365,-48877.065,-24534.405,-25750.215
1764505645.7837894,18928.53,-20340.9,-8678.25,-16706.34,-29051.505,-48880.08,-24538.32,-25753.365
1764505645.7837894,18928.89,-20340.765,-8677.485,-16705.395,-29051.595,-48879.405,-24538.905,-25752.915
1764505645.7837894,18930.195,-20340.54,-8676.539999999999,-16704.495,-29050.965,-48878.775,-24537.87,-25752.105
1764505645.7837894,18931.545,-20340.09,-8676.404999999999,-16704.405,-29050.02,-48878.415,-24537.06,-25751.205
1764505645.7837894,18931.23,-20340.81,-8677.755,-16704.945,-29050.02,-48879.09,-24536.7,-25751.205
1764505645.7837894,18931.725,-20340.54,-8677.8,-16705.665,-29050.29,-48879.27,-24536.385,-25750.98
1764505645.7837894,18931.32,-20341.215,-8678.565,-16706.43,-29050.695,-48879.81,-24538.32,-25752.24
1764505645.8275175,18935.01,-20337.975,-8675.19,-16703.19,-29047.23,-48875.58,-24535.53,-25748.73
1764505645.82805,18936.63,-20337.03,-8673.48,-16702.11,-29045.79,-48874.365,-24534.405,-25746.975
1764505645.82805,18936.405,-20337.795,-8673.795,-16702.785,-29046.51,-48875.13,-24534.405,-25747.065
1764505645.82805,18932.13,-20342.07,-8678.52,-16707.329999999998,-29050.92,-48879.0,-24538.365,-25750.89
1764505645.82805,18933.48,-20340.27,-8677.08,-16705.89,-29049.795,-48876.93,-24536.79,-25749.675
1764505645.82805,18936.225,-20337.885,-8674.244999999999,-16703.46,-29046.78,-48874.32,-24534.135,-25746.885
1764505645.82805,18933.84,-20340.99,-8677.44,-16705.98,-29049.885,-48876.93,-24536.52,-25749.81
1764505645.82805,18934.02,-20341.17,-8677.664999999999,-16705.98,-29050.065,-48876.66,-24536.565,-25749.945
1764505645.82805,18937.08,-20338.38,-8674.515,-16703.19,-29047.86,-48873.735,-24533.82,-25746.57
1764505645.82805,18934.11,-20341.755,-8676.99,-16706.79,-29050.83,-48875.85,-24536.295,-25749.09
1764505645.82805,18938.205,-20338.155,-8673.164999999999,-16703.595,-29046.87,-48872.115,-24532.02,-25745.13
1764505645.82805,18939.51,-20337.795,-8673.029999999999,-16703.55,-29045.565,-48871.665,-24531.255,-25744.545
1764505645.82805,18940.095,-20338.155,-8673.39,-16704.315,-29045.295,-48871.98,-24530.94,-25744.77
1764505645.82805,18935.595,-20341.98,-8677.215,-16708.545,-29049.39,-48876.39,-24535.8,-25748.595
1764505645.82805,18938.43,-20339.73,-8673.615,-16705.845,-29046.96,-48873.465,-24533.1,-25745.445
1764505645.82805,18936.72,-20342.565,-8676.27,-16708.59,-29049.885,-48875.715,-24535.665,-25747.605
1764505645.82805,18936.225,-20343.105,-8677.17,-16709.535,-29050.11,-48876.255,-24536.205,-25747.74
1764505645.82805,18938.115,-20341.44,-8675.955,-16707.555,-29047.455,-48874.275,-24534.9,-25745.805
1764505645.82805,18940.68,-20339.1,-8673.705,-16706.07,-29045.745,-48872.295,-24532.38,-25743.87
1764505645.82805,18938.7,-20341.98,-8676.27,-16708.815,-29048.22,-48874.185,-24535.62,-25746.12
1764505645.82805,18944.055,-20337.57,-8671.68,-16704.315,-29043.45,-48869.46,-24530.895,-25740.99
1764505645.82805,18945.135,-20336.445,-8670.645,-16703.415,-29042.46,-48868.515,-24529.365,-25739.28
1764505645.82805,18945.765,-20335.68,-8670.015,-16702.245,-29041.785,-48867.705,-24528.915,-25739.01
1764505645.82805,18945.045,-20336.58,-8671.005,-16703.37,-29042.64,-48868.74,-24530.445,-25740.45
1764505645.8750594,18946.62,-20336.04,-8670.015,-16702.695,-29041.56,-48867.57,-24530.22,-25738.965
1764505645.8750594,18945.855,-20336.355,-8670.555,-16704.315,-29042.055,-48868.335,-24531.66,-25739.775
1764505645.8750594,18941.895,-20338.695,-8673.66,-16707.87,-29045.43,-48871.08,-24534.945,-25742.79
1764505645.8750594,18942.21,-20338.065,-8672.67,-16706.835,-29045.115,-48871.305,-24534.405,-25742.97
1764505645.8750594,18945.99,-20334.69,-8669.52,-16703.19,-29041.965,-48867.345,-24530.625,-25739.46
1764505645.8750594,18947.385,-20334.105,-8668.755,-16701.614999999998,-29041.245,-48865.545,-24529.32,-25738.155
1764505645.8750594,18946.8,-20335.095,-8669.88,-16702.695,-29041.695,-48866.535,-24530.175,-25739.415
1764505645.8750594,18945.72,-20335.95,-8671.545,-16703.774999999998,-29043.54,-48868.245,-24532.245,-25741.125
1764505645.8750594,18950.22,-20331.765,-8666.505,-16698.6,-29038.905,-48863.655,-24527.79,-25735.995
1764505645.8750594,18944.055,-20338.515,-8672.985,-16704.809999999998,-29044.575,-48870.09,-24533.145,-25742.79
1764505645.8750594,18944.865,-20337.705,-8672.67,-16704.899999999998,-29044.53,-48868.875,-24533.19,-25742.565
1764505645.8750594,18947.205,-20334.555,-8669.699999999999,-16701.75,-29041.875,-48865.365,-24530.04,-25739.01
1764505645.8750594,18944.955,-20336.49,-8670.69,-16703.28,-29043.045,-48866.94,-24531.435,-25740.72
1764505645.8750594,18948.51,-20334.33,-8667.945,-16699.815,-29039.355,-48864.15,-24527.88,-25738.47
1764505645.8750594,18948.285,-20335.455,-8669.654999999999,-16701.21,-29040.165,-48865.005,-24528.69,-25739.955
1764505645.8750594,18947.205,-20335.635,-8670.465,-16702.065,-29040.975,-48865.86,-24530.085,-25740.99
1764505645.8750594,18944.91,-20337.615,-8672.58,-16703.684999999998,-29043.945,-48867.93,-24531.48,-25743.42
1764505645.8750594,18948.33,-20333.16,-8669.07,-16699.995,-29040.48,-48864.105,-24527.655,-25739.505
1764505645.8750594,18951.12,-20330.595,-8666.279999999999,-16697.295,-29038.005,-48861.585,-24524.955,-25737.705
1764505645.8750594,18945.855,-20335.545,-8671.59,-16702.38,-29043.0,-48867.165,-24530.13,-25743.87
1764505645.8750594,18946.665,-20333.97,-8670.015,-16700.94,-29040.885,-48866.13,-24527.835,-25742.43
1764505645.8750594,18949.635,-20331.225,-8667.045,-16697.88,-29037.87,-48863.16,-24524.685,-25739.415
1764505645.8750594,18947.43,-20334.015,-8669.52,-16700.085,-29040.3,-48865.23,-24527.205,-25742.295
1764505645.8750594,18943.335,-20338.155,-8673.57,-16704.54,-29044.665,-48869.37,-24531.255,-25746.885
1764505645.9251385,18943.47,-20338.2,-8674.02,-16704.315,-29045.025,-48869.64,-24530.58,-25746.885
1764505645.9251385,18942.75,-20338.65,-8673.75,-16703.774999999998,-29045.25,-48869.46,-24530.58,-25747.335
1764505645.9251385,18942.525,-20338.695,-8673.66,-16703.64,-29044.98,-48868.92,-24530.4,-25747.155
1764505645.9251385,18943.83,-20336.76,-8671.815,-16702.47,-29043.405,-48867.39,-24528.645,-25745.265
1764505645.9251385,18948.825,-20332.53,-8667.494999999999,-16698.195,-29039.49,-48863.385,-24524.415,-25740.405
1764505645.9251385,18944.37,-20337.12,-8672.31,-16702.829999999998,-29044.08,-48868.11,-24528.87,-25745.67
1764505645.9251385,18944.505,-20336.94,-8673.074999999999,-16703.01,-29044.305,-48868.245,-24529.86,-25746.12
1764505645.9251385,18946.485,-20334.51,-8671.455,-16700.67,-29042.73,-48866.445,-24528.105,-25744.32
1764505645.9251385,18946.305,-20335.545,-8671.994999999999,-16701.57,-29043.09,-48866.895,-24527.88,-25745.13
1764505645.9251385,18945.36,-20337.255,-8673.164999999999,-16702.335,-29043.405,-48867.975,-24528.735,-25746.03
1764505645.9251385,18945.27,-20336.805,-8672.265,-16701.84,-29043.27,-48867.93,-24528.33,-25746.12
1764505645.9251385,18945.36,-20336.895,-8671.59,-16701.704999999998,-29043.405,-48866.895,-24528.105,-25746.165
1764505645.9251385,18943.605,-20337.93,-8672.49,-16702.02,-29043.27,-48866.445,-24529.815,-25746.84
1764505645.9251385,18941.67,-20339.91,-8674.154999999999,-16702.785,-29045.16,-48868.065,-24530.895,-25748.73
1764505645.9251385,18947.655,-20334.735,-8669.88,-16698.915,-29041.065,-48864.375,-24527.205,-25744.005
1764505645.9251385,18946.575,-20335.365,-8670.42,-16699.995,-29042.235,-48864.69,-24528.15,-25744.815
1764505645.9251385,18943.56,-20338.965,-8673.39,-16703.19,-29045.385,-48868.2,-24531.615,-25748.91
1764505645.9251385,18945.63,-20337.345,-8671.005,-16701.21,-29042.865,-48866.13,-24529.455,-25746.75
1764505645.9251385,18949.68,-20333.205,-8667.09,-16697.475,-29039.22,-48861.99,-24525.945,-25743.015
1764505645.9251385,18947.835,-20334.69,-8668.664999999999,-16699.14,-29041.2,-48863.88,-24527.115,-25744.77
1764505645.9251385,18946.395,-20336.76,-8669.925,-16700.445,-29043.045,-48865.545,-24528.555,-25745.715
1764505645.9261477,18948.96,-20335.005,-8667.0,-16698.195,-29040.075,-48862.53,-24526.305,-25743.42
1764505645.9261477,18948.015,-20336.265,-8669.025,-16699.905,-29041.2,-48864.285,-24527.88,-25744.77
1764505645.9261477,18951.615,-20332.665,-8665.199999999999,-16695.989999999998,-29037.33,-48860.46,-24523.605,-25741.08
1764505645.9700875,18951.345,-20332.89,-8665.515,-16696.305,-29037.645,-48860.145,-24523.965,-25740.9
1764505645.9700875,18949.68,-20335.23,-8667.315,-16698.645,-29039.58,-48862.035,-24526.17,-25742.745
1764505645.9700875,18951.885,-20334.015,-8665.515,-16696.53,-29038.275,-48860.73,-24524.64,-25741.755
1764505645.9700875,18949.725,-20336.22,-8667.945,-16699.005,-29040.255,-48862.845,-24526.845,-25744.5
1764505645.9700875,18950.805,-20334.6,-8666.055,-16698.195,-29039.085,-48860.865,-24525.54,-25743.24
1764505645.9700875,18955.395,-20329.695,-8661.914999999999,-16693.47,-29034.09,-48856.185,-24521.175,-25738.38
1764505645.9700875,18956.52,-20328.795,-8660.699999999999,-16692.165,-29032.83,-48855.105,-24520.14,-25736.715
1764505645.9700875,18954.585,-20331.045,-8662.5,-16694.28,-29034.54,-48857.265,-24521.94,-25739.82
1764505645.971105,18952.38,-20334.195,-8665.695,-16697.25,-29037.69,-48861.045,-24525.405,-25743.51
1764505645.971105,18955.125,-20332.395,-8663.31,-16695.225,-29035.89,-48858.255,-24523.11,-25741.89
1764505645.971105,18956.385,-20331.36,-8661.779999999999,-16694.01,-29034.81,-48856.545,-24521.625,-25740.9
1764505645.971105,18954.045,-20332.71,-8664.029999999999,-16695.27,-29035.89,-48858.345,-24522.615,-25742.745
1764505645.971105,18953.91,-20332.755,-8664.164999999999,-16696.305,-29035.845,-48858.165,-24522.615,-25742.7
1764505645.971105,18952.335,-20334.105,-8665.38,-16697.97,-29037.645,-48859.245,-24524.415,-25744.905
1764505645.971105,18953.73,-20331.945,-8663.039999999999,-16695.18,-29035.89,-48856.815,-24522.165,-25742.7
1764505645.971105,18951.12,-20334.78,-8665.875,-16698.015,-29037.78,-48859.515,-24524.325,-25745.67
1764505645.971105,18954.36,-20332.935,-8662.949999999999,-16695.675,-29035.08,-48856.995,-24521.67,-25743.285
1764505645.971105,18954.18,-20333.565,-8663.31,-16694.864999999998,-29035.845,-48856.995,-24521.94,-25743.6
1764505645.971105,18951.165,-20336.94,-8666.55,-16697.97,-29038.905,-48860.82,-24524.955,-25747.065
1764505645.971105,18953.415,-20334.105,-8664.3,-16695.315,-29035.62,-48858.03,-24521.13,-25745.04
1764505645.971105,18955.08,-20332.17,-8662.59,-16693.695,-29033.955,-48856.32,-24520.095,-25743.24
1764505645.971105,18952.83,-20335.095,-8664.93,-16696.35,-29036.115,-48858.12,-24522.435,-25745.04
1764505645.9716208,18951.705,-20336.355,-8666.055,-16698.105,-29037.555,-48859.38,-24523.29,-25746.21
1764505645.9716208,18951.435,-20337.12,-8666.955,-16699.005,-29038.275,-48860.145,-24524.28,-25747.11
1764505646.015587,18950.67,-20337.345,-8666.955,-16699.905,-29038.995,-48860.775,-24525.27,-25748.19
1764505646.015587,18951.21,-20336.445,-8666.64,-16699.725,-29038.185,-48859.965,-24524.955,-25747.425
1764505646.015587,18950.58,-20338.065,-8667.449999999999,-16700.535,-29039.22,-48861.585,-24526.44,-25748.55
1764505646.015587,18946.845,-20342.34,-8671.14,-16704.045,-29043.0,-48864.465,-24529.635,-25752.645
1764505646.015587,18950.04,-20338.74,-8668.529999999999,-16700.895,-29039.67,-48861.315,-24526.755,-25749.225
1764505646.015587,18950.49,-20339.01,-8668.574999999999,-16700.895,-29039.49,-48861.855,-24526.665,-25749.495
1764505646.015587,18951.48,-20338.02,-8667.539999999999,-16700.13,-29038.68,-48860.865,-24525.135,-25748.28
1764505646.015587,18947.16,-20342.565,-8671.725,-16704.989999999998,-29042.28,-48864.915,-24528.645,-25752.465
1764505646.015587,18949.86,-20339.55,-8668.664999999999,-16702.605,-29039.22,-48862.17,-24525.27,-25749.72
1764505646.015587,18947.61,-20341.395,-8671.185,-16704.765,-29042.055,-48864.195,-24527.745,-25752.33
1764505646.015587,18950.625,-20338.605,-8667.72,-16701.57,-29039.13,-48861.045,-24524.685,-25749.45
1764505646.015587,18951.3,-20338.605,-8667.81,-16700.94,-29038.68,-48860.73,-24524.055,-25750.17
1764505646.015587,18950.895,-20339.865,-8668.664999999999,-16701.57,-29038.995,-48861.495,-24524.64,-25752.015
1764505646.015587,18949.545,-20340.63,-8669.295,-16702.695,-29039.76,-48862.395,-24525.405,-25753.365
1764505646.015587,18948.42,-20341.62,-8670.195,-16703.73,-29041.695,-48864.195,-24526.665,-25755.795
1764505646.015587,18950.4,-20338.965,-8667.045,-16701.255,-29039.49,-48861.72,-24523.74,-25754.445
1764505646.015587,18953.91,-20335.455,-8663.895,-16697.565,-29035.845,-48858.39,-24520.455,-25750.845
1764505646.015587,18951.93,-20337.48,-8665.425,-16698.78,-29037.96,-48859.29,-24522.93,-25752.105
1764505646.015587,18955.035,-20335.77,-8663.85,-16697.34,-29036.295,-48857.355,-24522.705,-25749.27
1764505646.015587,18956.79,-20335.455,-8662.86,-16696.665,-29034.63,-48856.365,-24522.48,-25746.345
1764505646.015587,18960.165,-20331.45,-8659.485,-16692.39,-29031.21,-48851.73,-24519.555,-25740.855
1764505646.015587,18957.285,-20334.87,-8662.545,-16695.54,-29034.405,-48854.655,-24523.29,-25743.24
1764505646.0632255,18957.96,-20334.24,-8661.824999999999,-16694.864999999998,-29034.045,-48853.89,-24523.38,-25742.43
1764505646.0632255,18962.955,-20329.47,-8657.505,-16690.77,-29029.185,-48848.895,-24518.43,-25737.165
1764505646.0632255,18962.865,-20329.425,-8657.73,-16690.68,-29028.195,-48848.805,-24518.52,-25736.805
1764505646.0632255,18961.56,-20331.315,-8659.215,-16692.704999999998,-29030.04,-48850.02,-24519.87,-25738.875
1764505646.0642464,18962.01,-20330.775,-8658.494999999999,-16691.895,-29029.77,-48850.02,-24518.97,-25738.875
1764505646.0642464,18955.485,-20336.805,-8664.93,-16697.295,-29034.945,-48855.51,-24525.54,-25745.985
1764505646.0652454,18953.955,-20338.11,-8666.279999999999,-16699.14,-29036.025,-48857.22,-24526.8,-25748.28
1764505646.0652454,18954.585,-20337.615,-8665.154999999999,-16698.195,-29035.17,-48856.32,-24525.765,-25747.83
1764505646.0662622,18958.095,-20333.655,-8661.779999999999,-16694.145,-29031.93,-48852.09,-24522.57,-25744.275
1764505646.0662622,18957.915,-20334.06,-8662.815,-16694.82,-29033.19,-48852.99,-24523.155,-25746.255
1764505646.070118,18952.11,-20340.18,-8668.395,-16700.67,-29038.455,-48859.785,-24529.05,-25753.455
1764505646.0722024,18949.905,-20342.43,-8670.645,-16702.605,-29040.57,-48861.405,-24531.39,-25755.165
1764505646.0737486,18948.735,-20343.645,-8671.994999999999,-16704.18,-29041.785,-48862.44,-24532.695,-25756.38
1764505646.0737486,18949.905,-20343.015,-8670.914999999999,-16703.28,-29041.38,-48862.17,-24532.245,-25755.39
1764505646.0737486,18953.055,-20340.045,-8667.855,-16700.355,-29038.095,-48859.065,-24528.645,-25751.565
1764505646.0737486,18950.31,-20342.43,-8671.14,-16702.92,-29040.3,-48861.72,-24531.03,-25753.68
1764505646.0737486,18948.375,-20344.905,-8672.445,-16704.945,-29041.965,-48863.295,-24533.37,-25755.84
1764505646.0737486,18952.695,-20341.305,-8668.8,-16701.614999999998,-29038.545,-48858.84,-24529.86,-25752.375
1764505646.0737486,18952.785,-20340.72,-8668.529999999999,-16700.94,-29038.095,-48857.805,-24528.915,-25751.745
1764505646.0737486,18948.69,-20344.635,-8672.895,-16704.809999999998,-29041.965,-48861.855,-24533.01,-25756.38
1764505646.0737486,18949.41,-20344.005,-8672.31,-16704.135,-29041.74,-48861.9,-24532.92,-25756.47
1764505646.0737486,18950.67,-20343.105,-8671.32,-16703.684999999998,-29041.38,-48861.09,-24531.57,-25755.345
1764505646.0737486,18949.545,-20344.32,-8671.635,-16705.215,-29041.875,-48861.9,-24532.335,-25755.615
1764505646.0737486,18947.07,-20346.615,-8674.154999999999,-16707.465,-29044.08,-48863.97,-24534.09,-25758.405
1764505646.1122916,18950.31,-20342.97,-8670.105,-16704.0,-29040.255,-48859.695,-24530.265,-25755.255
1764505646.1122916,18947.655,-20346.255,-8672.895,-16706.745,-29042.64,-48862.89,-24533.28,-25758.09
1764505646.1122916,18950.265,-20344.365,-8671.41,-16704.989999999998,-29040.435,-48860.955,-24531.165,-25755.975
1764505646.1122916,18953.91,-20341.62,-8668.89,-16702.605,-29038.095,-48858.345,-24529.005,-25753.095
1764505646.1122916,18950.94,-20345.58,-8672.13,-16705.575,-29041.38,-48860.865,-24532.83,-25755.255
1764505646.1122916,18949.725,-20346.48,-8672.625,-16705.71,-29041.56,-48860.685,-24533.37,-25755.165
1764505646.1122916,18950.22,-20345.85,-8671.994999999999,-16704.945,-29040.615,-48859.92,-24532.605,-25753.905
1764505646.1122916,18952.605,-20343.69,-8669.835,-16703.595,-29038.59,-48857.94,-24530.49,-25751.88
1764505646.1122916,18955.305,-20342.34,-8668.845,-16702.47,-29036.295,-48855.87,-24529.14,-25750.215
1764505646.1122916,18959.4,-20338.785,-8664.975,-16698.555,-29032.56,-48851.505,-24525.135,-25746.795
1764505646.1122916,18956.88,-20340.54,-8666.505,-16700.445,-29034.675,-48854.115,-24526.125,-25748.91
1764505646.1122916,18954.72,-20343.015,-8668.98,-16703.055,-29037.51,-48857.58,-24528.645,-25751.97
1764505646.1122916,18960.3,-20337.345,-8663.175,-16697.88,-29031.885,-48851.73,-24523.83,-25747.065
1764505646.1122916,18962.055,-20336.49,-8661.69,-16696.53,-29029.905,-48850.245,-24521.985,-25745.175
1764505646.1122916,18960.21,-20338.695,-8663.985,-16698.375,-29032.155,-48852.81,-24523.515,-25747.02
1764505646.1122916,18961.515,-20337.3,-8662.23,-16696.934999999998,-29030.805,-48851.82,-24522.57,-25746.255
1764505646.1122916,18964.935,-20333.385,-8658.72,-16693.605,-29026.8,-48848.4,-24518.385,-25743.24
1764505646.1122916,18963.855,-20333.43,-8659.125,-16693.739999999998,-29027.115,-48848.265,-24518.475,-25744.32
1764505646.1122916,18965.97,-20331.54,-8656.785,-16691.579999999998,-29024.955,-48845.655,-24516.27,-25741.665
1764505646.1122916,18966.51,-20330.685,-8656.425,-16690.995,-29024.235,-48845.07,-24515.37,-25741.305
1764505646.1122916,18966.51,-20331.9,-8657.1,-16691.489999999998,-29024.055,-48846.24,-24515.37,-25742.205
1764505646.1122916,18963.18,-20335.59,-8660.115,-16694.864999999998,-29027.43,-48850.065,-24518.475,-25745.355
1764505646.1570358,18963.27,-20335.095,-8660.07,-16694.19,-29027.295,-48849.705,-24517.62,-25745.805
1764505646.1570358,18964.125,-20335.05,-8659.44,-16694.01,-29026.62,-48849.525,-24516.765,-25745.13
1764505646.1570358,18965.61,-20334.285,-8658.315,-16693.38,-29025.99,-48847.77,-24515.64,-25743.69
1764505646.1570358,18968.985,-20331.135,-8655.3,-16690.274999999998,-29022.615,-48844.125,-24512.04,-25740.855
1764505646.1570358,18968.535,-20331.63,-8655.975,-16690.454999999998,-29022.66,-48844.53,-24512.4,-25741.125
1764505646.1570358,18965.97,-20334.33,-8658.9,-16692.93,-29025.225,-48846.735,-24514.515,-25743.78
1764505646.1570358,18967.05,-20333.34,-8658.045,-16691.805,-29024.145,-48845.655,-24513.165,-25742.7
1764505646.1570358,18970.83,-20329.875,-8653.949999999999,-16688.475,-29020.14,-48841.83,-24508.89,-25739.415
1764505646.1570358,18969.57,-20331.72,-8654.715,-16689.69,-29021.085,-48842.28,-24510.555,-25740.495
1764505646.1570358,18965.475,-20335.455,-8658.315,-16693.425,-29024.955,-48846.24,-24513.93,-25744.23
1764505646.1570358,18966.915,-20334.015,-8657.279999999999,-16693.065,-29024.19,-48845.34,-24512.22,-25743.42
1764505646.1570358,18968.22,-20332.665,-8655.57,-16691.355,-29022.165,-48843.135,-24510.285,-25742.07
1764505646.157544,18964.935,-20335.59,-8658.404999999999,-16694.82,-29024.91,-48846.015,-24513.345,-25744.86
1764505646.157544,18963.675,-20336.805,-8659.305,-16695.18,-29025.225,-48846.87,-24514.38,-25745.76
1764505646.157544,18964.485,-20336.445,-8658.99,-16695.09,-29025.315,-48846.06,-24513.39,-25745.355
1764505646.157544,18962.685,-20338.02,-8660.565,-16696.305,-29026.89,-48847.5,-24514.155,-25746.48
1764505646.157544,18960.705,-20340.0,-8662.32,-16698.51,-29029.095,-48850.065,-24516.18,-25748.595
1764505646.157544,18963.9,-20336.895,-8659.215,-16695.045,-29025.27,-48846.465,-24512.805,-25744.59
1764505646.157544,18963.765,-20336.94,-8659.215,-16694.82,-29025.27,-48846.96,-24512.895,-25744.14
1764505646.157544,18961.695,-20338.29,-8660.25,-16695.945,-29027.34,-48849.255,-24513.57,-25745.355
1764505646.157544,18962.235,-20338.38,-8659.845,-16695.945,-29027.52,-48849.435,-24513.705,-25745.625
1764505646.157544,18960.21,-20340.99,-8662.545,-16697.97,-29029.545,-48851.595,-24516.27,-25748.55
1764505646.157544,18962.055,-20338.695,-8661.195,-16696.035,-29027.295,-48849.705,-24513.435,-25746.3
1764505646.157544,18966.78,-20334.105,-8656.425,-16691.04,-29023.065,-48844.935,-24508.035,-25741.755
1764505646.2046423,18965.88,-20335.365,-8658.404999999999,-16692.255,-29024.37,-48846.285,-24509.88,-25742.385
1764505646.2046423,18962.91,-20338.605,-8661.42,-16695.45,-29026.755,-48848.85,-24512.805,-25745.535
1764505646.2046423,18961.695,-20339.775,-8662.32,-16696.62,-29027.205,-48849.48,-24512.94,-25746.165
1764505646.2046423,18960.75,-20340.72,-8662.635,-16697.88,-29028.645,-48850.065,-24513.48,-25747.335
1764505646.2046423,18962.64,-20339.19,-8660.34,-16695.585,-29027.205,-48848.31,-24511.455,-25746.12
1764505646.2046423,18959.13,-20343.24,-8664.39,-16700.04,-29031.03,-48852.585,-24515.505,-25749.72
1764505646.2056544,18960.345,-20341.44,-8662.365,-16698.329999999998,-29029.32,-48850.83,-24513.66,-25747.065
1764505646.2056544,18958.635,-20342.025,-8663.85,-16698.825,-29030.265,-48851.73,-24514.155,-25748.595
1764505646.2056544,18954.36,-20346.165,-8667.99,-16702.785,-29034.45,-48856.23,-24518.205,-25752.51
1764505646.2056544,18954.045,-20346.615,-8667.449999999999,-16702.29,-29033.955,-48856.5,-24517.8,-25752.06
1764505646.2056544,18956.43,-20344.5,-8665.02,-16699.545,-29031.795,-48853.98,-24515.325,-25749.585
1764505646.2056544,18954.45,-20346.795,-8666.91,-16701.84,-29034.27,-48856.59,-24517.755,-25751.25
1764505646.2056544,18951.435,-20350.395,-8670.465,-16704.63,-29037.69,-48859.605,-24520.86,-25754.67
1764505646.2056544,18953.37,-20347.02,-8668.529999999999,-16702.2,-29034.855,-48856.68,-24518.295,-25751.97
1764505646.2056544,18956.205,-20344.59,-8666.235,-16699.905,-29031.705,-48854.835,-24515.46,-25749.585
1764505646.2056544,18954.81,-20346.21,-8667.494999999999,-16700.805,-29032.965,-48856.59,-24516.9,-25750.665
1764505646.2056544,18952.92,-20348.055,-8668.98,-16702.92,-29035.35,-48858.03,-24518.655,-25751.97
1764505646.2056544,18952.11,-20348.46,-8669.16,-16704.045,-29035.98,-48858.12,-24519.015,-25752.78
1764505646.2056544,18954.405,-20345.85,-8666.595,-16701.48,-29033.19,-48856.365,-24516.9,-25750.755
1764505646.2056544,18953.1,-20347.695,-8667.72,-16702.605,-29034.225,-48857.355,-24518.16,-25751.88
1764505646.2056544,18950.535,-20350.215,-8670.69,-16704.809999999998,-29037.42,-48859.92,-24520.545,-25754.94
1764505646.2056544,18953.685,-20346.345,-8667.765,-16702.38,-29034.225,-48856.815,-24517.17,-25751.79
1764505646.2490053,18954.18,-20345.94,-8666.505,-16701.75,-29033.64,-48856.095,-24515.82,-25751.07
1764505646.2495172,18954.27,-20346.435,-8667.18,-16701.84,-29034.09,-48855.69,-24515.595,-25751.52
1764505646.2495172,18955.575,-20344.77,-8665.515,-16700.805,-29031.93,-48854.43,-24513.615,-25749.81
1764505646.2495172,18954.405,-20346.21,-8667.09,-16701.704999999998,-29033.37,-48856.23,-24514.695,-25751.79
1764505646.2495172,18952.56,-20347.38,-8668.08,-16703.055,-29034.945,-48857.175,-24515.775,-25753.455
1764505646.2495172,18949.32,-20350.26,-8670.375,-16705.8,-29037.69,-48860.19,-24517.98,-25756.29
1764505646.2495172,18947.16,-20353.32,-8672.895,-16707.239999999998,-29039.895,-48862.845,-24519.915,-25758.945
1764505646.2495172,18949.905,-20350.395,-8670.195,-16704.945,-29037.06,-48860.1,-24517.44,-25756.2
1764505646.2495172,18948.105,-20352.105,-8671.994999999999,-16707.465,-29038.68,-48862.08,-24519.69,-25757.865
1764505646.2495172,18947.88,-20352.195,-8672.49,-16707.059999999998,-29038.185,-48860.865,-24519.42,-25757.91
1764505646.2495172,18945.405,-20354.04,-8674.56,-16708.68,-29040.345,-48862.89,-24520.86,-25759.71
1764505646.2495172,18947.97,-20350.935,-8670.96,-16706.114999999998,-29037.96,-48860.685,-24517.62,-25756.515
1764505646.2495172,18948.825,-20350.08,-8670.33,-16705.035,-29037.285,-48860.055,-24516.54,-25755.84
1764505646.2495172,18943.785,-20354.805,-8675.279999999999,-16709.579999999998,-29041.155,-48864.69,-24520.32,-25760.97
1764505646.2495172,18945.36,-20352.42,-8673.029999999999,-16707.195,-29039.31,-48862.665,-24517.71,-25758.495
1764505646.2500525,18943.83,-20353.5,-8674.154999999999,-16708.68,-29041.155,-48863.565,-24519.465,-25760.025
1764505646.2500525,18940.905,-20356.605,-8676.9,-16712.19,-29044.305,-48867.03,-24522.615,-25763.265
1764505646.2500525,18940.545,-20356.965,-8678.07,-16711.965,-29045.205,-48867.885,-24522.795,-25763.94
1764505646.2500525,18942.66,-20354.625,-8675.505,-16708.95,-29042.775,-48865.545,-24519.87,-25761.195
1764505646.2500525,18943.74,-20353.005,-8673.75,-16707.285,-29041.2,-48863.205,-24518.34,-25759.575
1764505646.2500525,18939.51,-20356.47,-8677.529999999999,-16711.29,-29045.07,-48867.165,-24521.49,-25763.67
1764505646.2500525,18940.185,-20356.425,-8676.585,-16710.795,-29044.755,-48866.76,-24520.635,-25763.04
1764505646.2500525,18945.405,-20351.34,-8671.455,-16705.215,-29039.355,-48861.99,-24515.325,-25757.955
1764505646.2500525,18944.055,-20352.105,-8672.49,-16705.35,-29040.255,-48862.26,-24515.955,-25758.675
1764505646.250617,18940.905,-20354.805,-8675.324999999999,-16708.635,-29043.135,-48865.95,-24518.565,-25761.42
1764505646.250617,18940.77,-20354.715,-8675.91,-16708.59,-29042.685,-48865.59,-24518.52,-25761.42
1764505646.2964754,18942.345,-20352.555,-8673.48,-16705.71,-29040.255,-48863.205,-24515.595,-25759.53
1764505646.2964754,18940.455,-20354.58,-8675.145,-16707.195,-29042.415,-48864.375,-24516.855,-25761.15
1764505646.2964754,18940.905,-20354.355,-8674.74,-16707.015,-29042.145,-48864.69,-24516.09,-25760.745
1764505646.2964754,18938.16,-20357.37,-8677.035,-16709.76,-29043.675,-48867.39,-24518.16,-25763.22
1764505646.2964754,18934.65,-20361.105,-8680.14,-16712.505,-29046.69,-48870.675,-24521.535,-25766.235
1764505646.2964754,18937.17,-20358.045,-8678.34,-16709.309999999998,-29044.305,-48867.48,-24518.565,-25763.58
1764505646.2964754,18939.78,-20355.255,-8675.865,-16706.34,-29041.47,-48864.42,-24515.64,-25761.33
1764505646.2964754,18938.385,-20357.37,-8677.305,-16708.23,-29044.35,-48866.49,-24517.215,-25763.04
1764505646.2964754,18937.305,-20358.72,-8678.07,-16708.995,-29044.89,-48867.795,-24517.755,-25763.76
1764505646.2964754,18936.135,-20359.62,-8679.24,-16709.67,-29045.205,-48868.47,-24518.43,-25765.155
1764505646.2964754,18934.92,-20359.935,-8679.914999999999,-16709.94,-29045.52,-48868.335,-24519.06,-25765.38
1764505646.297655,18933.075,-20362.095,-8681.625,-16712.864999999998,-29047.545,-48870.81,-24521.04,-25767.765
1764505646.297655,18935.37,-20360.07,-8679.914999999999,-16710.975,-29045.745,-48868.515,-24518.745,-25764.885
1764505646.297655,18931.32,-20364.165,-8683.515,-16714.44,-29049.795,-48871.755,-24521.535,-25768.485
1764505646.297655,18930.87,-20364.165,-8683.56,-16714.71,-29049.345,-48871.89,-24521.13,-25768.305
1764505646.297655,18931.14,-20363.31,-8682.93,-16714.395,-29049.075,-48871.395,-24520.68,-25767.63
1764505646.297655,18934.65,-20359.44,-8678.744999999999,-16710.795,-29045.16,-48867.435,-24516.855,-25763.76
1764505646.297655,18932.4,-20361.33,-8680.275,-16712.73,-29047.095,-48869.64,-24517.845,-25765.47
1764505646.297655,18930.96,-20362.905,-8681.355,-16714.305,-29048.265,-48871.215,-24518.115,-25766.505
1764505646.2986538,18928.305,-20366.235,-8684.414999999999,-16717.184999999998,-29051.01,-48874.095,-24521.085,-25769.07
1764505646.2986538,18925.335,-20369.16,-8687.97,-16720.065,-29053.35,-48877.515,-24523.74,-25772.445
1764505646.2986538,18926.19,-20367.27,-8686.305,-16717.95,-29052.36,-48876.48,-24521.67,-25771.05
1764505646.3430908,18924.255,-20368.62,-8687.97,-16719.48,-29054.34,-48878.28,-24523.335,-25772.625
1764505646.34364,18925.83,-20367.09,-8685.855,-16717.454999999998,-29051.685,-48876.705,-24521.355,-25770.69
1764505646.34364,18923.085,-20369.745,-8688.555,-16720.29,-29053.89,-48879.09,-24523.425,-25773.93
1764505646.34364,18925.245,-20366.55,-8685.404999999999,-16717.454999999998,-29051.1,-48876.39,-24520.41,-25770.69
1764505646.34364,18926.82,-20366.055,-8684.414999999999,-16716.645,-29050.11,-48875.4,-24518.745,-25769.79
1764505646.34364,18925.38,-20367.765,-8685.494999999999,-16719.03,-29051.01,-48877.245,-24519.915,-25771.455
1764505646.34364,18925.02,-20367.72,-8685.99,-16718.625,-29051.145,-48877.965,-24519.645,-25771.455
1764505646.34364,18920.88,-20371.32,-8689.59,-16722.09,-29054.79,-48880.98,-24522.795,-25775.145
1764505646.34364,18919.62,-20372.445,-8690.895,-16723.215,-29056.005,-48881.43,-24522.705,-25776.315
1764505646.34364,18919.17,-20373.48,-8691.795,-16723.395,-29056.23,-48881.97,-24523.47,-25775.955
1764505646.34364,18919.935,-20372.49,-8691.48,-16722.54,-29056.095,-48881.475,-24523.515,-25775.64
1764505646.34364,18919.935,-20372.31,-8690.31,-16722.45,-29056.05,-48880.575,-24522.705,-25774.83
1764505646.34364,18922.68,-20369.475,-8688.195,-16719.795,-29052.72,-48877.47,-24519.465,-25772.13
1764505646.34364,18922.005,-20369.52,-8688.96,-16720.47,-29053.305,-48878.235,-24520.455,-25772.76
1764505646.34364,18923.31,-20368.89,-8687.88,-16719.255,-29052.045,-48877.515,-24518.565,-25771.41
1764505646.34364,18922.545,-20369.97,-8688.33,-16719.84,-29053.485,-48878.82,-24518.7,-25771.995
1764505646.34364,18922.185,-20369.52,-8688.42,-16719.975,-29053.485,-48878.865,-24518.88,-25772.445
1764505646.34364,18917.82,-20373.615,-8692.154999999999,-16723.53,-29056.68,-48882.15,-24521.49,-25776.495
1764505646.34364,18917.055,-20374.65,-8692.83,-16724.16,-29058.03,-48882.96,-24522.3,-25776.765
1764505646.34364,18917.145,-20374.695,-8692.875,-16723.53,-29058.075,-48882.915,-24522.885,-25777.17
1764505646.34364,18917.865,-20373.795,-8691.84,-16722.945,-29056.905,-48882.24,-24522.12,-25776.27
1764505646.34364,18919.485,-20372.13,-8690.22,-16720.92,-29054.88,-48880.755,-24519.915,-25774.47
1764505646.387341,18918.855,-20372.94,-8691.164999999999,-16721.774999999998,-29056.23,-48880.89,-24520.635,-25775.595
1764505646.387341,18918.63,-20373.615,-8691.164999999999,-16721.46,-29056.59,-48880.845,-24520.635,-25776.09
1764505646.389361,18919.845,-20372.175,-8689.725,-16720.739999999998,-29055.69,-48879.99,-24519.06,-25774.155
1764505646.389361,18916.245,-20375.865,-8693.685,-16724.52,-29058.84,-48883.545,-24522.345,-25777.035
1764505646.389361,18913.23,-20378.52,-8696.295,-16726.59,-29060.955,-48885.615,-24524.1,-25779.555
1764505646.3903596,18911.835,-20379.42,-8696.205,-16727.715,-29061.99,-48886.38,-24524.595,-25780.59
1764505646.3908827,18913.725,-20377.53,-8695.44,-16726.364999999998,-29061.045,-48884.805,-24523.065,-25779.69
1764505646.3908827,18916.605,-20374.425,-8691.93,-16722.989999999998,-29058.255,-48881.115,-24519.78,-25775.415
1764505646.3915262,18916.47,-20375.055,-8692.199999999999,-16723.26,-29058.48,-48881.97,-24520.5,-25774.83
1764505646.3915262,18913.59,-20378.34,-8695.395,-16726.32,-29061.315,-48884.805,-24523.065,-25778.655
1764505646.3915262,18915.975,-20375.775,-8693.414999999999,-16724.34,-29059.065,-48883.23,-24520.905,-25777.125
1764505646.3915262,18913.5,-20378.16,-8696.205,-16726.59,-29061.405,-48885.66,-24523.065,-25778.97
1764505646.3925388,18918.18,-20373.57,-8690.895,-16722.36,-29056.905,-48880.935,-24517.8,-25774.29
1764505646.3925388,18917.145,-20374.38,-8691.029999999999,-16722.72,-29058.3,-48881.475,-24518.52,-25775.46
1764505646.3940508,18916.83,-20374.92,-8691.795,-16723.665,-29058.705,-48881.79,-24518.61,-25776.18
1764505646.3940508,18916.38,-20375.28,-8692.74,-16723.89,-29059.065,-48882.375,-24519.015,-25776.135
1764505646.3940508,18915.75,-20375.685,-8692.38,-16724.07,-29058.39,-48882.105,-24519.285,-25776.18
1764505646.3940508,18912.645,-20378.7,-8694.855,-16727.22,-29061.27,-48884.805,-24522.075,-25778.835
1764505646.3940508,18915.165,-20376.495,-8692.965,-16725.555,-29058.75,-48882.285,-24518.835,-25776.72
1764505646.3940508,18912.645,-20379.375,-8695.395,-16728.3,-29060.91,-48885.165,-24520.995,-25778.88
1764505646.3940508,18914.76,-20376.99,-8693.414999999999,-16725.239999999998,-29058.57,-48882.6,-24518.88,-25776.675
1764505646.3940508,18915.3,-20376.18,-8692.47,-16724.655,-29057.715,-48881.655,-24518.43,-25776.36
1764505646.3940508,18917.595,-20373.615,-8689.949999999999,-16722.045,-29054.97,-48879.225,-24515.505,-25773.57
1764505646.3940508,18916.74,-20375.145,-8691.255,-16723.665,-29055.69,-48880.17,-24516.27,-25773.795
1764505646.4342198,18915.795,-20376.18,-8691.615,-16724.88,-29056.68,-48881.205,-24516.18,-25774.515
1764505646.4342198,18911.925,-20379.96,-8695.44,-16727.895,-29059.83,-48884.49,-24520.23,-25778.295
1764505646.4342198,18913.095,-20379.24,-8694.765,-16726.635,-29059.2,-48884.58,-24519.33,-25777.305
1764505646.4342198,18912.96,-20379.285,-8694.63,-16726.59,-29059.38,-48885.165,-24518.79,-25777.485
1764505646.4342198,18912.42,-20379.51,-8695.26,-16728.255,-29060.28,-48885.66,-24519.15,-25778.115
1764505646.4342198,18911.88,-20379.51,-8695.26,-16728.524999999998,-29060.505,-48885.12,-24519.6,-25778.655
1764505646.4342198,18912.375,-20379.42,-8694.72,-16726.95,-29059.74,-48884.58,-24519.24,-25778.295
1764505646.4358833,18914.265,-20377.125,-8692.92,-16724.61,-29057.58,-48883.005,-24516.945,-25776.675
1764505646.436441,18919.395,-20371.77,-8687.97,-16719.93,-29052.495,-48877.965,-24511.005,-25770.465
1764505646.436441,18915.165,-20376.315,-8691.885,-16724.385,-29056.815,-48881.745,-24515.415,-25774.965
1764505646.436441,18914.13,-20377.125,-8692.244999999999,-16725.329999999998,-29057.985,-48882.78,-24515.955,-25775.685
1764505646.436441,18913.14,-20377.53,-8692.92,-16725.465,-29058.345,-48883.185,-24516.18,-25775.82
1764505646.436441,18914.22,-20376.315,-8692.154999999999,-16723.755,-29057.04,-48881.97,-24514.965,-25774.605
1764505646.436441,18916.785,-20373.705,-8689.904999999999,-16721.01,-29054.835,-48879.135,-24512.22,-25772.67
1764505646.436441,18914.265,-20375.19,-8691.48,-16722.54,-29056.905,-48880.98,-24513.93,-25774.56
1764505646.436441,18917.145,-20373.12,-8688.96,-16720.605,-29054.07,-48878.01,-24511.095,-25771.455
1764505646.436441,18916.29,-20374.38,-8689.5,-16721.28,-29054.97,-48879.63,-24511.905,-25771.905
1764505646.436441,18913.68,-20377.035,-8691.975,-16723.8,-29057.22,-48882.24,-24514.335,-25774.605
1764505646.4374826,18916.695,-20373.615,-8688.69,-16720.245,-29053.845,-48878.325,-24511.455,-25770.69
1764505646.4374826,18912.825,-20377.305,-8691.975,-16723.98,-29058.3,-48881.97,-24515.235,-25774.83
1764505646.4374826,18915.885,-20374.785,-8689.32,-16721.505,-29055.6,-48879.495,-24512.265,-25772.85
1764505646.4374826,18915.525,-20375.19,-8689.77,-16721.864999999998,-29055.465,-48879.495,-24512.04,-25772.94
1764505646.4374826,18914.31,-20376.36,-8690.58,-16722.495,-29055.915,-48880.62,-24512.535,-25773.705
1764505646.4374826,18912.78,-20377.755,-8691.48,-16723.89,-29057.58,-48882.555,-24514.155,-25775.19
1764505646.48476,18910.62,-20379.555,-8694.765,-16726.005,-29059.83,-48884.49,-24516.495,-25776.765
1764505646.48476,18911.925,-20377.98,-8692.515,-16724.34,-29058.39,-48882.42,-24514.92,-25775.73
1764505646.485778,18910.395,-20379.69,-8692.875,-16725.375,-29059.245,-48883.455,-24516.09,-25776.72
1764505646.485778,18913.95,-20377.215,-8689.59,-16722.405,-29055.555,-48880.035,-24513.03,-25772.94
1764505646.485778,18916.38,-20373.975,-8687.43,-16719.03,-29052.495,-48876.93,-24509.655,-25770.105
1764505646.485778,18915.885,-20374.785,-8688.015,-16720.38,-29053.44,-48878.775,-24511.005,-25771.14
1764505646.485778,18913.77,-20376.405,-8689.14,-16722.63,-29055.78,-48880.89,-24512.67,-25773.03
1764505646.485778,18916.785,-20373.12,-8686.485,-16719.795,-29052.765,-48877.65,-24508.845,-25769.565
1764505646.485778,18916.02,-20373.705,-8687.43,-16720.29,-29053.44,-48877.92,-24509.07,-25769.61
1764505646.485778,18912.555,-20376.765,-8690.22,-16722.809999999998,-29055.6,-48880.575,-24512.805,-25772.715
1764505646.485778,18915.12,-20374.29,-8687.88,-16719.93,-29053.26,-48878.775,-24509.655,-25770.555
1764505646.485778,18911.835,-20377.215,-8690.13,-16723.079999999998,-29056.545,-48880.98,-24512.76,-25773.165
1764505646.4867766,18911.385,-20377.35,-8690.85,-16723.395,-29056.905,-48880.89,-24512.94,-25773.57
1764505646.4867766,18913.905,-20375.01,-8687.835,-16720.92,-29054.655,-48878.28,-24511.14,-25770.78
1764505646.4867766,18920.295,-20369.565,-8682.255,-16715.43,-29049.12,-48872.655,-24505.92,-25766.055
1764505646.4867766,18917.46,-20372.535,-8685.09,-16718.13,-29052.0,-48875.22,-24508.395,-25768.44
1764505646.4867766,18914.31,-20375.46,-8688.015,-16720.965,-29054.52,-48878.595,-24511.14,-25771.23
1764505646.4867766,18916.38,-20373.345,-8685.765,-16719.12,-29052.18,-48876.255,-24508.395,-25769.295
1764505646.4867766,18915.75,-20374.29,-8686.215,-16719.975,-29052.72,-48877.065,-24509.07,-25769.925
1764505646.4867766,18912.285,-20377.08,-8688.914999999999,-16722.135,-29055.69,-48880.53,-24511.68,-25772.49
1764505646.4867766,18913.545,-20375.82,-8687.925,-16720.92,-29054.565,-48879.225,-24510.42,-25770.645
1764505646.4867766,18916.695,-20372.265,-8684.865,-16717.815,-29050.605,-48876.075,-24506.685,-25767.63
1764505646.4867766,18914.355,-20375.01,-8687.34,-16720.739999999998,-29053.17,-48878.055,-24508.62,-25770.24
1764505646.4867766,18917.145,-20371.995,-8684.414999999999,-16717.68,-29050.74,-48875.715,-24505.92,-25767.72
1764505646.5312407,18919.89,-20369.115,-8681.715,-16714.845,-29048.985,-48872.745,-24503.805,-25764.75
1764505646.5312407,18917.64,-20371.275,-8683.335,-16716.42,-29050.47,-48874.14,-24505.335,-25766.595
1764505646.5312407,18916.785,-20372.67,-8684.64,-16717.274999999998,-29051.28,-48875.76,-24506.865,-25767.99
1764505646.5312407,18914.4,-20374.83,-8686.664999999999,-16719.434999999998,-29054.25,-48878.415,-24509.25,-25769.97
1764505646.5312407,18916.785,-20372.445,-8683.965,-16716.78,-29051.955,-48875.625,-24505.695,-25767.405
1764505646.5312407,18917.1,-20372.085,-8683.154999999999,-16716.69,-29051.325,-48875.04,-24504.345,-25766.955
1764505646.5312407,18914.22,-20375.145,-8686.485,-16720.155,-29054.34,-48877.875,-24507.99,-25770.33
1764505646.5312407,18913.545,-20375.505,-8687.295,-16720.829999999998,-29055.015,-48877.515,-24508.53,-25770.465
1764505646.5312407,18916.335,-20373.795,-8685.27,-16717.77,-29052.27,-48875.265,-24506.055,-25768.26
1764505646.53224,18914.67,-20375.37,-8686.574999999999,-16718.715,-29053.305,-48876.435,-24507.72,-25770.015
1764505646.53224,18916.92,-20372.895,-8683.425,-16716.87,-29050.92,-48874.365,-24505.2,-25767.405
1764505646.53224,18911.52,-20378.565,-8688.42,-16722.315,-29056.005,-48879.36,-24510.24,-25772.355
1764505646.53224,18911.205,-20378.97,-8689.005,-16723.035,-29056.725,-48879.63,-24511.095,-25773.03
1764505646.53224,18912.375,-20378.205,-8688.555,-16721.774999999998,-29055.96,-48878.55,-24510.465,-25772.22
1764505646.53224,18915.705,-20375.28,-8685.539999999999,-16717.86,-29053.08,-48875.265,-24506.73,-25769.07
1764505646.53224,18915.48,-20376.045,-8686.395,-16718.489999999998,-29053.08,-48875.67,-24506.775,-25770.645
1764505646.53224,18914.445,-20377.215,-8687.744999999999,-16719.704999999998,-29054.16,-48876.93,-24508.17,-25771.59
1764505646.53224,18911.43,-20379.69,-8689.994999999999,-16722.855,-29056.455,-48879.405,-24510.42,-25773.48
1764505646.5332434,18914.805,-20377.44,-8686.98,-16719.93,-29053.845,-48876.435,-24507.225,-25770.375
1764505646.5332434,18914.31,-20377.44,-8687.07,-16719.84,-29053.89,-48876.165,-24507.27,-25770.735
1764505646.5332434,18913.275,-20377.755,-8687.744999999999,-16721.055,-29054.655,-48877.245,-24507.405,-25771.365
1764505646.5332434,18910.755,-20380.545,-8690.535,-16723.395,-29057.22,-48879.945,-24509.115,-25773.93
1764505646.5787275,18912.42,-20378.385,-8688.24,-16721.055,-29054.52,-48877.605,-24506.73,-25771.68
1764505646.5787275,18915.345,-20374.695,-8684.369999999999,-16717.68,-29050.83,-48874.095,-24502.545,-25768.755
1764505646.5787275,18915.57,-20374.965,-8684.145,-16717.454999999998,-29050.38,-48874.5,-24501.825,-25768.17
1764505646.5787275,18912.375,-20376.765,-8686.395,-16718.805,-29052.315,-48875.805,-24503.4,-25770.6
1764505646.5787275,18915.705,-20374.335,-8682.57,-16715.835,-29049.255,-48873.465,-24500.43,-25767.72
1764505646.5787275,18916.38,-20374.29,-8682.345,-16715.745,-29049.39,-48872.745,-24500.295,-25767.0
1764505646.5787275,18916.2,-20374.515,-8682.57,-16716.555,-29050.155,-48873.15,-24501.87,-25767.72
1764505646.5787275,18916.155,-20374.515,-8682.84,-16716.465,-29050.245,-48872.97,-24500.655,-25767.72
1764505646.5787275,18915.48,-20375.865,-8683.74,-16717.14,-29051.19,-48874.185,-24501.105,-25768.665
1764505646.5787275,18912.06,-20378.7,-8686.485,-16720.649999999998,-29053.755,-48876.975,-24504.075,-25770.195
1764505646.5787275,18907.56,-20383.065,-8691.164999999999,-16725.465,-29057.94,-48881.34,-24508.71,-25775.19
1764505646.5787275,18908.1,-20383.155,-8690.895,-16725.285,-29057.265,-48881.79,-24508.08,-25775.64
1764505646.5787275,18911.745,-20379.15,-8686.529999999999,-16721.19,-29052.855,-48877.425,-24504.03,-25771.59
1764505646.5787275,18911.655,-20378.43,-8686.529999999999,-16720.695,-29052.72,-48877.515,-24503.76,-25771.14
1764505646.580264,18911.925,-20377.89,-8686.44,-16720.065,-29052.405,-48877.425,-24503.58,-25770.195
1764505646.580264,18911.295,-20378.565,-8686.305,-16720.38,-29053.17,-48877.155,-24503.085,-25770.285
1764505646.580264,18908.145,-20382.255,-8689.68,-16723.98,-29056.095,-48880.305,-24505.965,-25773.48
1764505646.580264,18908.595,-20381.985,-8689.095,-16723.305,-29055.555,-48879.99,-24505.38,-25772.76
1764505646.580264,18913.185,-20377.35,-8685.225,-16719.434999999998,-29051.505,-48876.165,-24501.51,-25768.755
1764505646.580264,18911.745,-20379.33,-8686.845,-16721.505,-29052.99,-48877.65,-24502.32,-25770.015
1764505646.580264,18908.46,-20382.66,-8688.779999999999,-16723.845,-29056.095,-48880.395,-24504.84,-25772.535
1764505646.580264,18909.72,-20381.265,-8687.699999999999,-16722.54,-29055.195,-48878.73,-24504.84,-25771.68
1764505646.625146,18912.06,-20379.105,-8686.215,-16720.739999999998,-29052.99,-48876.57,-24502.725,-25770.33
1764505646.625146,18914.13,-20376.45,-8684.19,-16718.85,-29049.93,-48874.14,-24499.755,-25768.44
1764505646.626156,18914.085,-20377.44,-8684.955,-16719.345,-29051.145,-48874.995,-24499.755,-25768.8
1764505646.626156,18913.005,-20379.285,-8685.855,-16720.829999999998,-29052.675,-48876.255,-24500.7,-25769.79
1764505646.626156,18913.14,-20378.97,-8685.63,-16720.29,-29052.18,-48876.12,-24499.755,-25769.295
1764505646.626156,18913.455,-20377.89,-8684.414999999999,-16718.94,-29051.055,-48874.95,-24498.99,-25769.43
1764505646.626156,18913.455,-20378.79,-8684.64,-16719.165,-29052.045,-48875.67,-24499.485,-25770.465
1764505646.627154,18910.755,-20381.985,-8687.97,-16722.855,-29055.24,-48878.73,-24502.725,-25773.165
1764505646.627154,18907.02,-20385.045,-8691.66,-16726.41,-29058.615,-48882.33,-24506.595,-25775.955
1764505646.627154,18907.785,-20383.74,-8690.535,-16725.42,-29057.175,-48881.43,-24505.29,-25775.145
1764505646.627154,18909.045,-20383.2,-8688.824999999999,-16724.475,-29055.42,-48880.08,-24503.895,-25773.57
1764505646.627154,18909.27,-20382.345,-8688.105,-16723.53,-29055.015,-48879.9,-24503.085,-25772.94
1764505646.6281528,18912.6,-20379.06,-8684.595,-16720.559999999998,-29052.36,-48876.615,-24500.295,-25769.925
1764505646.6281528,18911.385,-20380.005,-8685.81,-16721.415,-29053.53,-48877.335,-24500.7,-25771.365
1764505646.6281528,18907.65,-20383.605,-8689.545,-16724.97,-29057.13,-48880.8,-24503.94,-25774.83
1764505646.6291554,18908.91,-20382.345,-8688.375,-16723.98,-29056.14,-48879.18,-24503.355,-25774.02
1764505646.6291554,18913.545,-20377.215,-8683.965,-16719.03,-29051.055,-48874.23,-24498.045,-25768.845
1764505646.6291554,18910.935,-20380.32,-8687.025,-16721.415,-29053.62,-48876.345,-24500.7,-25771.95
1764505646.6291554,18909.045,-20382.93,-8689.14,-16723.62,-29055.645,-48878.82,-24503.04,-25774.74
1764505646.6291554,18910.53,-20381.355,-8686.98,-16721.73,-29053.935,-48877.11,-24501.105,-25772.94
1764505646.6291554,18911.745,-20380.14,-8685.315,-16721.46,-29053.125,-48876.165,-24499.53,-25772.085
1764505646.6291554,18911.16,-20380.59,-8686.035,-16722.63,-29053.62,-48876.39,-24499.845,-25772.22
1764505646.6291554,18909.99,-20381.76,-8687.744999999999,-16723.98,-29054.07,-48877.515,-24501.375,-25772.94
1764505646.6291554,18912.735,-20378.835,-8685.09,-16720.515,-29051.505,-48875.445,-24498.18,-25770.69
1764505646.6291554,18914.22,-20377.665,-8683.56,-16718.625,-29050.47,-48873.6,-24496.965,-25769.07
1764505646.6291554,18915.165,-20376.99,-8682.345,-16717.995,-29049.435,-48872.655,-24495.705,-25768.08
1764505646.6723332,18914.67,-20376.63,-8682.029999999999,-16718.76,-29049.165,-48872.745,-24495.435,-25767.495
1764505646.6723332,18911.655,-20379.87,-8684.955,-16721.82,-29052.09,-48875.625,-24498.63,-25770.15
1764505646.6738677,18908.64,-20382.75,-8688.69,-16724.25,-29054.745,-48879.09,-24500.565,-25773.255
1764505646.6738677,18909.81,-20381.895,-8686.755,-16723.125,-29052.99,-48877.83,-24498.9,-25771.815
1764505646.6738677,18907.38,-20384.685,-8689.68,-16725.6,-29055.6,-48880.53,-24502.32,-25774.425
1764505646.6738677,18906.885,-20384.55,-8689.635,-16726.5,-29055.915,-48880.485,-24502.545,-25774.92
1764505646.6748965,18908.505,-20383.29,-8687.88,-16724.88,-29054.34,-48879.0,-24500.385,-25773.165
1764505646.6748965,18910.485,-20381.22,-8685.945,-16722.765,-29052.63,-48876.66,-24497.865,-25771.59
1764505646.6759064,18908.01,-20383.65,-8687.925,-16724.79,-29054.97,-48879.225,-24500.52,-25773.525
1764505646.6759064,18911.025,-20380.545,-8685.585,-16721.55,-29051.64,-48875.94,-24497.145,-25770.465
1764505646.6759064,18910.485,-20381.175,-8685.449999999999,-16721.954999999998,-29052.045,-48875.805,-24497.415,-25770.87
1764505646.6759064,18906.57,-20386.08,-8689.32,-16726.725,-29056.23,-48879.855,-24501.735,-25775.145
1764505646.6759064,18908.325,-20385.045,-8687.565,-16725.285,-29054.79,-48878.1,-24499.71,-25774.02
1764505646.6759064,18906.39,-20386.665,-8689.365,-16726.41,-29056.32,-48879.495,-24501.42,-25775.595
1764505646.6759064,18908.55,-20384.865,-8687.699999999999,-16724.52,-29054.385,-48877.56,-24499.8,-25773.255
1764505646.6759064,18906.03,-20387.205,-8690.22,-16726.905,-29056.59,-48880.125,-24501.555,-25775.64
1764505646.6759064,18907.155,-20385.765,-8689.455,-16726.23,-29055.285,-48879.18,-24500.97,-25774.515
1764505646.6759064,18910.26,-20383.29,-8686.305,-16723.17,-29052.63,-48876.21,-24497.685,-25772.13
1764505646.6759064,18908.91,-20384.91,-8686.98,-16724.835,-29053.845,-48877.515,-24499.08,-25773.075
1764505646.6759064,18912.06,-20381.085,-8684.279999999999,-16721.64,-29050.56,-48874.14,-24496.2,-25769.88
1764505646.677071,18912.87,-20380.14,-8683.875,-16720.2,-29050.155,-48873.105,-24494.265,-25768.62
1764505646.677071,18911.295,-20382.345,-8685.72,-16721.415,-29051.505,-48875.175,-24495.75,-25770.915
1764505646.677071,18910.485,-20383.425,-8685.675,-16722.855,-29052.18,-48876.255,-24497.325,-25771.995
1764505646.677071,18907.2,-20386.215,-8688.869999999999,-16725.6,-29055.24,-48878.595,-24500.475,-25775.505
1764505646.718022,18907.515,-20385.36,-8688.69,-16725.555,-29055.24,-48878.28,-24500.025,-25775.37
1764505646.718022,18909.27,-20383.695,-8687.16,-16724.52,-29053.485,-48876.57,-24498.405,-25774.065
1764505646.718022,18911.97,-20381.67,-8684.46,-16722.09,-29051.28,-48874.23,-24496.065,-25771.68
1764505646.718022,18908.775,-20384.82,-8687.07,-16725.149999999998,-29054.205,-48877.425,-24498.675,-25774.74
1764505646.718022,18911.835,-20382.345,-8685.0,-16722.675,-29050.695,-48874.59,-24495.3,-25772.265
1764505646.718022,18912.87,-20381.67,-8684.505,-16721.595,-29050.29,-48873.915,-24494.4,-25771.005
1764505646.718022,18910.845,-20384.145,-8686.89,-16723.44,-29052.855,-48875.985,-24496.605,-25773.66
1764505646.718022,18905.76,-20389.545,-8692.02,-16728.795,-29057.4,-48880.89,-24501.285,-25779.015
1764505646.7190113,18907.605,-20386.98,-8689.095,-16726.364999999998,-29054.07,-48878.505,-24499.26,-25776.81
1764505646.7190113,18906.435,-20388.51,-8690.039999999999,-16727.715,-29055.555,-48879.09,-24499.98,-25777.935
1764505646.7190113,18909.945,-20384.865,-8687.475,-16724.114999999998,-29052.63,-48875.13,-24496.83,-25774.02
1764505646.7190113,18908.64,-20385.45,-8688.015,-16724.79,-29053.17,-48875.985,-24497.145,-25774.875
1764505646.7190113,18911.205,-20382.885,-8685.135,-16722.27,-29050.695,-48873.645,-24494.355,-25772.67
1764505646.7190113,18908.235,-20386.575,-8688.375,-16725.555,-29054.205,-48876.255,-24497.865,-25775.685
1764505646.7190113,18909.63,-20384.82,-8687.115,-16723.98,-29052.63,-48875.355,-24495.255,-25773.615
1764505646.7190113,18907.47,-20386.44,-8688.465,-16725.915,-29054.655,-48876.705,-24497.19,-25775.73
1764505646.7190113,18910.125,-20384.37,-8686.395,-16723.17,-29052.45,-48874.725,-24494.49,-25773.885
1764505646.7190113,18908.055,-20386.08,-8688.015,-16725.465,-29054.25,-48877.02,-24496.515,-25775.55
1764505646.7200582,18906.705,-20388.195,-8689.5,-16726.815,-29055.87,-48878.37,-24498.18,-25777.305
1764505646.7210894,18908.505,-20386.755,-8688.24,-16725.42,-29054.16,-48876.345,-24495.93,-25775.865
1764505646.7210894,18904.185,-20391.03,-8691.345,-16729.965,-29058.12,-48880.485,-24498.99,-25779.69
1764505646.7210894,18903.87,-20391.3,-8691.345,-16730.415,-29058.03,-48880.62,-24499.08,-25780.32
1764505646.7642949,18908.19,-20387.79,-8687.52,-16726.454999999998,-29054.61,-48876.165,-24495.525,-25776.585
1764505646.7642949,18908.19,-20388.735,-8687.97,-16726.635,-29054.25,-48876.345,-24495.75,-25776.135
1764505646.7642949,18905.445,-20391.66,-8690.805,-16728.885,-29057.04,-48879.63,-24498.045,-25778.61
1764505646.7642949,18906.435,-20390.31,-8689.23,-16727.715,-29055.87,-48878.01,-24496.74,-25777.665
1764505646.7642949,18909.675,-20387.88,-8686.125,-16725.6,-29052.945,-48875.13,-24493.5,-25774.875
1764505646.7642949,18904.77,-20391.3,-8690.67,-16730.1,-29057.58,-48879.72,-24497.415,-25778.34
1764505646.765309,18904.32,-20391.21,-8690.355,-16729.335,-29057.85,-48879.81,-24496.74,-25778.52
1764505646.765309,18907.74,-20387.655,-8686.71,-16726.23,-29053.98,-48875.895,-24494.13,-25775.82
1764505646.765309,18907.83,-20388.015,-8686.98,-16726.23,-29053.395,-48876.21,-24493.545,-25775.28
1764505646.765309,18907.155,-20389.365,-8688.24,-16727.13,-29054.205,-48877.11,-24494.445,-25775.64
1764505646.765309,18906.435,-20389.815,-8687.654999999999,-16727.579999999998,-29054.97,-48877.83,-24494.265,-25776.315
1764505646.765309,18905.58,-20390.445,-8688.24,-16728.39,-29055.645,-48878.28,-24494.355,-25776.945
1764505646.7663045,18903.105,-20393.64,-8691.795,-16731.0,-29058.84,-48882.06,-24497.28,-25779.87
1764505646.7663045,18904.005,-20392.92,-8691.57,-16730.28,-29058.255,-48880.89,-24496.695,-25779.15
1764505646.7668111,18906.795,-20389.185,-8688.15,-16726.32,-29054.97,-48877.29,-24493.05,-25775.595
1764505646.7668111,18904.95,-20391.705,-8690.175,-16728.434999999998,-29057.265,-48879.09,-24494.13,-25777.35
1764505646.7668111,18903.375,-20393.46,-8691.705,-16729.92,-29059.155,-48880.845,-24496.065,-25778.835
1764505646.7668111,18905.175,-20391.615,-8688.869999999999,-16728.345,-29056.635,-48879.135,-24494.13,-25777.08
1764505646.7678232,18902.34,-20394.18,-8691.435,-16731.18,-29058.615,-48881.655,-24497.325,-25779.915
1764505646.7678232,18904.545,-20391.93,-8689.68,-16727.94,-29055.87,-48878.64,-24494.805,-25777.53
1764505646.7678232,18902.295,-20393.415,-8690.94,-16729.47,-29057.805,-48879.135,-24495.84,-25779.915
1764505646.7678232,18904.86,-20391.93,-8689.904999999999,-16728.84,-29057.265,-48878.1,-24494.67,-25778.295
1764505646.8112502,18902.205,-20394.945,-8693.64,-16732.17,-29059.695,-48881.34,-24497.865,-25781.265
1764505646.8122656,18903.06,-20394.36,-8693.055,-16731.405,-29058.615,-48880.44,-24496.83,-25780.725
1764505646.8122656,18905.13,-20392.11,-8690.58,-16728.975,-29056.455,-48879.0,-24495.21,-25778.97
1764505646.8122656,18900.81,-20396.745,-8695.305,-16733.295,-29061.045,-48883.005,-24499.305,-25783.605
1764505646.8122656,18902.16,-20395.44,-8693.414999999999,-16732.079999999998,-29060.325,-48881.565,-24497.145,-25781.4
1764505646.8122656,18900.585,-20397.33,-8694.99,-16733.88,-29062.08,-48883.005,-24498.72,-25782.705
1764505646.8122656,18901.62,-20395.62,-8693.685,-16732.98,-29060.37,-48882.195,-24497.595,-25782.12
1764505646.8122656,18898.875,-20398.05,-8696.295,-16735.05,-29062.89,-48884.13,-24499.665,-25784.37
1764505646.8122656,18901.845,-20395.305,-8692.965,-16731.899999999998,-29059.695,-48880.44,-24496.245,-25781.04
1764505646.8122656,18901.935,-20394.36,-8692.47,-16731.63,-29059.29,-48879.855,-24495.84,-25780.725
1764505646.8122656,18901.08,-20395.53,-8693.055,-16732.125,-29060.415,-48880.62,-24496.74,-25781.49
1764505646.8122656,18899.46,-20397.195,-8694.855,-16733.925,-29061.54,-48882.24,-24498.315,-25783.11
1764505646.8122656,18901.935,-20394.27,-8692.335,-16731.63,-29058.165,-48879.495,-24494.94,-25780.095
1764505646.8132644,18899.955,-20395.98,-8694.135,-16733.114999999998,-29059.605,-48881.565,-24496.875,-25782.21
1764505646.8132644,18897.84,-20397.96,-8696.385,-16735.23,-29061.63,-48883.23,-24498.36,-25784.64
1764505646.8132644,18900.63,-20396.07,-8694.135,-16732.98,-29060.19,-48881.115,-24496.65,-25782.705
1764505646.8132644,18899.46,-20396.565,-8694.494999999999,-16733.34,-29060.73,-48881.745,-24496.83,-25783.38
1764505646.8132644,18898.02,-20397.915,-8696.34,-16734.42,-29061.585,-48882.555,-24497.775,-25784.595
1764505646.8132644,18900.99,-20395.485,-8693.865,-16731.899999999998,-29059.245,-48880.395,-24495.12,-25782.345
1764505646.8132644,18897.66,-20398.59,-8696.52,-16734.42,-29061.855,-48883.14,-24497.865,-25785.09
1764505646.8132644,18897.66,-20398.095,-8696.565,-16734.555,-29061.765,-48882.645,-24498.0,-25785.225
1764505646.8132644,18901.215,-20394.405,-8692.785,-16730.64,-29058.39,-48879.045,-24493.995,-25781.805
1764505646.8132644,18900.72,-20394.315,-8693.279999999999,-16731.045,-29059.02,-48879.63,-24494.13,-25782.39
1764505646.8132644,18897.885,-20397.69,-8696.925,-16734.375,-29063.07,-48883.455,-24497.415,-25785.72
1764505646.8561287,18900.81,-20395.71,-8694.404999999999,-16731.945,-29059.965,-48881.115,-24494.445,-25782.795
1764505646.8561287,18899.91,-20396.07,-8694.675,-16732.215,-29059.875,-48880.755,-24494.94,-25782.93
1764505646.8561287,18897.66,-20398.545,-8696.295,-16734.645,-29061.855,-48882.645,-24497.055,-25784.955
1764505646.8561287,18899.775,-20396.385,-8694.0,-16732.89,-29060.46,-48880.845,-24495.03,-25783.155
1764505646.8561287,18897.48,-20399.31,-8696.744999999999,-16735.184999999998,-29062.98,-48883.59,-24497.1,-25786.08
1764505646.8561287,18897.57,-20399.4,-8696.115,-16735.14,-29063.16,-48883.725,-24497.1,-25786.575
1764505646.857142,18901.485,-20395.845,-8693.19,-16731.54,-29059.92,-48879.855,-24494.04,-25782.57
1764505646.857142,18899.685,-20397.15,-8694.945,-16732.62,-29061.18,-48880.845,-24494.805,-25783.875
1764505646.857142,18901.845,-20394.63,-8693.145,-16730.684999999998,-29058.66,-48878.055,-24492.015,-25781.4
1764505646.857142,18897.795,-20398.545,-8696.835,-16734.239999999998,-29062.62,-48882.015,-24495.435,-25785.495
1764505646.857142,18898.47,-20397.105,-8695.395,-16733.25,-29061.45,-48880.98,-24494.895,-25784.145
1764505646.857142,18894.69,-20401.155,-8699.265,-16736.67,-29064.78,-48884.625,-24498.855,-25787.43
1764505646.857142,18895.905,-20400.57,-8698.949999999999,-16735.77,-29063.79,-48883.905,-24497.73,-25786.665
1764505646.857142,18898.785,-20397.645,-8696.07,-16732.89,-29060.505,-48880.665,-24494.535,-25783.92
1764505646.857142,18896.76,-20399.58,-8697.42,-16734.239999999998,-29062.89,-48882.375,-24496.29,-25785.36
1764505646.857142,18900.54,-20396.205,-8694.315,-16730.73,-29059.065,-48879.045,-24493.185,-25781.895
1764505646.857142,18900.135,-20397.105,-8694.539999999999,-16730.954999999998,-29059.2,-48879.405,-24493.365,-25782.57
1764505646.857142,18899.46,-20396.745,-8694.18,-16731.09,-29059.83,-48879.27,-24493.68,-25783.02
1764505646.857142,18905.67,-20389.86,-8688.015,-16725.195,-29054.115,-48872.88,-24485.94,-25776.36
1764505646.857142,18904.68,-20390.85,-8689.095,-16726.545,-29055.6,-48873.42,-24486.93,-25776.63
1764505646.857142,18904.77,-20391.03,-8689.32,-16726.5,-29055.825,-48873.78,-24486.795,-25776.45
1764505646.857142,18904.32,-20391.48,-8689.14,-16726.454999999998,-29055.24,-48874.455,-24486.75,-25776.765
1764505646.857142,18905.085,-20390.625,-8688.33,-16725.87,-29054.835,-48873.825,-24486.165,-25776.495
1764505646.857142,18902.385,-20393.505,-8691.119999999999,-16728.39,-29057.58,-48876.165,-24489.135,-25779.105
1764505646.9012084,18901.89,-20394.18,-8690.895,-16728.93,-29057.625,-48876.885,-24489.135,-25779.645
1764505646.9012084,18902.385,-20393.325,-8690.085,-16728.075,-29056.59,-48877.335,-24487.785,-25779.105
1764505646.9012084,18903.42,-20392.65,-8689.41,-16727.355,-29056.455,-48876.66,-24486.885,-25778.295
1764505646.9012084,18905.265,-20390.67,-8687.025,-16725.149999999998,-29053.98,-48873.78,-24484.635,-25776.36
1764505646.9012084,18910.035,-20385.63,-8681.805,-16719.795,-29048.805,-48869.055,-24479.145,-25771.23
1764505646.9012084,18908.82,-20387.25,-8682.93,-16721.954999999998,-29051.19,-48870.63,-24480.495,-25772.895
1764505646.9012084,18907.38,-20388.42,-8684.19,-16723.395,-29052.27,-48871.845,-24481.62,-25774.335
1764505646.9012084,18903.42,-20391.84,-8688.285,-16726.454999999998,-29055.78,-48875.4,-24484.23,-25777.305
1764505646.9012084,18903.555,-20391.93,-8687.789999999999,-16726.32,-29055.465,-48875.535,-24483.6,-25776.495
1764505646.9012084,18903.87,-20391.12,-8687.34,-16725.69,-29054.835,-48875.22,-24483.69,-25776.315
1764505646.9012084,18904.455,-20391.48,-8687.565,-16725.329999999998,-29054.7,-48875.355,-24483.645,-25776.27
1764505646.9012084,18904.635,-20391.57,-8687.97,-16725.42,-29054.97,-48875.445,-24484.005,-25776.27
1764505646.9012084,18907.83,-20388.78,-8685.27,-16723.26,-29052.495,-48872.79,-24481.395,-25773.21
1764505646.9012084,18909.09,-20388.375,-8684.595,-16722.18,-29051.37,-48871.17,-24479.595,-25771.77
1764505646.9012084,18910.08,-20386.89,-8683.785,-16721.01,-29050.335,-48869.73,-24478.245,-25770.33
1764505646.9027624,18908.055,-20388.69,-8684.91,-16722.405,-29051.91,-48871.305,-24479.91,-25771.95
1764505646.9027624,18907.515,-20389.68,-8684.82,-16722.855,-29052.0,-48871.98,-24479.73,-25771.815
1764505646.9027624,18905.895,-20390.895,-8686.125,-16724.34,-29053.575,-48873.735,-24481.215,-25773.705
1764505646.9027624,18902.16,-20393.955,-8689.86,-16727.265,-29056.095,-48876.57,-24484.365,-25777.44
1764505646.9027624,18903.015,-20393.37,-8688.869999999999,-16726.5,-29055.42,-48874.68,-24482.475,-25776.36
1764505646.9027624,18906.795,-20389.995,-8685.27,-16723.305,-29052.135,-48870.63,-24478.83,-25772.715
1764505646.9027624,18904.815,-20392.11,-8686.935,-16725.329999999998,-29054.205,-48872.52,-24480.225,-25774.425
1764505646.9506578,18901.575,-20395.125,-8690.31,-16728.885,-29057.22,-48875.805,-24483.78,-25778.52
1764505646.9506578,18904.005,-20392.695,-8688.015,-16726.184999999998,-29054.88,-48874.365,-24481.08,-25776.18
1764505646.9506578,18909.81,-20386.89,-8682.21,-16720.245,-29049.255,-48868.515,-24475.23,-25770.105
1764505646.9506578,18907.065,-20389.95,-8684.955,-16722.855,-29052.18,-48870.54,-24478.02,-25772.535
1764505646.9506578,18904.5,-20392.245,-8687.385,-16725.87,-29054.25,-48873.195,-24480.225,-25774.92
1764505646.9506578,18904.41,-20391.93,-8687.43,-16725.375,-29053.845,-48873.06,-24479.55,-25774.065
1764505646.9506578,18906.21,-20390.355,-8685.855,-16722.989999999998,-29051.775,-48871.71,-24477.885,-25772.67
1764505646.9506578,18903.51,-20392.47,-8688.555,-16725.96,-29055.06,-48874.095,-24480.81,-25774.965
1764505646.9506578,18905.22,-20390.895,-8686.71,-16724.204999999998,-29053.215,-48871.71,-24478.335,-25772.76
1764505646.9506578,18901.89,-20394.27,-8688.914999999999,-16726.725,-29056.455,-48874.23,-24480.855,-25775.82
1764505646.9506578,18904.005,-20392.155,-8686.305,-16724.204999999998,-29053.575,-48872.52,-24478.92,-25773.75
1764505646.9506578,18905.49,-20391.39,-8685.539999999999,-16723.44,-29052.09,-48871.305,-24477.75,-25772.13
1764505646.9506578,18907.155,-20388.78,-8683.92,-16721.595,-29050.515,-48869.595,-24475.95,-25770.33
1764505646.9506578,18904.455,-20391.57,-8686.664999999999,-16723.755,-29052.855,-48872.52,-24478.47,-25773.165
1764505646.9506578,18903.51,-20392.56,-8687.295,-16723.98,-29053.395,-48873.105,-24478.605,-25773.615
1764505646.9506578,18900.99,-20395.35,-8689.86,-16726.905,-29056.365,-48875.715,-24480.315,-25776.27
1764505646.9511683,18901.665,-20394.315,-8688.779999999999,-16726.23,-29055.15,-48874.005,-24479.37,-25775.37
1764505646.9511683,18904.32,-20391.255,-8685.765,-16722.765,-29052.63,-48870.72,-24475.815,-25772.13
1764505646.9511683,18904.32,-20391.885,-8686.08,-16722.54,-29052.9,-48871.17,-24475.725,-25772.49
1764505646.9511683,18902.835,-20393.73,-8688.06,-16724.565,-29054.88,-48872.655,-24477.03,-25774.335
1764505646.9511683,18902.7,-20393.955,-8688.33,-16724.43,-29054.565,-48872.97,-24476.985,-25774.38
1764505646.9511683,18901.53,-20394.27,-8688.555,-16725.6,-29054.97,-48873.465,-24477.66,-25774.605
1764505646.9511683,18905.22,-20389.905,-8685.315,-16721.28,-29051.325,-48869.325,-24473.385,-25771.14
1764505646.9511683,18901.125,-20393.91,-8688.465,-16725.239999999998,-29055.465,-48873.96,-24476.805,-25775.235
1764505646.9987476,18903.195,-20392.335,-8686.35,-16723.575,-29053.305,-48872.205,-24475.275,-25773.12
1764505646.9987476,18899.91,-20395.89,-8689.23,-16726.364999999998,-29056.32,-48875.355,-24478.65,-25776.09
1764505646.9987476,18903.33,-20391.975,-8685.449999999999,-16722.989999999998,-29053.17,-48872.43,-24475.59,-25773.075
1764505646.9987476,18903.015,-20392.605,-8685.72,-16722.72,-29052.945,-48872.07,-24475.5,-25773.03
1764505646.9987476,18900.405,-20395.485,-8688.33,-16725.96,-29055.915,-48874.5,-24478.335,-25775.505
1764505646.9987476,18901.935,-20393.82,-8687.07,-16724.43,-29054.115,-48872.295,-24476.76,-25774.29
1764505646.9987476,18900.045,-20395.8,-8688.735,-16726.59,-29055.87,-48874.14,-24478.29,-25775.82
1764505646.9987476,18904.725,-20391.255,-8683.47,-16721.73,-29051.235,-48869.505,-24473.43,-25771.635
1764505646.9987476,18906.255,-20389.95,-8682.3,-16719.57,-29049.975,-48868.02,-24471.63,-25769.565
1764505646.9987476,18901.575,-20394.72,-8686.935,-16724.88,-29054.115,-48872.52,-24475.995,-25774.02
1764505646.9987476,18902.52,-20394.18,-8685.539999999999,-16723.395,-29052.765,-48871.305,-24475.14,-25772.445
1764505646.9987476,18904.86,-20391.93,-8683.244999999999,-16720.965,-29050.605,-48869.775,-24472.575,-25770.555
1764505646.9987476,18901.62,-20394.9,-8686.35,-16723.17,-29053.485,-48872.565,-24475.32,-25773.075
1764505646.9987476,18900.765,-20395.395,-8687.744999999999,-16724.204999999998,-29054.07,-48873.555,-24475.725,-25773.975
1764505646.9987476,18901.17,-20394.765,-8687.385,-16723.8,-29054.205,-48873.87,-24474.825,-25773.21
1764505646.9987476,18901.485,-20394.405,-8687.07,-16724.204999999998,-29054.205,-48873.105,-24475.095,-25773.03
1764505646.9987476,18904.185,-20391.57,-8684.369999999999,-16721.505,-29050.965,-48869.505,-24472.215,-25770.555
1764505646.9987476,18904.635,-20390.22,-8682.795,-16720.38,-29049.66,-48868.83,-24471.0,-25769.52
1764505646.9987476,18906.12,-20389.095,-8682.255,-16719.48,-29049.03,-48867.795,-24469.74,-25768.44
1764505646.9987476,18903.645,-20391.57,-8684.595,-16721.864999999998,-29051.46,-48869.865,-24471.99,-25771.14
1764505646.9987476,18903.015,-20393.1,-8685.09,-16722.72,-29051.865,-48870.36,-24472.89,-25772.265
1764505646.9987476,18900.585,-20395.305,-8687.205,-16724.43,-29053.71,-48872.16,-24475.32,-25774.47
1764505647.043486,18897.795,-20398.32,-8690.31,-16727.13,-29056.365,-48875.535,-24477.255,-25776.9
1764505647.043486,18900.855,-20395.17,-8687.205,-16724.52,-29052.99,-48871.755,-24474.555,-25774.02
1764505647.043486,18901.53,-20394.54,-8685.675,-16723.125,-29052.27,-48871.215,-24473.565,-25772.535
1764505647.043486,18899.595,-20396.295,-8687.654999999999,-16725.015,-29053.89,-48873.24,-24475.185,-25773.84
1764505647.043486,18896.625,-20399.49,-8691.164999999999,-16727.715,-29056.95,-48875.94,-24478.245,-25776.945
1764505647.043486,18899.865,-20397.06,-8688.24,-16724.745,-29053.485,-48872.25,-24475.725,-25773.615
1764505647.043486,18902.205,-20394.72,-8686.619999999999,-16723.125,-29051.19,-48870.18,-24473.295,-25771.77
1764505647.043486,18898.83,-20396.925,-8689.904999999999,-16725.87,-29054.295,-48873.465,-24475.545,-25774.605
1764505647.043486,18900.585,-20395.845,-8687.88,-16724.07,-29052.405,-48871.755,-24473.97,-25773.3
1764505647.043486,18898.965,-20398.545,-8689.23,-16725.87,-29054.79,-48873.645,-24476.355,-25775.28
1764505647.043486,18902.655,-20394.045,-8685.225,-16721.864999999998,-29051.01,-48869.64,-24471.945,-25770.465
1764505647.043486,18902.385,-20394.585,-8685.0,-16722.18,-29050.065,-48869.82,-24471.72,-25770.24
1764505647.043486,18900.0,-20397.42,-8686.98,-16724.61,-29052.18,-48872.115,-24474.195,-25772.895
1764505647.043486,18902.565,-20394.315,-8684.279999999999,-16721.595,-29049.57,-48868.965,-24471.405,-25770.24
1764505647.043486,18900.045,-20397.015,-8687.025,-16724.024999999998,-29052.45,-48871.44,-24473.565,-25772.58
1764505647.043486,18902.565,-20393.595,-8683.74,-16721.055,-29050.065,-48868.47,-24470.37,-25769.79
1764505647.043486,18901.575,-20394.675,-8684.64,-16721.64,-29050.245,-48868.785,-24470.28,-25770.915
1764505647.043486,18898.47,-20398.32,-8688.15,-16725.42,-29053.395,-48872.655,-24473.205,-25774.155
1764505647.043486,18896.715,-20400.345,-8690.31,-16728.12,-29055.78,-48875.13,-24475.95,-25776.225
1764505647.043486,18897.255,-20399.355,-8689.41,-16727.67,-29056.32,-48874.905,-24475.545,-25775.82
1764505647.043486,18898.425,-20398.815,-8688.15,-16725.915,-29054.745,-48872.565,-24473.79,-25773.795
1764505647.0445,18901.26,-20396.385,-8684.55,-16722.36,-29051.64,-48870.045,-24471.0,-25770.825
1764505647.0445,18899.46,-20398.23,-8686.8,-16724.655,-29053.665,-48872.88,-24472.665,-25773.39
1764505647.0445,18900.405,-20396.745,-8686.035,-16723.575,-29052.63,-48871.215,-24471.585,-25772.76
1764505647.0900812,18903.645,-20393.73,-8683.289999999999,-16720.559999999998,-29050.245,-48867.525,-24468.39,-25769.295
1764505647.0900812,18903.69,-20393.505,-8682.255,-16720.155,-29049.795,-48866.58,-24467.67,-25769.385
1764505647.0900812,18904.77,-20392.875,-8681.67,-16719.21,-29048.94,-48865.905,-24466.455,-25768.35
1764505647.0900812,18900.63,-20397.33,-8686.485,-16723.845,-29053.08,-48870.405,-24470.955,-25773.39
1764505647.0900812,18902.79,-20395.71,-8684.775,-16721.82,-29051.19,-48869.055,-24469.02,-25771.815
1764505647.0900812,18901.395,-20397.645,-8685.585,-16722.899999999998,-29052.81,-48870.855,-24469.965,-25773.165
1764505647.0900812,18898.83,-20400.03,-8687.88,-16724.79,-29054.745,-48873.105,-24471.945,-25774.92
1764505647.0905917,18899.82,-20399.355,-8686.8,-16723.755,-29053.215,-48872.07,-24470.73,-25774.695
1764505647.0905917,18902.7,-20397.105,-8683.605,-16721.28,-29050.47,-48869.145,-24468.75,-25773.075
1764505647.0905917,18899.82,-20399.625,-8685.99,-16723.53,-29053.53,-48871.485,-24470.64,-25776.0
1764505647.0905917,18900.945,-20398.455,-8685.63,-16722.855,-29052.315,-48870.72,-24468.795,-25774.695
1764505647.0905917,18903.69,-20395.71,-8682.525,-16719.93,-29049.345,-48867.57,-24465.69,-25771.905
1764505647.0905917,18904.41,-20395.305,-8682.21,-16719.255,-29049.39,-48866.31,-24465.06,-25771.455
1764505647.0905917,18900.405,-20398.77,-8685.765,-16722.899999999998,-29053.26,-48870.675,-24469.155,-25775.55
1764505647.0905917,18900.585,-20397.735,-8685.135,-16721.684999999998,-29051.865,-48870.18,-24467.715,-25774.515
1764505647.0905917,18903.645,-20395.125,-8682.255,-16719.614999999998,-29048.895,-48866.715,-24464.205,-25772.085
1764505647.0905917,18900.63,-20397.69,-8683.605,-16722.18,-29051.37,-48868.92,-24466.41,-25774.515
1764505647.0905917,18899.415,-20398.68,-8684.91,-16722.809999999998,-29052.0,-48870.09,-24467.58,-25776.18
1764505647.0905917,18899.325,-20397.96,-8684.955,-16722.495,-29051.82,-48870.54,-24466.32,-25776.765
1764505647.0905917,18900.315,-20396.43,-8683.335,-16721.595,-29050.695,-48869.055,-24465.24,-25775.73
1764505647.0905917,18896.31,-20399.895,-8686.664999999999,-16724.745,-29054.16,-48872.835,-24468.705,-25779.33
1764505647.0905917,18897.435,-20398.005,-8685.63,-16722.315,-29051.865,-48871.845,-24466.5,-25777.215
1764505647.0905917,18897.615,-20397.105,-8684.865,-16721.64,-29051.055,-48871.53,-24465.465,-25777.125
1764505647.0905917,18892.485,-20401.515,-8688.96,-16726.364999999998,-29055.645,-48876.165,-24469.605,-25781.895
1764505647.1360588,18891.72,-20402.595,-8688.6,-16726.77,-29056.59,-48876.48,-24469.875,-25782.39
1764505647.1360588,18891.36,-20402.37,-8688.735,-16726.23,-29056.86,-48876.435,-24469.605,-25782.255
1764505647.1360588,18892.44,-20400.48,-8687.205,-16724.745,-29055.87,-48874.995,-24467.355,-25781.265
1764505647.1360588,18888.345,-20403.855,-8690.76,-16728.614999999998,-29060.19,-48879.405,-24470.37,-25785.045
1764505647.1360588,18887.13,-20405.07,-8691.795,-16729.515,-29061.18,-48880.215,-24470.955,-25785.945
1764505647.1360588,18886.185,-20405.115,-8691.705,-16729.515,-29060.955,-48880.71,-24470.775,-25786.575
1764505647.1360588,18885.06,-20405.25,-8691.39,-16728.48,-29060.91,-48881.115,-24470.505,-25786.485
1764505647.1360588,18886.185,-20403.54,-8689.86,-16726.005,-29058.615,-48878.64,-24468.03,-25784.955
1764505647.1360588,18889.02,-20399.715,-8686.529999999999,-16722.0,-29055.735,-48875.625,-24464.115,-25782.48
1764505647.1360588,18884.7,-20404.035,-8690.265,-16726.274999999998,-29059.92,-48880.755,-24468.075,-25786.62
1764505647.1360588,18886.5,-20401.83,-8687.654999999999,-16723.305,-29056.995,-48878.415,-24465.51,-25784.28
1764505647.1360588,18885.06,-20402.46,-8688.42,-16723.079999999998,-29057.445,-48878.775,-24465.465,-25784.37
1764505647.1360588,18883.44,-20403.855,-8689.545,-16724.204999999998,-29058.48,-48880.89,-24465.915,-25786.035
1764505647.1360588,18880.47,-20405.88,-8691.705,-16726.59,-29061.09,-48882.555,-24467.895,-25789.005
1764505647.1360588,18877.095,-20408.94,-8695.215,-16729.875,-29064.645,-48885.48,-24470.775,-25792.38
1764505647.1360588,18876.015,-20409.57,-8695.664999999999,-16730.595,-29065.05,-48885.84,-24471.18,-25793.28
1764505647.1360588,18878.355,-20407.32,-8693.369999999999,-16728.165,-29062.89,-48883.095,-24468.705,-25790.67
1764505647.1360588,18877.95,-20406.195,-8692.244999999999,-16727.13,-29062.485,-48883.545,-24468.165,-25790.13
1764505647.1360588,18877.905,-20405.385,-8691.57,-16725.42,-29060.73,-48883.365,-24467.535,-25789.41
1764505647.1370883,18874.575,-20407.95,-8694.675,-16728.12,-29063.34,-48885.21,-24469.875,-25792.47
1764505647.1370883,18873.855,-20408.67,-8694.675,-16728.704999999998,-29064.24,-48886.155,-24470.325,-25793.37
1764505647.1390884,18872.145,-20409.84,-8695.395,-16729.515,-29065.59,-48887.325,-24471.945,-25794.63
1764505647.184062,18870.615,-20411.64,-8696.789999999999,-16730.235,-29066.67,-48888.675,-24472.845,-25795.44
1764505647.184062,18869.67,-20412.36,-8696.97,-16730.864999999998,-29067.345,-48889.305,-24474.195,-25796.115
1764505647.184062,18867.51,-20413.62,-8697.69,-16731.54,-29068.47,-48890.97,-24475.635,-25797.465
1764505647.184062,18863.775,-20417.355,-8702.279999999999,-16735.59,-29072.52,-48895.245,-24479.82,-25802.055
1764505647.184062,18861.435,-20419.155,-8703.945,-16736.805,-29074.5,-48896.82,-24481.395,-25804.035
1764505647.184062,18860.445,-20419.695,-8703.539999999999,-16736.715,-29075.58,-48896.64,-24481.53,-25803.855
1764505647.1850636,18862.38,-20417.22,-8700.885,-16734.285,-29072.565,-48894.165,-24479.505,-25802.145
1764505647.1850636,18856.44,-20422.35,-8706.06,-16739.73,-29077.695,-48900.33,-24484.365,-25807.455
1764505647.1850636,18856.395,-20422.305,-8706.33,-16739.73,-29077.335,-48900.735,-24483.915,-25807.95
1764505647.1850636,18854.91,-20423.34,-8707.904999999999,-16740.495,-29077.83,-48902.4,-24484.77,-25809.165
1764505647.1850636,18855.765,-20420.955,-8706.465,-16738.875,-29076.48,-48901.41,-24483.465,-25807.77
1764505647.1850636,18852.03,-20423.97,-8708.58,-16741.305,-29079.27,-48904.245,-24485.58,-25810.74
1764505647.1850636,18853.695,-20422.575,-8707.005,-16739.415,-29077.785,-48901.995,-24483.645,-25809.345
1764505647.1850636,18850.23,-20424.42,-8708.76,-16740.765,-29079.765,-48903.615,-24484.905,-25811.28
1764505647.1850636,18846.495,-20427.48,-8712.09,-16743.42,-29083.185,-48907.215,-24487.155,-25814.295
1764505647.1850636,18848.43,-20424.33,-8709.119999999999,-16740.495,-29080.575,-48904.74,-24484.545,-25811.82
1764505647.1850636,18846.945,-20425.545,-8710.695,-16740.945,-29081.61,-48906.27,-24484.815,-25813.44
1764505647.1850636,18843.885,-20428.245,-8713.305,-16743.465,-29084.13,-48909.15,-24486.57,-25816.14
1764505647.1850636,18842.04,-20429.91,-8714.43,-16744.454999999998,-29085.57,-48911.22,-24486.84,-25817.94
1764505647.1850636,18840.33,-20430.855,-8715.285,-16744.77,-29086.155,-48912.21,-24486.66,-25819.065
1764505647.1850636,18839.295,-20431.17,-8716.545,-16745.04,-29086.47,-48912.93,-24486.93,-25819.965
1764505647.1850636,18836.01,-20433.78,-8718.57,-16747.92,-29088.27,-48915.945,-24487.515,-25822.89
1764505647.1850636,18836.28,-20433.015,-8717.895,-16747.559999999998,-29087.505,-48915.27,-24485.895,-25822.71
1764505647.1850636,18838.485,-20430.18,-8715.24,-16745.399999999998,-29085.39,-48912.84,-24483.015,-25820.73
1764505647.228501,18836.82,-20430.54,-8715.51,-16745.715,-29086.245,-48914.505,-24483.105,-25821.945
1764505647.228501,18837.405,-20429.955,-8714.789999999999,-16744.59,-29085.57,-48913.38,-24481.53,-25820.775
1764505647.228501,18836.865,-20430.72,-8715.015,-16744.095,-29085.615,-48913.2,-24481.215,-25821.405
1764505647.229701,18830.475,-20436.255,-8720.685,-16749.27,-29090.475,-48919.815,-24485.265,-25827.3
1764505647.229701,18828.495,-20436.795,-8721.72,-16749.855,-29091.555,-48921.255,-24484.77,-25828.155
1764505647.229701,18829.035,-20435.58,-8720.279999999999,-16748.325,-29090.43,-48919.905,-24481.98,-25826.355
1764505647.229701,18824.13,-20439.72,-8724.285,-16752.87,-29094.48,-48923.73,-24484.995,-25831.44
1764505647.229701,18823.59,-20439.99,-8724.375,-16752.329999999998,-29094.795,-48924.09,-24484.365,-25832.16
1764505647.229701,18825.885,-20436.39,-8720.685,-16748.505,-29091.195,-48921.435,-24480.99,-25829.19
1764505647.229701,18825.075,-20436.525,-8720.64,-16748.954999999998,-29091.645,-48921.03,-24480.225,-25829.145
1764505647.229701,18822.24,-20439.045,-8723.654999999999,-16751.43,-29093.625,-48923.73,-24481.665,-25831.665
1764505647.229701,18816.66,-20443.365,-8727.84,-16755.39,-29096.82,-48928.5,-24485.355,-25835.94
1764505647.229701,18816.93,-20442.24,-8726.535,-16753.905,-29095.65,-48928.005,-24483.465,-25834.725
1764505647.229701,18812.025,-20445.57,-8729.73,-16756.965,-29098.53,-48931.605,-24486.3,-25838.865
1764505647.229701,18805.095,-20451.015,-8734.455,-16761.78,-29102.49,-48936.24,-24490.125,-25844.13
1764505647.229701,18802.845,-20452.275,-8735.49,-16762.32,-29103.705,-48937.365,-24489.81,-25845.66
1764505647.229701,18801.585,-20452.815,-8735.355,-16762.905,-29104.29,-48937.455,-24489.09,-25846.605
1764505647.2302344,18795.825,-20456.46,-8740.035,-16766.595,-29108.745,-48941.64,-24492.87,-25851.78
1764505647.2302344,18788.535,-20462.58,-8746.289999999999,-16772.895,-29115.0,-48947.895,-24497.865,-25858.17
1764505647.2302344,18787.185,-20463.435,-8747.235,-16772.355,-29115.09,-48948.255,-24497.685,-25859.07
1764505647.2302344,18781.245,-20467.935,-8751.6,-16776.27,-29119.95,-48952.62,-24501.825,-25864.65
1764505647.2302344,18775.935,-20470.59,-8753.49,-16778.34,-29122.38,-48955.5,-24502.995,-25868.385
1764505647.2773547,18772.245,-20472.345,-8755.154999999999,-16779.015,-29123.505,-48958.02,-24503.445,-25871.4
1764505647.2773547,18763.56,-20479.725,-8762.985,-16786.215,-29130.66,-48965.265,-24508.89,-25879.68
1764505647.2773547,18762.345,-20478.24,-8762.355,-16784.864999999998,-29129.04,-48964.14,-24506.505,-25879.77
1764505647.2773547,18759.33,-20478.6,-8764.154999999999,-16785.09,-29130.255,-48964.995,-24506.235,-25881.84
1764505647.2773547,18754.875,-20480.94,-8767.529999999999,-16786.62,-29132.595,-48967.335,-24507.765,-25885.125
1764505647.2773547,18750.42,-20485.44,-8771.13,-16790.04,-29136.24,-48971.655,-24511.23,-25889.355
1764505647.2773547,18745.155,-20489.715,-8774.865,-16794.765,-29140.335,-48976.515,-24515.505,-25894.62
1764505647.2773547,18743.67,-20489.76,-8775.494999999999,-16795.215,-29141.145,-48977.415,-24516.09,-25895.745
1764505647.2773547,18744.255,-20487.78,-8773.244999999999,-16792.649999999998,-29139.12,-48975.48,-24514.245,-25894.215
1764505647.2773547,18741.375,-20490.03,-8774.73,-16793.954999999998,-29141.235,-48977.775,-24516.045,-25895.925
1764505647.2773547,18744.885,-20485.62,-8771.039999999999,-16789.68,-29137.005,-48974.175,-24511.455,-25891.875
1764505647.2773547,18741.105,-20488.77,-8773.83,-16792.649999999998,-29139.12,-48976.515,-24514.155,-25894.17
1764505647.2773547,18741.105,-20487.915,-8773.289999999999,-16791.795,-29137.905,-48975.57,-24512.805,-25893.45
1764505647.2773547,18743.58,-20484.36,-8770.005,-16788.015,-29134.485,-48972.555,-24509.745,-25890.12
1764505647.2773547,18744.66,-20482.74,-8768.654999999999,-16786.934999999998,-29133.135,-48971.97,-24508.98,-25888.5
1764505647.2773547,18743.985,-20483.415,-8768.43,-16786.98,-29133.36,-48971.79,-24508.62,-25888.05
1764505647.2773547,18745.56,-20482.065,-8766.539999999999,-16785.405,-29131.65,-48969.72,-24505.965,-25885.755
1764505647.2773547,18744.435,-20482.245,-8766.404999999999,-16784.28,-29130.795,-48969.315,-24505.605,-25885.35
1764505647.2773547,18741.69,-20483.235,-8767.529999999999,-16785.675,-29132.055,-48970.395,-24506.775,-25886.97
1764505647.2773547,18747.18,-20477.565,-8761.904999999999,-16780.454999999998,-29126.475,-48964.77,-24501.735,-25881.165
1764505647.2773547,18749.745,-20474.1,-8759.115,-16777.079999999998,-29123.145,-48961.62,-24498.63,-25877.655
1764505647.2773547,18747.63,-20474.955,-8760.69,-16778.114999999998,-29124.045,-48963.015,-24499.755,-25879.68
1764505647.2773547,18751.005,-20471.355,-8756.595,-16773.39,-29119.68,-48959.01,-24495.57,-25876.215
1764505647.2773547,18754.785,-20467.845,-8752.05,-16769.07,-29115.225,-48954.825,-24491.655,-25871.58
1764505647.3212354,18754.11,-20467.485,-8752.005,-16768.845,-29115.09,-48954.87,-24491.43,-25870.995
1764505647.3212354,18757.125,-20463.21,-8748.315,-16764.434999999998,-29111.22,-48950.955,-24487.425,-25866.9
1764505647.3212354,18754.965,-20465.595,-8750.654999999999,-16766.46,-29113.245,-48953.34,-24488.46,-25868.25
1764505647.3212354,18757.755,-20461.95,-8747.64,-16763.579999999998,-29109.24,-48949.92,-24485.445,-25864.74
1764505647.3212354,18759.645,-20460.915,-8746.605,-16762.995,-29107.395,-48948.93,-24485.265,-25863.39
1764505647.3212354,18762.03,-20458.935,-8743.994999999999,-16761.149999999998,-29105.595,-48947.04,-24484.23,-25860.6
1764505647.3212354,18763.785,-20457.405,-8741.61,-16758.72,-29103.84,-48944.97,-24483.105,-25857.945
1764505647.3212354,18762.075,-20458.755,-8743.095,-16759.89,-29104.965,-48945.825,-24484.815,-25858.44
1764505647.3212354,18760.995,-20460.285,-8744.355,-16761.69,-29106.0,-48947.49,-24487.155,-25859.835
1764505647.3212354,18766.305,-20455.245,-8739.315,-16757.325,-29100.645,-48942.18,-24483.915,-25854.21
1764505647.3212354,18767.745,-20454.48,-8738.595,-16756.245,-29099.97,-48940.605,-24483.87,-25852.725
1764505647.3212354,18772.2,-20450.025,-8733.914999999999,-16751.97,-29095.38,-48935.88,-24480.855,-25847.415
1764505647.3217602,18770.535,-20451.465,-8734.994999999999,-16753.23,-29096.55,-48937.59,-24483.465,-25848.18
1764505647.3217602,18772.47,-20449.53,-8732.115,-16751.204999999998,-29093.67,-48934.665,-24482.7,-25845.12
1764505647.3217602,18777.735,-20444.895,-8726.85,-16746.524999999998,-29088.18,-48928.995,-24479.28,-25839.27
1764505647.3217602,18780.525,-20441.7,-8723.88,-16743.78,-29084.445,-48925.35,-24476.04,-25836.255
1764505647.3217602,18782.28,-20439.27,-8721.945,-16741.8,-29082.33,-48923.19,-24474.69,-25833.87
1764505647.323798,18779.49,-20442.105,-8724.33,-16744.005,-29084.58,-48925.035,-24478.515,-25834.86
1764505647.323798,18781.335,-20440.755,-8723.205,-16742.43,-29082.51,-48923.325,-24477.165,-25831.935
1764505647.323798,18780.3,-20441.565,-8723.97,-16742.835,-29082.78,-48924.09,-24477.615,-25832.205
1764505647.323798,18778.905,-20443.005,-8724.869999999999,-16744.32,-29084.445,-48925.305,-24479.37,-25833.645
1764505647.323798,18779.04,-20443.545,-8724.869999999999,-16745.175,-29084.445,-48925.845,-24479.19,-25833.735
1764505647.323798,18778.365,-20444.31,-8725.994999999999,-16746.66,-29085.21,-48926.43,-24479.82,-25834.455
1764505647.323798,18778.41,-20443.905,-8725.86,-16746.255,-29084.985,-48926.34,-24479.64,-25834.185
1764505647.3673956,18778.545,-20443.095,-8725.275,-16746.255,-29084.67,-48926.07,-24479.415,-25833.6
1764505647.3673956,18780.795,-20441.52,-8724.69,-16745.085,-29083.14,-48924.99,-24479.055,-25831.215
1764505647.3673956,18783.945,-20439.405,-8721.404999999999,-16741.98,-29080.215,-48921.75,-24477.615,-25827.795
1764505647.3673956,18780.48,-20443.32,-8724.105,-16745.85,-29082.915,-48924.45,-24482.07,-25831.08
1764505647.3673956,18782.1,-20440.98,-8722.89,-16744.59,-29081.07,-48922.605,-24479.91,-25828.92
1764505647.3673956,18784.215,-20438.865,-8721.045,-16742.385,-29079.09,-48920.58,-24476.85,-25825.545
1764505647.3684378,18781.38,-20442.51,-8724.42,-16746.075,-29082.105,-48923.73,-24479.64,-25828.74
1764505647.3684378,18777.06,-20447.865,-8728.289999999999,-16750.845,-29086.155,-48927.555,-24484.545,-25833.195
1764505647.3684378,18778.455,-20446.2,-8726.445,-16749.27,-29084.58,-48925.395,-24483.285,-25831.845
1764505647.3684378,18775.575,-20449.08,-8730.045,-16752.645,-29087.505,-48928.5,-24487.425,-25834.455
1764505647.3684378,18775.62,-20449.125,-8730.675,-16752.915,-29087.865,-48928.995,-24487.695,-25834.32
1764505647.3684378,18778.41,-20447.01,-8727.93,-16750.215,-29085.48,-48925.89,-24485.76,-25831.17
1764505647.3684378,18782.91,-20442.87,-8722.89,-16746.795,-29080.35,-48921.48,-24481.71,-25826.4
1764505647.3684378,18782.82,-20443.365,-8723.43,-16748.055,-29081.385,-48921.795,-24482.79,-25826.94
1764505647.3689542,18783.72,-20443.635,-8723.835,-16747.515,-29081.07,-48921.795,-24482.475,-25826.85
1764505647.3689542,18783.72,-20443.14,-8723.61,-16746.795,-29080.215,-48921.21,-24482.79,-25826.445
1764505647.3689542,18782.91,-20443.995,-8724.51,-16747.92,-29081.205,-48921.795,-24483.78,-25827.435
1764505647.3706155,18781.02,-20446.2,-8727.345,-16751.07,-29083.59,-48924.18,-24487.02,-25829.64
1764505647.3706155,18780.795,-20446.965,-8727.615,-16751.565,-29083.365,-48925.035,-24487.605,-25829.46
1764505647.3706155,18783.27,-20444.85,-8725.185,-16749.675,-29080.845,-48922.47,-24485.4,-25826.805
1764505647.3706155,18783.585,-20445.21,-8725.5,-16749.945,-29081.205,-48923.28,-24485.805,-25826.715
1764505647.3716328,18780.435,-20448.045,-8727.57,-16752.555,-29084.13,-48925.665,-24486.705,-25828.38
1764505647.3716328,18782.235,-20445.255,-8725.14,-16750.079999999998,-29081.97,-48923.19,-24483.555,-25825.77
1764505647.3716328,18781.65,-20446.245,-8726.49,-16751.34,-29083.185,-48923.91,-24484.23,-25827.165
1764505647.4157686,18780.39,-20447.82,-8727.3,-16752.555,-29084.49,-48924.45,-24484.815,-25828.065
1764505647.4163418,18777.915,-20450.205,-8729.414999999999,-16755.12,-29086.965,-48926.79,-24487.11,-25830.495
1764505647.4163418,18778.725,-20450.205,-8728.65,-16754.67,-29086.47,-48926.295,-24487.065,-25829.82
1764505647.4163418,18780.12,-20449.845,-8728.965,-16753.905,-29085.84,-48926.16,-24486.21,-25829.145
1764505647.4163418,18783.135,-20446.875,-8726.085,-16751.07,-29082.78,-48923.91,-24483.555,-25826.49
1764505647.4163418,18782.055,-20447.865,-8726.22,-16751.97,-29082.915,-48924.135,-24483.645,-25827.21
1764505647.4163418,18784.035,-20445.57,-8723.295,-16749.54,-29080.305,-48921.525,-24480.45,-25823.925
1764505647.4163418,18783.36,-20446.83,-8724.42,-16751.114999999998,-29080.98,-48922.29,-24480.945,-25824.555
1764505647.4163418,18781.11,-20449.08,-8727.39,-16754.489999999998,-29083.815,-48924.99,-24483.195,-25827.345
1764505647.4163418,18775.575,-20454.03,-8732.835,-16759.98,-29089.665,-48930.3,-24487.695,-25833.33
1764505647.4163418,18774.9,-20455.02,-8732.744999999999,-16759.755,-29090.07,-48930.39,-24487.47,-25833.645
1764505647.4163418,18776.205,-20454.03,-8731.44,-16758.899999999998,-29088.36,-48929.355,-24486.165,-25832.745
1764505647.4163418,18772.875,-20458.17,-8735.22,-16762.815,-29091.915,-48933.36,-24489.405,-25836.48
1764505647.4163418,18773.685,-20457.225,-8734.545,-16762.86,-29091.375,-48932.28,-24487.74,-25835.58
1764505647.4163418,18777.24,-20453.67,-8731.17,-16758.63,-29088.54,-48928.005,-24483.375,-25831.755
1764505647.4163418,18777.015,-20454.345,-8731.26,-16759.035,-29088.54,-48927.87,-24483.87,-25832.16
1764505647.4163418,18775.665,-20456.865,-8733.24,-16761.329999999998,-29090.565,-48929.67,-24485.67,-25834.14
1764505647.4163418,18778.5,-20454.03,-8730.99,-16759.305,-29087.775,-48927.42,-24483.69,-25831.44
1764505647.4163418,18778.635,-20454.615,-8731.89,-16759.98,-29088.405,-48927.78,-24484.77,-25831.755
1764505647.4163418,18777.33,-20456.64,-8732.925,-16760.655,-29090.205,-48929.085,-24485.94,-25833.24
1764505647.4163418,18775.305,-20458.755,-8734.59,-16762.545,-29092.5,-48931.065,-24487.29,-25834.545
1764505647.4163418,18777.15,-20458.485,-8733.33,-16761.915,-29091.105,-48929.715,-24486.165,-25833.69
1764505647.4163418,18775.62,-20459.7,-8734.545,-16763.355,-29091.825,-48930.93,-24487.965,-25835.265
1764505647.4163418,18778.635,-20455.785,-8731.619999999999,-16759.755,-29088.765,-48927.78,-24485.265,-25831.665
1764505647.4637575,18777.195,-20457.99,-8734.005,-16762.59,-29091.33,-48930.21,-24487.065,-25834.5
1764505647.4637575,18777.195,-20458.665,-8734.41,-16762.364999999998,-29091.15,-48930.795,-24487.2,-25834.14
1764505647.4637575,18780.75,-20455.515,-8730.494999999999,-16758.27,-29087.19,-48927.69,-24483.915,-25830.495
1764505647.4637575,18781.56,-20455.29,-8729.82,-16758.09,-29086.875,-48926.655,-24483.33,-25829.55
1764505647.4637575,18781.245,-20455.92,-8730.765,-16758.899999999998,-29088.18,-48926.745,-24484.14,-25829.91
1764505647.4637575,18781.38,-20457.045,-8732.025,-16760.52,-29088.945,-48928.23,-24485.085,-25830.855
1764505647.4637575,18781.335,-20457.315,-8732.205,-16760.79,-29089.035,-48928.635,-24485.355,-25831.17
1764505647.4637575,18779.895,-20458.53,-8733.465,-16761.555,-29090.115,-48929.355,-24486.975,-25831.35
1764505647.4637575,18784.62,-20453.895,-8728.11,-16756.829999999998,-29084.805,-48924.405,-24481.845,-25825.905
1764505647.464788,18786.105,-20452.815,-8727.345,-16755.975,-29083.815,-48922.965,-24480.135,-25824.33
1764505647.464788,18783.765,-20455.02,-8729.64,-16758.36,-29086.38,-48925.08,-24483.195,-25826.895
1764505647.464788,18787.41,-20451.735,-8725.725,-16754.399999999998,-29082.645,-48921.57,-24479.91,-25823.34
1764505647.464788,18786.105,-20452.275,-8727.21,-16755.48,-29083.275,-48922.605,-24480.315,-25824.69
1764505647.464788,18789.57,-20448.36,-8724.42,-16752.51,-29080.17,-48919.23,-24477.435,-25822.35
1764505647.464788,18787.68,-20450.52,-8725.59,-16754.805,-29081.88,-48920.58,-24479.55,-25824.42
1764505647.464788,18784.935,-20452.815,-8726.985,-16756.11,-29083.95,-48921.75,-24481.44,-25826.04
1764505647.464788,18787.05,-20450.61,-8725.32,-16754.175,-29082.69,-48919.59,-24479.415,-25824.33
1764505647.464788,18788.445,-20450.745,-8725.14,-16753.95,-29082.24,-48919.5,-24479.82,-25824.24
1764505647.465769,18789.885,-20449.575,-8724.195,-16752.6,-29080.755,-48918.69,-24478.965,-25821.945
1764505647.465769,18789.57,-20449.8,-8724.69,-16752.78,-29081.025,-48919.23,-24480.09,-25821.855
1764505647.465769,18786.87,-20452.86,-8727.164999999999,-16755.12,-29084.13,-48921.705,-24482.115,-25824.33
1764505647.465769,18788.355,-20451.51,-8725.904999999999,-16753.86,-29082.78,-48920.265,-24480.945,-25822.665
1764505647.5112123,18793.125,-20447.775,-8722.574999999999,-16750.17,-29078.415,-48915.945,-24477.795,-25818.165
1764505647.5112123,18794.25,-20447.19,-8721.585,-16750.215,-29078.91,-48915.225,-24477.48,-25818.615
1764505647.5112123,18795.555,-20445.66,-8720.505,-16748.505,-29077.2,-48913.605,-24475.59,-25817.265
1764505647.5122268,18791.55,-20450.07,-8724.555,-16752.69,-29080.08,-48917.07,-24479.82,-25821.27
1764505647.5122268,18793.125,-20449.44,-8723.07,-16751.61,-29078.55,-48915.45,-24478.56,-25820.415
1764505647.5122268,18796.635,-20446.245,-8719.065,-16747.38,-29075.4,-48911.67,-24474.69,-25816.815
1764505647.5132227,18794.295,-20448.045,-8721.135,-16749.495,-29077.92,-48913.92,-24476.715,-25818.075
1764505647.5132227,18794.565,-20446.785,-8720.865,-16749.045,-29077.965,-48913.38,-24476.4,-25818.03
1764505647.513626,18795.375,-20447.28,-8720.64,-16749.0,-29077.245,-48912.75,-24476.175,-25818.165
1764505647.513626,18797.985,-20445.21,-8718.074999999999,-16747.02,-29074.995,-48910.77,-24474.195,-25815.15
1764505647.513626,18795.96,-20447.82,-8720.82,-16750.215,-29077.2,-48912.93,-24477.165,-25817.76
1764505647.5142238,18799.425,-20443.815,-8717.355,-16747.2,-29073.24,-48909.105,-24474.24,-25814.655
1764505647.5142238,18801.585,-20441.925,-8716.005,-16745.04,-29072.34,-48907.26,-24472.98,-25813.08
1764505647.5142238,18798.57,-20445.66,-8718.75,-16747.559999999998,-29075.58,-48909.735,-24476.085,-25816.545
1764505647.5142238,18801.27,-20443.23,-8716.23,-16744.32,-29072.79,-48906.855,-24472.89,-25813.485
1764505647.5142238,18797.535,-20446.875,-8719.965,-16747.739999999998,-29076.705,-48910.095,-24476.13,-25816.95
1764505647.5142238,18796.365,-20447.82,-8720.64,-16747.92,-29076.795,-48910.86,-24477.03,-25817.94
1764505647.5142238,18798.57,-20445.255,-8717.94,-16746.255,-29074.68,-48908.565,-24474.555,-25815.555
1764505647.5142238,18798.93,-20445.12,-8718.255,-16746.84,-29075.445,-48909.51,-24474.51,-25815.51
1764505647.5142238,18796.95,-20447.37,-8720.19,-16748.415,-29077.065,-48910.455,-24476.445,-25817.4
1764505647.5152233,18800.595,-20444.265,-8716.994999999999,-16745.355,-29073.96,-48905.955,-24473.43,-25814.16
1764505647.5152233,18801.63,-20442.96,-8716.095,-16744.32,-29072.115,-48905.19,-24472.215,-25813.17
1764505647.5152233,18804.105,-20440.98,-8714.07,-16742.07,-29070.225,-48903.165,-24469.83,-25810.56
1764505647.5152233,18803.52,-20441.43,-8714.835,-16741.89,-29071.125,-48903.345,-24470.01,-25810.92
1764505647.5587554,18803.25,-20441.295,-8714.88,-16742.114999999998,-29071.395,-48903.525,-24469.74,-25811.865
1764505647.5587554,18802.485,-20442.51,-8716.455,-16744.095,-29072.295,-48904.695,-24471.18,-25813.575
1764505647.5587554,18798.75,-20446.515,-8720.369999999999,-16748.145,-29076.12,-48909.015,-24474.6,-25817.04
1764505647.5602863,18800.91,-20444.58,-8718.705,-16745.445,-29074.05,-48907.125,-24472.305,-25815.465
1764505647.5602863,18802.62,-20443.41,-8716.68,-16743.555,-29072.205,-48904.695,-24470.37,-25813.35
1764505647.5602863,18799.785,-20446.65,-8719.335,-16747.155,-29075.265,-48907.755,-24472.62,-25816.005
1764505647.5602863,18802.53,-20444.4,-8716.725,-16744.5,-29073.195,-48905.415,-24470.595,-25813.98
1764505647.5602863,18803.295,-20443.815,-8716.77,-16743.645,-29073.06,-48904.965,-24470.415,-25814.115
1764505647.5602863,18808.335,-20438.055,-8712.27,-16738.29,-29068.335,-48899.79,-24465.735,-25808.85
1764505647.5602863,18806.13,-20440.26,-8714.07,-16740.27,-29070.045,-48900.645,-24467.67,-25809.975
1764505647.5602863,18809.055,-20438.19,-8711.1,-16738.02,-29066.94,-48898.08,-24465.42,-25807.275
1764505647.5602863,18805.86,-20441.34,-8714.07,-16741.395,-29070.54,-48901.23,-24468.435,-25810.335
1764505647.5602863,18803.43,-20444.04,-8717.13,-16744.005,-29073.24,-48903.795,-24471.045,-25812.405
1764505647.5602863,18802.845,-20444.4,-8718.255,-16744.454999999998,-29073.69,-48903.57,-24472.305,-25813.26
1764505647.5602863,18804.51,-20443.545,-8717.13,-16743.735,-29072.025,-48902.22,-24471.495,-25811.865
1764505647.5602863,18807.885,-20440.26,-8713.98,-16739.82,-29069.055,-48899.835,-24468.57,-25808.4
1764505647.5602863,18805.635,-20443.635,-8716.77,-16743.555,-29072.115,-48902.94,-24471.225,-25810.92
1764505647.5602863,18809.1,-20438.955,-8712.18,-16739.19,-29067.435,-48898.215,-24466.995,-25806.735
1764505647.5602863,18811.26,-20436.84,-8709.93,-16736.94,-29065.68,-48896.145,-24465.195,-25804.125
1764505647.5602863,18807.885,-20440.845,-8713.98,-16740.54,-29069.055,-48899.475,-24468.705,-25807.68
1764505647.5602863,18809.64,-20439.045,-8711.685,-16739.325,-29067.03,-48897.045,-24467.445,-25805.565
1764505647.5602863,18814.32,-20434.005,-8707.725,-16734.735,-29062.665,-48892.995,-24464.07,-25801.02
1764505647.606606,18811.89,-20436.975,-8710.154999999999,-16736.579999999998,-29065.68,-48895.29,-24466.365,-25803.405
1764505647.606606,18813.465,-20435.58,-8708.22,-16735.77,-29064.6,-48893.58,-24464.7,-25802.235
1764505647.606606,18810.18,-20439.495,-8711.595,-16739.595,-29067.705,-48897.135,-24468.84,-25805.385
1764505647.606606,18809.955,-20439.54,-8711.775,-16739.28,-29067.84,-48897.27,-24469.29,-25805.79
1764505647.606606,18811.44,-20438.145,-8710.92,-16738.245,-29066.49,-48895.965,-24467.94,-25804.44
1764505647.606606,18814.905,-20435.31,-8708.355,-16735.005,-29063.115,-48892.59,-24465.06,-25801.38
1764505647.606606,18816.48,-20434.455,-8707.095,-16734.059999999998,-29062.845,-48891.87,-24464.34,-25800.57
1764505647.606606,18814.635,-20436.57,-8708.31,-16736.805,-29064.555,-48893.805,-24466.32,-25802.325
1764505647.606606,18815.175,-20436.57,-8708.445,-16736.489999999998,-29064.735,-48893.355,-24466.455,-25801.2
1764505647.606606,18814.725,-20437.29,-8709.57,-16736.805,-29066.04,-48894.525,-24467.355,-25802.64
1764505647.606606,18819.27,-20432.745,-8705.16,-16732.26,-29061.405,-48889.71,-24462.495,-25797.42
1764505647.606606,18820.89,-20431.575,-8704.44,-16731.495,-29060.01,-48888.18,-24461.64,-25796.52
1764505647.606606,18821.79,-20430.54,-8703.539999999999,-16730.954999999998,-29059.47,-48887.46,-24460.74,-25795.755
1764505647.606606,18821.205,-20431.845,-8703.945,-16731.495,-29060.46,-48887.82,-24461.82,-25796.565
1764505647.606606,18818.235,-20434.365,-8706.69,-16734.329999999998,-29062.62,-48890.295,-24464.385,-25800.12
1764505647.606606,18818.01,-20434.365,-8706.555,-16734.015,-29062.44,-48890.43,-24464.295,-25800.03
1764505647.606606,18822.6,-20430.225,-8702.145,-16729.605,-29058.255,-48885.705,-24460.29,-25795.125
1764505647.606606,18821.16,-20432.52,-8703.81,-16731.945,-29060.595,-48887.37,-24462.225,-25797.06
1764505647.606606,18820.755,-20433.87,-8705.115,-16733.52,-29061.855,-48888.27,-24462.81,-25797.69
1764505647.606606,18823.59,-20431.26,-8702.64,-16730.415,-29058.885,-48885.03,-24460.695,-25795.395
1764505647.606606,18824.22,-20430.0,-8702.279999999999,-16730.19,-29057.85,-48884.265,-24460.335,-25795.44
1764505647.606606,18822.87,-20431.755,-8704.17,-16731.989999999998,-29059.56,-48885.795,-24461.37,-25796.295
1764505647.606606,18825.255,-20429.505,-8701.92,-16729.38,-29057.49,-48883.59,-24458.94,-25793.145
1764505647.606606,18823.32,-20431.395,-8703.09,-16731.855,-29059.47,-48885.39,-24461.37,-25795.035
1764505647.6521962,18824.94,-20430.63,-8701.65,-16731.0,-29058.345,-48883.23,-24459.795,-25793.64
1764505647.6521962,18826.02,-20429.685,-8700.795,-16729.829999999998,-29057.175,-48881.79,-24458.715,-25792.47
1764505647.6521962,18829.98,-20425.77,-8697.285,-16726.59,-29053.215,-48878.01,-24455.565,-25788.51
1764505647.6521962,18829.89,-20426.625,-8698.005,-16727.175,-29054.43,-48878.865,-24456.555,-25788.69
1764505647.6521962,18831.735,-20425.815,-8696.565,-16725.69,-29053.44,-48877.605,-24456.51,-25787.34
1764505647.6521962,18832.545,-20424.6,-8695.305,-16724.79,-29052.135,-48876.21,-24455.115,-25786.44
1764505647.6521962,18834.21,-20424.15,-8695.125,-16724.565,-29051.37,-48875.67,-24455.34,-25785.585
1764505647.6521962,18835.605,-20424.51,-8694.81,-16723.934999999998,-29050.92,-48875.22,-24454.755,-25785.045
1764505647.6521962,18834.075,-20426.31,-8697.15,-16726.59,-29053.35,-48876.705,-24457.32,-25786.665
1764505647.6521962,18834.48,-20425.77,-8696.744999999999,-16726.59,-29053.125,-48876.12,-24456.78,-25786.485
1764505647.6521962,18834.885,-20425.185,-8696.16,-16726.68,-29052.405,-48875.22,-24456.465,-25785.81
1764505647.6521962,18836.46,-20423.7,-8695.17,-16725.239999999998,-29051.145,-48873.285,-24455.475,-25784.685
1764505647.6521962,18843.12,-20417.895,-8689.59,-16719.66,-29045.115,-48867.075,-24450.03,-25777.755
1764505647.6521962,18838.98,-20422.305,-8693.369999999999,-16723.305,-29049.165,-48870.81,-24454.395,-25780.905
1764505647.6521962,18838.8,-20422.98,-8693.505,-16723.575,-29050.02,-48871.17,-24455.16,-25781.265
1764505647.6521962,18839.16,-20422.71,-8694.09,-16724.835,-29049.615,-48871.62,-24455.205,-25781.265
1764505647.6521962,18839.07,-20424.33,-8694.36,-16725.42,-29050.155,-48872.385,-24456.195,-25781.805
1764505647.6521962,18838.755,-20424.735,-8694.72,-16725.555,-29050.74,-48872.7,-24456.33,-25781.895
1764505647.6521962,18839.655,-20423.745,-8694.539999999999,-16725.42,-29049.615,-48871.485,-24455.7,-25781.085
1764505647.6521962,18838.89,-20425.005,-8695.44,-16726.23,-29051.1,-48871.845,-24456.78,-25782.255
1764505647.6521962,18839.475,-20425.455,-8695.664999999999,-16726.815,-29051.64,-48872.34,-24457.14,-25782.12
1764505647.6521962,18841.95,-20423.565,-8693.865,-16724.655,-29049.39,-48869.955,-24455.295,-25779.825
1764505647.6521962,18846.27,-20419.605,-8689.095,-16720.92,-29045.115,-48865.68,-24452.055,-25775.55
1764505647.6531923,18844.11,-20421.945,-8692.02,-16723.845,-29047.77,-48867.84,-24454.89,-25777.395
1764505647.696752,18847.035,-20419.965,-8689.545,-16721.01,-29045.43,-48865.41,-24451.83,-25774.02
1764505647.6977644,18846.225,-20421.45,-8690.58,-16721.55,-29046.78,-48866.985,-24452.505,-25775.415
1764505647.7004523,18849.735,-20418.12,-8687.07,-16718.085,-29043.495,-48863.43,-24449.445,-25772.085
1764505647.7004523,18846.945,-20420.73,-8689.59,-16720.425,-29046.105,-48866.31,-24452.685,-25774.065
1764505647.7004523,18847.71,-20420.19,-8688.42,-16718.94,-29045.385,-48865.005,-24451.74,-25772.805
1764505647.7004523,18848.565,-20419.965,-8688.779999999999,-16719.524999999998,-29045.79,-48864.645,-24451.515,-25772.58
1764505647.7004523,18849.42,-20419.695,-8689.095,-16720.02,-29044.98,-48864.33,-24451.11,-25772.265
1764505647.7004523,18852.705,-20416.725,-8686.125,-16717.095,-29042.19,-48861.315,-24448.905,-25768.755
1764505647.7004523,18853.38,-20417.355,-8685.99,-16717.23,-29042.01,-48861.0,-24449.355,-25768.62
1764505647.7004523,18850.185,-20421.72,-8689.77,-16721.01,-29045.565,-48864.105,-24453.225,-25772.355
1764505647.7004523,18853.47,-20418.975,-8686.485,-16718.265,-29042.595,-48860.64,-24450.345,-25768.575
1764505647.7004523,18849.555,-20422.98,-8690.31,-16722.225,-29046.15,-48864.825,-24454.89,-25772.625
1764505647.7004523,18850.005,-20422.935,-8690.85,-16722.765,-29046.6,-48864.465,-24455.565,-25773.435
1764505647.7004523,18850.32,-20423.655,-8690.715,-16723.8,-29047.32,-48864.105,-24455.88,-25773.795
1764505647.7004523,18850.68,-20423.745,-8690.4,-16723.845,-29046.825,-48864.24,-24456.285,-25772.67
1764505647.7004523,18852.12,-20422.71,-8689.32,-16722.63,-29045.52,-48862.8,-24455.295,-25770.87
1764505647.7004523,18856.71,-20418.03,-8685.765,-16718.445,-29041.695,-48858.48,-24450.885,-25766.82
1764505647.7004523,18857.655,-20417.22,-8684.955,-16717.86,-29040.48,-48857.805,-24450.885,-25765.785
1764505647.7004523,18857.295,-20418.705,-8685.494999999999,-16718.489999999998,-29041.29,-48858.345,-24452.145,-25765.83
1764505647.7004523,18852.66,-20422.71,-8690.22,-16723.215,-29045.655,-48861.99,-24456.465,-25769.655
1764505647.7004523,18856.395,-20419.29,-8686.935,-16719.66,-29042.685,-48858.12,-24453.765,-25766.19
1764505647.7004523,18855.0,-20421.81,-8689.23,-16721.82,-29044.44,-48859.74,-24456.24,-25767.675
1764505647.7004523,18857.025,-20420.055,-8687.07,-16719.614999999998,-29042.46,-48857.67,-24454.35,-25765.785
1764505647.7004523,18854.28,-20422.485,-8689.545,-16722.315,-29044.935,-48860.01,-24457.005,-25768.17
1764505647.7455647,18856.53,-20421.135,-8688.779999999999,-16721.864999999998,-29043.945,-48858.93,-24455.97,-25767.495
1764505647.7455647,18859.68,-20418.3,-8685.945,-16718.94,-29040.66,-48855.69,-24452.505,-25764.57
1764505647.7455647,18856.845,-20421.045,-8688.779999999999,-16721.82,-29043.09,-48858.795,-24455.97,-25766.865
1764505647.7455647,18860.085,-20418.255,-8685.404999999999,-16718.94,-29040.84,-48855.825,-24453.405,-25763.895
1764505647.7455647,18863.28,-20415.645,-8683.289999999999,-16716.239999999998,-29039.13,-48852.54,-24450.39,-25761.6
1764505647.7455647,18859.41,-20419.605,-8686.664999999999,-16720.245,-29042.73,-48856.455,-24454.755,-25765.74
1764505647.7455647,18863.145,-20417.13,-8683.154999999999,-16717.5,-29039.13,-48853.125,-24452.1,-25762.365
1764505647.7455647,18862.38,-20418.165,-8684.46,-16719.21,-29040.48,-48854.34,-24453.855,-25764.39
1764505647.7455647,18861.12,-20420.235,-8686.935,-16721.145,-29042.415,-48856.275,-24456.33,-25765.965
1764505647.7455647,18864.54,-20416.77,-8683.965,-16717.5,-29039.94,-48852.945,-24453.45,-25761.96
1764505647.7455647,18863.46,-20418.885,-8685.63,-16719.345,-29042.145,-48854.79,-24455.79,-25763.58
1764505647.7455647,18866.025,-20416.59,-8682.84,-16717.545,-29039.355,-48852.135,-24453.765,-25761.33
1764505647.7455647,18866.7,-20415.87,-8681.985,-16717.095,-29038.95,-48851.37,-24453.135,-25760.745
1764505647.7455647,18866.88,-20416.23,-8682.795,-16717.095,-29039.58,-48851.325,-24453.855,-25761.6
1764505647.7455647,18869.085,-20414.79,-8681.13,-16715.79,-29037.825,-48849.345,-24452.55,-25760.385
1764505647.7455647,18868.455,-20417.22,-8681.94,-16717.184999999998,-29039.355,-48851.19,-24454.485,-25762.14
1764505647.7475617,18866.16,-20419.515,-8684.145,-16718.94,-29041.2,-48853.08,-24456.195,-25763.49
1764505647.748561,18868.545,-20417.4,-8681.94,-16717.005,-29039.355,-48850.11,-24454.89,-25760.835
1764505647.748561,18868.59,-20418.03,-8682.93,-16717.725,-29040.705,-48850.875,-24456.735,-25761.24
1764505647.748561,18866.295,-20421.18,-8686.664999999999,-16720.425,-29044.17,-48854.205,-24459.885,-25764.12
1764505647.748561,18869.805,-20417.715,-8683.74,-16717.5,-29041.38,-48850.605,-24457.095,-25760.52
1764505647.748561,18870.12,-20418.12,-8683.785,-16718.13,-29041.245,-48850.02,-24457.545,-25760.745
1764505647.748561,18868.23,-20420.865,-8685.494999999999,-16720.739999999998,-29043.405,-48852.18,-24459.84,-25762.545
1764505647.748561,18868.77,-20421.99,-8686.305,-16722.045,-29044.305,-48852.675,-24461.19,-25763.355
1764505647.7931702,18874.395,-20416.5,-8681.85,-16717.59,-29039.715,-48847.23,-24456.645,-25757.775
1764505647.7931702,18871.065,-20420.19,-8685.315,-16720.739999999998,-29043.27,-48850.515,-24460.47,-25760.97
1764505647.7931702,18872.82,-20419.74,-8684.64,-16720.245,-29043.27,-48849.705,-24460.29,-25759.89
1764505647.7931702,18876.78,-20416.815,-8680.68,-16716.87,-29039.67,-48846.78,-24457.725,-25756.74
1764505647.7931702,18878.4,-20416.455,-8679.96,-16716.105,-29038.455,-48846.105,-24458.265,-25755.615
1764505647.7931702,18877.905,-20418.615,-8681.805,-16718.22,-29040.48,-48847.635,-24460.65,-25756.83
1764505647.7931702,18874.8,-20421.675,-8685.18,-16721.64,-29044.035,-48850.29,-24464.07,-25759.26
1764505647.7931702,18880.29,-20417.49,-8679.914999999999,-16717.005,-29038.995,-48845.205,-24459.66,-25753.995
1764505647.7931702,18881.73,-20416.635,-8679.285,-16716.285,-29038.095,-48844.35,-24460.065,-25752.69
1764505647.7938209,18881.595,-20417.22,-8679.6,-16716.96,-29039.04,-48844.395,-24462.27,-25753.995
1764505647.7938209,18887.895,-20410.83,-8673.705,-16711.29,-29032.74,-48838.365,-24457.815,-25748.955
1764505647.7938209,18886.32,-20413.125,-8676.945,-16714.8,-29035.44,-48841.2,-24461.82,-25750.98
1764505647.7938209,18889.47,-20411.64,-8675.145,-16713.72,-29034.315,-48839.13,-24461.145,-25748.055
1764505647.7938209,18894.195,-20408.895,-8671.904999999999,-16710.255,-29030.715,-48835.215,-24457.005,-25741.845
1764505647.7938209,18893.52,-20413.395,-8676.404999999999,-16715.114999999998,-29035.935,-48838.995,-24459.12,-25740.225
1764505647.7938209,18893.745,-20413.935,-8676.539999999999,-16715.295,-29036.565,-48838.095,-24460.92,-25740.945
1764505647.7938209,18896.22,-20412.27,-8674.695,-16714.53,-29034.855,-48835.665,-24460.38,-25740.09
1764505647.7938209,18900.18,-20409.57,-8671.949999999999,-16711.829999999998,-29031.435,-48833.01,-24459.435,-25736.985
1764505647.7948158,18904.725,-20405.88,-8668.619999999999,-16707.69,-29027.295,-48829.095,-24456.78,-25732.62
1764505647.7948158,18905.895,-20406.24,-8668.98,-16708.05,-29028.06,-48828.645,-24457.365,-25732.89
1764505647.7948158,18912.42,-20401.155,-8663.58,-16703.1,-29022.885,-48823.155,-24453.405,-25727.13
1764505647.7948158,18909.765,-20403.945,-8665.38,-16705.755,-29025.09,-48825.495,-24457.77,-25730.415
1764505647.840575,18909.405,-20404.755,-8665.47,-16705.98,-29024.46,-48825.09,-24463.755,-25735.095
1764505647.840575,18910.125,-20404.35,-8665.154999999999,-16705.98,-29024.28,-48824.235,-24468.705,-25737.705
1764505647.840575,18912.195,-20401.155,-8662.455,-16702.739999999998,-29020.815,-48821.94,-24468.615,-25737.66
1764505647.840575,18912.42,-20401.38,-8662.05,-16702.649999999998,-29020.59,-48821.67,-24464.745,-25737.48
1764505647.840575,18912.645,-20405.88,-8667.135,-16707.645,-29026.35,-48825.36,-24459.795,-25734.105
1764505647.840575,18913.275,-20405.7,-8667.945,-16708.815,-29027.115,-48825.945,-24458.355,-25733.025
1764505647.840575,18913.095,-20406.105,-8668.845,-16709.355,-29027.655,-48826.44,-24458.445,-25734.015
1764505647.840575,18914.76,-20407.905,-8670.195,-16711.695,-29029.815,-48828.105,-24457.5,-25731.945
1764505647.8415887,18919.305,-20402.64,-8664.255,-16705.98,-29024.64,-48822.795,-24455.565,-25730.145
1764505647.8415887,18916.065,-20404.395,-8666.46,-16707.6,-29026.395,-48824.415,-24461.1,-25735.95
1764505647.8415887,18917.325,-20402.145,-8663.67,-16704.63,-29024.1,-48822.03,-24461.595,-25736.4
1764505647.8415887,18922.41,-20397.87,-8659.17,-16700.309999999998,-29019.465,-48817.17,-24457.725,-25732.89
1764505647.8415887,18923.985,-20396.745,-8657.414999999999,-16698.825,-29017.395,-48816.09,-24456.33,-25732.395
1764505647.8415887,18923.67,-20397.555,-8657.64,-16699.59,-29017.89,-48815.685,-24456.87,-25733.79
1764505647.8415887,18919.35,-20404.575,-8664.525,-16706.97,-29026.08,-48822.615,-24461.37,-25736.355
1764505647.8415887,18921.42,-20402.91,-8662.23,-16705.215,-29024.19,-48820.905,-24459.795,-25734.24
1764505647.8415887,18918.855,-20406.33,-8664.615,-16707.645,-29026.665,-48823.335,-24464.115,-25737.84
1764505647.8415887,18919.845,-20405.07,-8663.535,-16706.204999999998,-29026.08,-48821.895,-24464.745,-25736.94
1764505647.8415887,18921.69,-20404.395,-8661.735,-16704.945,-29024.82,-48821.13,-24464.115,-25736.4
1764505647.8415887,18919.53,-20406.375,-8663.13,-16708.095,-29026.485,-48823.47,-24466.455,-25739.28
1764505647.8415887,18918.495,-20407.545,-8663.715,-16708.23,-29027.43,-48824.235,-24467.13,-25739.685
1764505647.8415887,18918.63,-20406.87,-8664.029999999999,-16707.6,-29027.25,-48823.74,-24466.725,-25740.18
1764505647.885435,18915.93,-20409.12,-8667.045,-16710.66,-29029.815,-48826.215,-24469.2,-25743.195
1764505647.885435,18916.695,-20408.265,-8666.595,-16709.895,-29029.185,-48825.18,-24469.29,-25742.925
1764505647.8864472,18913.32,-20411.235,-8669.97,-16713.045,-29032.74,-48828.555,-24473.34,-25746.48
1764505647.8864472,18914.355,-20409.21,-8668.664999999999,-16711.245,-29031.255,-48827.16,-24474.105,-25745.805
1764505647.8864472,18916.695,-20405.925,-8664.75,-16708.364999999998,-29028.195,-48823.875,-24471.045,-25743.105
1764505647.8864472,18914.535,-20408.22,-8666.64,-16710.75,-29029.725,-48825.855,-24472.935,-25745.445
1764505647.8864472,18916.47,-20405.97,-8664.615,-16708.545,-29027.7,-48823.38,-24470.055,-25742.475
1764505647.8874445,18910.755,-20412.405,-8671.365,-16714.755,-29034.045,-48829.545,-24475.23,-25746.93
1764505647.8874445,18912.285,-20410.605,-8668.619999999999,-16712.055,-29030.895,-48827.205,-24477.48,-25748.685
1764505647.8874445,18915.48,-20405.475,-8663.31,-16706.7,-29025.09,-48822.39,-24478.065,-25749.27
1764505647.8874445,18918.72,-20400.21,-8657.865,-16700.805,-29019.42,-48816.225,-24471.09,-25744.59
1764505647.8874445,18928.08,-20388.915,-8646.119999999999,-16688.475,-29006.1,-48803.715,-24453.81,-25732.845
1764505647.8874445,18926.91,-20393.505,-8651.475,-16694.055,-29011.815,-48808.35,-24450.48,-25730.01
1764505647.8874445,18920.205,-20405.61,-8665.244999999999,-16707.735,-29025.855,-48820.995,-24458.76,-25734.87
1764505647.8874445,18910.17,-20418.12,-8678.475,-16721.28,-29039.265,-48834.81,-24480.18,-25746.93
1764505647.8874445,18908.28,-20417.94,-8677.44,-16720.515,-29039.67,-48835.845,-24494.13,-25754.67
