Timestamp,Channel1,Channel2,Channel3,Channel4,Channel5,Channel6,Channel7,Channel8
1764505255.2324543,20265.615,-14587.875,-10807.605,-18229.725,-29923.83,-52364.295,-26295.57,-26948.43
1764505255.2324543,20268.765,-14585.355,-10804.77,-18226.215,-29921.085,-52361.595,-26292.465,-26945.91
1764505255.2324543,20269.35,-14584.32,-10804.23,-18225.495,-29920.59,-52360.875,-26291.97,-26945.1
1764505255.2324543,20267.64,-14585.13,-10804.545,-18226.98,-29921.715,-52361.73,-26293.005,-26946.99
1764505255.2324543,20268.045,-14584.5,-10804.005,-18226.485,-29920.77,-52361.19,-26291.7,-26946.18
1764505255.233469,20267.55,-14584.995,-10804.635,-18227.25,-29920.905,-52362.045,-26292.33,-26946.135
1764505255.2360196,20266.83,-14585.94,-10805.4,-18227.295,-29922.075,-52362.81,-26293.005,-26946.315
1764505255.2360196,20263.86,-14588.73,-10808.145,-18229.635,-29924.55,-52365.105,-26295.795,-26949.015
1764505255.2360196,20264.31,-14588.145,-10807.47,-18229.635,-29923.695,-52364.43,-26295.12,-26948.925
1764505255.2360196,20264.535,-14588.145,-10807.245,-18229.59,-29923.38,-52364.52,-26294.715,-26948.925
1764505255.2360196,20265.66,-14587.335,-10805.805,-18228.96,-29922.66,-52362.99,-26293.905,-26948.61
1764505255.2360196,20268.495,-14585.13,-10803.465,-18226.215,-29920.005,-52360.74,-26291.385,-26946.045
1764505255.2360196,20273.805,-14580.63,-10798.74,-18221.175,-29915.415,-52356.735,-26287.155,-26941.32
1764505255.2360196,20269.71,-14585.58,-10802.835,-18224.955,-29919.285,-52360.2,-26290.665,-26945.19
1764505255.2360196,20271.33,-14583.645,-10801.305,-18223.74,-29916.945,-52358.04,-26288.37,-26943.12
1764505255.2360196,20270.61,-14584.95,-10802.88,-18225.09,-29917.575,-52358.76,-26290.53,-26944.065
1764505255.2360196,20268.72,-14586.705,-10804.545,-18226.665,-29919.96,-52360.38,-26292.78,-26946.045
1764505255.2360196,20264.22,-14590.44,-10808.055,-18230.985,-29924.865,-52364.115,-26296.695,-26950.005
1764505255.2360196,20264.13,-14589.99,-10807.965,-18230.535,-29924.64,-52364.43,-26296.02,-26949.42
1764505255.2370117,20265.795,-14588.37,-10806.12,-18229.455,-29922.57,-52362.72,-26294.715,-26947.575
1764505255.2370117,20269.08,-14585.04,-10803.015,-18225.855,-29919.915,-52360.29,-26291.745,-26944.695
1764505255.2370117,20266.47,-14587.74,-10805.85,-18228.195,-29923.065,-52363.125,-26293.815,-26947.665
1764505255.2370117,20268.405,-14585.535,-10803.69,-18225.72,-29920.77,-52360.92,-26291.835,-26945.505
1764505255.2370117,20263.41,-14590.17,-10808.37,-18230.04,-29925.45,-52365.015,-26296.65,-26950.32
1764505255.2798965,20264.58,-14589.675,-10807.515,-18228.96,-29924.55,-52363.755,-26295.66,-26949.195
1764505255.2798965,20268.81,-14586.57,-10804.59,-18225.765,-29921.175,-52360.83,-26292.015,-26945.64
1764505255.2798965,20266.2,-14589.36,-10806.975,-18228.285,-29923.335,-52363.665,-26293.995,-26948.115
1764505255.2798965,20268.585,-14586.21,-10803.915,-18225.945,-29920.815,-52361.19,-26291.25,-26945.91
1764505255.2804055,20266.83,-14587.515,-10805.49,-18227.43,-29922.255,-52362.72,-26293.23,-26947.665
1764505255.2804055,20268.9,-14585.49,-10803.645,-18224.82,-29920.275,-52360.47,-26290.845,-26946.045
1764505255.2804055,20265.93,-14588.865,-10806.48,-18227.565,-29923.155,-52363.395,-26293.185,-26949.33
1764505255.2804055,20267.145,-14587.335,-10804.86,-18227.07,-29921.58,-52362.27,-26292.465,-26947.755
1764505255.2804055,20270.25,-14583.555,-10801.35,-18223.605,-29917.98,-52358.985,-26289.09,-26944.425
1764505255.2804055,20265.255,-14588.955,-10806.48,-18228.51,-29922.255,-52363.26,-26293.005,-26950.095
1764505255.2804055,20265.48,-14588.64,-10806.66,-18227.88,-29922.075,-52363.35,-26292.78,-26949.33
1764505255.2804055,20268.0,-14586.3,-10804.365,-18225.855,-29920.77,-52361.55,-26291.025,-26946.99
1764505255.2804055,20271.78,-14582.475,-10800.63,-18222.57,-29916.81,-52358.22,-26287.38,-26943.345
1764505255.2804055,20270.205,-14583.465,-10801.395,-18223.02,-29917.395,-52359.705,-26288.28,-26944.56
1764505255.2804055,20267.235,-14586.12,-10802.925,-18224.505,-29918.52,-52360.965,-26289.765,-26946.225
1764505255.2804055,20270.295,-14584.05,-10801.665,-18222.615,-29917.62,-52360.2,-26288.955,-26944.65
1764505255.2804055,20267.865,-14586.12,-10803.96,-18225.09,-29920.545,-52362.63,-26291.79,-26946.855
1764505255.2804055,20270.475,-14583.69,-10801.44,-18222.66,-29917.62,-52359.975,-26288.82,-26943.93
1764505255.2804055,20269.08,-14585.265,-10802.205,-18223.695,-29918.835,-52361.73,-26289.09,-26945.055
1764505255.2804055,20266.155,-14588.55,-10804.995,-18226.62,-29921.58,-52365.195,-26292.915,-26947.8
1764505255.2804055,20263.995,-14590.845,-10807.065,-18228.69,-29923.83,-52366.59,-26294.535,-26950.14
1764505255.2804055,20265.03,-14588.685,-10805.355,-18227.745,-29922.255,-52364.97,-26292.24,-26948.655
1764505255.3282278,20264.355,-14589.945,-10805.85,-18228.915,-29923.155,-52365.735,-26293.455,-26949.51
1764505255.328765,20261.88,-14592.195,-10808.595,-18231.03,-29925.315,-52368.165,-26296.245,-26952.705
1764505255.328765,20263.545,-14590.44,-10806.435,-18229.275,-29922.75,-52366.5,-26294.67,-26951.13
1764505255.328765,20261.16,-14593.41,-10809.27,-18232.155,-29925.855,-52369.245,-26297.19,-26954.01
1764505255.328765,20263.815,-14590.935,-10806.705,-18229.995,-29923.74,-52367.31,-26294.805,-26951.31
1764505255.328765,20265.03,-14590.125,-10805.895,-18228.69,-29922.39,-52365.87,-26293.59,-26950.365
1764505255.328765,20264.22,-14591.025,-10806.705,-18229.545,-29923.11,-52366.68,-26293.995,-26951.895
1764505255.328765,20258.595,-14595.705,-10811.655,-18234.855,-29928.105,-52372.305,-26300.295,-26956.305
1764505255.328765,20258.775,-14596.245,-10811.97,-18234.855,-29929.185,-52372.62,-26300.655,-26955.99
1764505255.328765,20259.36,-14595.84,-10811.025,-18234.27,-29928.645,-52371.945,-26299.62,-26956.755
1764505255.328765,20262.69,-14592.51,-10807.605,-18231.345,-29925.945,-52368.84,-26295.975,-26953.695
1764505255.328765,20260.395,-14594.58,-10809.315,-18233.46,-29928.42,-52370.865,-26297.505,-26955.81
1764505255.328765,20261.475,-14594.22,-10808.325,-18232.92,-29927.205,-52370.235,-26297.1,-26954.955
1764505255.328765,20264.085,-14592.285,-10806.615,-18230.715,-29924.19,-52368.12,-26294.805,-26952.705
1764505255.328765,20259.9,-14595.435,-10810.125,-18234.585,-29928.33,-52371.765,-26298.0,-26955.63
1764505255.328765,20260.755,-14594.49,-10808.955,-18233.955,-29927.79,-52371.315,-26297.28,-26954.91
1764505255.330344,20265.84,-14589.27,-10804.365,-18228.69,-29922.84,-52366.32,-26291.88,-26949.51
1764505255.330344,20264.805,-14590.305,-10804.905,-18229.14,-29924.235,-52366.995,-26292.69,-26950.455
1764505255.330344,20263.455,-14590.53,-10805.13,-18229.32,-29924.865,-52367.895,-26293.59,-26951.58
1764505255.330344,20259.54,-14593.86,-10808.685,-18233.28,-29928.78,-52371.45,-26297.64,-26955.99
1764505255.330344,20263.86,-14590.17,-10804.995,-18229.545,-29925.45,-52366.995,-26293.68,-26952.615
1764505255.330344,20263.32,-14589.99,-10804.68,-18229.365,-29925.0,-52366.86,-26292.78,-26951.715
1764505255.330344,20260.26,-14593.05,-10807.92,-18232.605,-29926.71,-52369.695,-26295.75,-26954.505
1764505255.330344,20259.495,-14594.13,-10809.09,-18233.415,-29927.565,-52370.685,-26296.965,-26955.63
1764505255.375537,20260.08,-14593.725,-10808.685,-18232.695,-29927.385,-52369.335,-26296.2,-26954.685
1764505255.375537,20263.86,-14589.945,-10804.365,-18227.745,-29923.065,-52365.015,-26291.655,-26949.87
1764505255.375537,20265.255,-14588.46,-10802.835,-18226.44,-29922.48,-52364.34,-26290.665,-26948.745
1764505255.375537,20261.475,-14591.295,-10806.12,-18229.59,-29926.125,-52368.03,-26294.31,-26952.3
1764505255.375537,20258.145,-14594.76,-10809.63,-18233.055,-29928.78,-52371.045,-26296.605,-26955.27
1764505255.375537,20262.105,-14591.61,-10805.895,-18229.05,-29924.775,-52366.815,-26293.005,-26951.805
1764505255.375537,20261.745,-14592.105,-10806.345,-18229.545,-29925.27,-52367.49,-26294.445,-26952.165
1764505255.375537,20257.38,-14595.84,-10810.395,-18233.595,-29929.635,-52371.495,-26298.315,-26956.665
1764505255.375537,20256.345,-14596.74,-10810.935,-18234.09,-29929.815,-52371.99,-26298.36,-26957.07
1764505255.3765688,20257.92,-14595.12,-10809.0,-18232.695,-29927.745,-52370.28,-26296.47,-26955.135
1764505255.3765688,20261.07,-14591.16,-10805.22,-18229.365,-29925.09,-52366.95,-26293.545,-26951.805
1764505255.3765688,20258.505,-14593.86,-10807.38,-18231.12,-29927.16,-52369.38,-26295.57,-26953.785
1764505255.3765688,20261.205,-14591.385,-10805.085,-18228.015,-29924.685,-52367.13,-26292.33,-26951.175
1764505255.3765688,20257.83,-14594.985,-10809.135,-18231.84,-29928.195,-52370.415,-26295.57,-26954.595
1764505255.3765688,20258.01,-14594.805,-10808.82,-18231.705,-29928.195,-52370.73,-26295.21,-26954.64
1764505255.3765688,20259.72,-14592.78,-10806.39,-18229.635,-29926.305,-52368.705,-26293.545,-26952.75
1764505255.3765688,20263.5,-14588.37,-10802.97,-18225.495,-29922.75,-52364.61,-26290.17,-26948.79
1764505255.3765688,20263.77,-14587.02,-10801.845,-18224.145,-29921.355,-52363.89,-26289.27,-26948.385
1764505255.3765688,20262.735,-14588.28,-10802.43,-18224.55,-29921.895,-52364.97,-26289.99,-26949.645
1764505255.3765688,20259.135,-14592.555,-10806.165,-18228.735,-29926.08,-52368.84,-26293.59,-26953.02
1764505255.3765688,20260.125,-14592.78,-10806.255,-18228.825,-29926.125,-52368.75,-26293.5,-26952.525
1764505255.3765688,20263.32,-14589.0,-10802.52,-18225.675,-29921.94,-52365.285,-26290.08,-26949.33
1764505255.3765688,20264.4,-14587.83,-10801.845,-18224.505,-29921.49,-52364.61,-26288.28,-26948.34
1764505255.3765688,20262.105,-14589.54,-10803.69,-18226.53,-29923.695,-52366.77,-26289.54,-26950.725
1764505255.4219189,20260.8,-14590.305,-10804.815,-18227.565,-29924.055,-52367.625,-26291.07,-26951.895
1764505255.4219189,20257.875,-14593.59,-10807.92,-18230.355,-29927.205,-52370.55,-26294.895,-26955.045
1764505255.4219189,20257.92,-14593.68,-10808.64,-18230.31,-29927.745,-52370.19,-26294.445,-26955.0
1764505255.4219189,20257.83,-14593.32,-10808.19,-18229.545,-29927.385,-52369.155,-26293.77,-26954.955
1764505255.4219189,20261.025,-14590.305,-10805.04,-18227.295,-29924.73,-52366.545,-26290.845,-26951.49
1764505255.4219189,20259.855,-14592.015,-10805.715,-18228.555,-29925.72,-52367.22,-26291.97,-26952.84
1764505255.4219189,20262.87,-14588.595,-10801.98,-18225.045,-29921.94,-52363.305,-26287.875,-26948.52
1764505255.4219189,20263.095,-14587.83,-10801.17,-18224.37,-29921.13,-52362.72,-26286.705,-26947.62
1764505255.4219189,20263.455,-14586.885,-10800.405,-18223.695,-29920.455,-52362.855,-26286.12,-26947.08
1764505255.4219189,20261.7,-14588.415,-10801.98,-18225.225,-29922.03,-52364.52,-26287.83,-26949.24
1764505255.4219189,20262.78,-14587.695,-10801.26,-18223.515,-29921.49,-52363.305,-26287.065,-26948.295
1764505255.4219189,20261.925,-14588.505,-10801.62,-18223.965,-29920.815,-52363.305,-26286.75,-26948.115
1764505255.4219189,20258.595,-14591.835,-10804.905,-18228.105,-29923.695,-52366.095,-26289.72,-26951.94
1764505255.4219189,20258.46,-14592.42,-10804.545,-18227.34,-29923.605,-52366.365,-26290.17,-26952.075
1764505255.4219189,20259.675,-14589.81,-10803.015,-18225.45,-29921.58,-52364.43,-26289.045,-26950.005
1764505255.4219189,20258.145,-14592.105,-10805.13,-18227.655,-29923.965,-52366.635,-26291.43,-26953.605
1764505255.4219189,20258.55,-14592.645,-10804.59,-18226.755,-29923.515,-52366.635,-26290.395,-26953.11
1764505255.4219189,20259.81,-14590.485,-10802.655,-18224.865,-29922.21,-52364.925,-26288.955,-26951.31
1764505255.4219189,20262.78,-14587.065,-10799.415,-18221.04,-29918.655,-52361.64,-26284.41,-26947.755
1764505255.422915,20259.18,-14590.08,-10801.935,-18224.055,-29921.67,-52364.79,-26286.84,-26950.815
1764505255.422915,20255.085,-14594.22,-10805.535,-18228.015,-29926.035,-52369.29,-26291.34,-26955.045
1764505255.422915,20253.96,-14595.48,-10807.155,-18229.365,-29926.665,-52369.83,-26292.195,-26955.585
1764505255.422915,20254.95,-14595.21,-10807.11,-18228.24,-29926.17,-52369.425,-26291.7,-26954.235
1764505255.422915,20256.435,-14594.445,-10805.58,-18227.79,-29925.09,-52368.255,-26290.71,-26953.245
1764505255.4686675,20257.245,-14593.185,-10804.095,-18227.07,-29924.73,-52367.13,-26289.855,-26952.66
1764505255.4686675,20256.615,-14593.095,-10804.455,-18226.89,-29924.01,-52366.5,-26289.72,-26952.57
1764505255.4686675,20260.035,-14588.595,-10800.54,-18223.02,-29920.545,-52362.405,-26285.355,-26948.925
1764505255.4686675,20261.385,-14587.155,-10799.28,-18222.03,-29919.42,-52361.055,-26283.735,-26947.71
1764505255.4686675,20261.565,-14586.39,-10799.19,-18220.95,-29918.43,-52361.55,-26283.15,-26946.495
1764505255.4686675,20258.595,-14589.27,-10802.16,-18223.425,-29920.545,-52364.385,-26285.355,-26949.195
1764505255.4686675,20254.86,-14593.185,-10806.12,-18227.475,-29924.595,-52367.355,-26288.73,-26953.245
1764505255.4686675,20254.905,-14593.59,-10806.435,-18228.015,-29924.955,-52367.715,-26289.045,-26953.155
1764505255.4686675,20255.22,-14593.14,-10805.805,-18227.34,-29924.055,-52366.905,-26287.965,-26953.02
1764505255.4686675,20256.255,-14591.925,-10803.69,-18226.305,-29922.57,-52365.645,-26286.48,-26952.075
1764505255.4686675,20258.73,-14588.55,-10800.585,-18222.66,-29919.78,-52362.495,-26283.78,-26948.88
1764505255.4686675,20256.345,-14590.395,-10802.655,-18225.135,-29921.67,-52364.475,-26286.12,-26951.04
1764505255.4696617,20259.99,-14587.245,-10799.145,-18221.22,-29918.79,-52361.64,-26283.285,-26947.89
1764505255.4696617,20260.755,-14586.255,-10798.11,-18219.87,-29918.205,-52360.605,-26282.205,-26946.855
1764505255.4696617,20260.665,-14586.795,-10798.605,-18219.825,-29918.52,-52360.74,-26282.205,-26947.755
1764505255.4696617,20255.805,-14592.195,-10804.275,-18225.405,-29923.65,-52365.42,-26287.65,-26952.345
1764505255.4696617,20256.57,-14592.105,-10803.78,-18225.0,-29923.02,-52364.655,-26287.155,-26951.49
1764505255.4696617,20257.83,-14591.475,-10802.34,-18224.28,-29921.715,-52363.71,-26285.805,-26950.59
1764505255.4696617,20260.755,-14588.235,-10799.415,-18220.77,-29918.565,-52360.74,-26282.61,-26947.125
1764505255.4696617,20259.81,-14588.955,-10800.27,-18222.435,-29919.555,-52361.505,-26283.78,-26947.575
1764505255.4696617,20257.605,-14591.34,-10802.7,-18224.775,-29922.795,-52363.845,-26286.255,-26949.96
1764505255.4696617,20258.145,-14590.215,-10802.52,-18223.695,-29921.49,-52362.135,-26285.58,-26949.42
1764505255.5148883,20261.97,-14586.345,-10798.695,-18219.285,-29917.125,-52358.265,-26281.845,-26945.64
1764505255.5148883,20262.285,-14585.49,-10796.94,-18218.07,-29916.045,-52357.815,-26280.765,-26943.84
1764505255.5148883,20263.14,-14585.13,-10796.22,-18217.17,-29915.415,-52356.645,-26280.045,-26943.48
1764505255.5148883,20262.6,-14586.255,-10797.12,-18218.745,-29916.495,-52357.59,-26281.71,-26944.47
1764505255.5148883,20262.87,-14585.67,-10796.895,-18218.925,-29915.55,-52357.275,-26280.99,-26944.155
1764505255.5148883,20262.375,-14586.345,-10797.03,-18218.52,-29916.09,-52357.365,-26280.72,-26944.65
1764505255.5148883,20261.025,-14587.965,-10798.245,-18219.915,-29917.935,-52358.715,-26282.475,-26945.775
1764505255.5148883,20262.645,-14585.895,-10796.265,-18217.98,-29915.955,-52356.51,-26280.27,-26943.93
1764505255.5154617,20261.025,-14587.695,-10798.38,-18219.69,-29917.575,-52358.13,-26282.52,-26946.405
1764505255.5154617,20262.96,-14585.625,-10796.175,-18217.62,-29915.55,-52356.42,-26280.315,-26944.065
1764505255.5154617,20260.44,-14588.505,-10798.92,-18219.735,-29918.79,-52359.48,-26283.465,-26946.36
1764505255.5154617,20261.16,-14588.235,-10798.425,-18218.745,-29917.755,-52358.94,-26282.835,-26946.225
1764505255.5154617,20264.22,-14584.905,-10794.87,-18215.955,-29913.93,-52355.88,-26279.415,-26943.03
1764505255.516461,20260.53,-14588.01,-10798.92,-18219.6,-29917.485,-52358.67,-26282.475,-26945.865
1764505255.516461,20262.15,-14586.12,-10797.615,-18218.835,-29916.0,-52357.5,-26281.215,-26944.65
1764505255.516461,20260.44,-14588.64,-10799.235,-18220.095,-29918.565,-52359.12,-26283.375,-26947.17
1764505255.516461,20263.32,-14584.905,-10795.59,-18216.855,-29914.92,-52356.06,-26279.505,-26943.93
1764505255.516461,20262.78,-14584.32,-10794.33,-18215.955,-29914.29,-52355.52,-26279.19,-26943.165
1764505255.516461,20260.89,-14586.345,-10796.22,-18217.755,-29916.18,-52357.725,-26281.35,-26944.92
1764505255.516461,20258.955,-14588.595,-10798.11,-18219.375,-29918.34,-52360.335,-26283.51,-26946.99
1764505255.516461,20262.06,-14584.95,-10794.6,-18216.045,-29915.955,-52356.96,-26280.45,-26943.795
1764505255.516461,20262.51,-14584.59,-10794.42,-18215.73,-29915.415,-52356.285,-26279.64,-26943.39
1764505255.516461,20261.97,-14585.13,-10795.32,-18216.135,-29915.55,-52356.555,-26279.865,-26944.11
1764505255.516461,20260.53,-14586.39,-10796.49,-18217.62,-29916.135,-52358.04,-26280.54,-26945.19
1764505255.5616653,20260.62,-14586.12,-10796.445,-18217.755,-29915.73,-52357.995,-26279.955,-26944.92
1764505255.5616653,20260.485,-14586.885,-10796.805,-18217.665,-29915.91,-52358.67,-26280.765,-26945.28
1764505255.5616653,20259.99,-14587.38,-10797.165,-18217.53,-29916.495,-52359.21,-26280.945,-26944.785
1764505255.562683,20256.885,-14589.72,-10798.83,-18219.285,-29919.375,-52361.865,-26283.285,-26947.17
1764505255.562683,20254.275,-14591.97,-10801.665,-18221.4,-29921.76,-52364.07,-26285.67,-26949.915
1764505255.562683,20257.83,-14587.92,-10797.705,-18218.52,-29918.565,-52360.47,-26281.305,-26947.125
1764505255.562683,20254.995,-14590.845,-10800.135,-18222.03,-29921.355,-52363.53,-26284.14,-26950.32
1764505255.562683,20255.31,-14590.845,-10800.315,-18221.94,-29921.265,-52363.44,-26284.185,-26949.915
1764505255.562683,20256.075,-14590.755,-10799.235,-18220.815,-29920.275,-52362.855,-26282.79,-26949.06
1764505255.562683,20251.17,-14595.12,-10803.33,-18225.27,-29924.775,-52367.4,-26286.93,-26952.795
1764505255.562683,20253.6,-14592.375,-10801.17,-18222.66,-29922.03,-52364.475,-26283.915,-26950.365
1764505255.562683,20252.07,-14594.49,-10803.015,-18224.37,-29922.84,-52366.005,-26285.94,-26952.345
1764505255.562683,20251.35,-14594.715,-10803.015,-18224.73,-29923.425,-52365.645,-26286.255,-26953.155
1764505255.562683,20250.9,-14594.445,-10802.7,-18225.18,-29923.29,-52365.87,-26286.525,-26953.515
1764505255.562683,20251.485,-14593.59,-10802.565,-18224.82,-29922.345,-52365.465,-26285.58,-26952.75
1764505255.562683,20253.33,-14591.925,-10800.09,-18222.075,-29920.14,-52362.81,-26282.79,-26950.815
1764505255.562683,20257.155,-14588.91,-10796.625,-18218.205,-29916.765,-52359.39,-26279.415,-26946.855
1764505255.562683,20255.355,-14590.845,-10799.055,-18220.68,-29919.195,-52361.865,-26281.215,-26949.015
1764505255.562683,20255.94,-14589.855,-10797.975,-18219.78,-29918.655,-52360.695,-26280.36,-26948.295
1764505255.562683,20251.485,-14594.76,-10802.07,-18224.325,-29922.615,-52365.015,-26285.13,-26951.67
1764505255.562683,20252.97,-14593.815,-10801.08,-18223.2,-29921.715,-52363.845,-26284.815,-26950.725
1764505255.562683,20255.985,-14590.665,-10797.525,-18220.095,-29918.385,-52360.92,-26281.53,-26948.475
1764505255.6076918,20252.88,-14593.095,-10800.63,-18222.57,-29921.04,-52363.395,-26283.915,-26951.04
1764505255.6076918,20253.645,-14592.105,-10800.765,-18221.67,-29920.5,-52363.215,-26283.285,-26950.68
1764505255.6087132,20257.83,-14587.74,-10796.58,-18217.44,-29916.675,-52359.075,-26279.37,-26946.54
1764505255.6087132,20257.965,-14587.92,-10796.04,-18217.17,-29915.55,-52358.22,-26278.965,-26946.27
1764505255.6087132,20256.255,-14589.54,-10797.615,-18218.43,-29916.9,-52360.47,-26280.945,-26947.8
1764505255.6087132,20256.66,-14589.45,-10797.03,-18217.98,-29917.08,-52360.335,-26280.495,-26947.935
1764505255.609714,20255.85,-14590.35,-10797.615,-18218.565,-29918.07,-52360.83,-26281.17,-26948.43
1764505255.609714,20252.07,-14594.355,-10801.665,-18223.11,-29921.985,-52364.565,-26284.815,-26951.85
1764505255.609714,20256.885,-14589.495,-10796.895,-18218.52,-29917.755,-52360.515,-26280.81,-26947.53
1764505255.6103034,20257.38,-14588.955,-10796.355,-18217.215,-29916.225,-52358.985,-26279.46,-26946.09
1764505255.6103034,20257.2,-14588.82,-10796.085,-18216.855,-29915.865,-52359.12,-26279.055,-26945.73
1764505255.6103034,20256.75,-14588.91,-10795.95,-18217.26,-29916.585,-52360.065,-26279.28,-26946.045
1764505255.6103034,20255.85,-14589.72,-10797.435,-18218.97,-29917.575,-52361.505,-26280.495,-26947.08
1764505255.6103034,20253.69,-14592.15,-10799.685,-18220.365,-29918.88,-52362.27,-26282.16,-26948.88
1764505255.6103034,20257.155,-14589.405,-10796.625,-18217.08,-29915.865,-52359.255,-26279.46,-26945.685
1764505255.6103034,20257.605,-14588.46,-10795.815,-18216.855,-29914.74,-52358.67,-26278.245,-26944.605
1764505255.6113226,20256.48,-14589.675,-10796.805,-18218.61,-29916.72,-52359.885,-26279.46,-26945.955
1764505255.6113226,20252.52,-14593.455,-10800.855,-18222.39,-29920.095,-52363.395,-26282.43,-26949.465
1764505255.6113226,20252.745,-14593.68,-10801.125,-18222.705,-29921.04,-52364.07,-26282.835,-26949.69
1764505255.6113226,20253.555,-14592.465,-10799.28,-18221.265,-29920.05,-52362.765,-26281.305,-26948.43
1764505255.6113226,20257.785,-14589.045,-10795.815,-18217.53,-29916.315,-52358.76,-26277.165,-26945.37
1764505255.6113226,20258.73,-14588.595,-10795.32,-18216.54,-29915.595,-52358.13,-26276.4,-26944.515
1764505255.6113226,20257.02,-14589.675,-10796.49,-18218.43,-29916.945,-52359.705,-26278.02,-26945.955
1764505255.6113226,20253.24,-14593.23,-10800.405,-18221.625,-29920.68,-52363.215,-26280.99,-26948.925
1764505255.654889,20252.745,-14593.68,-10800.495,-18222.165,-29921.49,-52363.44,-26281.44,-26949.06
1764505255.654889,20254.68,-14591.745,-10798.02,-18220.095,-29919.195,-52361.955,-26279.505,-26947.44
1764505255.654889,20258.055,-14588.37,-10794.915,-18216.405,-29915.775,-52358.715,-26276.895,-26944.83
1764505255.654889,20257.425,-14588.325,-10796.04,-18217.62,-29917.125,-52359.3,-26277.705,-26946.405
1764505255.654889,20255.985,-14589.675,-10797.48,-18218.565,-29918.79,-52360.245,-26279.415,-26947.62
1764505255.654889,20253.42,-14592.51,-10799.73,-18220.77,-29920.77,-52362.495,-26280.765,-26949.915
1764505255.654889,20255.715,-14590.395,-10797.39,-18218.745,-29918.43,-52360.2,-26278.29,-26947.575
1764505255.6555831,20253.195,-14592.69,-10799.19,-18220.545,-29920.545,-52362.27,-26280.45,-26949.06
1764505255.6555831,20253.42,-14592.96,-10798.83,-18220.275,-29920.095,-52361.955,-26280.315,-26949.15
1764505255.6555831,20256.885,-14589.63,-10795.815,-18216.495,-29916.81,-52358.49,-26277.795,-26946.045
1764505255.6555831,20255.355,-14591.565,-10797.66,-18218.79,-29918.655,-52360.02,-26279.64,-26947.44
1764505255.6555831,20252.16,-14594.445,-10799.82,-18221.49,-29921.445,-52362.27,-26282.25,-26949.69
1764505255.6555831,20255.085,-14591.61,-10797.075,-18217.62,-29918.52,-52359.48,-26279.325,-26947.395
1764505255.6555831,20252.925,-14593.635,-10799.235,-18220.005,-29920.86,-52362.405,-26280.9,-26949.915
1764505255.6555831,20249.505,-14597.19,-10802.745,-18223.875,-29924.46,-52366.23,-26283.915,-26953.605
1764505255.6555831,20248.425,-14597.505,-10803.195,-18223.695,-29923.65,-52366.005,-26283.915,-26952.705
1764505255.6565838,20250.405,-14595.615,-10801.755,-18221.31,-29922.165,-52363.755,-26282.07,-26951.49
1764505255.6565838,20251.305,-14594.04,-10800.18,-18220.05,-29920.635,-52362.09,-26280.63,-26950.095
1764505255.6565838,20253.375,-14591.565,-10797.255,-18217.53,-29918.205,-52359.795,-26277.795,-26947.89
1764505255.6565838,20252.025,-14592.465,-10798.47,-18217.98,-29919.465,-52360.83,-26279.19,-26949.51
1764505255.6565838,20254.32,-14589.765,-10796.355,-18215.775,-29918.115,-52358.805,-26277.21,-26946.765
1764505255.6565838,20254.365,-14589.54,-10796.265,-18215.19,-29917.89,-52359.165,-26276.715,-26946.72
1764505255.6565838,20253.105,-14591.97,-10797.93,-18217.125,-29919.465,-52361.28,-26278.47,-26948.655
1764505255.6565838,20250.81,-14593.32,-10799.505,-18218.07,-29921.04,-52362.225,-26279.37,-26949.915
1764505255.7026732,20248.11,-14595.435,-10802.025,-18220.365,-29923.83,-52364.475,-26282.205,-26951.94
1764505255.7026732,20249.1,-14595.345,-10801.44,-18219.78,-29922.705,-52363.215,-26281.98,-26951.625
1764505255.7041843,20250.855,-14593.185,-10799.235,-18217.665,-29920.545,-52361.19,-26279.73,-26949.645
1764505255.7041843,20247.03,-14597.01,-10802.655,-18221.49,-29924.235,-52364.475,-26283.06,-26952.975
1764505255.7041843,20246.985,-14598.18,-10803.015,-18222.165,-29924.73,-52364.97,-26284.095,-26954.055
1764505255.7041843,20247.795,-14597.415,-10802.61,-18221.265,-29924.64,-52364.07,-26282.97,-26953.02
1764505255.7041843,20248.335,-14596.2,-10801.53,-18220.14,-29923.38,-52362.765,-26281.215,-26951.895
1764505255.7041843,20251.62,-14592.645,-10797.84,-18217.485,-29920.005,-52359.705,-26277.75,-26948.655
1764505255.7041843,20250.945,-14592.915,-10797.705,-18217.575,-29919.735,-52359.48,-26278.29,-26949.015
1764505255.7041843,20246.31,-14597.82,-10802.79,-18222.66,-29925.225,-52364.115,-26282.34,-26953.83
1764505255.7041843,20247.075,-14596.83,-10802.16,-18221.715,-29924.505,-52363.8,-26281.485,-26952.975
1764505255.7041843,20249.685,-14594.445,-10799.01,-18218.925,-29921.49,-52361.415,-26278.92,-26950.365
1764505255.7047193,20246.355,-14597.82,-10802.52,-18221.715,-29924.595,-52364.565,-26281.665,-26954.19
1764505255.7047193,20244.51,-14599.845,-10804.59,-18223.29,-29925.9,-52366.23,-26283.465,-26955.945
1764505255.7047193,20247.03,-14597.1,-10802.205,-18221.265,-29923.155,-52363.305,-26281.305,-26953.47
1764505255.7047193,20246.355,-14597.64,-10802.43,-18222.345,-29924.1,-52363.89,-26281.665,-26953.29
1764505255.7047193,20249.505,-14593.86,-10799.055,-18218.115,-29920.185,-52360.515,-26277.39,-26949.78
1764505255.7047193,20249.37,-14594.04,-10798.92,-18217.755,-29920.365,-52360.875,-26277.345,-26949.915
1764505255.7047193,20249.235,-14595.03,-10798.83,-18218.61,-29921.13,-52361.55,-26278.29,-26950.41
1764505255.7047193,20245.995,-14597.73,-10802.43,-18221.94,-29924.64,-52364.52,-26281.665,-26954.1
1764505255.7047193,20249.955,-14593.77,-10798.47,-18217.71,-29920.365,-52361.19,-26277.795,-26949.915
1764505255.7047193,20249.28,-14593.95,-10798.38,-18218.07,-29921.04,-52361.145,-26278.605,-26950.14
1764505255.7047193,20247.795,-14595.255,-10799.955,-18219.105,-29922.39,-52362.72,-26280.0,-26951.715
1764505255.7047193,20251.125,-14592.87,-10797.3,-18216.315,-29919.465,-52359.75,-26276.85,-26948.295
1764505255.7491522,20247.255,-14596.29,-10800.765,-18220.635,-29923.02,-52363.44,-26280.405,-26952.12
1764505255.7491522,20246.985,-14596.29,-10799.955,-18220.095,-29922.705,-52362.99,-26279.955,-26951.715
1764505255.7491522,20250.72,-14593.545,-10797.03,-18217.08,-29919.24,-52359.48,-26276.49,-26948.16
1764505255.7491522,20250.135,-14595.21,-10798.38,-18218.295,-29920.32,-52360.29,-26277.75,-26949.96
1764505255.7491522,20252.97,-14592.195,-10796.04,-18215.19,-29918.205,-52357.23,-26275.59,-26947.755
1764505255.7491522,20249.235,-14595.57,-10799.415,-18218.25,-29921.04,-52359.615,-26279.415,-26951.04
1764505255.7491522,20247.03,-14598.045,-10801.755,-18220.545,-29923.515,-52362.36,-26281.08,-26953.605
1764505255.7491522,20248.92,-14596.11,-10799.19,-18218.565,-29921.22,-52360.065,-26279.055,-26951.625
1764505255.7491522,20245.77,-14599.395,-10802.34,-18221.895,-29924.28,-52363.395,-26282.25,-26954.415
1764505255.7491522,20246.265,-14598.99,-10802.745,-18221.715,-29924.055,-52363.755,-26282.205,-26954.235
1764505255.7491522,20246.805,-14598.855,-10802.07,-18220.995,-29923.965,-52363.8,-26282.07,-26954.055
1764505255.7491522,20245.545,-14599.755,-10802.88,-18222.57,-29924.415,-52364.475,-26283.24,-26954.955
1764505255.7491522,20245.905,-14599.845,-10802.88,-18222.66,-29924.28,-52364.52,-26283.15,-26955.315
1764505255.7491522,20247.075,-14598.63,-10801.71,-18221.355,-29922.93,-52363.755,-26281.755,-26953.83
1764505255.7491522,20250.855,-14594.715,-10798.02,-18217.62,-29919.735,-52359.39,-26278.515,-26949.645
1764505255.749684,20248.245,-14596.92,-10800.225,-18220.005,-29921.895,-52361.685,-26281.44,-26951.895
1764505255.749684,20244.87,-14600.07,-10803.555,-18223.515,-29924.82,-52364.655,-26284.59,-26955.405
1764505255.749684,20244.105,-14601.735,-10804.365,-18224.415,-29925.9,-52365.69,-26284.995,-26956.485
1764505255.749684,20243.52,-14601.87,-10803.6,-18223.785,-29925.54,-52365.78,-26284.77,-26956.44
1764505255.749684,20244.105,-14601.33,-10803.015,-18223.245,-29924.415,-52365.24,-26284.05,-26955.315
1764505255.749684,20245.905,-14599.035,-10800.405,-18221.13,-29921.625,-52363.305,-26282.07,-26953.38
1764505255.749684,20243.25,-14601.87,-10803.87,-18223.83,-29924.37,-52366.005,-26284.77,-26955.675
1764505255.7934277,20245.635,-14599.035,-10800.99,-18221.58,-29922.12,-52363.53,-26282.16,-26953.155
1764505255.7934277,20244.465,-14600.79,-10801.395,-18222.615,-29923.47,-52365.15,-26283.555,-26954.145
1764505255.7934277,20246.67,-14598.315,-10799.01,-18219.645,-29921.58,-52363.215,-26281.305,-26951.805
1764505255.7934277,20241.405,-14604.12,-10804.59,-18224.775,-29927.43,-52369.02,-26287.245,-26957.79
1764505255.7934277,20242.845,-14603.265,-10804.275,-18224.145,-29926.53,-52368.975,-26286.03,-26957.07
1764505255.7934277,20246.85,-14599.125,-10800.63,-18220.005,-29921.895,-52364.385,-26281.71,-26952.795
1764505255.7934277,20245.905,-14599.53,-10801.17,-18220.455,-29922.705,-52364.61,-26281.305,-26952.885
1764505255.7934277,20242.125,-14602.68,-10804.365,-18224.01,-29926.665,-52367.67,-26285.04,-26956.53
1764505255.7934277,20242.305,-14601.555,-10804.005,-18223.065,-29926.08,-52367.76,-26284.59,-26956.215
1764505255.7934277,20243.745,-14599.845,-10802.385,-18221.31,-29924.595,-52367.22,-26283.285,-26953.92
1764505255.7934277,20243.295,-14601.42,-10803.465,-18222.57,-29926.305,-52368.255,-26284.455,-26955.45
1764505255.7934277,20247.03,-14598.045,-10799.595,-18218.295,-29922.615,-52364.115,-26280.27,-26951.805
1764505255.7934277,20246.22,-14598.54,-10800.765,-18219.015,-29923.47,-52364.745,-26280.945,-26952.57
1764505255.7934277,20241.72,-14603.22,-10805.985,-18223.83,-29927.52,-52369.155,-26285.49,-26957.16
1764505255.7934277,20244.6,-14600.925,-10803.42,-18221.265,-29924.775,-52366.68,-26283.69,-26955.09
1764505255.7934277,20243.565,-14601.42,-10803.555,-18221.355,-29925.495,-52367.31,-26283.645,-26955.09
1764505255.7934277,20243.07,-14601.69,-10804.545,-18222.48,-29925.945,-52368.255,-26283.96,-26956.305
1764505255.7934277,20241.675,-14603.625,-10805.67,-18224.505,-29927.115,-52369.38,-26285.85,-26958.06
1764505255.7934277,20239.335,-14606.325,-10807.74,-18226.53,-29929.815,-52372.44,-26288.415,-26960.31
1764505255.7944446,20242.305,-14602.815,-10804.545,-18223.11,-29927.07,-52369.47,-26285.67,-26956.935
1764505255.7944446,20241.63,-14603.67,-10804.815,-18223.83,-29928.015,-52370.505,-26286.39,-26957.835
1764505255.7944446,20240.46,-14606.055,-10806.75,-18225.585,-29930.22,-52371.9,-26288.19,-26959.86
1764505255.7944446,20244.96,-14601.195,-10803.105,-18221.85,-29925.99,-52367.58,-26283.555,-26955.36
1764505255.7944446,20244.645,-14601.555,-10803.555,-18222.525,-29925.855,-52367.85,-26283.78,-26955.63
1764505255.8423672,20244.285,-14601.78,-10804.095,-18221.715,-29926.17,-52368.12,-26284.14,-26955.945
1764505255.8423672,20243.295,-14603.175,-10805.445,-18222.525,-29927.25,-52369.425,-26285.94,-26956.98
1764505255.8423672,20241.225,-14605.155,-10808.1,-18225.045,-29929.59,-52371.045,-26288.28,-26959.23
1764505255.8423672,20243.385,-14603.22,-10805.805,-18222.345,-29927.295,-52368.795,-26286.615,-26957.34
1764505255.8423672,20243.835,-14602.68,-10805.265,-18222.03,-29926.44,-52368.39,-26286.48,-26957.43
1764505255.8423672,20243.79,-14602.455,-10804.59,-18222.57,-29925.81,-52368.39,-26285.94,-26956.44
1764505255.8423672,20244.24,-14602.905,-10804.815,-18223.065,-29925.405,-52368.885,-26285.805,-26956.17
1764505255.8433547,20244.42,-14602.995,-10804.59,-18222.795,-29925.315,-52368.975,-26285.085,-26956.44
1764505255.8433547,20245.635,-14601.015,-10803.105,-18220.545,-29923.56,-52367.22,-26283.33,-26955.27
1764505255.8433547,20245.095,-14601.465,-10803.42,-18221.265,-29924.73,-52367.445,-26284.365,-26955.405
1764505255.8433547,20244.78,-14602.005,-10804.23,-18221.49,-29925.405,-52368.21,-26285.49,-26955.99
1764505255.8433547,20241.63,-14605.515,-10807.515,-18224.235,-29927.97,-52370.82,-26288.73,-26958.78
1764505255.8433547,20245.5,-14602.14,-10804.23,-18220.905,-29924.415,-52367.85,-26285.13,-26955.0
1764505255.8433547,20245.455,-14602.23,-10803.96,-18220.905,-29923.74,-52367.355,-26285.22,-26955.27
1764505255.8433547,20245.77,-14602.23,-10804.14,-18221.265,-29923.785,-52367.355,-26285.22,-26955.855
1764505255.8433547,20244.15,-14603.265,-10805.445,-18221.985,-29925.855,-52368.345,-26286.705,-26956.665
1764505255.8433547,20241.585,-14605.965,-10807.02,-18224.37,-29928.375,-52370.595,-26289.27,-26959.005
1764505255.8433547,20241.81,-14605.02,-10806.255,-18224.145,-29927.07,-52369.92,-26288.595,-26959.275
1764505255.8433547,20245.095,-14601.78,-10803.015,-18220.95,-29923.56,-52366.68,-26285.94,-26956.08
1764505255.844346,20241.405,-14605.695,-10806.165,-18224.415,-29926.98,-52369.83,-26289.27,-26959.14
1764505255.844346,20245.77,-14601.96,-10802.655,-18220.995,-29923.92,-52366.365,-26286.255,-26955.495
1764505255.844346,20246.49,-14601.015,-10802.61,-18220.815,-29923.605,-52365.15,-26285.895,-26954.64
1764505255.8885033,20244.645,-14602.725,-10804.275,-18222.84,-29924.73,-52366.77,-26287.695,-26955.855
1764505255.8885033,20246.94,-14600.61,-10801.62,-18220.32,-29922.3,-52364.79,-26285.265,-26953.695
1764505255.8885033,20243.835,-14603.58,-10804.32,-18223.11,-29925.135,-52367.04,-26287.83,-26956.26
1764505255.8885033,20243.205,-14603.22,-10803.825,-18222.84,-29925.315,-52367.04,-26288.37,-26956.395
1764505255.8885033,20246.085,-14600.115,-10800.63,-18219.825,-29922.255,-52363.62,-26284.995,-26953.245
1764505255.8885033,20243.835,-14602.59,-10802.7,-18222.165,-29924.37,-52365.51,-26287.335,-26955.18
1764505255.8885033,20248.155,-14599.08,-10798.83,-18218.16,-29921.445,-52361.73,-26284.365,-26951.94
1764505255.8885033,20247.84,-14599.485,-10799.01,-18218.43,-29920.815,-52362.0,-26284.23,-26952.57
1764505255.8885033,20247.03,-14599.98,-10799.505,-18218.655,-29921.22,-52362.45,-26283.645,-26952.39
1764505255.8885033,20246.76,-14600.34,-10800.81,-18219.195,-29921.4,-52362.72,-26284.14,-26953.47
1764505255.8885033,20246.76,-14599.71,-10800.495,-18219.195,-29921.715,-52362.54,-26284.23,-26953.83
1764505255.8885033,20245.77,-14600.52,-10801.215,-18220.23,-29922.84,-52363.8,-26284.77,-26954.37
1764505255.8885033,20246.085,-14601.015,-10800.945,-18220.23,-29923.38,-52364.07,-26285.22,-26953.965
1764505255.8895333,20245.68,-14602.455,-10802.43,-18220.275,-29924.64,-52365.015,-26285.94,-26954.595
1764505255.8895333,20243.07,-14605.83,-10805.265,-18222.525,-29926.755,-52368.255,-26288.37,-26956.8
1764505255.8895333,20243.52,-14605.65,-10804.59,-18222.48,-29925.765,-52367.175,-26287.695,-26956.17
1764505255.8895333,20245.41,-14602.005,-10801.62,-18219.78,-29922.345,-52364.16,-26284.995,-26953.29
1764505255.8895333,20244.105,-14602.86,-10802.07,-18220.68,-29923.02,-52364.88,-26285.805,-26953.92
1764505255.8895333,20244.735,-14602.905,-10801.035,-18220.14,-29923.245,-52364.52,-26285.58,-26953.605
1764505255.8895333,20243.925,-14603.805,-10801.755,-18221.265,-29923.965,-52364.835,-26286.39,-26954.73
1764505255.8895333,20241.135,-14606.1,-10803.915,-18223.245,-29925.99,-52366.77,-26288.46,-26956.935
1764505255.8895333,20243.97,-14603.31,-10801.935,-18221.04,-29923.11,-52364.61,-26286.705,-26954.19
1764505255.8895333,20241.855,-14605.47,-10803.87,-18223.29,-29925.09,-52366.545,-26288.595,-26956.35
1764505255.8895333,20243.475,-14603.22,-10802.25,-18221.355,-29923.155,-52364.34,-26286.75,-26954.505
1764505255.9373305,20243.7,-14603.625,-10802.52,-18221.58,-29922.705,-52364.52,-26286.39,-26954.28
1764505255.9373305,20241.855,-14605.92,-10805.13,-18223.245,-29925.045,-52366.545,-26288.505,-26956.575
1764505255.9373305,20243.88,-14603.49,-10802.745,-18220.815,-29922.84,-52364.115,-26286.12,-26954.595
1764505255.9373305,20240.37,-14607.495,-10806.03,-18223.83,-29926.215,-52367.355,-26289.225,-26958.33
1764505255.9373305,20241.405,-14606.64,-10805.085,-18223.605,-29925.675,-52366.815,-26288.505,-26958.33
1764505255.9373305,20245.545,-14602.77,-10800.405,-18219.015,-29921.49,-52362.54,-26284.68,-26953.965
1764505255.9373305,20245.185,-14602.545,-10800.045,-18218.655,-29922.255,-52362.315,-26284.5,-26953.425
1764505255.9373305,20242.08,-14605.47,-10803.24,-18221.805,-29924.775,-52365.465,-26287.065,-26956.44
1764505255.9373305,20242.485,-14604.93,-10802.97,-18221.445,-29924.055,-52364.745,-26286.66,-26956.215
1764505255.9373305,20244.735,-14602.59,-10800.63,-18219.24,-29922.66,-52362.405,-26284.77,-26954.19
1764505255.9373305,20243.43,-14604.345,-10801.845,-18220.68,-29924.37,-52363.8,-26286.21,-26955.405
1764505255.9373305,20245.365,-14601.555,-10799.055,-18217.665,-29921.49,-52361.19,-26283.42,-26953.38
1764505255.9373305,20246.085,-14600.34,-10798.155,-18217.215,-29920.095,-52360.29,-26282.34,-26952.795
1764505255.9373305,20243.655,-14603.49,-10801.08,-18220.365,-29923.02,-52363.17,-26285.94,-26956.305
1764505255.9373305,20239.605,-14607.36,-10805.13,-18224.055,-29926.485,-52367.265,-26289.54,-26959.86
1764505255.9378402,20239.065,-14607.495,-10804.815,-18223.56,-29926.17,-52367.31,-26288.775,-26959.545
1764505255.9378402,20241.63,-14604.795,-10802.655,-18221.58,-29923.2,-52364.34,-26285.985,-26956.935
1764505255.9378402,20238.795,-14608.215,-10805.67,-18224.73,-29926.485,-52367.04,-26288.955,-26959.905
1764505255.9378402,20238.57,-14607.9,-10805.22,-18223.83,-29926.71,-52366.995,-26288.595,-26959.635
1764505255.9378402,20238.345,-14607.99,-10805.085,-18223.92,-29927.205,-52366.905,-26288.46,-26959.635
1764505255.9378402,20238.84,-14607.45,-10804.5,-18223.11,-29926.26,-52365.915,-26288.28,-26959.32
1764505255.9378402,20239.605,-14607.0,-10803.105,-18222.03,-29925.0,-52365.33,-26287.29,-26958.645
1764505255.9378402,20242.935,-14603.58,-10799.91,-18218.745,-29921.76,-52361.46,-26283.6,-26954.55
1764505255.9378402,20239.38,-14607.045,-10803.645,-18222.12,-29924.955,-52365.105,-26287.02,-26957.61
1764505255.9829285,20243.115,-14603.4,-10799.73,-18218.79,-29921.175,-52362.27,-26283.24,-26954.595
1764505255.9829285,20242.53,-14603.94,-10800.09,-18219.78,-29921.175,-52362.18,-26283.6,-26955.9
1764505255.9829285,20240.01,-14606.19,-10802.52,-18221.715,-29923.245,-52364.34,-26285.895,-26958.24
1764505255.9829285,20242.125,-14603.94,-10801.305,-18219.825,-29922.12,-52362.495,-26284.14,-26955.855
1764505255.9829285,20240.46,-14605.155,-10801.71,-18220.59,-29923.065,-52363.485,-26285.985,-26956.53
1764505255.9829285,20238.03,-14607.675,-10804.365,-18223.335,-29925.99,-52366.68,-26288.55,-26959.365
1764505255.9829285,20240.955,-14604.57,-10802.16,-18219.87,-29922.84,-52363.395,-26285.175,-26956.305
1764505255.9829285,20239.02,-14606.595,-10803.285,-18222.39,-29924.64,-52364.88,-26286.84,-26958.285
1764505255.9829285,20241.855,-14603.625,-10800.045,-18219.645,-29921.625,-52362.495,-26283.735,-26955.18
1764505255.9829285,20238.705,-14606.865,-10802.97,-18222.255,-29924.37,-52365.33,-26286.93,-26958.87
1764505255.9829285,20241.99,-14603.805,-10800.045,-18218.88,-29920.32,-52361.64,-26284.5,-26955.225
1764505255.9829285,20241.225,-14604.525,-10800.54,-18218.88,-29921.04,-52362.63,-26284.77,-26955.72
1764505255.9829285,20238.93,-14605.92,-10802.07,-18220.905,-29923.92,-52363.665,-26286.48,-26957.655
1764505255.9829285,20241.225,-14603.58,-10799.82,-18218.97,-29921.895,-52361.91,-26284.59,-26955.405
1764505255.9829285,20240.01,-14605.695,-10801.485,-18219.69,-29923.83,-52364.025,-26286.345,-26957.52
1764505255.984449,20240.82,-14604.075,-10800.99,-18218.295,-29922.615,-52362.765,-26285.085,-26956.665
1764505255.984449,20243.88,-14601.24,-10798.245,-18215.955,-29919.915,-52359.615,-26282.34,-26953.47
1764505255.984449,20244.24,-14601.105,-10797.39,-18215.415,-29919.78,-52359.255,-26281.845,-26952.84
1764505255.984449,20247.57,-14597.415,-10794.24,-18212.49,-29916.45,-52355.88,-26278.515,-26949.465
1764505255.984449,20245.23,-14599.62,-10796.67,-18215.055,-29918.79,-52358.265,-26280.855,-26951.4
1764505255.984449,20241.81,-14603.22,-10799.775,-18218.34,-29922.48,-52361.64,-26284.275,-26955.18
1764505255.984449,20244.105,-14601.42,-10797.84,-18215.505,-29919.78,-52359.345,-26282.655,-26952.39
1764505255.984449,20244.195,-14602.005,-10798.425,-18215.1,-29919.33,-52359.48,-26282.07,-26952.48
1764505255.984449,20243.07,-14603.265,-10799.01,-18216.405,-29920.095,-52361.01,-26283.375,-26954.055
1764505256.0244389,20241.36,-14604.525,-10799.64,-18217.89,-29921.58,-52361.91,-26284.77,-26955.18
1764505256.0244389,20238.66,-14606.865,-10802.115,-18220.14,-29923.92,-52364.52,-26288.01,-26957.565
1764505256.025459,20241.45,-14604.525,-10799.955,-18218.34,-29921.175,-52361.865,-26285.13,-26955.18
1764505256.025459,20239.29,-14606.19,-10802.205,-18220.68,-29922.93,-52363.8,-26286.93,-26956.17
1764505256.025459,20242.845,-14604.3,-10799.325,-18217.62,-29920.545,-52360.29,-26284.59,-26952.84
1764505256.025459,20242.035,-14605.29,-10800.045,-18218.52,-29921.355,-52360.965,-26286.03,-26954.145
1764505256.0264635,20241.495,-14604.75,-10800.315,-18218.88,-29921.355,-52361.91,-26285.535,-26954.595
1764505256.0264635,20239.11,-14607.405,-10803.42,-18221.76,-29924.055,-52365.465,-26288.235,-26958.105
1764505256.0264635,20239.56,-14606.82,-10802.97,-18220.68,-29924.055,-52364.97,-26287.425,-26957.745
1764505256.0264635,20239.83,-14607.18,-10802.25,-18220.635,-29923.47,-52363.98,-26287.02,-26957.25
1764505256.0264635,20242.035,-14605.56,-10800.405,-18218.655,-29921.985,-52362.315,-26285.625,-26955.54
1764505256.0264635,20244.96,-14601.87,-10797.21,-18215.37,-29918.97,-52358.895,-26282.385,-26952.705
1764505256.0264635,20243.745,-14603.13,-10798.56,-18216.63,-29920.23,-52359.705,-26283.195,-26952.84
1764505256.0264635,20241.135,-14605.83,-10800.9,-18218.79,-29922.255,-52362.315,-26285.895,-26954.82
1764505256.0264635,20244.51,-14602.32,-10797.615,-18215.505,-29918.52,-52358.625,-26282.61,-26950.68
1764505256.0264635,20243.565,-14603.625,-10798.335,-18216.0,-29919.105,-52359.75,-26283.645,-26951.58
1764505256.0264635,20242.935,-14603.715,-10799.1,-18216.27,-29919.915,-52360.38,-26284.545,-26951.625
1764505256.0264635,20242.305,-14604.705,-10800.225,-18217.755,-29921.355,-52361.685,-26285.355,-26952.39
1764505256.0264635,20241.0,-14606.64,-10801.485,-18219.6,-29923.065,-52362.495,-26286.75,-26953.695
1764505256.0264635,20243.115,-14604.93,-10799.82,-18217.89,-29920.95,-52359.84,-26284.77,-26952.12
1764505256.0264635,20241.045,-14607.405,-10801.98,-18219.96,-29923.155,-52361.37,-26286.705,-26953.92
1764505256.0264635,20243.34,-14604.66,-10799.73,-18217.35,-29921.04,-52359.3,-26284.815,-26951.94
1764505256.0744903,20243.61,-14605.155,-10799.955,-18217.845,-29921.13,-52359.3,-26285.715,-26952.57
1764505256.0744903,20243.835,-14604.93,-10799.325,-18218.205,-29920.86,-52359.165,-26285.625,-26952.39
1764505256.0744903,20244.555,-14604.12,-10798.83,-18217.575,-29920.545,-52358.67,-26284.5,-26951.94
1764505256.0744903,20242.08,-14607.135,-10801.62,-18219.15,-29923.2,-52361.37,-26287.38,-26954.595
1764505256.0744903,20242.845,-14607.405,-10801.665,-18219.465,-29923.47,-52361.325,-26286.84,-26954.19
1764505256.0744903,20240.235,-14609.925,-10804.275,-18223.335,-29925.945,-52363.845,-26289.63,-26957.295
1764505256.0744903,20242.935,-14607.495,-10802.07,-18220.455,-29922.885,-52361.145,-26287.2,-26955.09
1764505256.0744903,20240.46,-14609.565,-10804.365,-18222.705,-29923.965,-52362.72,-26289.765,-26957.295
1764505256.0744903,20242.53,-14607.81,-10802.565,-18220.545,-29922.21,-52360.245,-26287.155,-26955.315
1764505256.0755053,20239.695,-14611.725,-10805.58,-18222.885,-29925.72,-52363.035,-26290.26,-26958.195
1764505256.0755053,20240.01,-14611.41,-10804.77,-18222.48,-29925.09,-52362.99,-26290.395,-26957.115
1764505256.0755053,20241.72,-14608.98,-10802.25,-18220.545,-29923.065,-52361.64,-26288.37,-26954.82
1764505256.0755053,20246.625,-14604.255,-10797.435,-18216.765,-29918.52,-52356.375,-26283.645,-26951.04
1764505256.0755053,20246.13,-14605.02,-10797.84,-18216.63,-29918.88,-52357.005,-26284.23,-26951.265
1764505256.0755053,20244.645,-14605.92,-10799.19,-18217.89,-29919.915,-52358.49,-26285.625,-26951.49
1764505256.0755053,20243.205,-14607.63,-10801.305,-18219.645,-29921.715,-52360.065,-26286.93,-26953.65
1764505256.0755053,20246.535,-14604.57,-10798.11,-18215.64,-29918.295,-52356.69,-26283.915,-26950.23
1764505256.0755053,20246.175,-14605.425,-10798.29,-18215.955,-29918.295,-52356.87,-26284.185,-26950.725
1764505256.0755053,20245.365,-14606.82,-10799.37,-18217.44,-29919.33,-52357.995,-26285.265,-26952.345
1764505256.0755053,20242.575,-14609.655,-10801.89,-18219.69,-29921.355,-52360.515,-26288.595,-26955.405
1764505256.0755053,20242.485,-14609.115,-10801.035,-18219.24,-29920.455,-52359.66,-26287.02,-26954.595
1764505256.0755053,20243.655,-14607.54,-10799.19,-18218.205,-29919.87,-52358.67,-26285.49,-26952.93
1764505256.1204836,20248.425,-14603.67,-10796.13,-18214.335,-29915.55,-52354.575,-26282.07,-26948.835
1764505256.1204836,20246.445,-14605.965,-10798.65,-18216.585,-29917.62,-52356.78,-26284.455,-26951.13
1764505256.1204836,20243.205,-14608.17,-10801.215,-18219.645,-29921.04,-52359.525,-26287.47,-26953.965
1764505256.1204836,20244.285,-14607.18,-10799.595,-18218.295,-29919.87,-52358.13,-26285.715,-26952.345
1764505256.1204836,20242.395,-14609.88,-10802.385,-18220.59,-29922.705,-52361.055,-26288.01,-26954.64
1764505256.1204836,20243.025,-14609.07,-10801.89,-18219.825,-29922.3,-52360.065,-26288.055,-26954.235
1764505256.1204836,20245.41,-14606.82,-10799.73,-18217.755,-29919.69,-52357.365,-26285.67,-26951.49
1764505256.1204836,20241.855,-14610.96,-10802.88,-18221.58,-29923.245,-52360.38,-26289.09,-26954.82
1764505256.1204836,20244.42,-14608.935,-10800.45,-18218.835,-29920.23,-52357.86,-26286.525,-26952.705
1764505256.1204836,20246.04,-14607.495,-10799.1,-18216.72,-29918.745,-52356.6,-26285.04,-26951.31
1764505256.1204836,20246.13,-14607.18,-10798.965,-18216.855,-29919.33,-52356.735,-26285.535,-26950.77
1764505256.1204836,20244.825,-14608.89,-10800.315,-18218.295,-29921.04,-52358.58,-26287.65,-26952.39
1764505256.1204836,20245.41,-14608.53,-10799.685,-18217.665,-29920.905,-52358.355,-26287.92,-26952.165
1764505256.1204836,20245.635,-14608.17,-10799.64,-18217.395,-29920.365,-52357.23,-26287.92,-26952.255
1764505256.1204836,20243.475,-14611.095,-10802.34,-18219.915,-29922.93,-52360.245,-26289.54,-26954.865
1764505256.1204836,20243.925,-14610.96,-10801.8,-18219.555,-29922.84,-52360.425,-26288.91,-26954.37
1764505256.1204836,20245.05,-14610.555,-10800.81,-18218.295,-29921.58,-52359.39,-26287.515,-26952.885
1764505256.1204836,20247.615,-14607.495,-10798.065,-18215.1,-29917.935,-52356.015,-26284.77,-26949.555
1764505256.1224778,20245.05,-14610.015,-10801.395,-18218.34,-29920.32,-52358.22,-26287.56,-26952.3
1764505256.1224778,20246.895,-14608.44,-10799.595,-18217.08,-29918.79,-52356.6,-26285.67,-26950.14
1764505256.1224778,20250.585,-14605.065,-10796.445,-18213.39,-29915.865,-52353.045,-26282.52,-26947.215
1764505256.1224778,20248.605,-14607.855,-10798.83,-18216.09,-29918.565,-52355.025,-26284.995,-26949.465
1764505256.1224778,20245.68,-14611.005,-10801.395,-18219.42,-29921.355,-52358.13,-26288.64,-26952.615
1764505256.1224778,20244.33,-14611.68,-10802.385,-18220.005,-29922.165,-52358.85,-26290.26,-26952.93
1764505256.1656332,20246.31,-14609.7,-10800.63,-18218.07,-29920.95,-52356.825,-26288.145,-26950.59
1764505256.1656332,20249.775,-14606.505,-10797.525,-18214.74,-29917.17,-52353.585,-26284.275,-26947.35
1764505256.1656332,20249.145,-14607.54,-10798.155,-18215.595,-29917.89,-52353.765,-26285.22,-26948.295
1764505256.1656332,20247.345,-14609.43,-10799.145,-18217.395,-29919.465,-52355.97,-26286.795,-26950.14
1764505256.1666503,20245.725,-14612.175,-10801.845,-18220.095,-29921.76,-52358.67,-26289.18,-26952.39
1764505256.1666503,20248.47,-14609.43,-10798.965,-18217.935,-29919.33,-52356.015,-26286.48,-26949.465
1764505256.1666503,20246.805,-14611.455,-10800.855,-18219.42,-29920.995,-52356.87,-26287.245,-26950.95
1764505256.1666503,20242.53,-14614.83,-10803.375,-18222.255,-29923.965,-52359.345,-26290.44,-26953.83
1764505256.167663,20247.435,-14609.07,-10797.705,-18216.54,-29918.61,-52354.215,-26285.31,-26949.06
1764505256.167663,20247.84,-14609.52,-10798.74,-18215.955,-29918.565,-52355.07,-26285.85,-26949.78
1764505256.167663,20246.895,-14610.42,-10799.055,-18217.395,-29919.42,-52354.665,-26286.03,-26950.545
1764505256.168658,20248.2,-14610.51,-10799.28,-18218.79,-29921.13,-52355.745,-26287.155,-26949.33
1764505256.168658,20246.445,-14612.67,-10801.845,-18221.04,-29923.83,-52358.49,-26289.81,-26952.255
1764505256.168658,20249.82,-14608.98,-10797.84,-18217.395,-29919.69,-52354.35,-26286.165,-26948.295
1764505256.1696627,20246.985,-14611.545,-10800.045,-18219.24,-29921.58,-52356.51,-26288.37,-26950.455
1764505256.1696627,20245.815,-14612.175,-10800.0,-18218.97,-29921.445,-52356.24,-26288.595,-26951.31
1764505256.1696627,20249.955,-14608.305,-10795.815,-18214.515,-29917.17,-52351.65,-26284.455,-26947.395
1764505256.1696627,20247.48,-14609.385,-10798.155,-18216.045,-29918.34,-52354.305,-26286.12,-26949.915
1764505256.1696627,20246.76,-14612.04,-10801.215,-18219.555,-29922.165,-52357.365,-26288.37,-26951.49
1764505256.1706803,20248.38,-14611.545,-10800.99,-18219.825,-29922.615,-52356.825,-26288.19,-26951.04
1764505256.1716638,20250.81,-14607.99,-10796.985,-18215.595,-29917.8,-52352.505,-26283.915,-26947.845
1764505256.1716638,20250.09,-14607.81,-10796.76,-18214.605,-29917.035,-52351.965,-26283.195,-26947.755
1764505256.1716638,20246.715,-14611.095,-10799.64,-18218.43,-29920.365,-52355.52,-26286.345,-26951.265
1764505256.1716638,20246.355,-14612.13,-10800.63,-18219.51,-29920.77,-52355.295,-26286.615,-26952.3
1764505256.2123587,20248.65,-14611.05,-10800.045,-18219.015,-29920.59,-52354.935,-26286.66,-26952.435
1764505256.2123587,20252.52,-14606.055,-10795.95,-18214.83,-29917.305,-52351.335,-26283.015,-26950.68
1764505256.2123587,20249.01,-14606.37,-10793.97,-18211.59,-29913.885,-52347.555,-26280.135,-26952.03
1764505256.2123587,20245.095,-14609.655,-10794.915,-18211.86,-29914.335,-52347.78,-26280.09,-26952.435
1764505256.2133584,20242.98,-14611.905,-10795.77,-18212.58,-29915.055,-52349.265,-26280.045,-26952.345
1764505256.2133584,20245.41,-14614.29,-10799.145,-18217.44,-29919.555,-52354.305,-26283.15,-26950.365
1764505256.2133584,20252.925,-14612.445,-10800.945,-18221.445,-29924.73,-52359.345,-26287.155,-26948.295
1764505256.2133584,20247.75,-14616.09,-10802.925,-18221.13,-29923.065,-52357.275,-26286.75,-26951.76
1764505256.2133584,20247.21,-14615.865,-10801.485,-18218.43,-29919.24,-52353.72,-26283.51,-26951.31
1764505256.2133584,20249.235,-14611.05,-10797.57,-18214.11,-29915.595,-52349.58,-26280.045,-26948.97
1764505256.2133584,20251.71,-14603.535,-10792.755,-18211.995,-29915.64,-52350.21,-26280.09,-26947.89
1764505256.2133584,20250.18,-14602.77,-10790.19,-18209.295,-29913.93,-52348.77,-26278.56,-26948.43
1764505256.2133584,20251.53,-14604.255,-10790.19,-18208.44,-29912.4,-52347.69,-26277.03,-26947.035
1764505256.2133584,20255.805,-14605.785,-10794.555,-18213.03,-29917.44,-52352.865,-26280.855,-26945.82
1764505256.2133584,20248.83,-14611.365,-10798.02,-18215.325,-29917.665,-52353.045,-26282.07,-26951.265
1764505256.2133584,20247.03,-14611.77,-10796.58,-18211.815,-29912.715,-52347.915,-26277.39,-26953.02
1764505256.2133584,20242.305,-14614.785,-10798.74,-18212.805,-29913.48,-52348.005,-26278.47,-26958.285
1764505256.2133584,20246.85,-14608.035,-10794.645,-18210.465,-29914.2,-52348.275,-26278.605,-26954.19
1764505256.2143583,20248.11,-14608.26,-10798.2,-18216.36,-29922.975,-52357.05,-26285.49,-26952.165
1764505256.2143583,20250.945,-14608.215,-10797.57,-18215.145,-29920.905,-52355.565,-26283.735,-26949.645
1764505256.2143583,20249.82,-14612.58,-10800.63,-18217.665,-29921.31,-52356.24,-26284.185,-26949.825
1764505256.215314,20252.25,-14609.295,-10797.615,-18214.65,-29917.665,-52352.415,-26281.035,-26948.385
1764505256.215314,20255.31,-14602.005,-10791.495,-18209.97,-29914.155,-52348.545,-26277.03,-26944.38
1764505256.215314,20249.46,-14602.545,-10791.855,-18211.23,-29916.45,-52351.38,-26280.63,-26949.42
1764505256.258305,20254.005,-14599.575,-10787.49,-18206.055,-29912.22,-52346.52,-26276.13,-26944.2
1764505256.258305,20256.93,-14600.745,-10788.48,-18207.09,-29913.57,-52346.88,-26275.815,-26941.59
1764505256.259337,20252.835,-14602.14,-10788.12,-18205.74,-29911.005,-52344.18,-26273.925,-26943.255
1764505256.259337,20250.045,-14602.725,-10788.3,-18206.055,-29910.51,-52344.18,-26274.465,-26947.035
1764505256.259337,20249.055,-14606.235,-10792.62,-18209.97,-29914.74,-52348.32,-26279.01,-26950.815
1764505256.259337,20254.77,-14605.38,-10794.06,-18212.49,-29918.115,-52351.74,-26282.79,-26950.68
1764505256.259337,20254.095,-14607.675,-10794.06,-18210.105,-29915.64,-52348.815,-26280.27,-26947.17
1764505256.259337,20260.17,-14602.365,-10789.29,-18204.57,-29909.52,-52341.795,-26274.465,-26940.78
1764505256.259337,20256.03,-14602.86,-10787.85,-18202.59,-29907.675,-52340.085,-26271.99,-26942.67
1764505256.259337,20249.955,-14605.245,-10789.38,-18205.29,-29910.33,-52342.785,-26273.97,-26946.99
1764505256.259337,20247.03,-14607.495,-10790.955,-18207.27,-29910.285,-52342.605,-26273.835,-26949.33
1764505256.259337,20245.455,-14606.055,-10790.145,-18206.865,-29909.745,-52342.74,-26272.665,-26946.54
1764505256.259337,20252.34,-14602.77,-10788.3,-18206.37,-29911.005,-52344.09,-26272.44,-26940.915
1764505256.259337,20258.46,-14603.31,-10790.145,-18208.485,-29913.48,-52347.105,-26275.545,-26938.665
1764505256.259851,20256.12,-14604.66,-10792.53,-18211.77,-29917.305,-52351.29,-26279.775,-26943.39
1764505256.259851,20255.535,-14604.345,-10791.0,-18210.24,-29915.415,-52349.445,-26278.605,-26944.065
1764505256.259851,20258.64,-14601.06,-10787.67,-18206.145,-29911.77,-52345.305,-26275.725,-26942.265
1764505256.259851,20257.2,-14602.275,-10788.03,-18206.865,-29911.995,-52344.54,-26276.715,-26944.02
1764505256.259851,20259.495,-14601.285,-10786.23,-18204.975,-29909.565,-52341.75,-26273.25,-26941.095
1764505256.259851,20256.21,-14605.29,-10790.145,-18209.07,-29913.435,-52344.99,-26274.69,-26940.6
1764505256.259851,20255.985,-14604.795,-10791.36,-18210.105,-29914.425,-52346.07,-26275.995,-26942.355
1764505256.259851,20257.65,-14602.77,-10789.29,-18207.18,-29911.905,-52343.955,-26274.465,-26940.825
1764505256.3072736,20254.86,-14605.38,-10791.9,-18209.475,-29914.38,-52346.34,-26277.435,-26944.47
1764505256.3072736,20255.13,-14604.84,-10790.73,-18209.25,-29913.57,-52345.125,-26276.265,-26944.38
1764505256.3072736,20257.965,-14602.275,-10787.49,-18206.955,-29910.555,-52342.065,-26273.88,-26941.32
1764505256.3072736,20258.37,-14601.78,-10787.265,-18206.82,-29910.015,-52341.705,-26273.745,-26940.825
1764505256.3072736,20258.01,-14602.005,-10787.22,-18206.865,-29910.465,-52342.065,-26274.645,-26941.32
1764505256.3072736,20255.535,-14605.695,-10791.405,-18210.645,-29914.29,-52345.62,-26278.065,-26945.37
1764505256.3082724,20258.235,-14602.815,-10789.245,-18207.99,-29911.365,-52343.19,-26274.42,-26942.895
1764505256.3082724,20254.95,-14603.805,-10789.83,-18207.585,-29911.545,-52342.92,-26274.15,-26943.795
1764505256.3082724,20252.925,-14606.505,-10792.62,-18210.195,-29914.335,-52345.44,-26277.48,-26945.415
1764505256.3082724,20256.21,-14605.74,-10792.665,-18211.005,-29914.74,-52345.8,-26278.29,-26944.74
1764505256.3082724,20258.37,-14604.57,-10791.18,-18208.665,-29912.625,-52343.775,-26276.04,-26943.435
1764505256.3082724,20261.385,-14601.465,-10788.39,-18206.145,-29909.7,-52341.12,-26272.62,-26940.87
1764505256.3082724,20258.055,-14603.4,-10790.01,-18207.99,-29911.995,-52343.19,-26273.295,-26943.39
1764505256.3082724,20258.055,-14601.24,-10786.545,-18203.805,-29908.215,-52338.96,-26270.415,-26940.735
1764505256.3082724,20257.515,-14600.25,-10784.925,-18202.41,-29906.73,-52337.295,-26268.57,-26939.07
1764505256.3087823,20254.815,-14602.5,-10787.265,-18204.93,-29909.475,-52339.635,-26270.955,-26942.13
1764505256.3087823,20256.93,-14600.295,-10785.69,-18202.005,-29906.685,-52337.115,-26269.605,-26940.96
1764505256.3087823,20258.055,-14601.78,-10787.49,-18204.75,-29909.565,-52340.13,-26272.305,-26941.68
1764505256.3087823,20259.405,-14601.915,-10788.885,-18207.045,-29912.13,-52343.19,-26273.88,-26940.87
1764505256.3087823,20257.695,-14602.41,-10789.065,-18206.46,-29911.59,-52342.515,-26273.61,-26942.265
1764505256.3087823,20256.48,-14604.48,-10790.28,-18206.325,-29912.31,-52343.37,-26274.78,-26944.02
1764505256.3087823,20256.21,-14605.38,-10791.135,-18206.865,-29912.715,-52343.955,-26275.59,-26945.235
1764505256.3512545,20259.135,-14601.78,-10788.435,-18204.075,-29910.06,-52340.58,-26272.71,-26941.995
1764505256.3512545,20255.58,-14604.3,-10791.72,-18207.09,-29913.03,-52344.045,-26275.725,-26945.19
1764505256.3523562,20255.58,-14603.895,-10791.09,-18206.055,-29912.355,-52343.28,-26274.78,-26944.965
1764505256.3523562,20257.38,-14599.845,-10786.095,-18202.23,-29908.755,-52339.32,-26270.865,-26942.58
1764505256.3523562,20255.22,-14600.79,-10785.33,-18201.69,-29907.99,-52339.5,-26269.92,-26942.985
1764505256.3523562,20253.06,-14605.245,-10788.705,-18204.705,-29910.645,-52341.885,-26272.44,-26945.37
1764505256.3523562,20251.575,-14608.395,-10792.17,-18208.53,-29913.975,-52345.62,-26276.355,-26946.945
1764505256.3523562,20254.32,-14607.09,-10791.99,-18208.26,-29913.975,-52345.89,-26275.545,-26945.28
1764505256.3523562,20252.52,-14609.025,-10793.61,-18210.105,-29916.135,-52347.87,-26277.48,-26947.755
1764505256.353351,20255.04,-14605.965,-10790.19,-18207.315,-29912.31,-52344.945,-26275.005,-26945.91
1764505256.353351,20252.79,-14608.395,-10791.81,-18209.34,-29915.1,-52346.835,-26276.715,-26948.43
1764505256.353351,20254.275,-14605.515,-10788.48,-18206.64,-29912.04,-52343.82,-26274.375,-26948.025
1764505256.353351,20253.69,-14605.29,-10788.75,-18206.91,-29912.265,-52344.09,-26275.095,-26948.88
1764505256.353351,20250.72,-14607.27,-10790.82,-18208.53,-29913.57,-52344.72,-26275.995,-26950.05
1764505256.353351,20251.575,-14606.46,-10788.345,-18205.92,-29910.375,-52341.525,-26271.495,-26944.785
1764505256.353351,20252.835,-14609.655,-10792.845,-18210.87,-29916.045,-52347.195,-26276.04,-26945.235
1764505256.353351,20248.92,-14612.715,-10796.895,-18213.705,-29919.735,-52350.525,-26279.37,-26950.14
1764505256.353351,20247.795,-14611.815,-10795.995,-18212.31,-29918.025,-52349.805,-26278.74,-26950.995
1764505256.354351,20252.025,-14607.72,-10791.54,-18208.665,-29913.975,-52346.295,-26275.185,-26946.855
1764505256.354351,20249.28,-14610.33,-10793.745,-18210.96,-29916.855,-52348.905,-26277.57,-26949.015
1764505256.354351,20248.74,-14610.195,-10794.285,-18211.365,-29916.945,-52348.95,-26278.02,-26949.465
1764505256.354351,20247.525,-14611.23,-10795.14,-18211.59,-29917.08,-52349.13,-26278.695,-26950.545
1764505256.3548596,20246.805,-14610.915,-10794.195,-18211.05,-29916.855,-52348.32,-26278.965,-26950.995
1764505256.3548596,20248.335,-14609.835,-10792.215,-18209.43,-29915.325,-52346.565,-26277.345,-26949.915
1764505256.3998797,20252.385,-14607.135,-10790.73,-18207.54,-29913.12,-52344.63,-26275.14,-26947.17
1764505256.3998797,20250.405,-14610.6,-10794.78,-18211.41,-29917.125,-52349.445,-26279.28,-26949.645
1764505256.3998797,20251.395,-14608.845,-10792.62,-18209.745,-29915.1,-52346.745,-26277.3,-26949.015
1764505256.3998797,20248.47,-14611.14,-10794.87,-18211.32,-29916.72,-52348.68,-26279.01,-26951.22
1764505256.3998797,20249.415,-14610.42,-10794.42,-18209.79,-29915.685,-52348.005,-26278.02,-26950.32
1764505256.3998797,20253.195,-14607.18,-10790.73,-18206.37,-29912.22,-52344.225,-26274.915,-26946.54
1764505256.3998797,20253.465,-14606.82,-10789.11,-18205.425,-29911.725,-52343.01,-26274.555,-26945.415
1764505256.3998797,20251.935,-14609.34,-10790.46,-18206.235,-29911.905,-52342.785,-26274.33,-26946.27
1764505256.3998797,20247.66,-14614.38,-10794.465,-18209.07,-29914.92,-52345.845,-26276.49,-26949.78
1764505256.3998797,20251.98,-14609.52,-10790.19,-18204.435,-29910.33,-52341.075,-26271.675,-26945.055
1764505256.3998797,20255.535,-14605.47,-10788.255,-18204.3,-29911.005,-52341.525,-26271.945,-26943.75
1764505256.3998797,20255.355,-14603.985,-10789.47,-18207.9,-29915.775,-52346.925,-26278.515,-26948.16
1764505256.3998797,20256.12,-14602.545,-10787.76,-18204.57,-29911.995,-52344.045,-26274.96,-26946.135
1764505256.3998797,20253.465,-14604.255,-10788.12,-18203.265,-29911.545,-52342.38,-26273.52,-26945.55
1764505256.3998797,20252.43,-14608.17,-10791.765,-18207.945,-29915.595,-52346.79,-26277.93,-26946.99
1764505256.3998797,20255.895,-14603.985,-10787.715,-18203.76,-29910.78,-52341.705,-26273.745,-26944.245
1764505256.3998797,20254.23,-14605.695,-10788.39,-18203.94,-29911.41,-52342.605,-26274.195,-26945.28
1764505256.3998797,20250.495,-14610.195,-10792.17,-18208.62,-29915.685,-52347.555,-26278.56,-26948.745
1764505256.4008758,20256.885,-14606.865,-10790.37,-18207.225,-29914.155,-52345.845,-26276.265,-26944.155
1764505256.4008758,20255.94,-14608.395,-10792.62,-18208.8,-29916.18,-52347.555,-26277.75,-26945.73
1764505256.4008758,20256.57,-14606.19,-10788.705,-18205.74,-29912.445,-52343.82,-26274.735,-26944.02
1764505256.4008758,20253.375,-14607.945,-10789.2,-18205.92,-29912.67,-52344.0,-26275.545,-26945.415
1764505256.4008758,20253.735,-14608.62,-10790.1,-18207.495,-29914.065,-52345.665,-26276.76,-26946.0
1764505256.4008758,20250.99,-14610.87,-10792.98,-18210.285,-29916.945,-52348.32,-26280.0,-26949.015
1764505256.4468384,20254.14,-14608.215,-10790.46,-18207.27,-29913.93,-52345.755,-26277.075,-26945.505
1764505256.4468384,20251.845,-14609.97,-10792.53,-18209.43,-29916.0,-52347.465,-26279.595,-26947.305
1764505256.4468384,20250.36,-14611.005,-10792.755,-18209.745,-29915.82,-52347.645,-26279.505,-26949.105
1764505256.4468384,20250.72,-14611.05,-10792.755,-18209.745,-29915.28,-52346.97,-26278.92,-26948.745
1764505256.4468384,20252.07,-14610.69,-10792.665,-18209.115,-29915.055,-52346.79,-26278.74,-26948.07
1764505256.4468384,20253.555,-14608.395,-10790.73,-18207.225,-29913.705,-52344.855,-26277.255,-26946.855
1764505256.4468384,20257.065,-14604.75,-10786.77,-18204.03,-29909.52,-52341.075,-26273.205,-26943.165
1764505256.4468384,20253.555,-14608.44,-10791.18,-18207.54,-29913.705,-52344.72,-26277.435,-26946.405
1764505256.4468384,20253.06,-14608.44,-10791.045,-18207.945,-29914.11,-52344.9,-26278.02,-26946.54
1764505256.4468384,20255.22,-14607.045,-10789.29,-18206.64,-29912.04,-52343.595,-26276.49,-26944.92
1764505256.4468384,20258.64,-14604.12,-10785.915,-18203.58,-29909.07,-52340.76,-26273.295,-26942.22
1764505256.4468384,20257.56,-14604.93,-10787.04,-18204.48,-29910.42,-52342.245,-26274.42,-26943.345
1764505256.4468384,20256.525,-14606.415,-10789.065,-18205.11,-29912.04,-52343.64,-26275.68,-26944.38
1764505256.4468384,20254.41,-14608.755,-10790.55,-18207.045,-29913.615,-52345.665,-26277.345,-26946.765
1764505256.4468384,20256.975,-14606.865,-10787.895,-18204.48,-29910.87,-52342.155,-26275.815,-26944.695
1764505256.4468384,20253.915,-14609.475,-10790.505,-18206.82,-29913.705,-52344.945,-26277.795,-26947.08
1764505256.4468384,20255.85,-14607.99,-10788.705,-18205.29,-29912.355,-52343.28,-26276.22,-26945.415
1764505256.4468384,20253.195,-14610.195,-10791.495,-18208.125,-29915.01,-52345.44,-26278.695,-26948.43
1764505256.4468384,20249.28,-14613.93,-10796.22,-18212.85,-29918.88,-52349.625,-26282.97,-26952.345
1764505256.4468384,20251.71,-14611.41,-10793.16,-18209.97,-29916.0,-52346.79,-26280.27,-26949.96
1764505256.4468384,20250.54,-14613.03,-10795.005,-18212.175,-29917.485,-52348.095,-26281.215,-26951.22
1764505256.4468384,20253.42,-14610.15,-10791.855,-18208.845,-29914.65,-52345.26,-26278.155,-26948.07
1764505256.4468384,20253.51,-14610.69,-10792.53,-18209.07,-29914.245,-52345.35,-26278.2,-26948.07
1764505256.4468384,20253.735,-14610.375,-10792.53,-18209.52,-29913.705,-52345.17,-26278.29,-26948.43
1764505256.4926434,20253.735,-14611.14,-10791.945,-18209.34,-29914.38,-52345.755,-26279.685,-26948.7
1764505256.4926434,20253.195,-14611.59,-10792.215,-18209.43,-29914.605,-52346.385,-26280.27,-26949.285
1764505256.4926434,20252.205,-14611.77,-10792.395,-18209.7,-29914.65,-52347.015,-26280.45,-26949.87
1764505256.4926434,20249.37,-14614.695,-10795.59,-18213.795,-29918.25,-52350.12,-26283.825,-26953.245
1764505256.4926434,20251.17,-14613.885,-10794.33,-18212.58,-29917.845,-52348.815,-26282.115,-26951.94
1764505256.49416,20248.47,-14616.36,-10796.445,-18214.155,-29919.645,-52351.245,-26283.915,-26954.505
1764505256.49416,20250.36,-14614.875,-10793.745,-18211.815,-29917.17,-52349.13,-26280.945,-26952.66
1764505256.49416,20248.74,-14616.63,-10795.59,-18214.02,-29918.565,-52351.02,-26282.34,-26954.73
1764505256.49416,20251.53,-14613.705,-10793.07,-18211.32,-29916.315,-52348.68,-26279.64,-26951.715
1764505256.49416,20251.305,-14613.93,-10793.79,-18211.41,-29916.9,-52348.86,-26280.09,-26951.265
1764505256.49416,20247.66,-14617.62,-10796.805,-18215.01,-29921.04,-52351.515,-26282.925,-26954.73
1764505256.49416,20249.055,-14616.405,-10795.455,-18213.39,-29919.465,-52350.075,-26281.575,-26954.28
1764505256.49416,20253.87,-14610.645,-10790.19,-18207.315,-29913.705,-52344.585,-26276.625,-26949.105
1764505256.49416,20251.845,-14612.715,-10791.54,-18208.53,-29914.965,-52346.295,-26278.245,-26950.05
1764505256.49416,20248.785,-14615.37,-10793.88,-18211.77,-29917.35,-52348.635,-26280.9,-26953.515
1764505256.49416,20252.385,-14613.435,-10792.62,-18210.6,-29916.81,-52347.105,-26279.37,-26950.725
1764505256.49416,20249.46,-14616.945,-10796.04,-18214.875,-29920.815,-52351.2,-26282.97,-26953.2
1764505256.49416,20249.46,-14616.99,-10795.5,-18214.47,-29919.825,-52350.93,-26282.115,-26954.19
1764505256.49416,20253.06,-14613.345,-10791.315,-18210.735,-29916.09,-52347.105,-26278.695,-26950.815
1764505256.49416,20253.51,-14612.22,-10790.505,-18210.195,-29915.46,-52346.7,-26277.75,-26950.275
1764505256.49416,20250.405,-14615.55,-10794.42,-18213.345,-29919.285,-52350.12,-26281.08,-26954.19
1764505256.49416,20251.89,-14613.39,-10792.44,-18211.005,-29916.765,-52348.725,-26279.37,-26952.21
1764505256.5374527,20256.48,-14607.765,-10787.715,-18205.65,-29911.995,-52343.01,-26274.87,-26946.225
1764505256.5374527,20256.57,-14608.17,-10788.345,-18206.055,-29912.49,-52343.415,-26275.545,-26946.63
1764505256.5374527,20254.05,-14611.32,-10790.415,-18208.8,-29914.92,-52346.745,-26278.155,-26949.645
1764505256.5374527,20255.85,-14609.385,-10786.905,-18206.505,-29911.815,-52344.18,-26275.68,-26947.62
1764505256.5374527,20254.14,-14611.185,-10788.975,-18208.755,-29913.03,-52345.35,-26277.3,-26949.195
1764505256.5374527,20255.22,-14609.34,-10787.49,-18206.82,-29911.59,-52343.28,-26276.265,-26948.115
1764505256.5374527,20252.16,-14611.905,-10790.145,-18209.115,-29914.515,-52345.89,-26278.83,-26950.995
1764505256.5374527,20252.43,-14612.04,-10790.055,-18209.655,-29914.605,-52346.16,-26278.605,-26950.635
1764505256.5374527,20253.015,-14611.455,-10789.695,-18208.62,-29914.47,-52345.665,-26278.29,-26949.915
1764505256.5374527,20254.32,-14609.79,-10788.12,-18206.415,-29911.41,-52344.0,-26276.22,-26947.98
1764505256.5374527,20258.235,-14605.515,-10782.945,-18202.365,-29907.045,-52339.23,-26271.54,-26943.885
1764505256.5374527,20255.445,-14607.72,-10785.69,-18204.615,-29909.43,-52341.48,-26273.565,-26946.63
1764505256.5390542,20252.52,-14610.285,-10789.02,-18207.36,-29912.445,-52344.27,-26276.715,-26949.105
1764505256.5390542,20255.085,-14608.755,-10787.535,-18205.92,-29910.465,-52342.965,-26275.185,-26946.765
1764505256.5390542,20252.655,-14611.77,-10789.695,-18207.63,-29912.445,-52344.675,-26277.165,-26949.105
1764505256.5390542,20250.9,-14612.76,-10790.955,-18209.16,-29913.66,-52345.845,-26278.065,-26950.05
1764505256.5390542,20250.81,-14612.445,-10791.09,-18209.205,-29913.75,-52345.62,-26278.11,-26950.32
1764505256.5390542,20253.285,-14609.61,-10788.84,-18206.145,-29911.005,-52343.055,-26275.905,-26948.7
1764505256.5390542,20253.06,-14610.825,-10789.335,-18206.91,-29912.13,-52343.505,-26276.76,-26949.6
1764505256.5390542,20253.195,-14610.915,-10789.29,-18207.18,-29911.995,-52343.505,-26276.49,-26949.735
1764505256.5390542,20251.71,-14612.13,-10790.775,-18208.215,-29913.48,-52345.44,-26278.74,-26950.815
1764505256.5390542,20246.535,-14617.305,-10795.995,-18213.345,-29918.7,-52350.57,-26283.78,-26955.765
1764505256.5390542,20245.815,-14617.98,-10796.76,-18214.605,-29919.51,-52351.2,-26284.995,-26957.07
1764505256.5390542,20246.805,-14618.475,-10796.67,-18214.92,-29919.555,-52351.47,-26285.94,-26957.34
1764505256.588976,20250.81,-14614.74,-10793.34,-18211.32,-29916.315,-52347.915,-26282.565,-26953.56
1764505256.588976,20250.36,-14616.09,-10793.88,-18212.445,-29916.18,-52347.69,-26282.97,-26954.01
1764505256.588976,20249.775,-14617.215,-10794.195,-18212.895,-29917.08,-52348.14,-26283.51,-26954.415
1764505256.588976,20248.065,-14618.745,-10795.77,-18213.525,-29918.385,-52349.445,-26284.455,-26955.855
1764505256.588976,20244.825,-14621.58,-10799.055,-18216.09,-29921.94,-52352.955,-26287.29,-26958.915
1764505256.588976,20245.455,-14620.41,-10798.335,-18214.695,-29920.86,-52351.605,-26285.715,-26956.89
1764505256.588976,20248.02,-14616.63,-10794.78,-18210.96,-29917.17,-52347.87,-26281.845,-26954.415
1764505256.588976,20245.365,-14619.465,-10796.76,-18213.03,-29919.015,-52349.85,-26284.005,-26957.475
1764505256.588976,20243.34,-14622.48,-10799.235,-18215.505,-29921.805,-52352.73,-26286.165,-26959.815
1764505256.588976,20243.115,-14622.03,-10799.28,-18215.19,-29921.805,-52352.91,-26285.895,-26960.445
1764505256.588976,20243.52,-14621.13,-10798.965,-18214.56,-29921.13,-52352.28,-26284.815,-26960.04
1764505256.588976,20245.41,-14620.185,-10796.715,-18212.625,-29919.15,-52350.795,-26283.195,-26958.465
1764505256.588976,20249.01,-14616.72,-10793.475,-18209.745,-29915.46,-52347.6,-26280.315,-26955.405
1764505256.588976,20245.14,-14620.455,-10797.345,-18214.245,-29919.69,-52351.695,-26284.14,-26959.32
1764505256.5902605,20245.68,-14620.41,-10796.49,-18213.705,-29919.735,-52351.47,-26283.33,-26958.33
1764505256.5902605,20250.405,-14616.54,-10792.215,-18209.43,-29915.1,-52346.655,-26279.505,-26954.145
1764505256.5902605,20251.44,-14615.64,-10791.315,-18208.935,-29914.515,-52345.395,-26278.74,-26952.885
1764505256.5902605,20246.535,-14620.23,-10795.995,-18213.39,-29918.745,-52349.49,-26282.43,-26956.98
1764505256.5902605,20247.975,-14619.24,-10795.32,-18212.355,-29917.395,-52348.77,-26280.855,-26955.18
1764505256.5902605,20251.62,-14615.55,-10791.855,-18209.295,-29914.38,-52345.575,-26277.885,-26952.3
1764505256.5902605,20251.755,-14614.38,-10790.505,-18207.81,-29912.49,-52344.18,-26276.67,-26951.67
1764505256.5902605,20250.54,-14615.28,-10790.37,-18207.945,-29912.715,-52343.55,-26277.255,-26952.165
1764505256.6332676,20248.65,-14616.855,-10791.315,-18208.395,-29914.695,-52344.855,-26278.605,-26953.83
1764505256.6342862,20248.38,-14618.7,-10793.385,-18210.87,-29916.99,-52347.015,-26280.405,-26954.73
1764505256.6342862,20252.205,-14616.675,-10791.18,-18209.205,-29914.965,-52345.35,-26278.065,-26950.995
1764505256.6342862,20252.25,-14616.495,-10790.73,-18208.305,-29913.885,-52344.765,-26277.345,-26950.68
1764505256.6342862,20253.42,-14614.92,-10789.92,-18206.955,-29911.815,-52343.235,-26276.085,-26949.645
1764505256.6342862,20251.71,-14616.18,-10789.92,-18207.54,-29912.715,-52343.775,-26277.03,-26950.905
1764505256.635418,20248.155,-14619.24,-10793.07,-18210.78,-29916.0,-52347.105,-26280.36,-26954.685
1764505256.635418,20246.58,-14621.31,-10795.14,-18213.03,-29917.98,-52349.13,-26282.025,-26956.305
1764505256.635418,20246.985,-14621.94,-10794.87,-18212.715,-29917.71,-52349.265,-26281.44,-26956.08
1764505256.635418,20248.47,-14620.365,-10793.34,-18210.33,-29915.595,-52347.555,-26279.28,-26953.695
1764505256.635418,20251.98,-14617.035,-10790.415,-18206.82,-29913.3,-52343.91,-26276.85,-26950.77
1764505256.635418,20249.01,-14619.735,-10793.16,-18209.97,-29917.44,-52346.475,-26279.64,-26953.92
1764505256.635418,20252.205,-14616.54,-10789.92,-18207.45,-29914.245,-52344.18,-26276.715,-26951.265
1764505256.635418,20252.07,-14616.72,-10789.245,-18207.045,-29913.21,-52344.18,-26276.4,-26951.49
1764505256.6364212,20253.78,-14614.695,-10788.12,-18205.695,-29912.355,-52342.245,-26274.69,-26949.6
1764505256.6364212,20252.88,-14615.865,-10788.93,-18206.505,-29913.525,-52343.28,-26276.175,-26950.095
1764505256.6364212,20251.62,-14616.855,-10790.145,-18207.36,-29914.425,-52344.72,-26277.345,-26951.175
1764505256.6364212,20249.145,-14619.735,-10792.89,-18209.88,-29917.485,-52347.42,-26279.505,-26954.19
1764505256.6364212,20249.865,-14618.43,-10791.675,-18209.07,-29916.675,-52347.24,-26279.055,-26953.38
1764505256.6364212,20253.285,-14614.92,-10788.165,-18204.93,-29912.985,-52343.505,-26275.14,-26950.23
1764505256.6364212,20253.33,-14615.73,-10788.525,-18205.515,-29912.625,-52343.775,-26275.95,-26950.005
1764505256.6364212,20251.395,-14617.305,-10790.505,-18207.135,-29914.47,-52345.395,-26278.11,-26951.895
1764505256.681436,20248.38,-14620.14,-10794.33,-18210.465,-29917.62,-52348.32,-26280.855,-26955.27
1764505256.681436,20248.38,-14619.735,-10793.79,-18210.195,-29916.45,-52347.42,-26280.405,-26954.505
1764505256.681436,20251.665,-14615.73,-10790.1,-18206.91,-29912.445,-52343.1,-26276.31,-26950.41
1764505256.681436,20247.345,-14619.78,-10792.8,-18209.88,-29917.17,-52347.33,-26279.865,-26954.28
1764505256.681436,20251.215,-14615.055,-10788.84,-18205.47,-29913.795,-52343.73,-26276.4,-26950.185
1764505256.681436,20250.72,-14616.045,-10789.47,-18205.875,-29914.29,-52344.585,-26276.94,-26950.77
1764505256.681436,20248.515,-14619.33,-10792.485,-18209.07,-29916.765,-52347.51,-26279.415,-26953.335
1764505256.681436,20249.955,-14617.305,-10790.865,-18207.135,-29914.65,-52345.8,-26277.975,-26952.075
1764505256.681436,20247.03,-14620.185,-10793.79,-18210.015,-29917.395,-52348.635,-26280.63,-26955.18
1764505256.681436,20247.525,-14619.915,-10792.53,-18209.34,-29917.395,-52347.87,-26280.09,-26954.82
1764505256.681436,20250.54,-14617.17,-10789.38,-18207.27,-29914.29,-52344.855,-26277.57,-26951.355
1764505256.681436,20251.44,-14616.45,-10788.93,-18206.505,-29913.615,-52344.09,-26277.03,-26951.13
1764505256.681436,20251.71,-14616.27,-10788.255,-18206.37,-29913.615,-52344.63,-26276.94,-26950.68
1764505256.681436,20251.485,-14616.27,-10788.39,-18206.505,-29913.885,-52344.765,-26276.85,-26950.59
1764505256.681436,20250.99,-14616.9,-10788.525,-18206.505,-29913.66,-52345.8,-26277.03,-26951.22
1764505256.681436,20250.855,-14617.35,-10788.345,-18206.82,-29913.84,-52345.35,-26276.85,-26951.04
1764505256.681436,20250.765,-14617.215,-10789.065,-18206.1,-29914.335,-52345.755,-26276.4,-26951.445
1764505256.681436,20248.56,-14619.195,-10791.18,-18207.99,-29915.82,-52347.915,-26278.38,-26953.515
1764505256.681436,20245.32,-14621.31,-10793.745,-18210.645,-29918.52,-52350.48,-26281.305,-26955.72
1764505256.681436,20246.805,-14620.32,-10791.225,-18209.07,-29916.72,-52348.095,-26279.55,-26954.64
1764505256.681436,20250.54,-14616.855,-10786.995,-18205.065,-29912.445,-52343.955,-26276.13,-26950.815
1764505256.681436,20250.81,-14616.99,-10787.22,-18205.92,-29912.4,-52344.495,-26276.445,-26951.445
1764505256.681436,20250.135,-14617.53,-10788.48,-18206.415,-29913.48,-52346.115,-26276.94,-26951.715
1764505256.681436,20244.87,-14622.795,-10794.015,-18211.905,-29918.835,-52351.425,-26282.07,-26956.305
1764505256.681436,20244.195,-14623.245,-10794.78,-18213.21,-29919.69,-52352.325,-26283.465,-26956.755
1764505256.681436,20245.185,-14622.84,-10794.42,-18213.48,-29919.195,-52351.83,-26282.88,-26957.655
1764505256.7303958,20245.455,-14622.57,-10793.835,-18212.265,-29918.07,-52351.2,-26282.655,-26957.115
1764505256.7303958,20245.995,-14621.85,-10792.98,-18211.185,-29917.395,-52349.715,-26281.44,-26955.72
1764505256.7303958,20247.21,-14620.095,-10791.855,-18209.745,-29915.955,-52348.23,-26280.09,-26954.595
1764505256.7303958,20249.73,-14618.565,-10789.83,-18207.495,-29914.38,-52345.62,-26278.29,-26952.705
1764505256.7303958,20246.355,-14621.895,-10792.98,-18210.78,-29917.935,-52348.995,-26281.71,-26956.665
1764505256.7303958,20247.21,-14621.22,-10792.08,-18209.97,-29916.72,-52348.455,-26280.495,-26955.9
1764505256.7303958,20252.205,-14616.495,-10787.13,-18204.93,-29911.95,-52344.045,-26275.59,-26951.22
1764505256.7303958,20250.045,-14618.655,-10789.605,-18206.865,-29913.615,-52346.07,-26277.975,-26953.02
1764505256.7303958,20248.785,-14619.87,-10790.505,-18207.9,-29915.46,-52347.285,-26278.92,-26954.01
1764505256.7313747,20249.055,-14619.24,-10790.415,-18207.495,-29915.28,-52346.745,-26279.325,-26954.19
1764505256.7313747,20249.64,-14618.565,-10789.965,-18206.685,-29914.605,-52346.16,-26278.83,-26954.01
1764505256.7313747,20248.83,-14620.005,-10790.685,-18207.18,-29915.865,-52347.195,-26279.145,-26955.135
1764505256.7313747,20246.76,-14622.075,-10792.575,-18209.52,-29917.845,-52349.265,-26281.125,-26956.845
1764505256.7313747,20242.8,-14625.54,-10795.68,-18212.13,-29920.5,-52352.505,-26283.915,-26960.13
1764505256.7313747,20243.25,-14623.965,-10793.835,-18210.555,-29918.7,-52351.065,-26282.295,-26958.87
1764505256.7313747,20247.93,-14618.7,-10788.345,-18205.515,-29912.94,-52345.485,-26277.03,-26954.19
1764505256.7313747,20251.395,-14616.72,-10786.635,-18204.435,-29911.905,-52343.73,-26275.23,-26951.895
1764505256.7313747,20249.955,-14619.69,-10790.37,-18208.17,-29915.775,-52347.87,-26278.515,-26953.38
1764505256.7313747,20246.985,-14622.12,-10793.115,-18210.195,-29917.62,-52349.895,-26280.99,-26955.855
1764505256.7313747,20249.01,-14618.7,-10789.785,-18206.325,-29914.92,-52346.475,-26277.975,-26952.975
1764505256.7313747,20246.085,-14621.805,-10792.845,-18209.295,-29917.89,-52349.58,-26280.63,-26956.62
1764505256.7313747,20247.12,-14620.815,-10792.08,-18208.755,-29916.765,-52348.23,-26279.595,-26955.81
1764505256.7313747,20250.81,-14617.26,-10788.48,-18205.29,-29913.525,-52344.18,-26275.95,-26951.94
1764505256.7313747,20249.91,-14617.98,-10789.11,-18205.965,-29914.38,-52344.405,-26276.715,-26952.3
1764505256.7766688,20250.225,-14618.025,-10789.245,-18205.875,-29914.2,-52344.27,-26277.255,-26952.3
1764505256.7766688,20250.135,-14618.565,-10789.29,-18206.055,-29914.02,-52344.585,-26277.21,-26952.03
1764505256.7766688,20251.26,-14617.26,-10787.58,-18204.21,-29911.725,-52343.64,-26274.915,-26950.59
1764505256.7766688,20249.73,-14618.835,-10788.93,-18205.2,-29913.075,-52345.26,-26276.31,-26951.715
1764505256.7766688,20250.45,-14617.845,-10787.94,-18204.705,-29913.12,-52345.17,-26275.815,-26950.59
1764505256.7766688,20248.47,-14619.825,-10789.74,-18207.0,-29915.415,-52347.015,-26277.885,-26952.75
1764505256.77818,20251.665,-14617.08,-10787.58,-18204.255,-29911.905,-52344.63,-26275.185,-26950.905
1764505256.77818,20251.305,-14617.62,-10787.355,-18204.03,-29911.815,-52344.495,-26275.59,-26951.04
1764505256.77818,20249.01,-14620.68,-10789.92,-18207.045,-29914.065,-52347.24,-26278.515,-26953.83
1764505256.77818,20252.16,-14616.945,-10787.22,-18204.48,-29911.635,-52344.36,-26275.14,-26950.77
1764505256.77818,20252.61,-14615.775,-10786.725,-18203.49,-29911.455,-52343.91,-26274.6,-26949.78
1764505256.7791915,20253.465,-14615.595,-10785.69,-18202.455,-29910.33,-52342.335,-26273.205,-26948.835
1764505256.7791915,20252.88,-14616.18,-10786.095,-18203.04,-29910.51,-52342.56,-26273.925,-26948.79
1764505256.779683,20249.64,-14619.825,-10790.055,-18206.865,-29914.515,-52346.745,-26278.38,-26953.11
1764505256.7801902,20253.015,-14617.215,-10787.13,-18204.255,-29912.04,-52344.27,-26275.095,-26950.68
1764505256.7801902,20252.295,-14617.935,-10787.58,-18203.895,-29912.4,-52343.775,-26275.5,-26951.22
1764505256.7801902,20252.115,-14617.17,-10787.355,-18203.715,-29911.68,-52343.37,-26275.005,-26950.725
1764505256.7801902,20250.225,-14618.88,-10788.39,-18205.335,-29912.85,-52345.035,-26276.22,-26952.255
1764505256.7801902,20247.03,-14622.66,-10792.395,-18208.305,-29916.495,-52347.915,-26279.145,-26954.685
1764505256.7801902,20246.985,-14623.38,-10792.395,-18208.845,-29916.855,-52348.77,-26279.28,-26955.495
1764505256.7801902,20247.21,-14623.74,-10792.53,-18209.475,-29917.125,-52349.49,-26280.27,-26956.08
1764505256.7801902,20248.38,-14621.715,-10791.27,-18207.675,-29915.595,-52347.06,-26279.055,-26954.595
1764505256.8242996,20251.62,-14618.745,-10787.895,-18204.75,-29912.49,-52343.865,-26275.995,-26951.49
1764505256.8242996,20247.435,-14622.705,-10791.27,-18207.945,-29916.54,-52347.285,-26279.865,-26955.495
1764505256.8242996,20248.155,-14621.805,-10790.505,-18207.63,-29916.18,-52346.7,-26278.92,-26954.505
1764505256.8242996,20244.285,-14625.9,-10794.33,-18211.14,-29919.195,-52350.435,-26282.61,-26958.51
1764505256.8242996,20244.915,-14625.54,-10793.25,-18210.33,-29918.16,-52349.895,-26282.205,-26958.105
1764505256.8242996,20247.21,-14622.93,-10791.0,-18207.855,-29915.73,-52347.06,-26280.135,-26955.27
1764505256.8242996,20243.565,-14626.44,-10794.015,-18210.42,-29918.7,-52350.03,-26283.15,-26958.195
1764505256.8253105,20246.355,-14623.605,-10791.315,-18207.315,-29916.18,-52347.15,-26280.585,-26955.405
1764505256.8253105,20243.475,-14625.99,-10794.24,-18210.6,-29919.375,-52350.12,-26282.61,-26957.835
1764505256.8253105,20244.555,-14625.315,-10793.79,-18210.375,-29918.745,-52349.22,-26282.115,-26957.925
1764505256.8253105,20248.11,-14622.03,-10789.695,-18206.37,-29915.37,-52345.485,-26278.605,-26954.37
1764505256.8253105,20242.125,-14625.99,-10792.98,-18209.655,-29918.79,-52348.5,-26282.34,-26959.14
1764505256.8253105,20244.69,-14622.795,-10790.055,-18206.235,-29915.55,-52346.385,-26279.685,-26956.035
1764505256.8253105,20243.52,-14624.64,-10791.54,-18207.27,-29917.395,-52347.195,-26280.9,-26957.745
1764505256.8253105,20240.055,-14627.295,-10794.69,-18210.825,-29920.545,-52349.94,-26284.725,-26961.21
1764505256.8263154,20242.17,-14626.35,-10794.15,-18210.465,-29920.815,-52349.805,-26284.95,-26959.095
1764505256.8263154,20246.985,-14623.785,-10791.9,-18208.98,-29918.52,-52347.915,-26282.115,-26955.9
1764505256.8263154,20244.06,-14626.035,-10793.565,-18211.05,-29919.6,-52349.355,-26284.005,-26957.79
1764505256.826914,20246.49,-14623.785,-10791.405,-18208.53,-29917.215,-52346.43,-26281.17,-26955.945
1764505256.826914,20248.335,-14622.75,-10790.145,-18206.73,-29916.315,-52345.395,-26279.28,-26954.505
1764505256.826914,20248.695,-14622.165,-10789.38,-18206.37,-29915.73,-52345.44,-26278.74,-26954.235
1764505256.826914,20244.105,-14626.44,-10792.98,-18210.285,-29919.24,-52349.76,-26283.015,-26957.97
1764505256.826914,20244.78,-14625.315,-10791.315,-18209.115,-29917.845,-52348.095,-26281.8,-26957.16
1764505256.826914,20248.335,-14621.715,-10787.67,-18205.29,-29914.155,-52343.685,-26278.245,-26953.245
1764505256.826914,20247.795,-14622.12,-10788.435,-18205.695,-29915.055,-52344.18,-26278.695,-26953.155
1764505256.826914,20243.79,-14626.215,-10792.35,-18209.52,-29919.015,-52348.32,-26283.06,-26957.565
1764505256.8704612,20243.295,-14626.575,-10792.665,-18209.88,-29919.195,-52348.23,-26282.88,-26957.88
1764505256.8704612,20243.925,-14625.945,-10791.27,-18208.62,-29918.25,-52347.42,-26281.62,-26956.395
1764505256.8714943,20247.57,-14622.795,-10787.895,-18205.155,-29915.415,-52344.675,-26278.515,-26952.705
1764505256.8714943,20246.67,-14624.19,-10789.245,-18206.055,-29916.045,-52345.755,-26279.145,-26953.155
1764505256.8714943,20249.73,-14620.05,-10785.555,-18202.5,-29911.95,-52342.47,-26275.545,-26949.735
1764505256.8714943,20245.95,-14623.515,-10789.56,-18206.505,-29916.045,-52346.52,-26279.1,-26953.965
1764505256.8714943,20247.57,-14623.065,-10788.975,-18205.875,-29915.325,-52345.665,-26278.965,-26953.11
1764505256.8714943,20248.11,-14622.12,-10787.94,-18205.065,-29915.19,-52344.765,-26278.245,-26952.615
1764505256.8714943,20249.37,-14619.735,-10785.33,-18203.22,-29913.75,-52342.695,-26276.355,-26951.355
1764505256.8714943,20245.905,-14622.885,-10788.885,-18206.775,-29916.27,-52345.98,-26279.685,-26954.55
1764505256.8714943,20246.895,-14622.93,-10788.435,-18206.235,-29915.865,-52345.62,-26279.46,-26953.74
1764505256.8714943,20250.09,-14619.735,-10785.42,-18203.67,-29912.22,-52342.74,-26276.13,-26950.32
1764505256.8714943,20249.46,-14620.41,-10786.365,-18204.48,-29912.58,-52344.045,-26276.31,-26950.68
1764505256.8714943,20248.605,-14620.23,-10786.185,-18203.94,-29913.165,-52344.405,-26275.86,-26950.68
1764505256.8714943,20249.73,-14618.745,-10784.745,-18202.68,-29911.635,-52342.965,-26274.465,-26949.78
1764505256.8714943,20248.425,-14619.825,-10785.645,-18203.715,-29912.4,-52343.775,-26275.68,-26950.995
1764505256.8714943,20247.705,-14620.59,-10785.87,-18204.435,-29913.165,-52344.81,-26276.58,-26951.985
1764505256.8714943,20245.185,-14623.245,-10788.165,-18207.135,-29916.18,-52347.24,-26279.28,-26954.865
1764505256.8714943,20244.375,-14623.47,-10788.255,-18206.955,-29916.675,-52347.33,-26279.865,-26954.91
1764505256.8714943,20244.69,-14622.615,-10787.985,-18206.19,-29916.135,-52346.43,-26278.965,-26954.64
1764505256.8714943,20248.155,-14620.32,-10785.465,-18203.4,-29913.39,-52344.0,-26276.22,-26952.615
1764505256.8714943,20246.85,-14620.86,-10786.545,-18203.535,-29913.615,-52344.585,-26276.805,-26953.605
1764505256.9153209,20244.105,-14623.47,-10789.245,-18206.415,-29916.765,-52348.14,-26279.055,-26956.08
1764505256.9153209,20245.5,-14621.895,-10787.4,-18205.605,-29915.37,-52346.205,-26277.615,-26955.045
1764505256.9153209,20249.01,-14618.16,-10783.305,-18201.96,-29911.455,-52342.02,-26273.79,-26951.265
1764505256.9153209,20243.745,-14623.065,-10787.94,-18206.73,-29916.63,-52346.655,-26279.055,-26956.44
1764505256.9153209,20244.465,-14622.66,-10788.03,-18206.055,-29915.73,-52346.565,-26277.84,-26955.675
1764505256.9153209,20246.67,-14620.23,-10785.06,-18203.805,-29913.12,-52344.135,-26275.23,-26952.705
1764505256.9153209,20243.97,-14623.74,-10787.22,-18206.595,-29916.09,-52347.69,-26278.29,-26955.315
1764505256.9153209,20244.285,-14623.38,-10787.265,-18206.055,-29916.63,-52348.14,-26278.38,-26955.405
1764505256.9153209,20244.285,-14623.425,-10787.22,-18205.785,-29915.415,-52347.465,-26277.615,-26954.46
1764505256.9153209,20243.385,-14622.93,-10786.59,-18205.11,-29914.83,-52347.465,-26276.67,-26953.965
1764505256.9153209,20246.22,-14619.69,-10783.17,-18202.23,-29912.04,-52345.305,-26273.745,-26951.625
1764505256.9153209,20244.15,-14622.615,-10785.735,-18204.705,-29914.02,-52346.295,-26276.31,-26953.38
1764505256.9153209,20248.155,-14619.105,-10782.0,-18201.555,-29910.33,-52342.245,-26272.53,-26949.465
1764505256.9168622,20246.985,-14621.175,-10784.43,-18203.805,-29912.94,-52344.09,-26274.105,-26952.165
1764505256.9168622,20242.71,-14625.855,-10789.11,-18208.665,-29917.71,-52348.59,-26279.235,-26956.89
1764505256.9168622,20242.53,-14625.765,-10788.66,-18208.395,-29917.35,-52347.69,-26279.01,-26956.665
1764505256.9168622,20244.735,-14622.93,-10785.42,-18206.055,-29914.425,-52345.215,-26276.04,-26954.055
1764505256.9168622,20242.935,-14626.035,-10788.48,-18208.395,-29917.125,-52347.555,-26278.965,-26956.08
1764505256.9168622,20244.78,-14625.045,-10787.265,-18206.64,-29916.405,-52346.115,-26277.255,-26955.0
1764505256.9168622,20248.11,-14621.175,-10783.665,-18202.905,-29913.39,-52343.01,-26273.835,-26951.94
1764505256.9168622,20249.145,-14620.95,-10782.225,-18202.14,-29912.04,-52342.155,-26273.43,-26950.5
1764505256.9168622,20249.1,-14620.005,-10781.595,-18201.42,-29910.915,-52342.11,-26272.71,-26949.78
1764505256.9168622,20248.92,-14620.59,-10782.45,-18202.095,-29911.275,-52342.965,-26272.98,-26950.14
1764505256.9168622,20245.995,-14623.695,-10785.42,-18204.795,-29913.66,-52346.115,-26276.04,-26952.93
1764505256.9657688,20245.995,-14623.29,-10785.645,-18204.57,-29913.165,-52345.935,-26276.13,-26953.425
1764505256.9657688,20244.375,-14625.225,-10786.68,-18205.695,-29915.19,-52346.61,-26277.615,-26954.775
1764505256.9657688,20240.055,-14629.275,-10789.56,-18209.115,-29918.34,-52349.805,-26280.315,-26958.6
1764505256.966773,20240.19,-14628.105,-10788.57,-18207.405,-29917.08,-52349.49,-26278.875,-26958.78
1764505256.966773,20243.655,-14623.965,-10784.52,-18203.94,-29913.03,-52344.855,-26275.365,-26955.09
1764505256.966773,20244.15,-14623.56,-10783.89,-18203.175,-29911.77,-52342.83,-26274.33,-26953.47
1764505256.966773,20244.375,-14625.0,-10786.86,-18206.145,-29915.46,-52346.79,-26276.94,-26954.1
1764505256.966773,20244.15,-14624.955,-10786.23,-18205.965,-29915.64,-52347.645,-26277.705,-26953.965
1764505256.966773,20245.23,-14623.83,-10784.655,-18204.615,-29914.335,-52345.62,-26275.725,-26953.38
1764505256.966773,20241.765,-14627.34,-10787.895,-18208.08,-29917.575,-52348.815,-26279.19,-26957.025
1764505256.966773,20244.24,-14623.56,-10784.7,-18204.435,-29913.975,-52345.44,-26276.13,-26953.92
1764505256.966773,20241.81,-14625.945,-10787.04,-18206.055,-29915.865,-52346.745,-26277.345,-26955.81
1764505256.966773,20244.645,-14622.84,-10783.845,-18202.185,-29912.445,-52343.145,-26274.195,-26952.165
1764505256.966773,20245.455,-14622.345,-10782.81,-18200.97,-29912.175,-52342.425,-26273.61,-26952.615
1764505256.966773,20242.665,-14625.855,-10786.365,-18204.705,-29915.82,-52345.89,-26276.355,-26955.81
1764505256.966773,20243.475,-14624.55,-10785.465,-18204.12,-29914.515,-52344.63,-26275.635,-26954.82
1764505256.966773,20248.335,-14620.275,-10781.325,-18199.89,-29910.33,-52341.12,-26271.09,-26950.05
1764505256.966773,20248.47,-14619.915,-10781.19,-18199.53,-29909.745,-52340.895,-26270.505,-26949.69
1764505256.966773,20246.445,-14621.625,-10782.09,-18200.7,-29910.87,-52342.47,-26271.675,-26951.22
1764505256.966773,20244.105,-14623.56,-10784.07,-18203.04,-29913.615,-52344.135,-26274.15,-26953.83
1764505256.966773,20244.555,-14623.605,-10783.845,-18203.22,-29913.48,-52344.27,-26274.465,-26952.795
1764505256.966773,20243.205,-14624.595,-10784.7,-18203.49,-29912.985,-52343.73,-26275.05,-26953.02
1764505256.966773,20242.08,-14626.485,-10786.59,-18206.01,-29915.775,-52346.16,-26276.76,-26954.73
1764505256.966773,20246.76,-14621.94,-10782.495,-18201.285,-29911.725,-52341.975,-26272.665,-26951.31
1764505257.011226,20246.58,-14620.77,-10781.505,-18200.655,-29911.005,-52341.075,-26271.765,-26950.365
1764505257.011226,20245.05,-14621.895,-10783.08,-18202.68,-29912.265,-52343.01,-26273.16,-26951.67
1764505257.011226,20242.485,-14625.72,-10786.23,-18205.875,-29914.83,-52346.34,-26276.445,-26955.495
1764505257.011226,20246.04,-14621.625,-10781.415,-18201.87,-29910.195,-52342.47,-26272.35,-26951.085
1764505257.011226,20246.4,-14621.4,-10781.28,-18201.825,-29910.465,-52342.74,-26271.765,-26950.545
1764505257.011226,20241.765,-14626.665,-10786.545,-18206.235,-29915.82,-52347.78,-26276.76,-26955.63
1764505257.011226,20242.845,-14626.08,-10786.005,-18205.245,-29915.37,-52346.97,-26276.04,-26954.595
1764505257.011226,20245.05,-14623.605,-10783.17,-18202.725,-29912.58,-52344.27,-26273.52,-26951.895
1764505257.011226,20242.08,-14626.62,-10786.59,-18206.415,-29915.64,-52347.555,-26277.075,-26955.63
1764505257.011226,20241.99,-14625.765,-10786.095,-18206.01,-29915.055,-52346.925,-26276.58,-26955.315
1764505257.0122385,20244.24,-14623.605,-10783.305,-18203.49,-29912.94,-52344.405,-26272.8,-26951.805
1764505257.0122385,20241.09,-14627.295,-10786.815,-18206.865,-29916.63,-52348.005,-26276.265,-26955.45
1764505257.0122385,20242.53,-14625.9,-10785.735,-18205.425,-29915.505,-52347.51,-26275.905,-26955.135
1764505257.0122385,20246.985,-14621.4,-10780.515,-18201.015,-29910.06,-52342.785,-26271.585,-26950.905
1764505257.0122385,20246.67,-14621.58,-10780.515,-18201.015,-29910.105,-52342.515,-26271.27,-26951.13
1764505257.0122385,20242.08,-14625.765,-10784.79,-18205.56,-29914.515,-52346.34,-26275.815,-26954.64
1764505257.0122385,20245.365,-14622.84,-10781.19,-18201.915,-29911.095,-52342.965,-26272.395,-26951.49
1764505257.0122385,20244.645,-14623.74,-10782.135,-18201.915,-29911.725,-52344.315,-26272.575,-26952.93
1764505257.0122385,20243.385,-14625.225,-10784.115,-18203.625,-29913.48,-52346.295,-26274.24,-26954.955
1764505257.0122385,20242.665,-14625.945,-10784.655,-18204.705,-29914.47,-52346.385,-26275.455,-26955.855
1764505257.0122385,20239.83,-14628.735,-10786.905,-18207.495,-29916.99,-52348.905,-26278.065,-26958.015
1764505257.0122385,20238.885,-14629.455,-10788.66,-18208.305,-29918.16,-52349.895,-26278.83,-26958.78
1764505257.0611436,20241.09,-14627.07,-10786.5,-18206.37,-29915.595,-52347.915,-26276.715,-26956.665
1764505257.0611436,20245.32,-14623.02,-10782.585,-18202.41,-29911.455,-52343.685,-26273.025,-26953.245
1764505257.0611436,20245.995,-14622.975,-10782.405,-18202.365,-29911.59,-52344.045,-26272.845,-26952.84
1764505257.0611436,20241.855,-14626.89,-10785.51,-18204.93,-29915.1,-52347.555,-26276.49,-26955.945
1764505257.0611436,20243.025,-14625.72,-10784.25,-18203.67,-29913.345,-52345.53,-26274.15,-26953.965
1764505257.0611436,20240.595,-14628.645,-10786.995,-18206.685,-29916.54,-52348.41,-26277.12,-26957.025
1764505257.0611436,20241.855,-14627.07,-10785.195,-18204.84,-29915.775,-52347.06,-26276.31,-26955.765
1764505257.0611436,20241.27,-14627.115,-10785.06,-18204.84,-29915.46,-52346.34,-26276.04,-26955.855
1764505257.0611436,20242.305,-14625.99,-10782.63,-18203.265,-29913.615,-52344.765,-26273.88,-26955.18
1764505257.0611436,20244.15,-14623.83,-10781.235,-18201.33,-29911.95,-52342.155,-26272.17,-26953.38
1764505257.0611436,20247.435,-14620.545,-10777.5,-18197.91,-29908.215,-52338.645,-26268.885,-26949.69
1764505257.0611436,20249.235,-14620.59,-10778.265,-18198.315,-29909.295,-52339.59,-26270.145,-26948.655
1764505257.0611436,20247.435,-14623.2,-10782.09,-18201.33,-29912.805,-52343.505,-26273.52,-26950.455
1764505257.0611436,20241.36,-14628.735,-10787.22,-18205.695,-29916.81,-52347.825,-26278.11,-26956.08
1764505257.0611436,20241.72,-14628.735,-10787.265,-18205.155,-29916.765,-52347.555,-26277.345,-26956.53
1764505257.0611436,20246.085,-14624.01,-10782.765,-18200.835,-29912.49,-52343.28,-26273.07,-26952.615
1764505257.0611436,20247.03,-14623.155,-10781.82,-18200.205,-29911.77,-52342.2,-26272.395,-26951.67
1764505257.0611436,20244.42,-14626.125,-10784.655,-18203.355,-29914.335,-52344.315,-26275.095,-26955.045
1764505257.0611436,20244.78,-14625.675,-10783.755,-18202.545,-29913.795,-52344.09,-26274.42,-26953.605
1764505257.0611436,20243.07,-14627.295,-10785.375,-18204.3,-29915.595,-52345.26,-26276.58,-26955.18
1764505257.0611436,20244.69,-14626.26,-10784.34,-18202.41,-29914.02,-52343.64,-26275.545,-26953.695
1764505257.0611436,20248.335,-14622.66,-10780.38,-18198.99,-29909.97,-52339.68,-26270.955,-26949.96
1764505257.108122,20249.595,-14621.04,-10778.49,-18197.82,-29908.8,-52338.6,-26268.84,-26948.61
1764505257.108122,20247.57,-14622.57,-10779.84,-18199.305,-29909.88,-52340.31,-26270.37,-26950.095
1764505257.108122,20245.995,-14624.775,-10781.595,-18201.69,-29912.13,-52341.885,-26272.755,-26952.39
1764505257.108122,20243.43,-14627.295,-10783.53,-18204.12,-29913.93,-52344.495,-26275.455,-26954.64
1764505257.108122,20245.365,-14625.54,-10781.91,-18202.59,-29912.4,-52342.83,-26273.205,-26952.795
1764505257.108122,20245.095,-14625.855,-10782.405,-18203.265,-29912.355,-52342.38,-26273.115,-26953.425
1764505257.108122,20241.495,-14629.59,-10786.095,-18206.865,-29916.405,-52346.565,-26277.165,-26956.98
1764505257.108122,20241.81,-14629.365,-10785.915,-18206.82,-29916.045,-52346.43,-26278.155,-26956.575
1764505257.108122,20244.96,-14625.855,-10782.27,-18202.59,-29912.49,-52342.695,-26274.51,-26952.84
1764505257.108122,20243.79,-14627.79,-10783.17,-18203.985,-29913.885,-52344.63,-26275.095,-26954.685
1764505257.108122,20244.87,-14626.62,-10781.775,-18202.23,-29912.355,-52343.415,-26273.385,-26953.425
1764505257.108122,20241.72,-14629.41,-10784.835,-18205.29,-29915.91,-52346.88,-26276.85,-26956.17
1764505257.108122,20242.035,-14629.86,-10784.295,-18205.065,-29915.775,-52346.565,-26277.03,-26955.855
1764505257.108122,20243.925,-14627.385,-10781.505,-18202.32,-29913.03,-52343.595,-26274.42,-26953.515
1764505257.108122,20240.82,-14630.355,-10784.745,-18205.065,-29916.54,-52346.295,-26277.525,-26956.35
1764505257.108122,20241.27,-14629.995,-10784.52,-18205.2,-29915.865,-52346.115,-26277.795,-26955.81
1764505257.108122,20245.005,-14626.35,-10780.065,-18201.375,-29911.365,-52341.795,-26273.655,-26952.345
1764505257.108122,20245.545,-14625.945,-10779.255,-18200.745,-29911.275,-52341.705,-26273.43,-26951.31
1764505257.108122,20244.735,-14627.205,-10781.01,-18201.24,-29912.94,-52343.37,-26274.96,-26953.11
1764505257.108122,20248.695,-14623.065,-10777.14,-18197.325,-29908.665,-52338.915,-26270.955,-26949.42
1764505257.108122,20248.65,-14622.39,-10775.97,-18196.605,-29907.675,-52337.79,-26270.775,-26948.655
1764505257.108122,20246.445,-14624.505,-10778.31,-18198.945,-29909.565,-52339.995,-26272.395,-26950.41
1764505257.108122,20243.655,-14627.745,-10781.73,-18201.915,-29913.03,-52343.685,-26275.41,-26953.65
1764505257.108122,20246.265,-14625.09,-10779.345,-18199.44,-29910.195,-52341.3,-26273.34,-26951.13
1764505257.1496148,20246.13,-14624.325,-10779.165,-18198.81,-29910.285,-52340.625,-26272.755,-26950.545
1764505257.1496148,20246.175,-14624.415,-10778.22,-18198.54,-29910.105,-52340.49,-26272.98,-26951.445
1764505257.1496148,20243.61,-14627.565,-10781.37,-18201.915,-29913.21,-52343.82,-26275.995,-26954.685
1764505257.1496148,20243.835,-14627.79,-10781.865,-18202.23,-29913.39,-52344.0,-26276.085,-26954.505
1764505257.1496148,20245.32,-14625.855,-10780.74,-18201.465,-29911.77,-52342.425,-26274.735,-26953.245
1764505257.1496148,20244.915,-14625.855,-10780.785,-18201.105,-29911.86,-52342.02,-26274.69,-26953.29
1764505257.1496148,20248.47,-14622.705,-10777.095,-18197.91,-29908.935,-52339.14,-26271.405,-26949.96
1764505257.1496148,20246.895,-14623.515,-10778.67,-18199.035,-29910.645,-52340.49,-26272.89,-26950.995
1764505257.1496148,20245.905,-14625.54,-10779.615,-18200.745,-29911.905,-52341.84,-26273.88,-26951.715
1764505257.1496148,20242.17,-14629.68,-10783.08,-18203.58,-29915.325,-52345.395,-26277.66,-26955.09
1764505257.1496148,20242.395,-14628.285,-10782.765,-18202.68,-29914.605,-52344.405,-26276.94,-26954.685
1764505257.1496148,20244.24,-14626.53,-10781.1,-18201.105,-29912.715,-52342.785,-26275.545,-26952.57
1764505257.1496148,20241.9,-14629.905,-10783.215,-18203.58,-29915.37,-52345.665,-26277.345,-26955.27
1764505257.1496148,20245.545,-14625.54,-10779.525,-18199.395,-29910.69,-52341.345,-26272.8,-26951.94
1764505257.1496148,20244.87,-14626.44,-10779.93,-18200.295,-29910.24,-52341.12,-26272.71,-26952.435
1764505257.1496148,20244.195,-14627.295,-10779.48,-18200.25,-29910.33,-52340.805,-26273.475,-26952.975
1764505257.150792,20244.285,-14628.51,-10781.415,-18202.86,-29912.715,-52342.47,-26275.32,-26953.155
1764505257.151823,20240.64,-14632.92,-10786.32,-18207.81,-29917.665,-52348.14,-26280.585,-26957.295
1764505257.151823,20241.045,-14631.66,-10785.105,-18205.74,-29915.685,-52347.105,-26279.055,-26956.53
1764505257.151823,20243.25,-14629.77,-10782.315,-18203.265,-29914.515,-52344.9,-26276.895,-26954.64
1764505257.151823,20244.645,-14627.97,-10780.155,-18201.105,-29911.995,-52342.785,-26275.32,-26952.66
1764505257.151823,20244.555,-14627.745,-10779.48,-18200.52,-29911.455,-52342.47,-26274.87,-26952.885
1764505257.151823,20245.365,-14627.025,-10779.255,-18200.295,-29911.185,-52342.065,-26274.42,-26952.345
1764505257.1528106,20243.475,-14629.365,-10781.73,-18202.635,-29913.795,-52344.18,-26277.345,-26955.135
1764505257.195785,20244.15,-14628.69,-10780.47,-18201.42,-29912.76,-52342.785,-26276.58,-26954.325
1764505257.1963089,20245.5,-14626.8,-10778.49,-18199.53,-29911.5,-52341.075,-26273.655,-26953.065
1764505257.1963089,20247.75,-14625.315,-10776.78,-18197.73,-29909.79,-52339.77,-26271.99,-26950.995
1764505257.1963089,20244.06,-14629.275,-10780.74,-18201.195,-29913.21,-52343.685,-26275.77,-26954.505
1764505257.1963089,20245.095,-14627.88,-10780.245,-18199.215,-29913.165,-52342.065,-26274.285,-26953.065
1764505257.1963089,20245.59,-14627.34,-10779.615,-18198.765,-29912.13,-52341.48,-26274.015,-26952.39
1764505257.1963089,20247.435,-14626.26,-10778.22,-18198.405,-29911.185,-52339.545,-26272.755,-26952.075
1764505257.1963089,20250.135,-14623.335,-10774.44,-18194.76,-29908.08,-52336.62,-26269.335,-26949.105
1764505257.1963089,20246.22,-14626.98,-10778.895,-18198.585,-29911.41,-52340.76,-26273.43,-26952.615
1764505257.1963089,20245.815,-14626.89,-10778.445,-18198.99,-29910.465,-52340.895,-26274.015,-26953.065
1764505257.1963089,20245.68,-14626.53,-10778.805,-18198.36,-29910.69,-52341.12,-26274.33,-26953.245
1764505257.1963089,20248.155,-14624.055,-10776.555,-18195.705,-29908.395,-52338.195,-26272.08,-26950.32
1764505257.1963089,20251.485,-14620.05,-10772.325,-18191.835,-29904.48,-52334.325,-26268.12,-26946.45
1764505257.1963089,20249.955,-14621.49,-10773.72,-18193.185,-29905.965,-52335.855,-26269.965,-26948.565
1764505257.1963089,20248.47,-14623.11,-10775.295,-18195.12,-29907.72,-52337.52,-26271.405,-26950.365
1764505257.1963089,20244.375,-14626.98,-10779.165,-18199.845,-29911.95,-52341.435,-26275.41,-26954.37
1764505257.1963089,20246.49,-14624.595,-10777.59,-18197.55,-29909.79,-52339.68,-26273.565,-26952.345
1764505257.1973417,20250.81,-14620.725,-10773.405,-18193.14,-29905.38,-52335.045,-26269.65,-26948.025
1764505257.1973417,20247.615,-14625.315,-10777.05,-18197.055,-29909.43,-52338.195,-26273.97,-26951.67
1764505257.1973417,20246.76,-14626.755,-10778.085,-18198.495,-29909.97,-52339.59,-26274.96,-26952.795
1764505257.1973417,20250.405,-14622.57,-10774.125,-18194.805,-29906.595,-52336.08,-26270.865,-26949.33
1764505257.1973417,20250.27,-14622.57,-10773.45,-18194.22,-29906.055,-52335.855,-26270.145,-26948.43
1764505257.1973417,20253.555,-14619.105,-10770.255,-18190.89,-29902.275,-52332.075,-26266.14,-26944.785
1764505257.1973417,20251.395,-14621.175,-10772.325,-18193.32,-29903.535,-52334.145,-26268.345,-26946.945
1764505257.2458212,20246.985,-14626.08,-10776.78,-18197.73,-29908.26,-52339.005,-26273.79,-26951.85
1764505257.2458212,20247.48,-14625.585,-10776.15,-18196.47,-29907.72,-52338.195,-26273.565,-26951.58
1764505257.2458212,20251.215,-14622.39,-10772.865,-18193.59,-29904.255,-52334.37,-26269.695,-26948.07
1764505257.2458212,20252.16,-14621.85,-10772.325,-18193.23,-29904.3,-52333.92,-26269.38,-26948.07
1764505257.2458212,20250.27,-14623.245,-10773.675,-18195.03,-29905.695,-52336.08,-26270.73,-26949.915
1764505257.2458212,20246.49,-14627.025,-10776.915,-18198.495,-29909.745,-52339.23,-26274.645,-26953.02
1764505257.2458212,20243.745,-14631.39,-10780.47,-18201.33,-29913.39,-52342.155,-26278.065,-26956.53
1764505257.2458212,20246.805,-14628.465,-10777.545,-18198.72,-29910.375,-52339.05,-26275.59,-26953.92
1764505257.2458212,20246.265,-14629.455,-10778.895,-18200.07,-29911.815,-52340.49,-26276.805,-26955.18
1764505257.2458212,20244.375,-14631.03,-10780.92,-18201.69,-29913.885,-52342.38,-26278.83,-26957.205
1764505257.2458212,20241.855,-14633.145,-10782.9,-18203.895,-29916.63,-52344.63,-26281.305,-26959.005
1764505257.2458212,20238.705,-14636.115,-10786.095,-18207.72,-29919.69,-52347.42,-26284.32,-26962.515
1764505257.2458212,20239.38,-14636.025,-10785.105,-18206.91,-29918.97,-52345.935,-26283.195,-26961.39
1764505257.2458212,20240.415,-14634.63,-10784.115,-18205.2,-29916.99,-52343.91,-26281.665,-26959.455
1764505257.2458212,20243.295,-14630.535,-10780.83,-18201.78,-29913.615,-52341.435,-26277.75,-26956.395
1764505257.2458212,20240.19,-14633.325,-10783.62,-18204.705,-29917.305,-52344.18,-26281.35,-26959.275
1764505257.2458212,20239.245,-14634.54,-10784.7,-18205.74,-29918.34,-52345.125,-26282.52,-26960.22
1764505257.2458212,20239.56,-14633.64,-10783.62,-18204.39,-29917.215,-52343.955,-26280.63,-26958.78
1764505257.2458212,20244.42,-14628.195,-10778.76,-18199.395,-29912.31,-52339.41,-26275.95,-26953.65
1764505257.2458212,20244.105,-14628.87,-10779.21,-18200.25,-29913.255,-52339.815,-26276.535,-26954.28
1764505257.2458212,20242.935,-14629.77,-10780.335,-18201.645,-29914.065,-52340.625,-26277.57,-26955.765
1764505257.2458212,20240.055,-14631.345,-10781.19,-18202.455,-29914.65,-52341.975,-26278.965,-26957.52
1764505257.2458212,20237.265,-14634.36,-10784.115,-18205.785,-29917.395,-52345.305,-26282.115,-26961.705
1764505257.2458212,20239.515,-14632.11,-10781.82,-18203.445,-29914.515,-52341.84,-26279.595,-26958.915
1764505257.2903702,20239.47,-14634.18,-10783.845,-18205.965,-29916.81,-52344.54,-26281.26,-26960.04
1764505257.2903702,20240.505,-14633.91,-10783.98,-18205.965,-29916.765,-52345.215,-26281.62,-26958.555
1764505257.2903702,20242.935,-14630.805,-10780.83,-18202.59,-29913.705,-52341.885,-26278.515,-26955.405
1764505257.2903702,20241.72,-14631.3,-10781.55,-18203.22,-29914.965,-52342.245,-26279.19,-26956.44
1764505257.2903702,20244.96,-14628.555,-10778.085,-18200.295,-29912.085,-52338.87,-26275.545,-26953.065
1764505257.2903702,20243.43,-14630.445,-10779.48,-18201.645,-29912.94,-52340.49,-26277.255,-26954.955
1764505257.2903702,20239.155,-14633.955,-10782.63,-18205.02,-29916.495,-52344.09,-26281.305,-26958.87
1764505257.2903702,20240.145,-14633.55,-10781.37,-18204.12,-29915.595,-52343.415,-26280.36,-26957.205
1764505257.2903702,20242.485,-14631.57,-10779.525,-18202.365,-29913.615,-52341.885,-26278.515,-26955.09
1764505257.2903702,20240.235,-14634.27,-10782.09,-18204.39,-29914.92,-52343.595,-26280.315,-26957.79
1764505257.2903702,20242.44,-14631.435,-10779.345,-18201.78,-29911.905,-52340.67,-26277.255,-26954.685
1764505257.2903702,20241.99,-14631.48,-10779.57,-18202.725,-29913.12,-52340.76,-26277.345,-26955.18
1764505257.2903702,20240.145,-14633.73,-10782.09,-18204.57,-29915.145,-52342.875,-26279.73,-26957.43
1764505257.2903702,20243.295,-14630.625,-10778.49,-18200.97,-29911.77,-52339.59,-26276.67,-26953.965
1764505257.2913842,20243.475,-14630.22,-10778.04,-18200.7,-29911.005,-52338.96,-26276.355,-26953.65
1764505257.2913842,20239.56,-14634.54,-10782.09,-18205.065,-29915.91,-52343.37,-26280.315,-26958.195
1764505257.2913842,20241.405,-14633.37,-10780.47,-18203.355,-29914.11,-52342.245,-26278.65,-26956.755
1764505257.2913842,20237.355,-14637.465,-10783.98,-18207.9,-29918.475,-52346.385,-26282.43,-26961.75
1764505257.2913842,20237.265,-14638.185,-10783.89,-18208.395,-29918.655,-52346.655,-26282.565,-26962.245
1764505257.2913842,20240.37,-14634.765,-10780.56,-18204.93,-29914.92,-52343.325,-26279.82,-26958.51
1764505257.2913842,20238.795,-14636.07,-10782.045,-18206.145,-29916.855,-52344.585,-26281.125,-26960.22
1764505257.2913842,20241.945,-14633.37,-10779.525,-18202.68,-29913.615,-52341.705,-26278.02,-26957.52
1764505257.2913842,20241.72,-14633.82,-10779.525,-18202.905,-29913.48,-52342.92,-26278.47,-26957.79
1764505257.2913842,20241.045,-14633.73,-10779.48,-18202.86,-29913.795,-52342.605,-26278.92,-26958.24
1764505257.340252,20241.09,-14633.46,-10779.615,-18202.32,-29913.84,-52341.795,-26278.605,-26957.835
1764505257.340252,20239.29,-14635.125,-10781.73,-18204.03,-29915.415,-52343.37,-26279.64,-26959.275
1764505257.340252,20235.78,-14638.725,-10785.51,-18207.585,-29919.51,-52347.06,-26283.15,-26962.92
1764505257.340252,20236.23,-14638.545,-10785.24,-18206.64,-29918.745,-52346.52,-26281.98,-26962.02
1764505257.340252,20240.19,-14633.865,-10781.415,-18201.96,-29914.47,-52342.425,-26277.795,-26957.565
1764505257.340252,20240.055,-14634.63,-10781.28,-18202.77,-29915.325,-52343.145,-26279.145,-26958.555
1764505257.340252,20235.6,-14638.41,-10784.565,-18207.045,-29919.78,-52347.24,-26282.79,-26962.605
1764505257.340252,20236.185,-14637.195,-10784.07,-18206.37,-29918.115,-52346.07,-26281.17,-26961.705
1764505257.340252,20237.49,-14635.71,-10782.45,-18205.155,-29916.81,-52344.54,-26280.315,-26960.58
1764505257.340252,20239.335,-14634.855,-10780.56,-18204.12,-29915.505,-52343.1,-26279.055,-26959.455
1764505257.3406649,20242.395,-14631.705,-10777.59,-18200.835,-29912.4,-52339.635,-26275.905,-26956.215
1764505257.3406649,20238.57,-14635.53,-10781.19,-18204.48,-29915.955,-52343.64,-26280.09,-26959.815
1764505257.3406649,20239.245,-14635.53,-10780.605,-18204.21,-29916.495,-52343.46,-26279.955,-26959.41
1764505257.3406649,20239.56,-14635.035,-10780.47,-18203.76,-29916.27,-52343.19,-26279.73,-26958.78
1764505257.3406649,20242.17,-14632.065,-10777.95,-18200.97,-29913.3,-52341.03,-26277.615,-26956.35
1764505257.3406649,20241.72,-14632.155,-10777.725,-18200.88,-29912.985,-52340.805,-26277.795,-26956.89
1764505257.3406649,20240.1,-14632.965,-10778.85,-18202.815,-29914.56,-52341.705,-26277.93,-26957.43
1764505257.3406649,20239.965,-14633.595,-10779.885,-18203.49,-29914.875,-52341.345,-26278.335,-26958.195
1764505257.3406649,20238.435,-14635.89,-10781.82,-18205.02,-29916.27,-52343.19,-26279.82,-26960.22
1764505257.3406649,20236.995,-14637.6,-10782.585,-18207.09,-29917.485,-52344.81,-26281.395,-26961.435
1764505257.3406649,20239.38,-14634.945,-10779.615,-18204.21,-29915.055,-52342.695,-26279.28,-26958.375
1764505257.3406649,20235.375,-14639.58,-10784.43,-18208.53,-29919.195,-52346.565,-26283.825,-26963.055
1764505257.3406649,20235.06,-14640.165,-10784.97,-18209.205,-29919.87,-52347.465,-26283.915,-26963.46
1764505257.3406649,20236.77,-14638.455,-10783.44,-18207.405,-29918.16,-52345.395,-26281.8,-26961.03
1764505257.3848748,20241.27,-14633.865,-10779.12,-18202.59,-29913.435,-52340.265,-26276.805,-26956.845
1764505257.3848748,20239.335,-14634.945,-10780.065,-18202.905,-29913.48,-52340.94,-26277.165,-26958.15
1764505257.3848748,20235.15,-14638.635,-10782.99,-18206.19,-29917.125,-52344.945,-26280.99,-26961.57
1764505257.3848748,20237.445,-14636.07,-10779.39,-18202.545,-29914.11,-52341.525,-26278.02,-26958.375
1764505257.3858924,20239.47,-14635.17,-10779.345,-18202.68,-29914.2,-52342.245,-26277.885,-26957.115
1764505257.3858924,20239.785,-14636.565,-10781.865,-18205.155,-29916.315,-52344.495,-26279.955,-26957.79
1764505257.3858924,20243.745,-14632.74,-10777.365,-18200.97,-29911.32,-52339.59,-26275.23,-26954.01
1764505257.3858924,20243.7,-14632.92,-10776.645,-18200.88,-29911.14,-52339.455,-26274.69,-26954.55
1764505257.3858924,20243.295,-14633.055,-10776.195,-18200.97,-29911.41,-52339.455,-26274.465,-26954.415
1764505257.3858924,20240.685,-14635.305,-10778.58,-18203.265,-29913.48,-52341.57,-26277.12,-26956.62
1764505257.3858924,20238.12,-14638.005,-10781.37,-18205.965,-29916.045,-52344.765,-26279.82,-26959.815
1764505257.3858924,20240.145,-14635.89,-10778.76,-18203.445,-29913.93,-52343.055,-26277.84,-26957.385
1764505257.3858924,20237.085,-14638.725,-10782.27,-18206.82,-29916.9,-52345.8,-26281.8,-26960.58
1764505257.3858924,20237.49,-14638.68,-10781.64,-18205.965,-29916.18,-52345.215,-26280.72,-26960.265
1764505257.3858924,20240.685,-14634.81,-10778.49,-18202.725,-29913.705,-52342.02,-26277.21,-26957.34
1764505257.3858924,20238.795,-14636.565,-10779.93,-18204.57,-29915.46,-52343.28,-26278.965,-26959.185
1764505257.3858924,20241.855,-14634.135,-10777.23,-18201.825,-29912.445,-52340.805,-26276.625,-26955.99
1764505257.3858924,20238.66,-14638.32,-10781.325,-18205.785,-29915.82,-52344.54,-26280.09,-26960.22
1764505257.3858924,20240.505,-14636.655,-10778.895,-18203.04,-29913.75,-52342.515,-26278.065,-26958.42
1764505257.3858924,20239.74,-14636.07,-10778.67,-18202.815,-29912.94,-52341.93,-26277.93,-26958.24
1764505257.4333088,20239.92,-14636.52,-10778.895,-18203.265,-29912.58,-52342.065,-26278.38,-26958.24
1764505257.4333088,20241.225,-14635.935,-10778.085,-18202.77,-29912.58,-52341.075,-26277.84,-26956.845
1764505257.4333088,20239.695,-14638.14,-10780.065,-18204.525,-29914.425,-52343.28,-26279.37,-26958.15
1764505257.4333088,20237.265,-14640.255,-10782.54,-18207.63,-29916.315,-52345.8,-26281.395,-26960.76
1764505257.4333088,20239.605,-14636.655,-10779.795,-18203.805,-29913.345,-52342.965,-26277.93,-26958.24
1764505257.4333088,20240.685,-14634.855,-10778.445,-18201.96,-29912.445,-52341.615,-26276.76,-26957.205
1764505257.4333088,20241.315,-14634.72,-10777.365,-18201.195,-29912.67,-52341.165,-26277.255,-26956.35
1764505257.43493,20237.895,-14638.32,-10781.01,-18204.39,-29916.18,-52344.585,-26281.08,-26960.715
1764505257.43493,20240.46,-14636.745,-10778.85,-18203.04,-29913.93,-52342.065,-26278.92,-26958.87
1764505257.43493,20238.93,-14638.815,-10780.92,-18205.2,-29915.46,-52343.685,-26280.9,-26960.67
1764505257.43493,20241.81,-14635.08,-10777.95,-18202.095,-29912.49,-52341.3,-26278.02,-26957.7
1764505257.43493,20240.28,-14634.99,-10778.04,-18202.095,-29913.255,-52341.525,-26277.75,-26958.285
1764505257.43493,20239.965,-14635.575,-10778.445,-18202.14,-29913.57,-52341.57,-26277.345,-26957.61
1764505257.43493,20238.435,-14637.24,-10779.93,-18203.49,-29914.695,-52342.875,-26279.145,-26959.5
1764505257.436464,20242.485,-14633.325,-10775.655,-18199.71,-29910.33,-52339.32,-26275.32,-26955.945
1764505257.436464,20243.97,-14632.065,-10773.9,-18198.09,-29909.205,-52337.61,-26274.15,-26955.045
1764505257.4368389,20244.105,-14632.695,-10774.53,-18198.315,-29909.295,-52337.295,-26274.195,-26955.18
1764505257.4368389,20241.54,-14634.54,-10776.645,-18200.745,-29911.095,-52339.815,-26276.445,-26957.43
1764505257.4368389,20244.195,-14631.345,-10773.315,-18197.505,-29908.35,-52337.52,-26273.61,-26954.055
1764505257.4368389,20243.52,-14632.695,-10774.755,-18198.675,-29909.205,-52337.745,-26274.87,-26954.73
1764505257.4374766,20240.775,-14635.125,-10778.04,-18201.555,-29911.68,-52340.085,-26277.345,-26958.105
1764505257.4374766,20241.81,-14633.82,-10776.195,-18200.07,-29910.69,-52338.6,-26276.22,-26956.62
1764505257.4374766,20238.795,-14637.33,-10778.49,-18202.995,-29913.525,-52341.75,-26279.595,-26959.545
1764505257.4374766,20240.01,-14635.62,-10776.735,-18200.79,-29912.04,-52340.265,-26277.93,-26957.475
1764505257.478134,20236.635,-14638.365,-10779.84,-18203.76,-29915.055,-52343.73,-26281.62,-26960.535
1764505257.478134,20237.67,-14637.375,-10779.84,-18202.995,-29913.39,-52342.515,-26280.18,-26959.815
1764505257.478134,20240.685,-14634.135,-10776.555,-18199.305,-29910.465,-52339.14,-26276.49,-26956.755
1764505257.478134,20237.535,-14637.465,-10779.57,-18203.13,-29913.795,-52343.37,-26279.955,-26960.22
1764505257.478134,20238.12,-14637.465,-10779.435,-18202.995,-29913.345,-52342.605,-26279.055,-26959.545
1764505257.478134,20240.73,-14635.53,-10777.32,-18200.43,-29911.365,-52340.58,-26276.175,-26957.52
1764505257.478134,20238.3,-14638.5,-10779.84,-18203.22,-29914.65,-52343.865,-26279.01,-26959.995
1764505257.478134,20240.73,-14635.44,-10777.5,-18199.98,-29911.545,-52340.535,-26276.355,-26957.205
1764505257.478134,20237.94,-14637.87,-10779.39,-18202.905,-29913.93,-52342.965,-26278.83,-26959.545
1764505257.478134,20237.535,-14638.68,-10780.29,-18203.625,-29914.29,-52343.865,-26279.55,-26960.31
1764505257.478134,20239.83,-14637.105,-10778.58,-18201.555,-29912.175,-52341.84,-26278.155,-26958.465
1764505257.478134,20243.61,-14632.695,-10774.98,-18197.415,-29909.205,-52337.475,-26273.925,-26954.37
1764505257.478134,20243.34,-14632.155,-10774.08,-18196.695,-29908.755,-52336.62,-26273.43,-26953.83
1764505257.478134,20242.53,-14632.47,-10774.395,-18197.505,-29909.52,-52336.89,-26273.745,-26954.19
1764505257.478134,20242.98,-14633.505,-10775.115,-18198.765,-29909.835,-52338.195,-26275.32,-26954.82
1764505257.478134,20241.81,-14634.09,-10776.015,-18200.205,-29910.105,-52338.69,-26275.995,-26955.18
1764505257.478134,20242.53,-14633.64,-10775.52,-18200.115,-29910.195,-52338.285,-26275.455,-26954.82
1764505257.478134,20241.45,-14635.035,-10776.015,-18200.565,-29911.455,-52338.825,-26275.995,-26955.54
1764505257.478134,20240.955,-14636.61,-10776.87,-18201.735,-29911.77,-52339.545,-26276.895,-26956.44
1764505257.478134,20241.945,-14635.53,-10776.69,-18201.87,-29909.88,-52339.14,-26276.265,-26955.585
1764505257.4796708,20241.36,-14635.89,-10777.725,-18202.59,-29911.32,-52339.005,-26276.58,-26956.26
1764505257.4796708,20240.19,-14637.33,-10778.58,-18203.625,-29913.255,-52340.355,-26277.93,-26957.97
1764505257.4796708,20244.105,-14633.595,-10774.215,-18199.395,-29909.475,-52336.89,-26274.33,-26953.74
1764505257.4796708,20243.025,-14635.26,-10775.205,-18200.16,-29909.79,-52336.98,-26275.365,-26954.73
1764505257.527918,20243.16,-14634.315,-10774.8,-18199.215,-29908.53,-52336.17,-26274.87,-26954.865
1764505257.527918,20240.955,-14635.845,-10776.15,-18200.205,-29909.7,-52336.845,-26275.815,-26956.08
1764505257.527918,20238.48,-14639.31,-10778.67,-18202.995,-29912.94,-52339.23,-26278.47,-26958.555
1764505257.527918,20243.25,-14636.61,-10776.33,-18200.745,-29911.365,-52337.565,-26275.725,-26955.315
1764505257.5284517,20239.335,-14639.805,-10779.075,-18204.03,-29915.415,-52340.805,-26279.865,-26959.95
1764505257.5284517,20238.525,-14640.57,-10778.445,-18204.03,-29914.47,-52340.175,-26279.505,-26960.22
1764505257.5284517,20240.28,-14639.49,-10777.05,-18202.68,-29912.715,-52338.915,-26278.695,-26959.455
1764505257.5284517,20239.92,-14640.345,-10778.49,-18203.805,-29913.705,-52340.445,-26280.0,-26961.48
1764505257.5284517,20239.02,-14641.425,-10780.695,-18206.685,-29915.82,-52342.38,-26281.89,-26963.28
1764505257.5284517,20237.715,-14642.64,-10782.0,-18207.18,-29917.44,-52343.235,-26283.33,-26963.955
1764505257.5284517,20236.68,-14642.37,-10781.73,-18207.315,-29917.98,-52343.64,-26283.915,-26964.18
1764505257.5284517,20234.52,-14644.575,-10783.53,-18209.925,-29919.645,-52345.395,-26285.895,-26966.25
1764505257.5284517,20238.03,-14641.065,-10780.56,-18206.145,-29915.865,-52342.47,-26282.295,-26962.29
1764505257.5284517,20238.615,-14640.165,-10779.885,-18204.525,-29915.01,-52341.84,-26281.395,-26960.85
1764505257.5284517,20236.68,-14641.38,-10780.245,-18205.02,-29915.91,-52342.965,-26282.025,-26961.93
1764505257.5284517,20235.105,-14642.55,-10781.19,-18206.505,-29916.855,-52343.37,-26283.105,-26963.865
1764505257.5284517,20233.08,-14644.845,-10783.44,-18207.99,-29918.925,-52345.8,-26284.905,-26965.98
1764505257.5284517,20231.37,-14646.195,-10785.6,-18209.97,-29920.86,-52347.915,-26286.66,-26968.095
1764505257.5284517,20234.61,-14642.415,-10781.775,-18206.82,-29918.115,-52344.45,-26283.105,-26964.81
1764505257.5284517,20231.415,-14645.205,-10784.34,-18208.935,-29920.365,-52346.385,-26285.895,-26967.15
1764505257.5284517,20233.845,-14642.595,-10781.01,-18205.92,-29917.755,-52344.18,-26283.78,-26964.81
1764505257.5284517,20233.53,-14643.045,-10781.145,-18207.045,-29918.745,-52344.675,-26284.23,-26965.215
1764505257.5284517,20230.92,-14645.34,-10783.305,-18209.385,-29920.68,-52347.24,-26285.85,-26966.97
1764505257.5284517,20228.76,-14647.635,-10785.51,-18211.545,-29922.57,-52349.13,-26287.065,-26969.445
1764505257.5725324,20233.395,-14643.855,-10781.37,-18207.18,-29918.475,-52346.07,-26283.6,-26965.62
1764505257.5725324,20230.83,-14646.915,-10784.025,-18209.43,-29920.455,-52348.59,-26286.345,-26968.635
1764505257.5730414,20231.685,-14645.295,-10782.18,-18207.72,-29918.34,-52346.565,-26284.545,-26967.105
1764505257.5730414,20230.605,-14644.98,-10783.305,-18207.99,-29919.105,-52347.33,-26284.455,-26966.97
1764505257.5730414,20234.025,-14640.975,-10779.57,-18204.615,-29915.28,-52343.73,-26280.135,-26962.695
1764505257.5730414,20233.08,-14643.18,-10781.415,-18206.64,-29916.99,-52345.89,-26282.115,-26964.27
1764505257.5730414,20230.56,-14646.105,-10783.665,-18209.205,-29919.87,-52348.77,-26284.95,-26967.42
1764505257.5730414,20233.395,-14643.36,-10779.615,-18205.83,-29916.45,-52345.755,-26281.71,-26964.54
1764505257.5730414,20233.71,-14643.225,-10779.21,-18205.515,-29916.18,-52344.54,-26280.945,-26963.19
1764505257.5730414,20232.495,-14643.36,-10780.245,-18205.965,-29915.82,-52344.09,-26280.72,-26963.235
1764505257.5730414,20230.83,-14644.935,-10781.865,-18207.765,-29917.305,-52346.115,-26282.475,-26965.305
1764505257.5730414,20228.58,-14648.04,-10784.88,-18210.465,-29920.14,-52348.905,-26285.445,-26968.545
1764505257.5730414,20229.66,-14646.78,-10783.98,-18209.205,-29919.6,-52347.69,-26283.96,-26967.645
1764505257.5730414,20232.09,-14643.72,-10781.37,-18206.685,-29916.765,-52345.62,-26281.485,-26964.54
