Timestamp,Channel1,Channel2,Channel3,Channel4,Channel5,Channel6,Channel7,Channel8
1764505879.8337042,18276.3,-23852.07,-7638.615,-16001.82,-28508.4,-47111.265,-23747.58,-24984.18
1764505879.8337042,18274.5,-23853.645,-7640.415,-16003.305,-28510.11,-47113.335,-23749.38,-24985.62
1764505879.8337042,18275.31,-23853.465,-7640.37,-16003.26,-28509.795,-47113.605,-23749.11,-24985.17
1764505879.8337042,18274.365,-23854.095,-7641.134999999999,-16003.8,-28510.605,-47113.695,-23749.965,-24986.295
1764505879.8337042,18273.645,-23855.13,-7641.855,-16004.745,-28511.73,-47114.055,-23750.46,-24986.79
1764505879.8337042,18270.81,-23858.19,-7644.195,-16007.49,-28514.655,-47117.07,-23752.62,-24989.49
1764505879.8337042,18274.05,-23854.815,-7640.415,-16004.52,-28511.46,-47114.28,-23749.2,-24986.34
1764505879.8337042,18274.86,-23854.32,-7639.965,-16003.62,-28510.38,-47113.155,-23747.985,-24985.44
1764505879.8337042,18274.545,-23854.23,-7640.82,-16003.755,-28510.11,-47113.155,-23748.255,-24985.62
1764505879.8337042,18273.645,-23854.59,-7641.0,-16003.575,-28510.335,-47113.785,-23748.885,-24985.845
1764505879.8337042,18273.195,-23854.815,-7641.045,-16003.665,-28509.84,-47113.965,-23748.615,-24986.025
1764505879.8337042,18269.28,-23858.55,-7645.005,-16007.04,-28514.52,-47117.655,-23752.17,-24989.715
1764505879.8337042,18270.675,-23857.83,-7644.105,-16006.23,-28513.305,-47116.62,-23751.405,-24988.095
1764505879.8347175,18271.485,-23857.245,-7643.115,-16005.78,-28512.495,-47115.63,-23750.73,-24987.15
1764505879.8347175,18273.51,-23855.49,-7640.82,-16004.43,-28510.29,-47113.965,-23749.695,-24985.35
1764505879.8347175,18276.525,-23852.79,-7637.58,-16002.045,-28507.275,-47111.265,-23746.68,-24982.47
1764505879.8347175,18276.3,-23852.835,-7637.355,-16002.045,-28507.59,-47111.805,-23746.23,-24981.975
1764505879.8347175,18275.85,-23853.06,-7637.67,-16002.63,-28507.86,-47112.165,-23746.41,-24982.425
1764505879.8347175,18273.375,-23855.445,-7640.054999999999,-16004.34,-28509.12,-47114.19,-23748.03,-24984.765
1764505879.8347175,18275.13,-23853.555,-7638.03,-16002.135,-28507.5,-47111.715,-23746.32,-24982.335
1764505879.8347175,18278.235,-23850.495,-7635.195,-15999.075,-28505.385,-47108.07,-23743.305,-24979.545
1764505879.8347175,18274.68,-23854.5,-7639.785,-16002.99,-28509.165,-47111.985,-23747.985,-24983.37
1764505879.8347175,18274.545,-23855.535,-7640.325,-16004.565,-28509.255,-47112.435,-23748.3,-24984.0
1764505879.8347175,18276.525,-23852.745,-7638.255,-16002.225,-28506.87,-47110.185,-23745.735,-24981.885
1764505879.882141,18275.4,-23852.88,-7638.884999999999,-16002.72,-28507.365,-47110.995,-23746.095,-24982.245
1764505879.882141,18270.405,-23856.57,-7642.62,-16006.68,-28511.595,-47115.405,-23749.92,-24986.61
1764505879.882141,18271.395,-23856.795,-7642.17,-16005.78,-28510.56,-47113.875,-23749.425,-24986.025
1764505879.882141,18273.105,-23855.76,-7641.63,-16004.565,-28509.66,-47112.48,-23748.435,-24985.53
1764505879.882141,18270.945,-23857.695,-7643.384999999999,-16006.23,-28511.955,-47114.82,-23750.145,-24987.735
1764505879.882141,18274.455,-23853.96,-7640.19,-16002.675,-28508.175,-47111.265,-23746.545,-24984.18
1764505879.882141,18274.95,-23853.51,-7639.514999999999,-16002.63,-28507.635,-47110.725,-23745.105,-24983.235
1764505879.882141,18272.88,-23855.67,-7641.09,-16004.61,-28509.795,-47112.615,-23746.275,-24984.72
1764505879.8831403,18270.81,-23858.28,-7642.755,-16007.04,-28511.955,-47114.955,-23748.03,-24986.565
1764505879.8831403,18273.24,-23855.76,-7639.74,-16004.07,-28509.3,-47112.255,-23745.33,-24984.18
1764505879.8831403,18272.655,-23856.66,-7640.865,-16004.655,-28509.84,-47112.93,-23746.59,-24985.17
1764505879.8831403,18275.31,-23854.05,-7637.894999999999,-16002.045,-28507.455,-47109.6,-23743.98,-24981.705
1764505879.8831403,18274.995,-23853.87,-7637.58,-16002.495,-28507.545,-47110.14,-23743.44,-24981.39
1764505879.8831403,18272.61,-23855.805,-7639.875,-16004.565,-28510.02,-47112.3,-23745.465,-24984.135
1764505879.8831403,18275.13,-23853.285,-7637.849999999999,-16002.18,-28507.725,-47110.68,-23743.44,-24982.425
1764505879.8831403,18272.835,-23855.895,-7640.639999999999,-16004.43,-28510.38,-47113.2,-23746.005,-24984.9
1764505879.8831403,18275.265,-23854.14,-7637.04,-16001.91,-28507.14,-47110.005,-23742.945,-24981.525
1764505879.8831403,18272.61,-23856.795,-7639.83,-16003.8,-28509.39,-47112.615,-23744.52,-24983.685
1764505879.8831403,18270.45,-23859.9,-7642.844999999999,-16007.22,-28512.72,-47115.63,-23747.13,-24986.79
1764505879.8831403,18270.81,-23859.945,-7642.44,-16006.815,-28512.54,-47115.36,-23747.31,-24986.43
1764505879.8831403,18274.41,-23855.94,-7637.894999999999,-16002.225,-28508.265,-47111.175,-23742.54,-24982.155
1764505879.8831403,18274.095,-23855.67,-7638.344999999999,-16002.945,-28507.95,-47111.13,-23742.9,-24982.605
1764505879.9246385,18270.855,-23858.685,-7641.99,-16006.5,-28510.065,-47114.055,-23745.6,-24985.935
1764505879.9251509,18270.945,-23859.54,-7641.945,-16006.365,-28510.695,-47114.145,-23746.095,-24986.52
1764505879.9251509,18272.43,-23859.18,-7641.405,-16006.005,-28510.515,-47113.155,-23744.745,-24985.71
1764505879.9251509,18275.805,-23855.625,-7638.884999999999,-16002.225,-28507.005,-47109.78,-23741.415,-24981.57
1764505879.9251509,18276.165,-23854.23,-7636.995,-16001.73,-28506.195,-47108.79,-23740.335,-24980.67
1764505879.9251509,18274.545,-23855.355,-7637.849999999999,-16002.63,-28507.14,-47109.6,-23740.83,-24981.705
1764505879.9261692,18273.87,-23856.615,-7638.389999999999,-16003.305,-28507.77,-47110.365,-23742.09,-24983.01
1764505879.9261692,18271.26,-23859.9,-7641.179999999999,-16005.51,-28510.2,-47112.93,-23744.925,-24986.115
1764505879.9261692,18272.88,-23857.785,-7639.559999999999,-16003.98,-28508.985,-47111.4,-23742.54,-24984.27
1764505879.9261692,18269.82,-23859.855,-7641.719999999999,-16006.005,-28511.64,-47113.335,-23744.07,-24986.25
1764505879.9261692,18272.88,-23856.84,-7638.615,-16004.34,-28508.805,-47110.005,-23740.74,-24983.55
1764505879.9261692,18272.655,-23857.56,-7638.974999999999,-16004.16,-28508.535,-47110.185,-23740.515,-24983.955
1764505879.9261692,18271.17,-23858.775,-7640.505,-16005.33,-28510.02,-47112.03,-23742.405,-24985.44
1764505879.9261692,18269.37,-23861.16,-7642.485,-16007.49,-28512.27,-47114.01,-23744.295,-24987.24
1764505879.9261692,18272.835,-23857.875,-7639.155,-16004.475,-28509.21,-47109.69,-23740.47,-24983.505
1764505879.9261692,18270.045,-23861.205,-7642.08,-16007.535,-28512.405,-47112.615,-23742.945,-24986.655
1764505879.927166,18266.355,-23864.76,-7645.049999999999,-16010.37,-28514.565,-47115.495,-23745.915,-24990.39
1764505879.927166,18265.14,-23865.435,-7645.32,-16010.685,-28515.24,-47115.315,-23745.915,-24990.84
1764505879.927166,18268.335,-23862.24,-7641.719999999999,-16007.985,-28511.82,-47112.39,-23742.855,-24987.6
1764505879.927166,18269.37,-23860.98,-7641.54,-16007.04,-28510.83,-47111.805,-23741.685,-24986.52
1764505879.927166,18270.63,-23860.53,-7640.955,-16006.23,-28510.695,-47110.905,-23740.695,-24986.025
1764505879.927166,18269.595,-23862.015,-7642.215,-16008.615,-28512.09,-47112.48,-23742.27,-24987.78
1764505879.9724388,18267.345,-23864.49,-7644.78,-16010.955,-28514.52,-47114.73,-23743.98,-24990.795
1764505879.9724388,18269.73,-23862.78,-7642.44,-16007.895,-28511.46,-47112.345,-23741.415,-24987.915
1764505879.9724388,18270.18,-23863.005,-7642.889999999999,-16007.67,-28511.865,-47112.66,-23741.28,-24988.23
1764505879.9724388,18265.815,-23866.965,-7646.894999999999,-16012.17,-28516.095,-47116.35,-23744.745,-24992.28
1764505879.973445,18269.73,-23863.185,-7642.889999999999,-16008.705,-28512.27,-47113.605,-23740.785,-24989.445
1764505879.973445,18269.19,-23863.455,-7643.384999999999,-16009.065,-28513.035,-47113.695,-23740.83,-24988.995
1764505879.9749882,18266.22,-23866.245,-7647.12,-16011.81,-28515.42,-47116.62,-23744.07,-24992.19
1764505879.9749882,18266.175,-23865.93,-7646.804999999999,-16011.405,-28514.7,-47116.215,-23742.99,-24991.56
1764505879.9749882,18269.055,-23862.825,-7643.429999999999,-16008.525,-28511.775,-47112.93,-23739.39,-24988.095
1764505879.9749882,18268.155,-23864.76,-7645.005,-16010.145,-28513.26,-47114.415,-23740.695,-24990.21
1764505879.9749882,18265.14,-23867.73,-7647.48,-16012.485,-28516.23,-47117.79,-23742.81,-24993.405
1764505879.9749882,18267.345,-23866.065,-7645.094999999999,-16010.28,-28513.53,-47116.125,-23740.335,-24991.11
1764505879.9749882,18268.02,-23865.165,-7644.15,-16009.83,-28512.945,-47115.495,-23739.345,-24989.49
1764505879.9749882,18265.995,-23866.965,-7645.455,-16011.54,-28514.34,-47117.34,-23740.47,-24991.245
1764505879.9749882,18265.275,-23867.775,-7646.04,-16012.08,-28515.6,-47118.33,-23740.785,-24992.64
1764505879.9749882,18261.72,-23870.97,-7649.009999999999,-16014.96,-28518.525,-47121.12,-23743.53,-24996.15
1764505879.9749882,18264.33,-23868.27,-7645.769999999999,-16012.305,-28515.735,-47118.42,-23740.605,-24992.73
1764505879.9749882,18264.6,-23867.955,-7645.95,-16011.495,-28515.375,-47118.06,-23740.29,-24992.595
1764505879.9749882,18264.015,-23868.765,-7646.58,-16012.305,-28516.32,-47118.78,-23741.325,-24993.315
1764505879.9749882,18261.63,-23871.33,-7648.785,-16014.78,-28519.155,-47121.39,-23743.44,-24995.97
1764505879.9749882,18262.26,-23871.24,-7648.605,-16014.33,-28519.38,-47121.66,-23742.855,-24995.97
1764505879.9749882,18264.33,-23868.045,-7645.59,-16011.495,-28516.23,-47119.14,-23739.48,-24992.55
1764505879.9749882,18264.06,-23868.27,-7645.995,-16011.99,-28516.185,-47119.23,-23739.255,-24992.415
1764505879.9749882,18261.72,-23870.385,-7648.74,-16014.105,-28518.75,-47121.345,-23741.415,-24994.665
1764505879.9749882,18259.47,-23872.905,-7650.945,-16016.715,-28521.495,-47124.855,-23743.98,-24997.815
1764505879.9749882,18259.425,-23873.265,-7650.495,-16016.94,-28521.27,-47125.305,-23744.295,-24997.905
1764505880.0214906,18259.38,-23873.58,-7650.405,-16016.895,-28521.0,-47125.125,-23743.845,-24996.78
1764505880.0214906,18260.73,-23872.275,-7649.505,-16015.86,-28519.47,-47124.045,-23742.945,-24995.34
1764505880.0214906,18264.42,-23868.54,-7646.355,-16012.17,-28516.005,-47121.12,-23739.705,-24992.055
1764505880.0214906,18263.565,-23869.26,-7646.94,-16012.665,-28516.815,-47123.055,-23740.29,-24993.405
1764505880.0214906,18260.82,-23871.33,-7649.549999999999,-16015.275,-28519.11,-47124.9,-23742.27,-24995.88
1764505880.0214906,18262.08,-23869.53,-7647.884999999999,-16013.88,-28517.49,-47122.875,-23740.2,-24994.215
1764505880.0214906,18265.275,-23867.28,-7644.915,-16010.46,-28515.105,-47120.13,-23737.815,-24991.47
1764505880.0214906,18261.405,-23871.375,-7648.83,-16014.24,-28518.75,-47123.73,-23741.01,-24995.52
1764505880.0214906,18263.79,-23868.36,-7646.445,-16011.36,-28516.14,-47120.985,-23737.68,-24992.595
1764505880.0214906,18262.26,-23869.53,-7646.894999999999,-16012.44,-28517.985,-47122.38,-23738.85,-24993.855
1764505880.0214906,18257.805,-23873.58,-7650.63,-16016.04,-28521.09,-47126.025,-23742.0,-24997.275
1764505880.0214906,18256.635,-23874.12,-7652.115,-16017.12,-28521.675,-47126.61,-23742.63,-24997.995
1764505880.0214906,18257.94,-23873.04,-7651.215,-16016.895,-28521.0,-47125.17,-23741.955,-24997.05
1764505880.0214906,18258.345,-23872.86,-7650.585,-16016.04,-28520.775,-47125.215,-23740.83,-24997.14
1764505880.0214906,18261.675,-23869.35,-7647.57,-16012.665,-28517.4,-47122.2,-23737.095,-24993.585
1764505880.0214906,18263.025,-23867.82,-7646.309999999999,-16010.865,-28515.6,-47120.715,-23735.205,-24991.695
1764505880.0214906,18261.18,-23868.225,-7647.03,-16011.99,-28516.32,-47121.435,-23734.665,-24993.27
1764505880.0214906,18256.23,-23872.59,-7650.945,-16016.445,-28520.73,-47125.71,-23739.48,-24997.725
1764505880.0214906,18258.705,-23870.52,-7648.019999999999,-16013.97,-28518.165,-47123.235,-23736.78,-24995.385
1764505880.0214906,18256.095,-23873.49,-7650.719999999999,-16016.22,-28520.235,-47125.665,-23738.67,-24998.085
1764505880.0214906,18255.735,-23873.985,-7650.585,-16017.255,-28520.46,-47125.845,-23739.3,-24997.86
1764505880.0214906,18255.06,-23873.94,-7650.269999999999,-16017.12,-28520.82,-47126.295,-23739.345,-24997.635
1764505880.0669427,18256.545,-23872.365,-7648.74,-16014.735,-28518.705,-47124.315,-23737.185,-24995.97
1764505880.0669427,18253.935,-23874.345,-7650.315,-16016.85,-28520.28,-47125.755,-23738.895,-24997.545
1764505880.0669427,18255.465,-23873.22,-7649.054999999999,-16015.995,-28519.515,-47123.955,-23736.6,-24996.285
1764505880.0669427,18253.71,-23874.75,-7650.495,-16018.02,-28520.955,-47125.71,-23737.86,-24997.95
1764505880.0669427,18256.77,-23871.465,-7646.58,-16013.79,-28517.04,-47121.975,-23734.08,-24994.35
1764505880.0669427,18255.42,-23872.68,-7647.84,-16014.78,-28518.66,-47122.92,-23735.565,-24995.565
1764505880.0669427,18254.43,-23873.13,-7649.415,-16015.995,-28519.695,-47123.37,-23736.24,-24996.195
1764505880.0669427,18251.145,-23876.64,-7651.844999999999,-16018.425,-28522.17,-47126.925,-23738.94,-24999.57
1764505880.0669427,18250.155,-23877.315,-7651.934999999999,-16018.47,-28523.025,-47127.6,-23739.165,-24999.525
1764505880.0669427,18252.81,-23873.94,-7649.19,-16015.95,-28520.01,-47124.54,-23736.42,-24996.645
1764505880.0669427,18250.02,-23876.37,-7651.71,-16017.84,-28521.99,-47126.52,-23738.94,-24998.67
1764505880.0669427,18250.605,-23875.02,-7650.674999999999,-16017.255,-28521.405,-47125.665,-23738.625,-24997.995
1764505880.0669427,18252.9,-23872.59,-7648.514999999999,-16014.87,-28518.66,-47123.46,-23736.465,-24995.79
1764505880.0669427,18250.335,-23875.29,-7651.035,-16017.21,-28520.37,-47125.44,-23738.13,-24997.905
1764505880.0669427,18253.08,-23872.23,-7648.424999999999,-16014.69,-28517.76,-47122.965,-23735.115,-24995.61
1764505880.0669427,18250.245,-23874.75,-7651.394999999999,-16016.715,-28520.64,-47125.44,-23738.22,-24998.22
1764505880.0669427,18252.045,-23872.365,-7648.29,-16014.6,-28517.895,-47122.92,-23735.25,-24995.835
1764505880.0669427,18251.73,-23872.725,-7648.29,-16014.465,-28517.58,-47122.965,-23735.025,-24996.015
1764505880.0669427,18248.13,-23875.47,-7650.945,-16017.12,-28520.595,-47126.115,-23737.68,-24998.94
1764505880.067942,18247.905,-23875.065,-7650.0,-16016.715,-28519.965,-47125.17,-23736.87,-24998.85
1764505880.067942,18251.37,-23871.42,-7646.264999999999,-16012.89,-28516.05,-47121.57,-23732.46,-24994.665
1764505880.067942,18249.48,-23872.815,-7647.03,-16013.79,-28516.77,-47122.11,-23733.045,-24996.735
1764505880.110818,18244.845,-23877.315,-7652.07,-16018.605,-28521.315,-47127.195,-23737.455,-25001.19
1764505880.110818,18246.285,-23875.02,-7650.224999999999,-16017.12,-28519.56,-47126.025,-23735.655,-24999.66
1764505880.110818,18249.525,-23870.655,-7645.455,-16012.53,-28515.42,-47121.615,-23730.795,-24995.205
1764505880.110818,18247.68,-23872.14,-7646.94,-16013.025,-28517.04,-47122.515,-23732.235,-24996.015
1764505880.110818,18244.035,-23875.47,-7651.215,-16017.345,-28520.37,-47125.755,-23735.7,-24999.345
1764505880.110818,18242.235,-23876.46,-7651.844999999999,-16018.245,-28521.54,-47127.15,-23735.79,-24999.84
1764505880.110818,18242.145,-23876.505,-7650.945,-16017.165,-28520.73,-47127.105,-23735.43,-24999.435
1764505880.110818,18242.235,-23874.525,-7649.73,-16015.995,-28519.02,-47126.025,-23733.63,-24998.04
1764505880.1133714,18240.345,-23875.92,-7651.53,-16017.12,-28520.1,-47126.655,-23734.845,-24999.345
1764505880.1133714,18242.685,-23872.995,-7648.514999999999,-16014.285,-28517.13,-47123.73,-23731.29,-24996.465
1764505880.1133714,18238.68,-23875.965,-7651.259999999999,-16018.155,-28520.28,-47127.33,-23734.305,-24999.795
1764505880.1133714,18238.77,-23875.605,-7650.719999999999,-16017.885,-28520.055,-47127.015,-23733.63,-24999.75
1764505880.1133714,18240.705,-23873.265,-7647.525,-16014.465,-28517.355,-47123.865,-23730.345,-24997.32
1764505880.1133714,18237.87,-23875.83,-7649.73,-16016.985,-28519.605,-47126.79,-23733.495,-24999.795
1764505880.1133714,18237.24,-23875.965,-7650.99,-16017.57,-28520.28,-47127.69,-23733.54,-25000.56
1764505880.1133714,18233.91,-23878.665,-7653.78,-16019.64,-28523.07,-47129.85,-23736.015,-25003.215
1764505880.1133714,18234.9,-23876.82,-7651.215,-16018.2,-28521.0,-47128.815,-23734.125,-25001.145
1764505880.1133714,18231.12,-23880.42,-7654.094999999999,-16021.125,-28524.915,-47131.74,-23737.545,-25005.105
1764505880.1133714,18230.535,-23880.735,-7654.365,-16021.215,-28524.87,-47131.605,-23737.41,-25004.7
1764505880.1133714,18230.22,-23880.015,-7653.644999999999,-16020.495,-28523.745,-47130.435,-23736.645,-25003.89
1764505880.1133714,18233.01,-23876.19,-7650.585,-16017.12,-28521.0,-47127.33,-23733.09,-25000.245
1764505880.1133714,18233.46,-23876.055,-7649.82,-16016.445,-28520.325,-47126.34,-23732.325,-24999.93
1764505880.1133714,18232.02,-23877.675,-7650.719999999999,-16017.93,-28522.215,-47127.78,-23732.82,-25001.055
1764505880.1133714,18229.905,-23879.52,-7652.115,-16020.675,-28523.745,-47130.03,-23734.215,-25002.315
1764505880.161747,18227.475,-23880.69,-7654.23,-16022.43,-28525.32,-47132.28,-23735.88,-25004.43
1764505880.161747,18226.98,-23880.42,-7653.465,-16021.935,-28525.365,-47132.055,-23735.07,-25003.845
1764505880.161747,18227.43,-23879.97,-7652.205,-16020.585,-28524.69,-47130.885,-23733.855,-25002.405
1764505880.161747,18225.18,-23882.085,-7654.139999999999,-16022.745,-28526.535,-47133.045,-23736.33,-25005.195
1764505880.161747,18225.45,-23881.77,-7653.78,-16022.115,-28525.905,-47132.82,-23735.88,-25005.465
1764505880.161747,18225.045,-23881.14,-7653.69,-16021.845,-28526.13,-47132.64,-23735.07,-25004.97
1764505880.161747,18224.415,-23882.265,-7653.69,-16021.575,-28526.535,-47132.865,-23735.475,-25004.7
1764505880.161747,18226.71,-23879.205,-7649.73,-16018.02,-28522.485,-47129.13,-23731.83,-25002.09
1764505880.161747,18225.81,-23879.7,-7650.719999999999,-16018.425,-28522.485,-47129.49,-23732.415,-25002.27
1764505880.161747,18223.92,-23881.095,-7651.98,-16019.415,-28523.52,-47130.93,-23733.27,-25003.44
1764505880.161747,18223.92,-23879.88,-7651.125,-16019.505,-28523.115,-47130.255,-23733.0,-25002.495
1764505880.161747,18223.695,-23880.105,-7651.259999999999,-16019.73,-28523.88,-47130.12,-23732.955,-25002.495
1764505880.161747,18219.78,-23884.11,-7655.13,-16023.645,-28527.255,-47133.99,-23736.645,-25006.68
1764505880.161747,18218.835,-23883.84,-7655.219999999999,-16023.555,-28526.49,-47133.765,-23736.24,-25006.77
1764505880.161747,18222.03,-23879.655,-7651.44,-16018.965,-28522.845,-47129.985,-23731.83,-25003.26
1764505880.161747,18222.3,-23879.16,-7650.495,-16018.74,-28522.665,-47129.715,-23730.93,-25001.955
1764505880.161747,18220.635,-23879.79,-7651.215,-16019.01,-28523.79,-47130.12,-23731.47,-25002.675
1764505880.161747,18218.43,-23881.95,-7653.195,-16020.27,-28525.545,-47131.74,-23733.405,-25005.195
1764505880.161747,18220.005,-23879.43,-7650.809999999999,-16018.605,-28522.98,-47129.94,-23731.74,-25003.26
1764505880.161747,18214.92,-23883.39,-7655.13,-16022.565,-28526.985,-47134.395,-23735.565,-25006.77
1764505880.161747,18216.765,-23881.77,-7652.969999999999,-16020.045,-28524.645,-47132.325,-23732.73,-25004.52
1764505880.1632652,18217.575,-23879.835,-7651.62,-16018.29,-28523.385,-47131.11,-23730.975,-25003.53
1764505880.1632652,18216.81,-23880.735,-7651.485,-16018.245,-28524.06,-47131.155,-23731.335,-25003.755
1764505880.1632652,18216.045,-23880.915,-7651.349999999999,-16018.245,-28524.015,-47130.705,-23731.02,-25003.395
1764505880.2083826,18211.77,-23884.38,-7654.23,-16021.485,-28527.075,-47134.665,-23733.855,-25007.31
1764505880.2083826,18211.185,-23883.75,-7653.96,-16021.08,-28526.85,-47134.62,-23733.54,-25007.94
1764505880.2083826,18215.91,-23878.305,-7649.144999999999,-16016.805,-28521.855,-47129.715,-23728.095,-25002.72
1764505880.2083826,18216.675,-23877.315,-7648.695,-16015.86,-28521.63,-47128.545,-23727.24,-25001.37
1764505880.2083826,18216.18,-23877.27,-7647.57,-16014.735,-28521.27,-47128.14,-23726.7,-25000.38
1764505880.2083826,18214.29,-23879.07,-7648.65,-16015.095,-28522.08,-47129.04,-23727.645,-25001.415
1764505880.2083826,18212.67,-23880.195,-7650.9,-16016.805,-28523.79,-47130.93,-23728.905,-25003.125
1764505880.2083826,18209.385,-23883.66,-7653.599999999999,-16020.27,-28527.525,-47134.395,-23732.01,-25006.005
1764505880.2083826,18208.35,-23884.065,-7653.735,-16020.675,-28527.255,-47134.71,-23732.73,-25006.14
1764505880.2083826,18209.835,-23882.67,-7652.295,-16019.19,-28525.275,-47133.54,-23730.12,-25004.655
1764505880.2083826,18212.49,-23879.205,-7649.28,-16016.04,-28522.305,-47130.615,-23727.015,-25001.865
1764505880.2083826,18208.71,-23882.445,-7652.429999999999,-16019.64,-28526.265,-47133.99,-23730.39,-25005.285
1764505880.2083826,18207.63,-23883.165,-7652.655,-16020.18,-28526.895,-47134.62,-23730.57,-25005.465
1764505880.2083826,18208.17,-23882.13,-7650.855,-16018.38,-28525.59,-47133.09,-23729.76,-25004.25
1764505880.2083826,18210.645,-23878.62,-7647.48,-16014.645,-28521.72,-47129.67,-23726.745,-25000.74
1764505880.2083826,18209.25,-23879.88,-7648.695,-16016.04,-28523.295,-47131.02,-23727.915,-25001.82
1764505880.2083826,18208.26,-23881.095,-7649.73,-16017.57,-28524.69,-47133.09,-23729.175,-25002.63
1764505880.2083826,18205.425,-23882.94,-7651.844999999999,-16019.19,-28526.445,-47135.025,-23730.84,-25004.88
1764505880.2083826,18204.795,-23883.12,-7651.934999999999,-16019.235,-28526.895,-47134.89,-23730.93,-25005.105
1764505880.2083826,18203.805,-23884.245,-7652.34,-16018.92,-28527.93,-47135.88,-23731.2,-25005.825
1764505880.2083826,18200.16,-23887.665,-7655.58,-16022.655,-28531.44,-47139.615,-23734.26,-25008.705
1764505880.2083826,18198.855,-23888.295,-7656.705,-16023.825,-28532.745,-47140.515,-23735.655,-25009.155
1764505880.2083826,18199.575,-23888.115,-7656.299999999999,-16023.42,-28531.17,-47139.795,-23734.845,-25007.985
1764505880.2083826,18200.655,-23887.035,-7654.815,-16021.8,-28529.1,-47138.715,-23733.225,-25006.995
1764505880.2525575,18202.995,-23884.605,-7652.16,-16019.505,-28527.12,-47136.78,-23730.39,-25004.475
1764505880.2525575,18197.955,-23890.095,-7657.559999999999,-16024.365,-28532.34,-47141.28,-23736.195,-25009.29
1764505880.2525575,18198.405,-23889.915,-7657.514999999999,-16023.42,-28532.655,-47141.145,-23735.88,-25008.66
1764505880.2525575,18200.34,-23887.44,-7655.355,-16020.99,-28530.54,-47139.075,-23733.18,-25006.365
1764505880.2525575,18199.8,-23888.07,-7655.625,-16021.755,-28530.9,-47138.805,-23733.765,-25007.445
1764505880.2525575,18196.605,-23891.265,-7658.19,-16024.455,-28533.555,-47141.64,-23736.33,-25010.505
1764505880.253574,18196.335,-23891.04,-7658.73,-16024.23,-28533.24,-47141.64,-23736.645,-25010.64
1764505880.253574,18196.785,-23890.455,-7657.65,-16023.915,-28532.52,-47141.1,-23735.88,-25009.605
1764505880.253574,18199.62,-23886.81,-7654.455,-16020.9,-28529.325,-47137.77,-23732.595,-25005.645
1764505880.253574,18197.37,-23888.79,-7656.434999999999,-16022.34,-28530.945,-47138.94,-23734.08,-25007.445
1764505880.253574,18199.845,-23887.125,-7654.815,-16020.18,-28528.425,-47136.465,-23732.01,-25005.51
1764505880.253574,18196.785,-23890.23,-7657.514999999999,-16023.87,-28531.305,-47139.885,-23735.295,-25008.21
1764505880.254085,18199.485,-23886.855,-7654.5,-16020.765,-28527.93,-47136.69,-23731.785,-25005.96
1764505880.254085,18199.71,-23886.54,-7654.005,-16020.27,-28527.705,-47135.745,-23731.11,-25005.105
1764505880.254085,18198.315,-23888.115,-7654.59,-16021.395,-28528.92,-47136.285,-23732.37,-25006.185
1764505880.2550125,18195.39,-23890.995,-7657.695,-16023.96,-28531.08,-47139.255,-23734.89,-25008.93
1764505880.2550125,18196.83,-23890.41,-7656.48,-16023.24,-28530.0,-47138.49,-23734.53,-25007.805
1764505880.2550125,18198.495,-23887.62,-7654.005,-16020.855,-28527.84,-47135.88,-23731.83,-25005.825
1764505880.2550125,18196.515,-23889.465,-7656.255,-16022.88,-28529.955,-47137.32,-23732.955,-25007.58
1764505880.2550125,18197.19,-23889.24,-7655.264999999999,-16022.205,-28528.875,-47136.15,-23731.785,-25006.455
1764505880.2550125,18200.205,-23886.72,-7652.16,-16019.64,-28525.77,-47133.405,-23729.445,-25003.62
1764505880.2550125,18196.425,-23891.265,-7655.894999999999,-16023.24,-28529.415,-47136.555,-23732.73,-25007.04
1764505880.300451,18198.675,-23889.33,-7653.78,-16021.17,-28528.02,-47133.945,-23730.84,-25004.565
1764505880.300451,18196.605,-23890.995,-7655.219999999999,-16022.565,-28529.235,-47135.115,-23732.415,-25006.455
1764505880.300451,18193.635,-23893.74,-7658.415,-16025.715,-28532.115,-47138.13,-23735.07,-25009.245
1764505880.300451,18193.455,-23893.65,-7658.955,-16025.085,-28531.935,-47139.03,-23735.52,-25009.47
1764505880.300451,18194.895,-23892.21,-7656.929999999999,-16023.465,-28529.865,-47137.005,-23732.955,-25007.49
1764505880.300451,18198.18,-23888.88,-7653.42,-16020.495,-28526.805,-47133.09,-23729.265,-25004.43
1764505880.300451,18199.395,-23888.7,-7653.15,-16020.54,-28527.12,-47132.73,-23728.905,-25003.89
1764505880.300451,18199.845,-23888.88,-7652.519999999999,-16019.955,-28526.895,-47132.73,-23728.095,-25003.71
1764505880.3014717,18199.395,-23889.555,-7652.384999999999,-16020.045,-28526.49,-47132.325,-23727.87,-25003.485
1764505880.3014717,18197.505,-23891.715,-7653.915,-16022.07,-28528.74,-47133.855,-23729.58,-25005.24
1764505880.3014717,18196.56,-23893.47,-7656.525,-16023.6,-28530.81,-47136.105,-23731.335,-25006.68
1764505880.3014717,18199.755,-23889.96,-7653.42,-16020.0,-28527.39,-47133.27,-23728.365,-25003.44
1764505880.3014717,18199.26,-23890.5,-7653.24,-16020.09,-28527.39,-47132.82,-23728.23,-25003.665
1764505880.3014717,18197.865,-23891.85,-7653.96,-16021.17,-28528.245,-47133.405,-23728.365,-25004.34
1764505880.3014717,18196.335,-23893.695,-7656.344999999999,-16023.015,-28530.225,-47135.07,-23729.94,-25006.5
1764505880.3014717,18198.63,-23891.445,-7654.455,-16021.53,-28527.885,-47132.19,-23727.735,-25004.115
1764505880.3014717,18198.855,-23891.805,-7654.769999999999,-16021.305,-28527.66,-47132.865,-23727.645,-25004.295
1764505880.3014717,18196.92,-23893.38,-7655.94,-16022.295,-28529.865,-47134.305,-23728.545,-25005.375
1764505880.3014717,18199.395,-23891.265,-7653.375,-16019.505,-28527.93,-47131.335,-23725.755,-25002.675
1764505880.3014717,18194.67,-23895.585,-7658.505,-16023.69,-28532.34,-47135.7,-23730.75,-25007.895
1764505880.3014717,18194.76,-23895.63,-7658.054999999999,-16023.69,-28532.16,-47135.52,-23729.715,-25007.715
1764505880.3014717,18193.545,-23896.44,-7659.224999999999,-16024.905,-28533.375,-47136.06,-23730.345,-25009.02
1764505880.3451872,18194.175,-23895.81,-7658.325,-16024.5,-28532.52,-47135.07,-23729.715,-25008.255
1764505880.3451872,18195.525,-23893.965,-7656.255,-16022.925,-28530.855,-47133.495,-23727.33,-25005.96
1764505880.3451872,18193.815,-23896.62,-7657.92,-16024.455,-28532.97,-47135.655,-23729.265,-25008.12
1764505880.3451872,18195.66,-23895.045,-7656.929999999999,-16023.06,-28530.945,-47134.26,-23728.545,-25006.77
1764505880.3451872,18196.245,-23894.775,-7657.38,-16023.51,-28531.53,-47134.35,-23727.915,-25006.59
1764505880.3451872,18196.155,-23895.405,-7657.155,-16023.645,-28531.62,-47134.665,-23727.015,-25006.545
1764505880.3451872,18194.445,-23897.025,-7657.92,-16024.68,-28532.79,-47136.015,-23728.32,-25007.895
1764505880.3451872,18189.9,-23901.075,-7662.509999999999,-16028.46,-28536.795,-47140.155,-23732.415,-25011.855
1764505880.3451872,18190.395,-23901.21,-7663.094999999999,-16028.46,-28537.155,-47140.155,-23731.605,-25012.125
1764505880.3451872,18191.16,-23900.67,-7662.78,-16027.92,-28536.975,-47139.75,-23730.525,-25012.17
1764505880.3451872,18192.96,-23898.285,-7660.215,-16025.625,-28534.455,-47137.14,-23728.23,-25010.055
1764505880.3451872,18194.4,-23895.585,-7657.335,-16023.42,-28531.98,-47134.845,-23725.305,-25007.49
1764505880.3451872,18191.79,-23899.23,-7660.215,-16026.12,-28534.815,-47137.455,-23727.96,-25010.01
1764505880.3451872,18193.59,-23897.97,-7659.045,-16024.995,-28534.365,-47136.195,-23726.835,-25008.975
1764505880.3451872,18192.375,-23898.555,-7660.394999999999,-16025.535,-28535.445,-47137.14,-23728.05,-25009.965
1764505880.3451872,18188.55,-23902.155,-7664.58,-16029.18,-28538.505,-47140.245,-23731.155,-25013.115
1764505880.3451872,18191.205,-23900.04,-7662.42,-16027.2,-28536.93,-47138.265,-23728.32,-25010.955
1764505880.3451872,18188.01,-23903.235,-7665.12,-16030.215,-28539.135,-47141.145,-23730.57,-25015.005
1764505880.3451872,18188.235,-23903.64,-7664.4,-16029.54,-28538.64,-47140.965,-23730.12,-25014.735
1764505880.3451872,18189.045,-23903.595,-7664.445,-16029.54,-28538.415,-47141.37,-23730.255,-25014.15
1764505880.3451872,18189.855,-23901.84,-7663.005,-16028.775,-28537.74,-47139.345,-23728.455,-25012.62
1764505880.3451872,18193.005,-23899.05,-7659.63,-16025.175,-28534.545,-47135.97,-23724.945,-25009.245
1764505880.3467276,18191.79,-23899.95,-7660.755,-16025.715,-28536.12,-47137.14,-23726.565,-25010.73
1764505880.3467276,18188.82,-23902.56,-7663.365,-16027.83,-28538.685,-47139.39,-23729.67,-25013.34
1764505880.3906243,18191.745,-23900.265,-7660.889999999999,-16025.04,-28536.165,-47136.96,-23726.16,-25010.055
1764505880.3916433,18191.745,-23899.995,-7660.349999999999,-16024.545,-28535.67,-47136.69,-23725.62,-25009.83
1764505880.3916433,18191.34,-23900.355,-7660.71,-16025.175,-28536.3,-47137.365,-23726.52,-25011.0
1764505880.3916433,18189.225,-23901.93,-7662.69,-16027.065,-28538.145,-47139.165,-23728.32,-25012.71
1764505880.392159,18188.955,-23902.38,-7662.825,-16027.065,-28538.145,-47139.165,-23728.5,-25012.665
1764505880.392159,18188.955,-23902.785,-7662.644999999999,-16027.2,-28538.46,-47138.76,-23728.59,-25012.665
1764505880.392159,18187.38,-23905.305,-7665.434999999999,-16030.035,-28541.385,-47141.415,-23730.66,-25015.77
1764505880.392159,18187.38,-23905.08,-7664.58,-16029.765,-28540.485,-47141.235,-23729.94,-25015.455
1764505880.392159,18189.09,-23903.685,-7662.554999999999,-16027.47,-28538.415,-47138.85,-23727.915,-25013.925
1764505880.392159,18186.12,-23907.15,-7665.434999999999,-16030.215,-28542.015,-47141.595,-23730.705,-25016.355
1764505880.392159,18186.48,-23907.015,-7665.165,-16030.215,-28541.25,-47141.505,-23729.895,-25015.68
1764505880.392159,18187.155,-23906.295,-7664.264999999999,-16029.18,-28539.9,-47140.425,-23728.68,-25014.735
1764505880.392159,18190.17,-23903.235,-7661.115,-16026.57,-28537.065,-47137.275,-23725.71,-25011.09
1764505880.392159,18186.345,-23907.15,-7665.48,-16030.035,-28541.115,-47141.28,-23729.76,-25015.095
1764505880.392159,18188.01,-23905.89,-7663.23,-16027.425,-28539.36,-47139.255,-23727.69,-25013.34
1764505880.392159,18184.95,-23908.275,-7665.84,-16030.845,-28541.745,-47142.135,-23730.03,-25016.265
1764505880.3937078,18188.01,-23905.935,-7663.769999999999,-16028.505,-28539.855,-47140.02,-23727.24,-25013.7
1764505880.3947213,18186.84,-23907.15,-7665.57,-16029.855,-28541.43,-47141.055,-23728.095,-25014.33
1764505880.3947213,18188.73,-23904.36,-7662.42,-16027.2,-28538.55,-47138.22,-23725.125,-25011.315
1764505880.3957243,18187.38,-23905.575,-7663.41,-16028.19,-28539.63,-47139.48,-23726.745,-25012.755
1764505880.3957243,18185.445,-23907.78,-7666.065,-16030.71,-28542.06,-47141.73,-23728.905,-25015.365
1764505880.3957243,18186.75,-23906.655,-7664.759999999999,-16029.72,-28540.71,-47140.515,-23726.925,-25013.835
1764505880.3967242,18188.82,-23904.54,-7662.105,-16027.2,-28538.595,-47137.77,-23724.09,-25011.45
1764505880.3967242,18184.23,-23908.59,-7666.38,-16030.845,-28542.42,-47141.82,-23728.68,-25015.365
1764505880.4377284,18185.76,-23906.745,-7664.58,-16029.225,-28540.845,-47140.695,-23726.295,-25014.15
1764505880.4377284,18184.23,-23909.31,-7666.38,-16031.43,-28542.87,-47142.54,-23728.455,-25016.58
1764505880.4377284,18187.425,-23905.845,-7663.59,-16028.37,-28539.855,-47139.48,-23725.575,-25013.16
1764505880.4377284,18187.65,-23905.35,-7663.365,-16028.19,-28539.855,-47139.12,-23725.845,-25012.8
1764505880.4377284,18187.47,-23906.52,-7663.95,-16028.28,-28539.675,-47139.39,-23726.025,-25013.205
1764505880.4377284,18185.94,-23908.32,-7666.019999999999,-16029.99,-28541.115,-47141.73,-23726.745,-25014.87
1764505880.4377284,18183.96,-23909.76,-7667.46,-16031.61,-28543.005,-47144.115,-23728.14,-25016.445
1764505880.4377284,18188.19,-23905.665,-7663.184999999999,-16027.065,-28539.0,-47139.93,-23724.495,-25012.62
1764505880.4377284,18188.1,-23905.125,-7662.599999999999,-16026.435,-28538.19,-47139.03,-23723.37,-25012.125
1764505880.4377284,18186.795,-23907.06,-7663.724999999999,-16027.47,-28539.495,-47141.145,-23724.585,-25013.43
1764505880.4377284,18185.67,-23908.995,-7665.75,-16029.315,-28540.935,-47143.845,-23726.745,-25015.005
1764505880.4377284,18187.155,-23906.88,-7663.86,-16027.695,-28539.765,-47141.82,-23724.855,-25013.565
1764505880.4377284,18183.825,-23910.12,-7666.695,-16030.845,-28542.87,-47144.745,-23727.06,-25016.31
1764505880.4377284,18183.555,-23910.39,-7667.37,-16031.745,-28543.41,-47145.465,-23727.33,-25016.67
1764505880.4377284,18186.03,-23907.015,-7663.95,-16029.315,-28540.08,-47142.63,-23724.63,-25013.745
1764505880.4377284,18183.96,-23909.355,-7666.514999999999,-16031.205,-28542.24,-47144.97,-23726.385,-25016.13
1764505880.4377284,18181.08,-23912.28,-7669.575,-16034.31,-28545.12,-47147.805,-23729.04,-25019.37
1764505880.4377284,18183.555,-23909.4,-7666.514999999999,-16031.205,-28542.015,-47145.195,-23725.8,-25016.985
1764505880.4377284,18184.23,-23909.76,-7666.245,-16030.8,-28541.655,-47145.33,-23725.125,-25016.805
1764505880.4377284,18179.91,-23914.845,-7670.115,-16035.435,-28546.02,-47150.145,-23728.59,-25021.71
1764505880.4377284,18181.17,-23913.405,-7669.349999999999,-16034.355,-28545.345,-47149.29,-23726.88,-25020.54
1764505880.4377284,18184.05,-23910.48,-7666.38,-16030.485,-28542.33,-47146.995,-23723.37,-25017.165
1764505880.488696,18183.06,-23910.615,-7666.965,-16030.98,-28543.365,-47147.4,-23723.955,-25017.975
1764505880.488696,18179.595,-23914.53,-7671.105,-16035.12,-28547.235,-47150.955,-23726.655,-25021.71
1764505880.488696,18180.495,-23913.99,-7671.285,-16034.625,-28546.38,-47150.145,-23724.99,-25021.035
1764505880.488696,18182.925,-23912.145,-7669.17,-16032.15,-28544.58,-47148.345,-23722.155,-25018.02
1764505880.488696,18181.125,-23913.855,-7670.07,-16033.365,-28545.705,-47149.74,-23723.1,-25019.28
1764505880.488696,18183.645,-23911.2,-7667.144999999999,-16030.755,-28542.87,-47146.59,-23720.22,-25017.03
1764505880.488696,18183.555,-23910.435,-7666.11,-16030.755,-28542.285,-47146.05,-23719.905,-25016.67
1764505880.488696,18182.79,-23911.65,-7666.695,-16030.935,-28543.005,-47146.905,-23720.67,-25016.49
1764505880.488696,18184.005,-23911.02,-7666.38,-16030.395,-28542.285,-47147.13,-23719.59,-25015.635
1764505880.488696,18181.935,-23912.415,-7668.315,-16031.565,-28544.13,-47149.29,-23720.715,-25017.57
1764505880.488696,18178.83,-23915.115,-7671.465,-16034.895,-28547.82,-47152.395,-23723.55,-25021.17
1764505880.488696,18181.305,-23912.955,-7668.495,-16032.87,-28545.345,-47149.83,-23721.255,-25018.605
1764505880.488696,18180.9,-23913.27,-7668.63,-16033.14,-28545.615,-47150.055,-23720.67,-25018.74
1764505880.488696,18178.11,-23916.15,-7671.014999999999,-16036.065,-28548.27,-47153.16,-23722.38,-25021.98
1764505880.488696,18180.405,-23913.09,-7667.505,-16032.645,-28545.615,-47150.73,-23718.96,-25019.325
1764505880.489682,18181.17,-23912.55,-7668.045,-16032.15,-28544.49,-47150.19,-23718.285,-25018.515
1764505880.489682,18179.955,-23914.125,-7668.764999999999,-16032.105,-28545.345,-47150.64,-23717.745,-25019.37
1764505880.489682,18176.67,-23917.23,-7672.32,-16035.57,-28549.53,-47155.005,-23720.445,-25022.565
1764505880.489682,18178.65,-23914.98,-7670.025,-16033.14,-28547.595,-47153.115,-23717.97,-25020.36
1764505880.489682,18177.12,-23917.095,-7671.78,-16035.03,-28548.63,-47154.825,-23718.555,-25021.89
1764505880.489682,18178.47,-23915.655,-7670.474999999999,-16034.04,-28547.19,-47153.655,-23716.125,-25019.955
1764505880.489682,18177.165,-23917.005,-7670.655,-16034.4,-28548.72,-47154.15,-23716.215,-25021.17
1764505880.489682,18175.23,-23918.715,-7672.995,-16036.155,-28551.06,-47155.68,-23718.06,-25023.06
1764505880.489682,18178.155,-23915.745,-7670.025,-16033.095,-28548.0,-47152.89,-23715.225,-25020.09
1764505880.489682,18178.605,-23915.88,-7669.665,-16032.51,-28547.595,-47152.53,-23714.73,-25019.28
1764505880.489682,18177.795,-23917.005,-7670.7,-16032.87,-28548.405,-47152.665,-23715.18,-25019.64
1764505880.5338938,18177.255,-23917.095,-7671.24,-16032.87,-28548.09,-47153.16,-23714.91,-25019.73
1764505880.5338938,18175.095,-23918.58,-7673.49,-16034.58,-28550.655,-47155.32,-23716.62,-25022.25
1764505880.5338938,18175.545,-23917.905,-7672.905,-16034.94,-28550.34,-47154.78,-23716.17,-25021.935
1764505880.5338938,18174.015,-23919.57,-7673.174999999999,-16036.02,-28551.42,-47155.68,-23715.99,-25022.34
1764505880.5338938,18171.81,-23921.64,-7675.11,-16038.045,-28553.67,-47156.805,-23718.15,-25024.5
1764505880.5338938,18175.185,-23918.22,-7671.78,-16034.175,-28549.98,-47153.07,-23714.82,-25021.035
1764505880.5338938,18175.59,-23918.445,-7672.184999999999,-16033.545,-28550.34,-47153.43,-23715.36,-25022.025
1764505880.5338938,18171.765,-23921.595,-7675.92,-16037.64,-28554.075,-47156.67,-23718.78,-25025.22
1764505880.5348923,18171.315,-23921.505,-7675.74,-16037.55,-28553.805,-47156.58,-23718.645,-25025.085
1764505880.5348923,18174.78,-23918.49,-7671.105,-16033.77,-28550.88,-47153.115,-23716.035,-25022.25
1764505880.5348923,18175.095,-23918.58,-7671.014999999999,-16033.59,-28550.745,-47153.115,-23716.395,-25021.62
1764505880.5348923,18172.755,-23920.515,-7672.905,-16035.84,-28552.005,-47154.375,-23718.24,-25023.24
1764505880.5348923,18172.26,-23920.245,-7672.95,-16035.705,-28552.14,-47154.555,-23717.97,-25023.42
1764505880.5348923,18171.99,-23920.515,-7673.13,-16035.48,-28551.915,-47154.78,-23718.195,-25023.78
1764505880.5348923,18172.53,-23919.255,-7672.23,-16034.76,-28551.105,-47154.375,-23717.475,-25022.79
1764505880.5348923,18172.62,-23919.03,-7671.825,-16034.13,-28550.565,-47153.565,-23716.35,-25021.89
1764505880.5348923,18173.07,-23918.535,-7671.24,-16033.59,-28550.295,-47153.43,-23715.675,-25021.53
1764505880.5348923,18172.35,-23918.22,-7671.195,-16033.23,-28550.565,-47153.25,-23715.27,-25021.665
1764505880.5348923,18171.135,-23919.345,-7672.455,-16034.355,-28552.095,-47153.88,-23715.945,-25022.79
1764505880.5348923,18167.895,-23922.855,-7675.424999999999,-16037.46,-28554.75,-47157.525,-23719.5,-25025.76
1764505880.5348923,18170.955,-23920.065,-7672.545,-16034.895,-28551.375,-47155.545,-23716.89,-25022.61
1764505880.5348923,18169.11,-23922.09,-7674.21,-16036.83,-28552.68,-47157.075,-23718.015,-25024.41
1764505880.5819983,18168.795,-23922.315,-7674.299999999999,-16037.64,-28553.535,-47157.255,-23718.645,-25024.905
1764505880.5819983,18166.905,-23924.43,-7676.099999999999,-16039.44,-28555.47,-47158.965,-23720.715,-25027.335
1764505880.5819983,18162.855,-23928.075,-7679.429999999999,-16042.68,-28558.71,-47162.16,-23724.18,-25031.52
1764505880.5819983,18163.395,-23928.12,-7678.755,-16042.815,-28558.53,-47162.295,-23723.325,-25030.935
1764505880.5819983,18166.275,-23925.465,-7675.695,-16039.665,-28556.28,-47159.865,-23720.265,-25027.245
1764505880.5819983,18163.08,-23928.705,-7679.25,-16042.995,-28559.745,-47163.24,-23723.01,-25030.665
1764505880.5819983,18162.72,-23928.975,-7679.745,-16043.085,-28560.015,-47163.96,-23722.92,-25031.25
1764505880.5819983,18165.465,-23926.05,-7677.54,-16040.475,-28557.495,-47161.215,-23719.905,-25028.505
1764505880.5819983,18168.075,-23923.35,-7674.75,-16037.685,-28554.615,-47158.38,-23716.395,-25026.03
1764505880.5819983,18164.07,-23927.4,-7678.215,-16041.24,-28558.44,-47162.25,-23719.77,-25029.405
1764505880.5819983,18166.05,-23925.96,-7676.054999999999,-16039.305,-28556.1,-47160.63,-23717.385,-25027.65
1764505880.5819983,18163.53,-23927.58,-7677.495,-16040.97,-28557.405,-47162.34,-23719.095,-25029.18
1764505880.5819983,18166.41,-23924.745,-7674.795,-16038.315,-28554.93,-47159.64,-23715.72,-25026.525
1764505880.5819983,18165.42,-23925.33,-7675.514999999999,-16038.72,-28556.235,-47160.585,-23715.9,-25027.155
1764505880.5819983,18161.28,-23929.74,-7679.295,-16042.68,-28560.51,-47164.995,-23719.005,-25031.295
1764505880.5819983,18160.695,-23930.685,-7679.924999999999,-16043.85,-28561.545,-47166.39,-23719.41,-25031.43
1764505880.5819983,18162.0,-23929.515,-7678.98,-16042.275,-28560.06,-47164.995,-23717.565,-25030.8
1764505880.5819983,18165.33,-23925.735,-7676.639999999999,-16038.675,-28556.37,-47162.115,-23713.74,-25027.965
1764505880.5819983,18163.845,-23927.04,-7677.269999999999,-16039.8,-28557.54,-47162.745,-23713.83,-25027.83
1764505880.5819983,18159.885,-23930.91,-7680.825,-16043.355,-28561.32,-47166.165,-23717.295,-25031.34
1764505880.5819983,18163.755,-23927.445,-7677.764999999999,-16039.8,-28558.53,-47163.015,-23714.19,-25029.045
1764505880.5819983,18163.035,-23928.48,-7677.764999999999,-16040.115,-28558.53,-47162.97,-23714.055,-25029.765
1764505880.5819983,18160.11,-23931.09,-7680.644999999999,-16042.77,-28561.185,-47165.94,-23717.655,-25032.42
1764505880.5819983,18158.67,-23931.135,-7681.455,-16042.905,-28562.04,-47166.615,-23718.735,-25033.05
1764505880.628433,18162.27,-23927.715,-7677.269999999999,-16039.62,-28559.115,-47163.285,-23715.36,-25029.63
1764505880.628433,18162.945,-23927.85,-7676.639999999999,-16039.395,-28559.07,-47162.655,-23714.865,-25028.955
1764505880.628433,18160.965,-23930.73,-7678.304999999999,-16041.78,-28561.005,-47165.355,-23716.89,-25030.8
1764505880.628433,18158.535,-23931.63,-7678.62,-16042.59,-28561.185,-47164.59,-23717.79,-25031.475
1764505880.628433,18161.73,-23927.985,-7675.65,-16039.395,-28557.63,-47161.665,-23714.415,-25028.505
1764505880.628433,18158.265,-23931.36,-7679.745,-16043.355,-28561.32,-47165.67,-23717.97,-25032.015
1764505880.628433,18158.535,-23930.685,-7679.429999999999,-16043.49,-28561.95,-47165.715,-23718.33,-25032.51
1764505880.628433,18160.11,-23929.83,-7678.08,-16042.185,-28559.655,-47164.275,-23716.845,-25031.43
1764505880.628433,18162.495,-23927.13,-7674.795,-16039.125,-28556.73,-47161.17,-23714.505,-25028.37
1764505880.628433,18162.945,-23926.5,-7674.12,-16038.54,-28555.965,-47160.675,-23713.56,-25027.515
1764505880.628433,18161.55,-23928.03,-7675.74,-16040.07,-28557.855,-47162.25,-23715.585,-25028.595
1764505880.628433,18158.94,-23930.505,-7677.719999999999,-16041.6,-28560.87,-47165.625,-23717.745,-25030.89
1764505880.628433,18158.13,-23930.73,-7677.945,-16040.745,-28560.87,-47165.22,-23716.62,-25030.17
1764505880.628433,18161.91,-23927.49,-7674.795,-16037.325,-28557.45,-47161.305,-23713.29,-25027.02
1764505880.628433,18161.37,-23928.075,-7675.245,-16038.045,-28557.855,-47161.755,-23713.47,-25027.875
1764505880.628433,18159.345,-23929.83,-7677.495,-16040.655,-28560.24,-47163.33,-23714.595,-25029.045
1764505880.628433,18154.71,-23934.285,-7681.86,-16044.345,-28564.38,-47167.965,-23718.42,-25033.185
1764505880.628433,18154.53,-23934.645,-7681.815,-16044.66,-28563.84,-47168.055,-23718.195,-25032.78
1764505880.628433,18156.195,-23932.305,-7680.014999999999,-16042.095,-28561.95,-47165.85,-23716.395,-25030.53
1764505880.628433,18159.48,-23929.155,-7677.405,-16040.025,-28559.52,-47163.69,-23712.435,-25027.74
1764505880.628433,18158.895,-23930.145,-7678.304999999999,-16040.07,-28560.24,-47164.545,-23713.2,-25028.55
1764505880.628433,18159.03,-23929.605,-7677.54,-16039.26,-28559.745,-47163.825,-23712.435,-25028.64
1764505880.673419,18158.625,-23930.055,-7677.809999999999,-16039.755,-28559.34,-47163.825,-23712.615,-25028.91
1764505880.673419,18158.445,-23930.19,-7678.215,-16040.34,-28558.98,-47163.465,-23712.705,-25029.36
1764505880.673419,18157.905,-23931.045,-7678.934999999999,-16041.375,-28559.43,-47163.555,-23713.245,-25029.405
1764505880.674416,18155.475,-23933.52,-7681.094999999999,-16043.715,-28561.68,-47165.445,-23715.27,-25031.655
1764505880.674416,18152.055,-23936.67,-7684.065,-16046.595,-28564.56,-47169.495,-23717.745,-25035.48
1764505880.674416,18151.785,-23936.31,-7683.525,-16045.875,-28564.29,-47168.865,-23716.395,-25034.4
1764505880.674416,18154.845,-23932.755,-7680.599999999999,-16042.68,-28560.465,-47164.725,-23713.065,-25031.43
1764505880.674416,18154.44,-23933.34,-7681.365,-16042.635,-28560.42,-47165.22,-23713.245,-25031.385
1764505880.674416,18152.28,-23936.085,-7683.12,-16044.165,-28562.805,-47167.245,-23715.315,-25033.365
1764505880.674416,18148.455,-23939.37,-7686.63,-16047.495,-28566.72,-47169.81,-23718.69,-25036.74
1764505880.675414,18150.57,-23937.615,-7684.65,-16045.785,-28564.38,-47167.605,-23716.89,-25035.39
1764505880.675414,18154.305,-23934.24,-7679.79,-16041.78,-28560.33,-47163.69,-23712.615,-25031.52
1764505880.675414,18153.225,-23934.555,-7680.96,-16042.5,-28561.455,-47164.23,-23713.2,-25031.79
1764505880.675414,18150.525,-23936.715,-7683.434999999999,-16044.345,-28564.065,-47166.66,-23715.045,-25035.48
1764505880.675414,18151.785,-23936.085,-7682.535,-16043.715,-28563.12,-47165.175,-23714.595,-25034.625
1764505880.675414,18151.245,-23935.905,-7682.13,-16043.49,-28562.355,-47165.085,-23714.865,-25034.625
1764505880.675414,18148.635,-23938.74,-7685.19,-16046.73,-28564.965,-47167.965,-23716.89,-25036.74
1764505880.675414,18148.905,-23938.92,-7685.505,-16047.045,-28565.19,-47167.605,-23716.755,-25036.56
1764505880.675414,18151.56,-23936.4,-7682.085,-16043.265,-28562.04,-47164.32,-23713.29,-25033.365
1764505880.675414,18150.12,-23937.165,-7682.58,-16044.12,-28562.715,-47165.04,-23714.37,-25034.22
1764505880.675414,18148.365,-23939.775,-7684.245,-16046.325,-28564.83,-47167.065,-23716.485,-25036.515
1764505880.675414,18153.18,-23935.275,-7680.33,-16042.14,-28561.32,-47162.34,-23711.67,-25031.79
1764505880.675414,18153.99,-23934.42,-7680.105,-16042.32,-28560.555,-47161.44,-23710.815,-25030.935
1764505880.675414,18150.93,-23936.715,-7682.804999999999,-16044.615,-28563.255,-47164.41,-23713.47,-25033.77
1764505880.721957,18149.085,-23938.74,-7684.83,-16045.515,-28565.145,-47166.12,-23715.54,-25035.21
1764505880.721957,18151.56,-23935.77,-7681.094999999999,-16042.455,-28561.59,-47162.43,-23711.895,-25031.475
1764505880.721957,18150.705,-23936.445,-7681.59,-16043.22,-28562.355,-47162.34,-23712.255,-25032.555
1764505880.721957,18147.15,-23940.315,-7685.594999999999,-16046.865,-28566.495,-47165.445,-23715.72,-25036.245
1764505880.7229495,18147.735,-23940.315,-7684.695,-16046.145,-28565.955,-47165.625,-23715.18,-25036.155
1764505880.7229495,18148.77,-23939.235,-7684.695,-16044.885,-28564.695,-47164.86,-23714.37,-25035.075
1764505880.7229495,18149.67,-23938.11,-7684.155,-16044.345,-28563.525,-47163.825,-23713.155,-25033.59
1764505880.7229495,18150.615,-23937.255,-7683.165,-16043.355,-28561.95,-47162.295,-23711.895,-25032.51
1764505880.7229495,18153.9,-23933.88,-7679.295,-16040.025,-28558.665,-47159.28,-23708.295,-25029.405
1764505880.7229495,18152.1,-23936.265,-7680.644999999999,-16041.33,-28560.555,-47160.45,-23709.87,-25030.89
1764505880.7229495,18149.625,-23939.235,-7683.12,-16044.795,-28563.615,-47163.645,-23712.705,-25033.725
1764505880.7229495,18151.47,-23938.02,-7681.815,-16043.265,-28561.77,-47161.755,-23711.085,-25032.6
1764505880.7229495,18149.22,-23940.45,-7685.28,-16045.965,-28564.29,-47163.915,-23713.56,-25034.58
1764505880.7229495,18151.605,-23937.615,-7682.894999999999,-16043.895,-28562.625,-47161.035,-23711.22,-25031.97
1764505880.7229495,18153.135,-23936.58,-7681.455,-16043.04,-28561.05,-47159.37,-23709.375,-25030.62
1764505880.7229495,18152.685,-23938.02,-7683.165,-16043.49,-28562.49,-47160.045,-23709.96,-25031.475
1764505880.7229495,18150.48,-23940.63,-7685.549999999999,-16045.83,-28565.055,-47161.62,-23712.435,-25033.995
1764505880.7229495,18149.22,-23942.565,-7686.09,-16047.945,-28567.08,-47162.205,-23713.155,-25035.48
1764505880.7229495,18151.875,-23939.73,-7683.525,-16045.065,-28563.975,-47159.865,-23710.545,-25032.6
1764505880.7229495,18150.12,-23941.26,-7684.785,-16045.92,-28564.92,-47161.08,-23711.355,-25032.78
1764505880.7229495,18149.985,-23941.845,-7685.505,-16046.865,-28565.325,-47161.62,-23711.94,-25033.32
1764505880.7229495,18149.445,-23942.745,-7686.045,-16047.63,-28565.73,-47161.665,-23712.57,-25034.445
1764505880.7229495,18148.635,-23944.455,-7686.674999999999,-16048.53,-28566.675,-47162.655,-23713.02,-25035.705
1764505880.7229495,18146.565,-23946.84,-7688.7,-16050.69,-28569.105,-47164.545,-23715.315,-25037.73
1764505880.7662182,18147.375,-23945.67,-7688.61,-16049.61,-28567.53,-47163.51,-23714.415,-25036.875
1764505880.766751,18150.12,-23943.105,-7685.325,-16046.46,-28565.19,-47159.955,-23711.22,-25033.815
1764505880.766751,18147.825,-23945.895,-7687.889999999999,-16049.565,-28568.07,-47161.485,-23712.84,-25036.38
1764505880.766751,18149.895,-23943.33,-7685.82,-16047.945,-28565.82,-47159.055,-23710.005,-25033.815
1764505880.766751,18152.1,-23940.54,-7682.535,-16045.155,-28562.94,-47156.58,-23707.89,-25031.52
1764505880.766751,18148.32,-23944.86,-7686.224999999999,-16048.53,-28566.675,-47160.27,-23711.22,-25035.255
1764505880.766751,18149.13,-23944.23,-7685.684999999999,-16047.855,-28566.045,-47159.64,-23710.41,-25034.04
1764505880.766751,18147.285,-23946.705,-7688.16,-16050.735,-28568.745,-47161.665,-23712.705,-25035.84
1764505880.766751,18149.445,-23944.995,-7686.495,-16048.575,-28566.18,-47158.785,-23710.095,-25033.905
1764505880.766751,18148.905,-23945.625,-7687.304999999999,-16049.295,-28566.45,-47158.425,-23710.32,-25034.355
1764505880.766751,18147.78,-23947.245,-7688.969999999999,-16050.915,-28568.25,-47159.955,-23711.895,-25035.84
1764505880.766751,18149.13,-23945.49,-7686.54,-16048.845,-28565.865,-47158.29,-23709.105,-25033.86
1764505880.766751,18152.505,-23942.43,-7682.94,-16045.065,-28562.445,-47154.78,-23705.505,-25030.8
1764505880.766751,18152.55,-23942.205,-7682.804999999999,-16044.93,-28562.355,-47154.645,-23705.01,-25030.665
1764505880.766751,18151.65,-23942.79,-7683.03,-16045.425,-28562.85,-47154.645,-23705.28,-25030.755
1764505880.766751,18148.455,-23945.58,-7685.37,-16048.44,-28566.18,-47157.66,-23708.07,-25033.905
1764505880.766751,18150.12,-23944.905,-7684.469999999999,-16047.63,-28565.505,-47156.85,-23706.54,-25033.14
1764505880.766751,18151.92,-23943.735,-7683.84,-16046.73,-28564.335,-47155.455,-23704.695,-25031.43
1764505880.766751,18154.44,-23941.62,-7681.815,-16044.165,-28562.805,-47153.205,-23702.355,-25029.54
1764505880.766751,18152.865,-23942.79,-7683.434999999999,-16045.65,-28563.57,-47154.42,-23703.21,-25030.71
1764505880.766751,18152.055,-23942.655,-7683.255,-16045.29,-28563.12,-47153.52,-23702.13,-25030.44
1764505880.766751,18151.56,-23942.34,-7683.165,-16044.705,-28563.255,-47153.475,-23701.05,-25029.99
1764505880.766751,18151.65,-23943.555,-7683.705,-16045.875,-28564.38,-47154.285,-23702.175,-25030.62
1764505880.766751,18151.155,-23943.96,-7684.065,-16045.74,-28564.965,-47153.97,-23701.635,-25031.295
1764505880.81538,18149.58,-23946.03,-7685.505,-16047.36,-28566.27,-47155.68,-23703.03,-25032.78
1764505880.81538,18145.305,-23950.53,-7689.87,-16051.635,-28570.365,-47159.955,-23706.495,-25037.19
1764505880.81538,18148.77,-23947.83,-7687.125,-16049.43,-28567.845,-47157.165,-23703.705,-25035.075
1764505880.81538,18148.095,-23948.325,-7687.17,-16049.745,-28568.43,-47156.58,-23703.795,-25035.03
1764505880.81538,18146.745,-23949.45,-7688.429999999999,-16051.14,-28569.195,-47157.57,-23704.605,-25036.785
1764505880.81538,18149.445,-23946.975,-7686.045,-16048.71,-28566.945,-47155.365,-23701.455,-25034.265
1764505880.81538,18147.42,-23949.54,-7688.25,-16051.05,-28569.105,-47157.03,-23703.885,-25036.38
1764505880.81538,18148.59,-23949.45,-7687.575,-16050.735,-28568.16,-47155.77,-23703.165,-25035.57
1764505880.81538,18152.415,-23945.265,-7684.155,-16046.955,-28563.93,-47151.81,-23698.08,-25031.295
1764505880.81538,18153.315,-23944.14,-7683.165,-16045.155,-28562.58,-47151.09,-23696.955,-25030.44
1764505880.81538,18153.63,-23943.465,-7682.085,-16045.065,-28562.265,-47150.055,-23696.685,-25030.395
1764505880.81538,18150.795,-23946.57,-7684.695,-16047.315,-28564.425,-47151.855,-23698.17,-25032.69
1764505880.81538,18148.095,-23949.27,-7687.62,-16049.97,-28566.9,-47155.14,-23700.51,-25035.39
1764505880.81538,18152.01,-23946.345,-7684.245,-16047.315,-28564.425,-47151.855,-23697.27,-25032.555
1764505880.81538,18152.01,-23946.84,-7684.65,-16047.315,-28564.695,-47151.585,-23696.685,-25033.455
1764505880.81538,18147.285,-23951.115,-7689.554999999999,-16052.715,-28569.78,-47156.265,-23701.14,-25038.045
1764505880.81538,18147.96,-23951.295,-7689.195,-16052.805,-28569.87,-47156.4,-23700.555,-25037.64
1764505880.81538,18151.2,-23947.965,-7686.224999999999,-16049.925,-28566.495,-47152.755,-23697.63,-25034.895
1764505880.81538,18154.125,-23944.635,-7683.03,-16045.785,-28563.84,-47149.695,-23694.39,-25031.34
1764505880.81538,18152.28,-23946.255,-7685.505,-16047.765,-28565.505,-47151.135,-23695.83,-25033.185
1764505880.81538,18154.44,-23944.77,-7683.66,-16046.595,-28563.615,-47149.92,-23694.03,-25031.34
1764505880.81538,18150.93,-23948.91,-7687.71,-16050.015,-28567.17,-47153.79,-23697.495,-25035.48
1764505880.86253,18154.845,-23945.04,-7683.57,-16046.055,-28563.3,-47150.145,-23693.31,-25031.97
1764505880.86253,18154.35,-23945.76,-7684.11,-16046.64,-28563.93,-47150.325,-23693.805,-25032.6
1764505880.86253,18154.08,-23945.94,-7684.74,-16047.225,-28565.415,-47150.91,-23694.975,-25033.365
1764505880.86253,18154.26,-23945.715,-7683.795,-16046.46,-28564.56,-47149.785,-23694.12,-25031.835
1764505880.86253,18149.94,-23950.26,-7688.34,-16050.645,-28568.61,-47154.51,-23698.125,-25036.245
1764505880.86253,18148.95,-23950.62,-7689.87,-16050.96,-28569.78,-47154.825,-23698.845,-25037.055
1764505880.86253,18149.535,-23949.99,-7689.33,-16050.555,-28569.285,-47154.42,-23698.44,-25037.1
1764505880.86253,18150.615,-23949.54,-7688.25,-16049.79,-28568.34,-47154.285,-23697.63,-25036.245
1764505880.86253,18152.01,-23947.965,-7686.63,-16047.855,-28567.125,-47152.755,-23695.38,-25033.815
1764505880.86253,18147.465,-23952.015,-7691.264999999999,-16052.49,-28571.4,-47157.57,-23700.465,-25038.18
1764505880.86253,18148.41,-23951.7,-7690.32,-16052.13,-28570.365,-47155.995,-23699.655,-25037.775
1764505880.86253,18150.795,-23949.72,-7687.665,-16049.16,-28568.52,-47153.295,-23696.73,-25036.065
1764505880.86253,18148.5,-23952.195,-7690.455,-16051.86,-28570.86,-47156.22,-23698.89,-25038.045
1764505880.8635404,18148.455,-23952.24,-7690.995,-16051.59,-28571.04,-47156.49,-23699.07,-25038.63
1764505880.8635404,18149.715,-23951.205,-7689.509999999999,-16050.285,-28570.365,-47155.815,-23698.215,-25037.73
1764505880.8635404,18152.73,-23947.965,-7686.179999999999,-16046.865,-28566.72,-47152.665,-23694.84,-25034.265
1764505880.8635404,18152.055,-23948.325,-7686.945,-16047.0,-28567.08,-47152.89,-23694.615,-25034.355
1764505880.8635404,18149.715,-23950.98,-7688.924999999999,-16049.295,-28569.33,-47155.545,-23696.82,-25036.695
1764505880.8635404,18152.73,-23948.37,-7685.73,-16046.865,-28566.99,-47153.07,-23693.715,-25034.535
1764505880.8635404,18148.635,-23952.645,-7690.094999999999,-16051.23,-28571.265,-47157.075,-23697.765,-25038.99
1764505880.8635404,18148.68,-23952.105,-7690.094999999999,-16050.555,-28571.22,-47155.905,-23697.315,-25038.225
1764505880.8635404,18151.38,-23949.27,-7686.809999999999,-16046.64,-28568.115,-47153.025,-23694.03,-25035.39
1764505880.8635404,18149.625,-23951.295,-7689.105,-16048.89,-28569.42,-47154.825,-23695.38,-25037.415
1764505880.8635404,18150.795,-23950.035,-7688.115,-16047.945,-28568.115,-47153.205,-23693.49,-25036.02
1764505880.9084067,18148.77,-23951.7,-7689.78,-16050.42,-28570.23,-47155.815,-23695.155,-25038.36
1764505880.9084067,18149.805,-23950.305,-7688.519999999999,-16048.26,-28569.15,-47154.78,-23693.355,-25036.965
1764505880.9084067,18149.76,-23951.025,-7689.69,-16048.17,-28570.095,-47155.365,-23693.175,-25037.28
1764505880.9084067,18147.51,-23953.815,-7691.759999999999,-16050.825,-28572.3,-47157.57,-23695.695,-25039.395
1764505880.9084067,18150.39,-23950.125,-7688.16,-16047.765,-28569.195,-47154.69,-23692.23,-25036.245
1764505880.9084067,18146.835,-23954.04,-7691.894999999999,-16051.455,-28572.84,-47158.29,-23695.785,-25039.665
1764505880.9084067,18147.6,-23954.4,-7691.58,-16051.59,-28572.39,-47158.47,-23695.29,-25040.25
1764505880.9084067,18148.455,-23953.905,-7691.085,-16050.015,-28571.625,-47158.29,-23694.39,-25040.115
1764505880.9084067,18150.435,-23952.915,-7690.049999999999,-16048.305,-28570.365,-47156.58,-23692.545,-25038.81
1764505880.9084067,18147.285,-23956.47,-7693.38,-16051.725,-28574.505,-47160.315,-23695.74,-25042.59
1764505880.9084067,18149.13,-23953.545,-7690.545,-16049.475,-28571.625,-47158.155,-23692.68,-25039.98
1764505880.9084067,18148.32,-23953.545,-7690.23,-16049.565,-28571.895,-47157.93,-23691.915,-25039.215
1764505880.9084067,18147.24,-23955.57,-7692.075,-16050.6,-28572.975,-47159.37,-23693.67,-25040.205
1764505880.9084067,18144.81,-23957.37,-7694.639999999999,-16053.075,-28575.54,-47161.89,-23696.28,-25042.77
1764505880.9084067,18148.23,-23953.41,-7690.995,-16049.565,-28572.66,-47158.155,-23692.365,-25039.44
1764505880.9084067,18147.735,-23954.805,-7691.985,-16050.465,-28573.425,-47159.01,-23692.59,-25040.43
1764505880.9084067,18147.69,-23955.39,-7692.12,-16050.87,-28573.695,-47159.325,-23692.77,-25040.565
1764505880.9084067,18146.475,-23955.84,-7693.469999999999,-16051.815,-28574.46,-47160.315,-23694.165,-25041.555
1764505880.9099338,18144.27,-23958.18,-7695.719999999999,-16054.155,-28577.34,-47163.06,-23697.405,-25044.39
1764505880.9099338,18143.505,-23958.945,-7695.945,-16054.515,-28577.52,-47163.42,-23697.36,-25045.245
1764505880.9099338,18146.34,-23956.245,-7692.84,-16051.5,-28574.82,-47160.27,-23693.67,-25042.32
1764505880.9099338,18144.585,-23958.54,-7695.269999999999,-16053.48,-28577.52,-47162.25,-23696.1,-25044.345
1764505880.9533136,18146.7,-23956.65,-7693.65,-16051.455,-28575.945,-47160.72,-23694.03,-25042.455
1764505880.9533136,18145.935,-23957.91,-7694.46,-16053.12,-28577.16,-47162.52,-23694.705,-25043.67
1764505880.954338,18149.58,-23955.84,-7690.995,-16049.655,-28573.875,-47159.505,-23691.465,-25040.34
1764505880.954338,18148.23,-23956.785,-7692.299999999999,-16050.78,-28574.685,-47160.585,-23692.005,-25041.78
1764505880.954338,18148.185,-23957.64,-7693.605,-16051.68,-28575.495,-47161.665,-23693.04,-25043.265
1764505880.954338,18146.7,-23958.09,-7694.46,-16052.265,-28575.945,-47162.43,-23694.12,-25044.03
1764505880.954338,18145.035,-23959.98,-7695.99,-16053.705,-28577.43,-47164.545,-23694.705,-25045.065
1764505880.954338,18147.33,-23957.955,-7693.38,-16050.78,-28574.82,-47162.205,-23692.365,-25042.185
1764505880.954338,18144.225,-23960.835,-7696.53,-16053.345,-28577.79,-47164.725,-23694.39,-25045.245
1764505880.954338,18144.0,-23960.7,-7696.394999999999,-16054.155,-28578.15,-47165.4,-23693.805,-25046.37
1764505880.954338,18144.9,-23959.035,-7694.415,-16053.165,-28576.215,-47164.095,-23691.645,-25044.84
1764505880.954338,18147.105,-23956.74,-7691.759999999999,-16051.05,-28573.56,-47161.71,-23688.855,-25042.14
1764505880.954338,18148.185,-23955.84,-7691.804999999999,-16050.51,-28573.335,-47161.215,-23687.865,-25041.33
1764505880.954338,18146.295,-23957.685,-7693.245,-16051.86,-28575.585,-47163.69,-23689.395,-25043.31
1764505880.954338,18146.07,-23958.405,-7694.19,-16052.4,-28576.17,-47164.275,-23690.475,-25043.58
1764505880.954338,18146.385,-23957.64,-7693.695,-16051.68,-28575.81,-47163.555,-23690.295,-25042.77
1764505880.954338,18147.015,-23957.73,-7693.605,-16051.455,-28575.36,-47163.465,-23689.98,-25042.32
1764505880.955846,18146.97,-23958.135,-7693.335,-16051.41,-28575.0,-47163.96,-23689.305,-25042.545
1764505880.955846,18145.62,-23958.945,-7694.865,-16053.165,-28576.62,-47164.86,-23690.61,-25044.165
1764505880.955846,18142.29,-23962.77,-7698.24,-16056.0,-28580.085,-47168.055,-23693.94,-25047.855
1764505880.955846,18142.515,-23962.68,-7698.69,-16055.91,-28579.815,-47168.46,-23693.175,-25047.45
1764505880.956867,18143.73,-23961.69,-7698.195,-16054.92,-28578.78,-47167.065,-23691.69,-25046.28
1764505880.956867,18147.555,-23958.045,-7694.415,-16051.275,-28575.405,-47163.87,-23688.27,-25042.725
1764505880.956867,18145.935,-23958.99,-7695.269999999999,-16052.22,-28576.935,-47165.715,-23688.99,-25043.625
1764505881.0013485,18142.785,-23962.14,-7698.554999999999,-16055.505,-28580.22,-47169.045,-23691.915,-25046.505
1764505881.0013485,18143.28,-23962.725,-7698.644999999999,-16055.235,-28580.355,-47168.955,-23692.14,-25046.73
1764505881.0013485,18145.215,-23961.465,-7696.71,-16053.615,-28578.645,-47166.615,-23689.62,-25045.785
1764505881.0013485,18146.61,-23959.35,-7694.28,-16051.77,-28576.17,-47164.32,-23687.82,-25042.77
1764505881.0013485,18144.09,-23963.04,-7697.025,-16055.415,-28579.365,-47167.335,-23690.25,-25046.055
1764505881.0013485,18146.925,-23961.15,-7695.405,-16053.075,-28577.34,-47164.41,-23687.685,-25043.4
1764505881.0013485,18146.205,-23961.96,-7697.61,-16053.48,-28578.33,-47165.895,-23688.855,-25044.705
1764505881.0013485,18149.13,-23959.575,-7694.415,-16050.33,-28575.765,-47163.015,-23685.345,-25041.87
1764505881.0013485,18148.545,-23959.665,-7693.469999999999,-16051.095,-28575.405,-47162.88,-23685.165,-25041.825
1764505881.0013485,18146.835,-23960.79,-7695.315,-16052.895,-28576.89,-47164.365,-23686.65,-25043.625
1764505881.0013485,18144.405,-23963.445,-7698.599999999999,-16055.235,-28579.86,-47167.605,-23689.62,-25046.955
1764505881.0013485,18143.82,-23964.345,-7699.094999999999,-16056.54,-28581.03,-47168.64,-23690.115,-25047.81
1764505881.0013485,18144.765,-23963.85,-7698.059999999999,-16056.045,-28579.995,-47167.02,-23687.955,-25046.415
1764505881.0024483,18147.51,-23961.105,-7695.495,-16052.625,-28576.89,-47164.185,-23684.805,-25043.445
1764505881.0024483,18144.675,-23964.12,-7698.059999999999,-16055.46,-28579.68,-47166.795,-23687.28,-25046.19
1764505881.0024483,18143.46,-23964.84,-7698.78,-16056.18,-28581.3,-47167.695,-23687.865,-25047.18
1764505881.0024483,18146.61,-23961.78,-7696.17,-16053.705,-28578.87,-47164.725,-23684.985,-25044.165
1764505881.0024483,18146.835,-23962.32,-7696.575,-16053.93,-28578.825,-47164.725,-23684.67,-25044.03
1764505881.0024483,18146.385,-23962.68,-7697.429999999999,-16054.11,-28578.555,-47164.725,-23684.445,-25043.715
1764505881.0024483,18144.045,-23963.76,-7698.195,-16055.595,-28579.68,-47165.985,-23685.3,-25045.245
1764505881.003443,18141.435,-23967.36,-7700.985,-16058.97,-28582.605,-47169.18,-23688.405,-25048.305
1764505881.003443,18141.84,-23967.225,-7700.309999999999,-16057.89,-28582.38,-47168.01,-23687.64,-25048.395
1764505881.003443,18141.57,-23966.46,-7699.275,-16056.945,-28581.165,-47166.03,-23685.705,-25048.62
1764505881.003443,18143.01,-23967.09,-7699.094999999999,-16056.72,-28582.02,-47166.84,-23685.705,-25047.765
1764505881.0479245,18146.475,-23965.155,-7697.07,-16054.74,-28580.13,-47165.265,-23683.275,-25044.57
1764505881.0479245,18144.36,-23967.54,-7699.679999999999,-16057.215,-28582.155,-47167.47,-23684.985,-25046.73
1764505881.0479245,18148.14,-23964.03,-7696.304999999999,-16053.84,-28578.645,-47164.77,-23681.025,-25043.805
1764505881.0479245,18147.645,-23964.03,-7696.035,-16053.39,-28578.51,-47164.005,-23680.53,-25043.265
1764505881.0492258,18146.745,-23964.885,-7697.205,-16054.56,-28580.355,-47165.13,-23681.295,-25044.57
1764505881.0492258,18143.595,-23968.35,-7700.445,-16057.395,-28582.605,-47168.55,-23684.265,-25047.855
1764505881.0492258,18146.16,-23965.92,-7698.69,-16055.28,-28579.77,-47166.84,-23682.42,-25046.595
1764505881.0492258,18143.955,-23968.35,-7700.894999999999,-16058.25,-28582.47,-47169.36,-23684.49,-25049.16
1764505881.0492258,18144.585,-23968.17,-7701.21,-16058.34,-28581.705,-47168.325,-23683.185,-25048.395
1764505881.0497532,18146.835,-23966.415,-7699.23,-16055.685,-28579.995,-47166.255,-23679.99,-25046.37
1764505881.0497532,18144.54,-23968.035,-7700.94,-16057.845,-28582.335,-47167.83,-23681.925,-25048.035
1764505881.0507634,18145.26,-23966.91,-7700.13,-16057.305,-28580.94,-47166.57,-23680.575,-25047.045
1764505881.0507634,18143.055,-23970.555,-7703.37,-16060.095,-28584.54,-47169.54,-23683.995,-25050.6
1764505881.0512152,18142.695,-23970.555,-7703.37,-16060.545,-28585.215,-47169.81,-23684.265,-25050.645
1764505881.0512152,18145.035,-23967.72,-7700.535,-16057.935,-28582.29,-47167.47,-23680.395,-25048.035
1764505881.051766,18141.345,-23972.49,-7704.99,-16061.58,-28586.295,-47171.565,-23684.13,-25053.075
1764505881.051766,18141.795,-23972.715,-7705.394999999999,-16061.715,-28586.43,-47171.115,-23683.545,-25052.985
1764505881.051766,18142.245,-23972.76,-7705.304999999999,-16061.22,-28586.115,-47170.935,-23682.87,-25052.355
1764505881.051766,18141.93,-23972.58,-7705.215,-16061.715,-28585.8,-47171.07,-23682.06,-25052.31
1764505881.051766,18141.435,-23972.085,-7705.08,-16061.58,-28585.62,-47170.53,-23682.06,-25052.985
1764505881.051766,18143.28,-23969.52,-7703.054999999999,-16058.61,-28583.28,-47167.92,-23679.585,-25050.87
1764505881.051766,18141.705,-23971.905,-7705.394999999999,-16060.77,-28585.575,-47169.765,-23680.98,-25052.94
1764505881.0928464,18144.765,-23969.25,-7702.424999999999,-16057.62,-28583.55,-47166.93,-23677.605,-25049.745
1764505881.0928464,18145.215,-23969.07,-7701.165,-16056.855,-28582.83,-47166.075,-23676.66,-25048.98
1764505881.0928464,18145.35,-23968.845,-7701.165,-16056.63,-28582.47,-47165.805,-23675.805,-25048.305
1764505881.0928464,18143.37,-23970.465,-7703.28,-16058.97,-28584.09,-47167.515,-23678.28,-25050.78
1764505881.0928464,18142.38,-23972.22,-7704.9,-16060.455,-28585.53,-47169.045,-23680.26,-25052.58
1764505881.0928464,18145.035,-23969.655,-7702.155,-16057.8,-28583.28,-47167.155,-23676.795,-25049.7
1764505881.0928464,18145.125,-23970.24,-7702.29,-16057.35,-28582.74,-47167.29,-23676.21,-25049.97
1764505881.0928464,18144.9,-23970.51,-7702.469999999999,-16057.44,-28583.37,-47168.19,-23676.12,-25050.42
1764505881.0938687,18144.585,-23970.465,-7702.38,-16057.395,-28583.64,-47168.325,-23675.04,-25050.78
1764505881.0938687,18144.495,-23971.995,-7702.875,-16057.89,-28583.82,-47168.685,-23675.535,-25051.545
1764505881.0938687,18143.685,-23972.76,-7703.865,-16058.7,-28584.675,-47169.765,-23676.705,-25052.805
1764505881.0938687,18140.04,-23974.605,-7705.44,-16060.14,-28586.565,-47170.62,-23677.875,-25054.29
1764505881.095381,18144.135,-23970.465,-7701.705,-16057.17,-28583.865,-47168.505,-23674.32,-25051.23
1764505881.095381,18143.19,-23972.895,-7703.73,-16059.285,-28586.43,-47171.475,-23675.805,-25052.94
1764505881.095381,18142.83,-23973.615,-7704.179999999999,-16059.33,-28586.655,-47172.33,-23676.39,-25053.255
1764505881.095381,18142.245,-23974.605,-7704.54,-16060.5,-28586.475,-47172.915,-23677.56,-25054.02
1764505881.095381,18140.805,-23975.955,-7706.115,-16062.48,-28588.635,-47174.58,-23678.595,-25055.595
1764505881.095381,18142.605,-23973.93,-7704.09,-16060.815,-28587.24,-47172.285,-23676.39,-25053.12
1764505881.095381,18141.3,-23975.73,-7705.934999999999,-16062.615,-28589.355,-47174.805,-23678.055,-25054.83
1764505881.095381,18143.505,-23973.03,-7703.639999999999,-16060.77,-28587.465,-47172.69,-23675.67,-25053.705
1764505881.095381,18142.515,-23974.155,-7704.54,-16061.355,-28588.23,-47173.635,-23676.525,-25054.875
1764505881.095381,18140.805,-23975.505,-7705.98,-16062.48,-28589.76,-47175.795,-23677.965,-25056.495
1764505881.095381,18142.74,-23973.705,-7704.269999999999,-16060.32,-28587.825,-47173.455,-23676.12,-25053.795
1764505881.095381,18139.455,-23977.215,-7708.545,-16064.775,-28591.515,-47177.73,-23679.225,-25056.765
1764505881.1389902,18139.995,-23976.315,-7707.554999999999,-16063.065,-28591.335,-47177.235,-23678.595,-25056.63
1764505881.1389902,18141.345,-23975.1,-7706.429999999999,-16061.58,-28590.255,-47175.705,-23677.02,-25055.37
1764505881.1395235,18145.08,-23971.77,-7702.469999999999,-16058.88,-28586.295,-47171.745,-23673.06,-25051.68
1764505881.1395235,18145.845,-23971.23,-7701.255,-16057.215,-28585.08,-47170.98,-23672.205,-25050.015
1764505881.1395235,18146.07,-23972.355,-7702.2,-16058.25,-28585.485,-47170.98,-23673.015,-25050.465
1764505881.1395235,18142.83,-23974.92,-7705.349999999999,-16060.95,-28588.635,-47173.68,-23675.49,-25053.615
1764505881.1395235,18142.92,-23973.48,-7704.764999999999,-16060.23,-28587.555,-47173.545,-23674.41,-25053.21
1764505881.1395235,18145.485,-23971.545,-7702.019999999999,-16057.755,-28585.665,-47171.34,-23671.665,-25050.6
1764505881.1395235,18148.95,-23968.35,-7698.644999999999,-16054.38,-28582.155,-47168.865,-23668.245,-25046.685
1764505881.1395235,18147.6,-23969.61,-7699.59,-16056.045,-28583.055,-47169.99,-23670.225,-25048.8
1764505881.1395235,18144.945,-23972.58,-7701.884999999999,-16058.88,-28585.53,-47172.465,-23673.15,-25051.365
1764505881.1395235,18146.43,-23970.825,-7700.67,-16056.675,-28583.685,-47170.845,-23671.44,-25049.43
1764505881.1395235,18144.855,-23973.12,-7702.065,-16059.015,-28585.53,-47172.51,-23673.24,-25050.915
1764505881.1395235,18146.61,-23971.23,-7700.219999999999,-16056.9,-28583.46,-47170.665,-23670.765,-25048.665
1764505881.1395235,18143.505,-23974.47,-7703.235,-16059.645,-28586.16,-47173.275,-23672.97,-25051.23
1764505881.1395235,18144.495,-23973.39,-7702.514999999999,-16058.16,-28584.99,-47172.42,-23672.205,-25050.78
1764505881.1395235,18148.5,-23969.25,-7698.735,-16055.055,-28581.345,-47169.045,-23668.29,-25047.045
1764505881.1395235,18149.31,-23967.72,-7697.7,-16054.245,-28580.355,-47167.92,-23666.94,-25045.695
1764505881.1395235,18148.995,-23968.17,-7697.79,-16054.47,-28580.58,-47168.235,-23667.12,-25046.28
1764505881.1395235,18146.88,-23971.545,-7701.03,-16057.53,-28583.865,-47172.15,-23669.955,-25049.34
1764505881.1395235,18149.31,-23968.98,-7698.195,-16055.55,-28581.255,-47169.855,-23667.39,-25046.595
1764505881.140046,18149.985,-23969.115,-7698.465,-16054.965,-28581.84,-47169.405,-23667.75,-25046.235
1764505881.1872714,18147.42,-23972.49,-7701.84,-16057.755,-28585.035,-47172.24,-23671.08,-25048.98
1764505881.1872714,18146.43,-23973.165,-7701.705,-16058.925,-28585.53,-47171.97,-23671.035,-25049.385
1764505881.1872714,18148.41,-23971.005,-7699.59,-16057.08,-28583.685,-47170.08,-23668.65,-25047.36
1764505881.1872714,18146.385,-23973.57,-7702.38,-16059.645,-28585.665,-47172.915,-23671.08,-25049.925
1764505881.1872714,18148.545,-23971.365,-7700.67,-16057.35,-28583.685,-47171.115,-23668.155,-25047.54
1764505881.1872714,18147.33,-23971.995,-7701.255,-16058.295,-28584.405,-47171.925,-23667.84,-25048.08
1764505881.1872714,18151.965,-23967.315,-7696.665,-16053.93,-28579.095,-47166.705,-23663.52,-25043.22
1764505881.1872714,18152.055,-23967.63,-7696.755,-16053.795,-28580.085,-47167.245,-23663.745,-25044.075
1764505881.1872714,18150.795,-23968.935,-7698.105,-16054.695,-28581.57,-47168.055,-23664.465,-25045.695
1764505881.1872714,18145.395,-23974.245,-7702.469999999999,-16059.555,-28586.79,-47172.285,-23669.1,-25049.97
1764505881.1872714,18146.115,-23973.705,-7701.974999999999,-16058.97,-28586.61,-47171.565,-23667.75,-25049.25
1764505881.1872714,18150.075,-23969.97,-7698.42,-16054.83,-28582.425,-47167.83,-23663.52,-25045.65
1764505881.1872714,18150.075,-23969.88,-7698.42,-16054.65,-28582.47,-47167.155,-23663.385,-25045.29
1764505881.1872714,18149.49,-23970.465,-7699.41,-16056.18,-28583.64,-47167.74,-23663.97,-25046.595
1764505881.1872714,18147.96,-23972.13,-7701.12,-16058.295,-28585.44,-47169.27,-23664.78,-25047.99
1764505881.1872714,18146.295,-23974.695,-7703.144999999999,-16059.825,-28587.42,-47171.115,-23666.085,-25049.43
1764505881.1882873,18148.545,-23972.85,-7699.815,-16057.665,-28585.17,-47168.865,-23663.655,-25047.18
1764505881.1882873,18147.555,-23972.805,-7699.995,-16058.205,-28586.07,-47168.865,-23664.24,-25047.855
1764505881.1882873,18146.88,-23973.12,-7701.12,-16059.195,-28586.43,-47169.585,-23664.78,-25048.53
1764505881.1882873,18144.45,-23975.37,-7703.549999999999,-16061.85,-28588.32,-47172.555,-23666.355,-25050.465
1764505881.1882873,18147.195,-23972.67,-7701.075,-16059.105,-28586.295,-47170.17,-23663.745,-25047.45
1764505881.1882873,18145.395,-23973.84,-7702.065,-16059.645,-28587.42,-47170.665,-23665.815,-25049.025
1764505881.1882873,18148.095,-23972.085,-7699.769999999999,-16056.63,-28584.81,-47167.83,-23662.89,-25047.225
1764505881.1882873,18144.9,-23975.865,-7703.054999999999,-16059.825,-28587.69,-47170.845,-23664.465,-25049.655
1764505881.2314758,18144.855,-23975.82,-7703.099999999999,-16060.23,-28588.23,-47171.025,-23663.79,-25049.7
1764505881.2314758,18146.835,-23974.29,-7701.75,-16058.88,-28586.61,-47169.495,-23662.395,-25048.575
1764505881.2314758,18150.345,-23972.265,-7698.599999999999,-16056.27,-28583.82,-47166.975,-23659.515,-25045.92
1764505881.2314758,18146.52,-23975.955,-7702.469999999999,-16060.14,-28588.14,-47170.755,-23662.755,-25049.97
1764505881.2314758,18148.68,-23973.12,-7699.275,-16056.99,-28585.845,-47167.92,-23659.47,-25047.36
1764505881.2314758,18147.735,-23973.57,-7698.915,-16056.36,-28585.305,-47167.47,-23658.525,-25047.675
1764505881.2314758,18145.935,-23974.875,-7700.535,-16058.52,-28587.06,-47168.955,-23659.83,-25049.16
1764505881.2314758,18144.495,-23977.935,-7702.605,-16060.545,-28589.04,-47171.025,-23662.08,-25051.455
1764505881.2314758,18146.7,-23976.405,-7700.4,-16058.16,-28586.295,-47169.045,-23659.92,-25049.475
1764505881.2314758,18143.595,-23978.565,-7703.054999999999,-16060.365,-28588.995,-47171.565,-23661.315,-25052.265
1764505881.2314758,18143.505,-23979.33,-7704.09,-16060.41,-28590.03,-47171.835,-23661.54,-25052.085
1764505881.2314758,18144.405,-23978.835,-7703.144999999999,-16059.96,-28589.175,-47171.07,-23660.505,-25051.005
1764505881.2314758,18145.98,-23977.845,-7702.065,-16057.845,-28587.33,-47169.315,-23658.3,-25050.015
1764505881.2324958,18142.2,-23980.995,-7705.665,-16061.58,-28590.57,-47172.555,-23661.315,-25053.345
1764505881.2324958,18142.65,-23980.77,-7705.215,-16061.49,-28591.155,-47172.825,-23661.135,-25053.12
1764505881.2324958,18143.685,-23980.5,-7704.54,-16060.32,-28591.155,-47172.015,-23659.92,-25053.03
1764505881.2324958,18146.655,-23976.54,-7701.03,-16057.215,-28587.645,-47168.82,-23656.185,-25049.655
1764505881.2324958,18145.575,-23978.07,-7701.929999999999,-16058.7,-28588.14,-47169.855,-23656.725,-25051.005
1764505881.2324958,18142.56,-23981.265,-7705.485,-16062.3,-28592.37,-47173.815,-23660.145,-25054.875
1764505881.2324958,18141.03,-23983.155,-7707.554999999999,-16064.325,-28594.17,-47175.255,-23661.495,-25056.63
1764505881.2324958,18141.975,-23981.94,-7706.835,-16063.515,-28593.405,-47173.995,-23660.19,-25055.37
1764505881.2324958,18144.72,-23979.06,-7704.63,-16060.095,-28590.345,-47171.115,-23657.355,-25053.255
1764505881.2803602,18144.855,-23979.24,-7704.495,-16059.33,-28590.255,-47171.25,-23657.22,-25053.345
1764505881.2803602,18139.23,-23983.92,-7709.445,-16065.09,-28595.97,-47176.965,-23662.125,-25058.385
1764505881.2803602,18139.86,-23983.605,-7709.49,-16065.045,-28595.25,-47177.505,-23661.81,-25057.305
1764505881.2803602,18140.895,-23981.895,-7708.5,-16063.29,-28593.99,-47176.38,-23660.235,-25055.865
1764505881.2803602,18141.165,-23981.805,-7707.599999999999,-16062.615,-28593.36,-47175.615,-23659.515,-25055.55
1764505881.2803602,18140.805,-23982.165,-7707.825,-16062.615,-28593.36,-47175.84,-23659.38,-25055.595
1764505881.2803602,18142.38,-23980.59,-7706.25,-16060.815,-28591.515,-47174.445,-23657.49,-25053.795
1764505881.2803602,18137.7,-23985.18,-7710.389999999999,-16064.775,-28596.42,-47178.315,-23661.27,-25058.43
1764505881.2803602,18138.24,-23985.045,-7710.21,-16065.36,-28596.195,-47178.18,-23661.63,-25058.43
1764505881.2803602,18142.155,-23980.995,-7706.07,-16061.625,-28592.01,-47174.4,-23657.715,-25054.605
1764505881.2803602,18141.975,-23981.67,-7706.745,-16062.03,-28593.09,-47175.21,-23657.895,-25055.505
1764505881.2803602,18137.385,-23986.215,-7711.065,-16066.395,-28597.68,-47179.215,-23662.665,-25059.78
1764505881.2803602,18138.645,-23984.595,-7709.4,-16064.775,-28596.465,-47178.045,-23661.135,-25058.43
1764505881.2803602,18142.695,-23980.95,-7705.62,-16061.13,-28592.19,-47174.13,-23656.68,-25054.83
1764505881.2803602,18142.83,-23980.59,-7704.945,-16060.77,-28592.505,-47173.905,-23656.32,-25054.38
1764505881.2803602,18142.335,-23981.04,-7705.215,-16061.22,-28593.225,-47174.49,-23656.365,-25054.335
1764505881.2812529,18141.795,-23981.895,-7706.745,-16061.94,-28594.485,-47175.705,-23657.49,-25055.685
1764505881.2812529,18139.545,-23984.145,-7708.59,-16063.74,-28595.97,-47177.505,-23659.38,-25057.845
1764505881.2812529,18140.58,-23982.615,-7707.465,-16063.2,-28594.665,-47176.695,-23657.445,-25056.27
1764505881.2812529,18142.335,-23981.13,-7705.53,-16061.265,-28592.955,-47174.715,-23655.735,-25054.47
1764505881.2812529,18145.98,-23977.665,-7701.84,-16057.62,-28589.4,-47171.295,-23652.18,-25050.555
1764505881.2812529,18144.81,-23978.295,-7702.785,-16058.115,-28589.94,-47172.015,-23652.405,-25052.04
1764505881.2812529,18142.065,-23980.68,-7705.17,-16060.815,-28592.955,-47174.805,-23654.88,-25054.875
1764505881.2812529,18142.695,-23980.59,-7704.99,-16060.545,-28592.37,-47174.67,-23654.835,-25054.38
1764505881.32591,18140.13,-23982.885,-7707.599999999999,-16063.335,-28595.43,-47177.865,-23657.49,-25056.495
1764505881.32591,18142.11,-23981.265,-7706.025,-16061.31,-28593.675,-47176.29,-23655.915,-25053.93
1764505881.32591,18140.535,-23982.795,-7706.969999999999,-16062.975,-28595.07,-47177.28,-23657.715,-25055.73
1764505881.32591,18143.19,-23980.185,-7704.09,-16060.14,-28592.01,-47174.085,-23654.52,-25053.12
1764505881.326922,18143.955,-23979.69,-7704.179999999999,-16059.825,-28591.74,-47173.905,-23653.89,-25052.445
1764505881.326922,18143.235,-23980.455,-7705.17,-16060.545,-28592.955,-47175.165,-23655.015,-25053.795
1764505881.326922,18142.92,-23981.355,-7705.62,-16060.68,-28593.36,-47175.705,-23655.195,-25054.47
1764505881.326922,18139.005,-23985.0,-7709.849999999999,-16064.505,-28597.005,-47179.8,-23659.155,-25057.62
1764505881.326922,18142.425,-23981.58,-7705.44,-16060.275,-28593.855,-47176.245,-23655.87,-25053.93
1764505881.326922,18141.165,-23981.625,-7704.9,-16060.59,-28593.63,-47176.92,-23655.42,-25053.93
1764505881.326922,18141.21,-23981.22,-7705.08,-16060.41,-28592.955,-47176.74,-23655.24,-25053.21
1764505881.326922,18141.66,-23981.445,-7705.17,-16060.23,-28592.595,-47176.56,-23655.15,-25053.795
1764505881.326922,18139.77,-23983.155,-7706.7,-16061.445,-28594.89,-47177.73,-23656.005,-25055.82
1764505881.326922,18137.07,-23985.315,-7708.995,-16064.28,-28597.68,-47180.97,-23658.84,-25058.43
1764505881.326922,18139.41,-23983.335,-7707.014999999999,-16061.805,-28594.755,-47179.575,-23656.995,-25056.585
1764505881.326922,18140.22,-23982.705,-7706.384999999999,-16060.365,-28593.855,-47178.27,-23655.78,-25055.775
1764505881.326922,18141.165,-23982.075,-7706.34,-16060.995,-28593.54,-47178.0,-23655.87,-25055.82
1764505881.326922,18139.005,-23985.045,-7709.264999999999,-16063.65,-28596.78,-47181.195,-23658.57,-25058.97
1764505881.326922,18141.705,-23981.94,-7706.205,-16060.41,-28593.045,-47177.91,-23655.06,-25055.595
1764505881.326922,18141.345,-23981.265,-7705.215,-16059.915,-28592.82,-47177.46,-23654.295,-25054.965
1764505881.326922,18138.915,-23984.145,-7707.915,-16062.84,-28595.655,-47180.43,-23656.995,-25057.395
1764505881.326922,18138.33,-23984.64,-7708.769999999999,-16063.92,-28596.195,-47181.015,-23657.94,-25057.395
1764505881.3711967,18139.455,-23983.605,-7707.825,-16063.155,-28595.34,-47179.89,-23656.86,-25056.585
1764505881.3711967,18140.985,-23982.255,-7706.519999999999,-16062.165,-28593.99,-47179.53,-23655.96,-25055.415
1764505881.3711967,18141.975,-23981.4,-7706.655,-16060.995,-28592.955,-47179.215,-23655.42,-25054.785
1764505881.3711967,18142.38,-23980.905,-7705.44,-16060.41,-28591.965,-47177.91,-23654.655,-25053.93
1764505881.3711967,18144.72,-23978.205,-7703.415,-16057.8,-28589.67,-47175.21,-23652.09,-25050.735
1764505881.3711967,18144.045,-23980.365,-7705.035,-16059.24,-28590.795,-47176.29,-23653.44,-25051.455
1764505881.3711967,18140.805,-23983.785,-7708.094999999999,-16061.85,-28593.81,-47179.53,-23656.995,-25055.01
1764505881.3711967,18140.985,-23983.74,-7708.41,-16062.075,-28593.405,-47179.755,-23656.815,-25055.595
1764505881.3711967,18144.045,-23981.22,-7705.62,-16059.015,-28590.705,-47177.37,-23653.35,-25052.49
1764505881.3711967,18140.895,-23983.785,-7707.375,-16061.4,-28593.9,-47180.07,-23656.32,-25055.055
1764505881.3711967,18141.66,-23982.57,-7706.205,-16059.78,-28592.37,-47178.765,-23654.655,-25053.795
1764505881.3711967,18138.69,-23985.585,-7708.679999999999,-16062.615,-28594.71,-47180.835,-23657.445,-25056.765
1764505881.3711967,18139.725,-23985.0,-7708.815,-16061.94,-28594.935,-47180.43,-23656.815,-25056.405
1764505881.3711967,18141.795,-23983.605,-7707.465,-16060.59,-28593.18,-47178.405,-23654.88,-25053.795
1764505881.3711967,18144.585,-23980.455,-7704.855,-16058.205,-28590.075,-47175.03,-23651.685,-25051.185
1764505881.3711967,18141.345,-23983.83,-7707.78,-16061.535,-28592.82,-47178.18,-23654.07,-25053.84
1764505881.3711967,18142.02,-23982.84,-7706.295,-16060.41,-28592.19,-47177.505,-23653.17,-25052.715
1764505881.3711967,18144.63,-23980.455,-7702.605,-16057.215,-28589.265,-47174.49,-23650.02,-25050.6
1764505881.3711967,18142.47,-23982.84,-7704.63,-16059.465,-28591.47,-47176.515,-23652.18,-25052.94
1764505881.3711967,18145.89,-23980.185,-7702.875,-16056.675,-28588.5,-47174.175,-23649.615,-25049.79
1764505881.3711967,18145.8,-23979.555,-7702.83,-16056.09,-28588.005,-47172.915,-23648.355,-25049.655
1764505881.3711967,18144.945,-23980.59,-7704.045,-16056.99,-28589.535,-47174.085,-23648.805,-25050.78
1764505881.3722262,18143.91,-23981.76,-7705.44,-16058.205,-28590.57,-47175.615,-23649.975,-25051.5
1764505881.3722262,18147.69,-23978.115,-7701.615,-16054.515,-28586.745,-47171.655,-23646.06,-25047.765
1764505881.419843,18147.78,-23978.34,-7701.12,-16054.515,-28586.565,-47171.52,-23645.115,-25047.09
1764505881.419843,18143.595,-23982.84,-7704.764999999999,-16058.34,-28590.075,-47175.75,-23648.895,-25051.095
1764505881.419843,18145.8,-23980.005,-7702.469999999999,-16056.135,-28587.645,-47173.365,-23646.195,-25049.655
1764505881.419843,18144.0,-23981.31,-7705.394999999999,-16059.375,-28590.12,-47176.11,-23648.715,-25052.265
1764505881.419843,18142.785,-23982.75,-7706.565,-16059.915,-28592.19,-47177.505,-23649.795,-25053.165
1764505881.419843,18142.605,-23983.695,-7707.15,-16060.095,-28591.92,-47177.775,-23649.795,-25053.57
1764505881.419843,18144.045,-23982.525,-7706.115,-16059.24,-28590.93,-47176.47,-23648.4,-25052.355
1764505881.419843,18146.61,-23979.825,-7702.335,-16056.27,-28588.005,-47173.41,-23645.34,-25049.43
1764505881.419843,18144.675,-23981.715,-7704.809999999999,-16057.98,-28589.715,-47175.57,-23647.32,-25051.725
1764505881.419843,18147.69,-23977.755,-7701.525,-16053.39,-28586.43,-47171.025,-23643.54,-25048.53
1764505881.419843,18149.355,-23976.315,-7699.679999999999,-16052.04,-28584.27,-47169.495,-23641.515,-25047.09
1764505881.419843,18148.545,-23977.575,-7701.48,-16054.335,-28587.285,-47172.915,-23642.685,-25048.08
1764505881.419843,18147.06,-23978.565,-7702.74,-16055.595,-28588.14,-47173.455,-23643.72,-25049.655
1764505881.419843,18145.935,-23979.195,-7703.37,-16055.82,-28588.995,-47173.545,-23644.125,-25050.465
1764505881.419843,18143.91,-23981.445,-7705.17,-16058.07,-28591.515,-47175.84,-23645.88,-25052.94
1764505881.419843,18145.98,-23979.6,-7703.19,-16056.27,-28589.625,-47174.445,-23643.675,-25051.095
1764505881.4209044,18149.085,-23976.855,-7699.905,-16053.21,-28586.07,-47171.61,-23641.155,-25047.81
1764505881.4209044,18146.835,-23979.915,-7702.559999999999,-16055.595,-28587.96,-47174.355,-23643.18,-25050.42
1764505881.4209044,18149.355,-23977.215,-7700.58,-16052.58,-28585.71,-47171.745,-23640.39,-25047.855
1764505881.4209044,18150.615,-23976.045,-7698.915,-16050.87,-28583.955,-47170.17,-23638.86,-25046.73
1764505881.4209044,18150.93,-23975.82,-7699.005,-16050.555,-28584.63,-47170.62,-23638.275,-25046.685
1764505881.4209044,18147.87,-23978.745,-7701.255,-16053.48,-28587.645,-47173.095,-23639.94,-25049.07
1764505881.4209044,18145.89,-23980.455,-7703.144999999999,-16055.505,-28589.67,-47174.94,-23641.965,-25051.545
1764505881.4209044,18148.68,-23978.34,-7700.355,-16052.445,-28587.195,-47172.42,-23639.04,-25048.89
1764505881.4659054,18147.195,-23980.455,-7702.335,-16054.605,-28589.445,-47175.03,-23640.795,-25051.23
1764505881.4659054,18148.995,-23976.99,-7700.174999999999,-16051.815,-28586.25,-47172.06,-23637.87,-25049.43
1764505881.4669013,18147.78,-23978.16,-7701.48,-16053.075,-28587.69,-47172.915,-23638.905,-25051.095
1764505881.4669013,18145.485,-23979.78,-7702.695,-16054.695,-28590.03,-47174.94,-23640.66,-25053.39
1764505881.4669013,18140.895,-23983.2,-7707.195,-16059.195,-28594.125,-47179.395,-23643.9,-25057.845
1764505881.4669013,18143.19,-23980.68,-7704.585,-16057.62,-28592.145,-47177.55,-23641.38,-25055.19
1764505881.4669013,18142.92,-23981.805,-7705.215,-16058.43,-28593.36,-47178.18,-23640.84,-25056.27
1764505881.4679008,18141.255,-23983.965,-7706.79,-16059.87,-28594.89,-47179.575,-23641.695,-25058.115
1764505881.4679008,18141.21,-23984.325,-7707.195,-16059.915,-28594.98,-47179.98,-23641.875,-25058.295
1764505881.4679008,18138.51,-23986.935,-7709.894999999999,-16062.66,-28597.14,-47182.095,-23643.945,-25060.59
1764505881.4679008,18140.895,-23985.315,-7708.5,-16060.86,-28595.34,-47180.565,-23641.65,-25058.88
1764505881.4689004,18145.53,-23981.67,-7705.17,-16056.855,-28591.2,-47177.055,-23637.69,-25054.785
1764505881.4689004,18144.855,-23982.795,-7705.62,-16057.845,-28592.01,-47177.415,-23638.365,-25055.73
1764505881.4689004,18142.02,-23985.63,-7708.275,-16060.185,-28594.53,-47179.08,-23640.435,-25057.53
1764505881.4689004,18145.26,-23982.705,-7704.855,-16056.63,-28591.38,-47175.84,-23636.565,-25052.85
1764505881.469901,18146.655,-23981.175,-7703.19,-16055.64,-28589.67,-47174.67,-23635.26,-25051.455
1764505881.469901,18146.115,-23982.39,-7704.045,-16056.315,-28590.84,-47175.075,-23636.205,-25052.58
1764505881.469901,18141.93,-23986.44,-7707.69,-16059.735,-28593.99,-47178.9,-23639.625,-25055.955
1764505881.469901,18142.92,-23985.315,-7705.844999999999,-16058.205,-28593.0,-47177.37,-23639.04,-25054.965
1764505881.469901,18140.76,-23987.97,-7708.679999999999,-16061.445,-28596.015,-47179.71,-23642.37,-25057.53
1764505881.4705172,18142.38,-23986.62,-7708.139999999999,-16060.275,-28594.98,-47178.63,-23640.57,-25056.18
1764505881.4713783,18144.765,-23984.28,-7704.764999999999,-16057.08,-28592.145,-47175.66,-23638.05,-25053.12
1764505881.4713783,18145.215,-23984.19,-7705.17,-16057.035,-28591.65,-47175.75,-23637.645,-25052.715
1764505881.4713783,18144.225,-23984.865,-7706.429999999999,-16057.53,-28592.505,-47176.605,-23637.555,-25053.615
1764505881.5123825,18142.56,-23987.295,-7708.32,-16059.6,-28594.845,-47178.54,-23639.04,-25055.325
1764505881.5123825,18143.37,-23986.485,-7707.33,-16058.88,-28593.495,-47177.28,-23637.915,-25054.965
1764505881.5123825,18146.25,-23983.2,-7704.045,-16055.775,-28589.715,-47173.905,-23634.225,-25051.725
1764505881.5123825,18142.38,-23987.43,-7708.634999999999,-16060.32,-28594.665,-47178.765,-23638.14,-25055.685
1764505881.5123825,18142.56,-23986.575,-7708.139999999999,-16060.77,-28595.115,-47178.63,-23637.69,-25055.73
1764505881.5123825,18142.65,-23986.215,-7707.554999999999,-16060.005,-28594.215,-47177.055,-23635.89,-25055.595
1764505881.5123825,18145.08,-23983.47,-7705.08,-16058.115,-28591.965,-47174.715,-23632.965,-25052.805
1764505881.5123825,18141.12,-23987.565,-7708.455,-16060.77,-28594.305,-47177.37,-23635.755,-25055.37
1764505881.5123825,18141.885,-23988.15,-7708.139999999999,-16060.05,-28593.765,-47176.74,-23635.665,-25055.415
1764505881.5123825,18144.045,-23986.395,-7706.61,-16058.07,-28592.235,-47174.715,-23633.415,-25053.03
1764505881.5123825,18141.795,-23988.105,-7708.41,-16060.815,-28594.89,-47177.505,-23635.26,-25055.01
1764505881.5123825,18144.72,-23984.37,-7704.99,-16057.395,-28592.145,-47174.355,-23633.28,-25052.085
1764505881.5123825,18143.775,-23985.315,-7704.405,-16055.955,-28589.94,-47173.095,-23632.74,-25053.03
1764505881.5123825,18141.93,-23987.79,-7707.96,-16060.68,-28595.52,-47178.675,-23635.98,-25056.0
1764505881.5123825,18144.0,-23985.945,-7706.519999999999,-16059.015,-28592.325,-47174.13,-23632.695,-25053.03
1764505881.5123825,18143.91,-23986.08,-7706.025,-16058.655,-28592.91,-47175.795,-23631.48,-25051.815
1764505881.5123825,18143.91,-23986.215,-7706.115,-16058.835,-28593.495,-47176.92,-23631.84,-25051.995
1764505881.5123825,18138.285,-23990.58,-7708.815,-16060.05,-28590.885,-47173.275,-23633.595,-25056.765
1764505881.5123825,18140.895,-23989.455,-7709.13,-16060.95,-28594.305,-47176.92,-23632.605,-25054.425
1764505881.5123825,18141.93,-23988.555,-7708.679999999999,-16061.715,-28596.51,-47180.655,-23632.065,-25052.715
1764505881.5123825,18141.48,-23989.5,-7708.545,-16061.445,-28594.665,-47177.325,-23632.29,-25053.435
1764505881.5123825,18141.48,-23989.095,-7707.87,-16059.87,-28592.37,-47175.705,-23631.795,-25053.84
1764505881.560352,18141.615,-23988.465,-7705.304999999999,-16056.045,-28586.115,-47167.74,-23628.465,-25053.48
1764505881.561365,18142.56,-23987.565,-7706.429999999999,-16058.88,-28591.515,-47173.59,-23631.3,-25053.615
1764505881.561365,18145.26,-23985.765,-7705.934999999999,-16059.69,-28595.565,-47179.17,-23631.345,-25051.41
1764505881.561365,18140.895,-23990.355,-7710.434999999999,-16063.245,-28597.455,-47180.16,-23632.29,-25054.83
1764505881.561365,18140.76,-23989.68,-7707.78,-16059.6,-28591.605,-47172.96,-23628.645,-25053.66
1764505881.561365,18140.895,-23988.69,-7707.24,-16059.06,-28591.155,-47173.5,-23627.745,-25053.255
1764505881.561365,18141.525,-23988.51,-7708.094999999999,-16060.77,-28594.305,-47176.065,-23629.23,-25052.895
1764505881.562362,18138.78,-23991.435,-7710.615,-16062.93,-28596.33,-47177.235,-23631.12,-25056.63
1764505881.562362,18140.31,-23989.905,-7709.625,-16062.345,-28595.115,-47176.245,-23629.68,-25056.18
1764505881.562362,18143.595,-23986.62,-7706.34,-16058.34,-28592.28,-47173.275,-23625.855,-25052.625
1764505881.562362,18143.73,-23987.07,-7706.474999999999,-16058.925,-28592.865,-47173.095,-23626.08,-25053.3
1764505881.562362,18140.04,-23990.58,-7710.525,-16062.705,-28596.33,-47176.29,-23629.14,-25057.215
1764505881.562362,18142.02,-23988.105,-7707.915,-16059.555,-28594.215,-47174.355,-23626.215,-25054.38
1764505881.562362,18140.4,-23990.31,-7709.445,-16061.175,-28595.835,-47176.245,-23628.285,-25056.225
1764505881.562362,18141.84,-23989.14,-7707.825,-16060.185,-28594.215,-47174.715,-23627.115,-25054.875
1764505881.562362,18137.745,-23992.47,-7711.245,-16063.515,-28597.455,-47178.585,-23630.265,-25058.16
1764505881.562362,18137.97,-23992.065,-7711.605,-16063.38,-28598.04,-47178.09,-23629.995,-25057.53
1764505881.562362,18141.21,-23988.6,-7708.41,-16059.78,-28594.62,-47174.49,-23626.35,-25054.245
1764505881.562362,18140.985,-23989.23,-7708.005,-16060.095,-28594.53,-47174.58,-23626.17,-25054.605
1764505881.562362,18137.88,-23992.38,-7711.29,-16063.065,-28597.815,-47177.37,-23628.33,-25057.62
1764505881.562362,18140.985,-23989.59,-7709.13,-16060.725,-28595.52,-47175.075,-23626.17,-25055.415
1764505881.562362,18138.285,-23992.695,-7711.424999999999,-16063.29,-28598.31,-47177.685,-23628.96,-25058.79
1764505881.562362,18136.035,-23994.45,-7713.495,-16065.18,-28600.335,-47179.395,-23631.48,-25061.085
1764505881.562362,18138.735,-23991.84,-7711.11,-16062.615,-28597.635,-47177.55,-23629.23,-25057.89
1764505881.606212,18137.34,-23993.82,-7712.865,-16064.64,-28599.12,-47179.71,-23630.445,-25059.33
1764505881.606212,18140.445,-23990.22,-7708.905,-16061.13,-28595.295,-47175.93,-23626.305,-25055.37
1764505881.606212,18140.175,-23990.085,-7709.309999999999,-16060.77,-28595.43,-47175.705,-23625.675,-25054.695
1764505881.606212,18138.285,-23991.345,-7710.66,-16062.03,-28596.87,-47178.225,-23627.115,-25056.99
1764505881.606212,18135.36,-23994.0,-7713.855,-16064.91,-28600.065,-47180.97,-23630.13,-25061.355
1764505881.606212,18137.97,-23990.895,-7711.38,-16062.975,-28597.545,-47178.045,-23627.7,-25058.79
1764505881.606212,18138.645,-23990.985,-7710.795,-16063.155,-28597.32,-47177.64,-23627.655,-25058.385
1764505881.606212,18136.215,-23993.28,-7713.0,-16065.72,-28599.57,-47180.115,-23629.725,-25060.59
1764505881.606212,18134.28,-23995.53,-7714.44,-16067.025,-28601.415,-47181.195,-23630.355,-25062.12
1764505881.606212,18136.89,-23992.155,-7711.74,-16064.28,-28598.13,-47177.775,-23627.295,-25059.015
1764505881.606212,18136.575,-23992.605,-7712.594999999999,-16065.18,-28598.715,-47178.27,-23627.7,-25059.42
1764505881.6072257,18134.595,-23995.44,-7715.16,-16067.565,-28600.83,-47180.295,-23629.77,-25061.76
1764505881.6072257,18137.43,-23992.515,-7712.415,-16064.28,-28597.095,-47177.685,-23626.485,-25058.745
1764505881.6072257,18136.53,-23993.325,-7712.955,-16065.585,-28597.68,-47178.72,-23627.205,-25059.96
1764505881.6072257,18134.595,-23995.35,-7714.394999999999,-16067.79,-28599.21,-47180.25,-23629.275,-25061.715
1764505881.60823,18138.735,-23991.57,-7710.255,-16064.505,-28595.385,-47176.335,-23624.595,-25057.98
1764505881.60823,18140.085,-23989.86,-7708.724999999999,-16063.2,-28595.295,-47175.93,-23623.74,-25056.495
1764505881.60823,18137.07,-23992.515,-7711.605,-16064.91,-28596.96,-47177.55,-23625.63,-25058.52
1764505881.60823,18135.405,-23994.045,-7713.269999999999,-16066.215,-28598.625,-47178.0,-23627.16,-25060.275
1764505881.60823,18137.655,-23992.155,-7711.74,-16064.73,-28597.005,-47176.65,-23625.045,-25058.655
1764505881.60823,18134.955,-23994.99,-7714.575,-16067.655,-28599.165,-47179.71,-23627.34,-25060.995
1764505881.60823,18136.08,-23994.945,-7713.45,-16066.215,-28598.535,-47178.945,-23626.215,-25060.095
1764505881.60823,18137.52,-23994.09,-7712.505,-16065.495,-28598.04,-47177.91,-23625.855,-25058.88
1764505881.60823,18137.295,-23994.27,-7712.054999999999,-16065.45,-28596.96,-47176.695,-23625.765,-25058.295
1764505881.6530712,18139.68,-23992.515,-7710.525,-16063.65,-28594.8,-47174.76,-23624.055,-25055.775
1764505881.6530712,18138.69,-23993.73,-7712.37,-16064.595,-28596.465,-47176.29,-23625.63,-25056.405
1764505881.6530712,18141.57,-23990.22,-7709.625,-16062.345,-28593.72,-47172.87,-23623.02,-25053.12
1764505881.6530712,18138.195,-23993.145,-7712.684999999999,-16065.63,-28596.69,-47175.345,-23625.99,-25055.595
1764505881.6530712,18140.67,-23991.165,-7710.21,-16063.695,-28594.17,-47173.005,-23623.83,-25053.12
1764505881.6530712,18138.42,-23992.92,-7712.28,-16065.36,-28596.33,-47175.12,-23625.45,-25055.19
1764505881.6530712,18141.255,-23990.265,-7708.995,-16062.705,-28592.865,-47171.43,-23622.345,-25051.725
1764505881.6530712,18140.805,-23991.03,-7709.67,-16063.11,-28593.18,-47171.16,-23622.165,-25051.725
1764505881.6530712,18138.87,-23993.91,-7711.92,-16065.765,-28595.565,-47173.59,-23624.19,-25054.065
1764505881.6530712,18138.465,-23993.955,-7712.505,-16065.765,-28595.745,-47173.455,-23624.505,-25054.515
1764505881.6530712,18139.41,-23993.37,-7711.965,-16065.0,-28595.025,-47172.69,-23623.29,-25053.345
1764505881.6530712,18140.355,-23992.155,-7709.67,-16063.605,-28592.91,-47170.755,-23621.535,-25052.76
1764505881.6541088,18144.045,-23988.24,-7705.349999999999,-16059.69,-28588.815,-47166.48,-23617.53,-25048.845
1764505881.6541088,18142.605,-23989.815,-7706.88,-16061.265,-28590.255,-47168.145,-23618.565,-25050.33
1764505881.6541088,18140.355,-23992.47,-7709.04,-16063.605,-28592.055,-47169.27,-23620.32,-25052.625
1764505881.6541088,18143.37,-23990.31,-7707.059999999999,-16061.58,-28590.12,-47166.795,-23618.43,-25050.6
1764505881.6541088,18142.47,-23991.795,-7708.455,-16063.965,-28593.315,-47169.495,-23620.41,-25051.455
1764505881.6541088,18143.955,-23990.49,-7707.014999999999,-16062.93,-28591.2,-47167.29,-23617.71,-25049.88
1764505881.6541088,18142.56,-23992.2,-7708.86,-16063.83,-28592.28,-47167.695,-23618.88,-25051.68
1764505881.6541088,18144.855,-23989.77,-7706.205,-16060.59,-28589.805,-47164.905,-23616.72,-25048.98
1764505881.6541088,18145.62,-23990.355,-7706.16,-16060.545,-28590.255,-47165.715,-23616.27,-25049.295
1764505881.6541088,18145.665,-23990.265,-7705.98,-16060.095,-28590.615,-47166.165,-23616.81,-25049.61
1764505881.6541088,18145.755,-23990.04,-7705.889999999999,-16059.96,-28590.21,-47164.365,-23616.135,-25049.385
1764505881.6541088,18144.27,-23991.57,-7706.969999999999,-16062.39,-28591.515,-47165.67,-23617.71,-25052.04
1764505881.6989412,18141.21,-23995.08,-7710.434999999999,-16065.81,-28595.115,-47169.045,-23621.355,-25056.045
1764505881.6989412,18143.19,-23993.055,-7709.219999999999,-16064.055,-28593.675,-47166.615,-23620.59,-25055.46
1764505881.6989412,18141.12,-23995.755,-7711.92,-16066.665,-28597.005,-47168.235,-23623.605,-25057.53
1764505881.6989412,18144.81,-23992.605,-7708.094999999999,-16064.19,-28593.18,-47164.77,-23619.915,-25054.47
1764505881.6989412,18147.195,-23991.75,-7706.924999999999,-16063.245,-28591.245,-47163.015,-23617.845,-25052.625
1764505881.6989412,18147.33,-23992.65,-7706.07,-16063.605,-28591.74,-47162.25,-23617.665,-25051.68
1764505881.6989412,18147.06,-23993.055,-7706.7,-16064.73,-28591.605,-47161.89,-23618.34,-25052.4
1764505881.6989412,18150.255,-23990.49,-7704.315,-16062.12,-28588.275,-47158.47,-23614.605,-25048.935
1764505881.6989412,18150.255,-23990.085,-7704.45,-16060.995,-28587.105,-47156.85,-23613.615,-25048.125
1764505881.6989412,18146.52,-23993.73,-7707.87,-16064.37,-28591.065,-47160.495,-23615.955,-25050.24
1764505881.6989412,18148.005,-23992.47,-7706.924999999999,-16064.055,-28591.74,-47161.35,-23614.83,-25048.935
1764505881.6989412,18149.715,-23990.715,-7705.755,-16061.94,-28589.445,-47157.84,-23612.04,-25046.64
1764505881.6989412,18147.555,-23993.145,-7708.005,-16064.055,-28591.155,-47158.965,-23613.795,-25048.665
1764505881.6989412,18149.625,-23990.805,-7705.44,-16061.94,-28589.13,-47155.32,-23611.05,-25046.64
1764505881.6989412,18148.32,-23992.2,-7706.79,-16063.065,-28590.795,-47156.715,-23612.04,-25047.225
1764505881.6989412,18149.85,-23990.31,-7705.259999999999,-16061.22,-28588.14,-47154.06,-23609.295,-25046.235
1764505881.6999524,18147.33,-23992.56,-7707.87,-16063.785,-28590.165,-47156.67,-23612.04,-25049.25
1764505881.6999524,18148.095,-23992.695,-7707.599999999999,-16062.93,-28589.67,-47156.31,-23611.365,-25048.53
1764505881.6999524,18151.83,-23989.41,-7703.054999999999,-16059.105,-28585.935,-47152.215,-23607.315,-25043.985
1764505881.6999524,18149.895,-23991.345,-7704.674999999999,-16061.085,-28588.68,-47154.195,-23608.845,-25045.47
1764505881.6999524,18148.32,-23993.505,-7707.014999999999,-16062.795,-28590.3,-47155.365,-23610.6,-25047.405
1764505881.6999524,18150.345,-23991.345,-7704.99,-16060.545,-28587.105,-47151.945,-23608.53,-25044.39
1764505881.7470431,18149.13,-23992.74,-7706.295,-16061.895,-28588.905,-47153.07,-23609.565,-25045.605
1764505881.7470431,18149.58,-23991.57,-7705.53,-16061.4,-28589.04,-47152.665,-23609.115,-25045.38
1764505881.7470431,18147.78,-23993.595,-7708.005,-16063.155,-28591.11,-47154.33,-23611.275,-25046.91
1764505881.7470431,18150.48,-23991.39,-7705.889999999999,-16060.5,-28587.69,-47150.955,-23608.08,-25044.12
1764505881.7470431,18151.065,-23990.76,-7705.844999999999,-16060.275,-28587.735,-47150.55,-23607.63,-25044.12
1764505881.7470431,18150.66,-23991.66,-7705.665,-16060.725,-28588.095,-47150.505,-23608.26,-25043.94
1764505881.7470431,18151.38,-23991.345,-7704.99,-16060.365,-28587.645,-47149.515,-23607.495,-25042.995
1764505881.7470431,18148.86,-23993.55,-7707.87,-16062.075,-28589.895,-47151.135,-23609.655,-25045.38
1764505881.7470431,18146.565,-23995.665,-7709.715,-16064.235,-28591.515,-47152.89,-23611.095,-25047.405
1764505881.7470431,18149.67,-23993.055,-7706.519999999999,-16061.04,-28588.68,-47148.84,-23607.405,-25044.57
1764505881.7470431,18147.645,-23994.945,-7708.995,-16063.335,-28590.615,-47150.55,-23608.35,-25046.01
1764505881.748061,18150.885,-23991.48,-7705.844999999999,-16060.5,-28587.825,-47146.545,-23604.255,-25042.41
1764505881.748061,18151.02,-23991.795,-7705.17,-16059.375,-28586.655,-47145.825,-23603.67,-25042.815
1764505881.748061,18151.155,-23991.12,-7705.259999999999,-16059.87,-28587.78,-47146.995,-23604.12,-25042.86
1764505881.748061,18148.5,-23993.865,-7708.094999999999,-16062.705,-28590.3,-47149.515,-23605.74,-25045.02
1764505881.7490542,18149.535,-23992.29,-7705.575,-16059.555,-28586.925,-47145.645,-23603.04,-25043.805
1764505881.7490542,18148.86,-23992.335,-7706.025,-16060.68,-28587.42,-47146.365,-23603.22,-25045.605
1764505881.7490542,18145.53,-23996.745,-7709.985,-16065.81,-28593.9,-47152.62,-23606.82,-25049.205
1764505881.7490542,18143.91,-23998.635,-7711.83,-16067.205,-28594.71,-47152.395,-23607.09,-25050.87
1764505881.7490542,18143.145,-23999.355,-7712.054999999999,-16067.43,-28594.71,-47152.755,-23607.18,-25051.77
1764505881.7490542,18145.98,-23997.15,-7709.13,-16064.73,-28591.965,-47150.505,-23603.94,-25049.295
1764505881.7500577,18144.405,-23998.725,-7710.929999999999,-16065.72,-28593.09,-47151.135,-23605.38,-25050.96
1764505881.7500577,18141.435,-24001.425,-7713.719999999999,-16069.095,-28595.97,-47153.52,-23607.855,-25054.02
1764505881.7500577,18143.37,-23999.355,-7711.155,-16066.755,-28594.125,-47151.945,-23605.65,-25052.04
1764505881.795069,18143.775,-23998.14,-7710.615,-16065.675,-28593.54,-47150.955,-23604.705,-25051.815
1764505881.795069,18144.36,-23996.745,-7710.344999999999,-16064.955,-28593.045,-47149.83,-23603.355,-25051.68
1764505881.795069,18144.495,-23996.07,-7709.264999999999,-16063.695,-28592.64,-47148.165,-23601.78,-25051.41
1764505881.795069,18144.27,-23995.395,-7708.769999999999,-16062.39,-28592.595,-47147.85,-23600.7,-25051.77
1764505881.795069,18149.265,-23990.22,-7703.684999999999,-16056.945,-28588.95,-47143.395,-23596.2,-25047.945
1764505881.795069,18151.785,-23986.98,-7699.59,-16052.175,-28584.945,-47139.57,-23592.24,-25044.93
1764505881.795069,18151.965,-23985.27,-7697.25,-16051.005,-28582.335,-47137.995,-23591.25,-25044.84
1764505881.795069,18157.14,-23979.42,-7692.03,-16047.54,-28579.86,-47134.845,-23587.11,-25039.53
1764505881.795069,18155.79,-23980.995,-7694.19,-16048.89,-28581.84,-47135.655,-23588.595,-25041.69
1764505881.795069,18151.245,-23985.495,-7699.184999999999,-16053.255,-28584.9,-47138.58,-23593.14,-25046.235
1764505881.795069,18147.015,-23991.03,-7703.73,-16058.115,-28589.13,-47142.27,-23597.415,-25050.6
1764505881.795069,18141.165,-23996.52,-7709.04,-16062.075,-28594.44,-47146.995,-23603.13,-25056.63
1764505881.795069,18144.72,-23994.36,-7706.88,-16060.725,-28593.36,-47146.545,-23601.825,-25053.75
1764505881.795069,18140.895,-23997.915,-7710.57,-16064.415,-28596.645,-47149.83,-23603.805,-25056.765
1764505881.795069,18139.095,-24000.12,-7712.235,-16065.63,-28597.59,-47150.325,-23604.345,-25059.015
1764505881.795069,18135.81,-24002.955,-7715.34,-16069.365,-28601.145,-47154.735,-23607.405,-25063.335
1764505881.795069,18135.045,-24003.18,-7716.105,-16069.68,-28602.63,-47156.355,-23607.855,-25063.695
1764505881.795069,18134.64,-24004.485,-7716.644999999999,-16070.085,-28602.09,-47155.725,-23607.045,-25062.93
1764505881.795069,18133.47,-24005.07,-7716.915,-16069.905,-28601.865,-47155.905,-23606.55,-25063.47
1764505881.795069,18134.775,-24002.865,-7714.349999999999,-16068.105,-28599.93,-47154.33,-23603.535,-25061.175
1764505881.795069,18133.56,-24003.18,-7715.88,-16069.32,-28601.415,-47155.77,-23603.76,-25062.345
1764505881.795069,18131.31,-24006.33,-7718.355,-16071.615,-28604.205,-47160.0,-23606.46,-25064.82
1764505881.795069,18134.955,-24003.09,-7714.889999999999,-16068.33,-28601.46,-47156.805,-23602.59,-25061.715
1764505881.795069,18132.93,-24005.385,-7717.545,-16070.895,-28603.17,-47158.83,-23604.705,-25063.92
1764505881.8401346,18130.095,-24007.95,-7720.065,-16073.01,-28606.095,-47161.935,-23607.27,-25066.665
1764505881.8401346,18130.095,-24007.275,-7719.929999999999,-16073.01,-28606.635,-47162.88,-23607.405,-25067.16
1764505881.841149,18127.755,-24009.795,-7722.945,-16075.575,-28608.615,-47164.995,-23610.015,-25068.33
1764505881.841149,18130.05,-24007.635,-7720.965,-16072.92,-28606.05,-47162.655,-23607.63,-25065.855
1764505881.841149,18130.545,-24007.14,-7720.335,-16072.515,-28605.69,-47163.06,-23606.235,-25065.36
1764505881.841149,18128.7,-24009.525,-7721.639999999999,-16074.495,-28607.175,-47165.31,-23607.9,-25067.43
1764505881.841149,18131.94,-24006.015,-7718.4,-16070.895,-28603.395,-47162.475,-23604.48,-25064.64
1764505881.841149,18132.93,-24004.845,-7717.275,-16070.4,-28603.125,-47162.205,-23604.435,-25065.045
1764505881.841149,18131.22,-24006.375,-7718.849999999999,-16072.02,-28604.925,-47163.78,-23605.515,-25065.945
1764505881.841149,18125.595,-24011.91,-7723.665,-16077.105,-28609.695,-47169.63,-23609.79,-25070.67
1764505881.841149,18126.18,-24011.1,-7722.9,-16076.565,-28608.66,-47169.315,-23608.755,-25069.905
1764505881.841149,18127.575,-24008.895,-7721.594999999999,-16075.26,-28606.905,-47168.19,-23606.505,-25068.555
1764505881.841149,18125.01,-24011.28,-7724.429999999999,-16078.005,-28609.785,-47172.015,-23609.295,-25072.29
1764505881.841149,18125.55,-24010.29,-7723.349999999999,-16076.385,-28608.66,-47171.565,-23607.81,-25071.48
1764505881.841149,18129.285,-24007.14,-7719.615,-16072.785,-28605.6,-47168.595,-23604.12,-25067.655
1764505881.841149,18127.305,-24008.85,-7721.73,-16074.81,-28607.805,-47171.07,-23605.29,-25069.185
1764505881.8426654,18123.525,-24012.18,-7725.195,-16078.32,-28611.495,-47174.985,-23608.935,-25072.83
1764505881.8426654,18123.39,-24012.09,-7725.014999999999,-16077.42,-28610.415,-47174.445,-23609.07,-25073.235
1764505881.8426654,18126.495,-24009.525,-7721.325,-16073.505,-28607.13,-47171.43,-23605.605,-25070.13
1764505881.8426654,18123.57,-24011.55,-7723.394999999999,-16076.52,-28610.055,-47174.22,-23607.99,-25072.38
1764505881.8426654,18127.26,-24008.715,-7721.099999999999,-16074.495,-28608.165,-47173.095,-23605.065,-25068.825
1764505881.8426654,18125.775,-24010.245,-7722.495,-16075.89,-28609.02,-47173.725,-23606.64,-25070.445
1764505881.8899074,18122.13,-24013.08,-7725.78,-16079.49,-28612.53,-47178.135,-23610.42,-25073.955
1764505881.8899074,18122.76,-24013.125,-7725.33,-16078.86,-28611.765,-47178.495,-23610.285,-25072.785
1764505881.8899074,18124.2,-24012.0,-7723.889999999999,-16078.05,-28610.685,-47177.64,-23609.16,-25071.66
1764505881.8899074,18124.875,-24010.92,-7722.99,-16077.915,-28610.37,-47177.28,-23609.565,-25071.66
1764505881.8899074,18128.16,-24007.59,-7719.974999999999,-16074.135,-28607.985,-47174.715,-23607.18,-25068.24
1764505881.8899074,18128.295,-24007.095,-7719.705,-16073.19,-28608.075,-47175.345,-23606.595,-25068.105
1764505881.8899074,18128.925,-24007.41,-7719.929999999999,-16072.515,-28606.365,-47174.67,-23606.19,-25067.43
1764505881.8899074,18125.685,-24011.145,-7722.764999999999,-16076.025,-28609.02,-47178.405,-23609.16,-25070.49
1764505881.8899074,18128.475,-24007.68,-7719.12,-16073.64,-28606.05,-47175.705,-23605.83,-25067.205
1764505881.8899074,18127.53,-24008.715,-7720.11,-16074.54,-28607.13,-47177.055,-23607.18,-25067.97
1764505881.8899074,18125.055,-24011.19,-7722.54,-16077.285,-28609.605,-47180.385,-23610.42,-25070.535
1764505881.8899074,18127.035,-24008.67,-7719.615,-16074.9,-28607.49,-47178.54,-23608.17,-25068.33
1764505881.8899074,18125.145,-24010.695,-7721.325,-16075.215,-28607.805,-47179.755,-23609.97,-25069.275
1764505881.8899074,18128.205,-24008.355,-7718.894999999999,-16073.28,-28606.14,-47178.72,-23608.62,-25066.395
1764505881.8899074,18126.9,-24010.425,-7720.92,-16075.62,-28608.12,-47181.375,-23610.6,-25067.88
1764505881.8899074,18126.54,-24010.74,-7720.65,-16074.225,-28606.77,-47179.35,-23610.69,-25068.06
1764505881.8899074,18130.455,-24006.555,-7716.105,-16070.22,-28603.035,-47176.425,-23607.09,-25063.65
1764505881.8899074,18131.175,-24005.745,-7715.745,-16070.355,-28603.44,-47176.965,-23607.18,-25063.74
1764505881.8899074,18131.58,-24005.385,-7714.755,-16069.95,-28601.865,-47176.74,-23606.64,-25063.155
1764505881.8899074,18132.12,-24005.52,-7714.799999999999,-16069.77,-28601.91,-47176.605,-23607.405,-25062.84
1764505881.8899074,18130.32,-24006.69,-7716.465,-16070.94,-28603.755,-47178.405,-23609.115,-25064.1
1764505881.890926,18131.985,-24004.8,-7714.575,-16068.42,-28601.505,-47176.56,-23607.54,-25061.175
1764505881.890926,18131.94,-24005.115,-7715.07,-16069.23,-28601.505,-47177.055,-23607.9,-25061.355
1764505881.890926,18130.275,-24007.68,-7717.995,-16072.065,-28604.385,-47180.025,-23610.465,-25063.02
1764505881.9343064,18131.805,-24006.33,-7716.465,-16070.49,-28603.08,-47179.575,-23609.835,-25061.67
1764505881.9343064,18134.685,-24003.54,-7713.134999999999,-16067.295,-28599.345,-47176.02,-23607.09,-25058.655
1764505881.93584,18134.01,-24004.575,-7713.674999999999,-16067.835,-28600.425,-47177.415,-23608.035,-25059.69
1764505881.93584,18130.68,-24007.005,-7717.094999999999,-16070.67,-28603.89,-47181.6,-23611.635,-25063.02
1764505881.93584,18133.605,-24003.63,-7713.764999999999,-16066.845,-28600.695,-47178.585,-23608.44,-25059.555
1764505881.93584,18133.38,-24004.935,-7714.17,-16068.465,-28601.46,-47178.945,-23609.295,-25059.42
1764505881.93584,18131.31,-24007.365,-7716.78,-16071.12,-28603.89,-47181.195,-23612.13,-25060.995
1764505881.93584,18133.515,-24005.07,-7713.809999999999,-16068.51,-28600.785,-47178.9,-23610.15,-25058.655
1764505881.93584,18131.94,-24006.96,-7715.655,-16070.175,-28602.315,-47180.655,-23611.59,-25060.545
1764505881.93584,18132.705,-24005.79,-7715.295,-16069.23,-28601.055,-47179.845,-23611.05,-25059.87
1764505881.93584,18134.46,-24003.63,-7714.304999999999,-16067.79,-28599.345,-47178.495,-23610.33,-25057.8
1764505881.936856,18137.745,-24000.39,-7710.974999999999,-16064.505,-28596.105,-47175.615,-23607.54,-25054.425
1764505881.936856,18137.52,-24000.255,-7710.57,-16063.965,-28595.835,-47176.29,-23607.495,-25054.38
1764505881.936856,18132.57,-24005.295,-7715.34,-16068.465,-28600.29,-47180.385,-23612.31,-25058.025
1764505881.9378514,18135.135,-24003.0,-7712.505,-16066.215,-28597.59,-47177.19,-23610.105,-25055.505
1764505881.9388516,18132.705,-24005.925,-7714.215,-16068.915,-28600.155,-47179.98,-23612.085,-25058.79
1764505881.9388516,18133.74,-24005.205,-7714.215,-16068.375,-28599.345,-47179.44,-23610.51,-25057.755
1764505881.9388516,18135.585,-24002.91,-7712.144999999999,-16066.395,-28596.87,-47176.92,-23608.755,-25054.695
1764505881.9388516,18132.66,-24005.925,-7714.53,-16069.365,-28600.11,-47180.115,-23612.265,-25057.215
1764505881.9388516,18130.995,-24007.59,-7715.565,-16070.355,-28601.865,-47181.6,-23613.39,-25059.15
1764505881.9388516,18131.85,-24007.68,-7714.035,-16069.635,-28601.145,-47180.88,-23612.94,-25059.105
1764505881.9388516,18135.45,-24004.485,-7711.469999999999,-16067.295,-28599.03,-47178.63,-23610.555,-25056.225
1764505881.9388516,18135.225,-24004.305,-7712.144999999999,-16067.475,-28599.345,-47179.35,-23611.14,-25056.27
1764505881.9388516,18131.175,-24007.725,-7715.295,-16069.815,-28601.73,-47181.51,-23613.84,-25059.87
1764505881.983953,18135.63,-24004.26,-7711.605,-16066.62,-28598.355,-47178.0,-23610.735,-25056.495
1764505881.983953,18135.315,-24004.53,-7712.415,-16067.79,-28598.715,-47178.9,-23610.645,-25056.855
1764505881.983953,18132.03,-24008.265,-7715.835,-16071.66,-28602.045,-47182.635,-23613.885,-25060.59
1764505881.983953,18131.985,-24008.355,-7716.599999999999,-16071.66,-28602.405,-47182.86,-23614.47,-25060.455
1764505881.983953,18135.135,-24005.79,-7713.179999999999,-16068.555,-28599.435,-47179.755,-23611.68,-25057.44
1764505881.983953,18133.47,-24007.995,-7714.98,-16070.265,-28600.47,-47182.05,-23613.66,-25059.285
1764505881.983953,18135.72,-24006.285,-7713.269999999999,-16068.195,-28597.545,-47179.665,-23611.365,-25057.215
1764505881.983953,18133.83,-24007.23,-7714.844999999999,-16069.77,-28599.48,-47181.645,-23613.12,-25058.52
1764505881.983953,18136.125,-24004.845,-7712.325,-16067.295,-28596.735,-47178.63,-23610.195,-25055.865
1764505881.983953,18135.63,-24005.79,-7712.91,-16067.7,-28597.23,-47179.575,-23611.23,-25057.305
1764505881.983953,18133.11,-24008.94,-7715.79,-16070.625,-28600.47,-47182.32,-23613.435,-25059.375
1764505881.983953,18132.885,-24009.345,-7715.835,-16070.895,-28600.425,-47182.14,-23613.48,-25059.375
1764505881.984964,18133.605,-24008.805,-7715.295,-16070.895,-28600.515,-47181.465,-23613.3,-25058.61
1764505881.984964,18132.93,-24009.435,-7715.384999999999,-16071.255,-28601.01,-47181.555,-23613.255,-25058.52
1764505881.984964,18136.17,-24006.645,-7712.415,-16067.655,-28598.175,-47178.405,-23609.565,-25055.73
1764505881.984964,18136.08,-24007.23,-7712.46,-16067.34,-28597.725,-47178.855,-23609.565,-25056.495
1764505881.984964,18135.27,-24008.445,-7712.91,-16068.42,-28598.13,-47178.99,-23610.285,-25057.62
1764505881.984964,18133.245,-24009.57,-7714.44,-16070.265,-28599.435,-47180.88,-23611.455,-25058.745
1764505881.984964,18135.72,-24006.69,-7712.505,-16068.285,-28597.815,-47178.45,-23608.71,-25056.585
1764505881.984964,18132.435,-24009.84,-7715.79,-16071.435,-28601.685,-47181.96,-23611.5,-25060.095
1764505881.984964,18132.66,-24009.12,-7715.474999999999,-16070.13,-28601.415,-47181.78,-23610.78,-25059.24
1764505881.984964,18133.56,-24008.85,-7714.844999999999,-16069.95,-28600.92,-47180.79,-23610.24,-25058.745
1764505881.984964,18136.755,-24006.33,-7712.505,-16067.43,-28598.58,-47178.045,-23607.09,-25056.81
1764505881.984964,18133.785,-24009.21,-7714.844999999999,-16069.14,-28600.2,-47179.575,-23609.52,-25059.915
1764505882.0316014,18136.08,-24006.69,-7712.144999999999,-16066.665,-28597.005,-47176.92,-23607.045,-25056.54
1764505882.0316014,18135.405,-24007.41,-7713.9,-16068.69,-28600.02,-47179.62,-23607.855,-25056.855
1764505882.0316014,18136.575,-24005.835,-7712.684999999999,-16066.485,-28597.77,-47176.695,-23605.335,-25055.055
1764505882.0316014,18134.01,-24008.445,-7714.755,-16069.095,-28600.155,-47179.305,-23608.44,-25057.935
1764505882.0316014,18136.26,-24006.105,-7712.594999999999,-16066.395,-28597.23,-47176.38,-23604.75,-25055.865
1764505882.0316014,18134.595,-24007.815,-7714.215,-16069.185,-28600.965,-47179.62,-23607.18,-25057.755
1764505882.0316014,18136.845,-24005.565,-7712.594999999999,-16067.745,-28599.75,-47178.27,-23605.02,-25056.09
1764505882.0316014,18137.79,-24004.62,-7711.605,-16066.305,-28597.77,-47175.57,-23603.04,-25055.415
1764505882.0316014,18141.03,-24001.605,-7708.679999999999,-16063.335,-28594.89,-47171.97,-23600.07,-25052.58
1764505882.0316014,18139.77,-24003.18,-7710.705,-16065.405,-28596.465,-47173.86,-23602.275,-25054.2
1764505882.0316014,18143.595,-23999.58,-7706.519999999999,-16061.265,-28593.405,-47170.35,-23598.36,-25050.915
1764505882.0316014,18143.415,-23999.04,-7705.844999999999,-16060.05,-28592.82,-47169.45,-23597.19,-25050.78
1764505882.0316014,18142.695,-23999.85,-7706.61,-16060.59,-28593.54,-47170.755,-23597.955,-25051.77
1764505882.0316014,18148.095,-23994.63,-7701.48,-16055.37,-28588.185,-47164.995,-23592.06,-25046.145
1764505882.0316014,18148.23,-23994.18,-7700.445,-16054.515,-28586.97,-47163.645,-23590.8,-25046.28
1764505882.0316014,18144.585,-23997.87,-7704.09,-16058.115,-28590.93,-47167.335,-23594.85,-25050.465
1764505882.0326142,18147.195,-23994.945,-7701.344999999999,-16055.055,-28588.23,-47164.275,-23592.6,-25047.765
1764505882.0326142,18145.17,-23996.61,-7701.929999999999,-16056.54,-28589.04,-47164.77,-23594.22,-25049.88
1764505882.0326142,18147.06,-23995.08,-7701.21,-16056.405,-28590.345,-47166.03,-23594.625,-25048.845
1764505882.0326142,18149.355,-23992.785,-7699.679999999999,-16054.245,-28588.86,-47163.915,-23592.6,-25047.09
1764505882.0326142,18145.62,-23997.105,-7703.37,-16057.71,-28591.29,-47166.12,-23595.165,-25050.825
1764505882.0326142,18147.33,-23996.34,-7701.974999999999,-16056.315,-28589.85,-47164.095,-23593.005,-25049.79
1764505882.0326142,18144.945,-23998.86,-7704.63,-16058.835,-28592.685,-47166.975,-23595.075,-25051.545
1764505882.0326142,18148.005,-23994.72,-7701.165,-16055.01,-28588.68,-47163.105,-23590.62,-25047.99
1764505882.075916,18148.275,-23994.63,-7701.03,-16054.515,-28588.275,-47161.89,-23589.9,-25047.99
1764505882.075916,18147.51,-23996.34,-7702.245,-16056.405,-28589.49,-47163.24,-23590.935,-25049.16
1764505882.075916,18148.725,-23995.53,-7701.389999999999,-16055.955,-28588.365,-47162.565,-23589.585,-25047.63
1764505882.075916,18148.365,-23996.115,-7700.985,-16055.865,-28588.59,-47162.52,-23589.855,-25047.855
1764505882.075916,18146.7,-23997.105,-7702.38,-16057.98,-28590.21,-47164.23,-23591.565,-25048.845
1764505882.075916,18143.55,-24000.93,-7705.575,-16061.265,-28593.405,-47166.705,-23594.715,-25052.04
1764505882.075916,18144.405,-24000.795,-7705.394999999999,-16060.815,-28592.955,-47166.255,-23594.31,-25051.59
1764505882.075916,18147.015,-23997.735,-7702.875,-16057.98,-28589.67,-47163.285,-23590.8,-25048.17
1764505882.075916,18147.69,-23997.6,-7703.009999999999,-16057.62,-28588.995,-47163.195,-23590.44,-25047.765
1764505882.075916,18148.41,-23997.645,-7702.335,-16057.35,-28588.815,-47162.835,-23590.215,-25046.955
1764505882.075916,18147.285,-23998.32,-7702.695,-16057.8,-28589.895,-47164.365,-23591.295,-25047.765
1764505882.075916,18142.875,-24003.63,-7706.79,-16062.57,-28593.9,-47169.135,-23596.47,-25052.355
1764505882.075916,18144.045,-24002.1,-7705.259999999999,-16061.265,-28592.37,-47167.38,-23594.67,-25050.825
1764505882.075916,18145.755,-23999.58,-7704.045,-16060.14,-28592.505,-47166.93,-23593.275,-25049.25
1764505882.0769355,18146.61,-23999.49,-7703.639999999999,-16059.24,-28591.92,-47166.12,-23592.555,-25048.62
1764505882.0779347,18149.13,-23996.79,-7700.58,-16056.495,-28588.68,-47161.62,-23588.955,-25045.155
1764505882.0779347,18148.635,-23997.735,-7701.57,-16057.305,-28589.085,-47162.295,-23588.73,-25046.325
1764505882.0779347,18145.845,-24000.57,-7703.505,-16059.24,-28591.155,-47165.355,-23591.43,-25048.665
1764505882.0779347,18146.205,-23999.715,-7703.28,-16058.25,-28591.2,-47165.265,-23591.565,-25048.17
1764505882.0779347,18148.635,-23996.97,-7701.929999999999,-16057.215,-28590.975,-47165.13,-23590.215,-25045.83
1764505882.0779347,18149.22,-23995.98,-7700.804999999999,-16055.73,-28588.095,-47162.52,-23587.83,-25044.03
1764505882.0779347,18147.96,-23997.285,-7702.065,-16057.08,-28589.85,-47163.87,-23589.45,-25045.11
1764505882.1255443,18148.41,-23997.555,-7702.2,-16056.765,-28590.885,-47164.635,-23589.765,-25045.74
1764505882.1255443,18147.645,-23998.095,-7702.019999999999,-16056.63,-28590.615,-47164.635,-23589.72,-25046.82
1764505882.126562,18147.87,-23998.59,-7702.514999999999,-16057.26,-28591.515,-47165.715,-23590.53,-25046.91
1764505882.126562,18147.24,-23998.095,-7702.469999999999,-16057.17,-28591.47,-47166.48,-23590.755,-25046.64
1764505882.126562,18147.15,-23998.275,-7702.2,-16056.585,-28591.11,-47166.39,-23589.81,-25046.46
1764505882.126562,18148.095,-23997.15,-7701.075,-16056.0,-28590.345,-47165.175,-23588.955,-25045.245
1764505882.126562,18148.32,-23997.69,-7701.21,-16056.765,-28590.795,-47166.165,-23590.08,-25045.605
1764505882.126562,18146.61,-23999.355,-7702.695,-16057.935,-28591.515,-47167.02,-23592.105,-25047.405
1764505882.126562,18150.12,-23995.53,-7698.735,-16054.605,-28588.59,-47163.465,-23589.405,-25043.715
1764505882.126562,18146.07,-24000.165,-7703.415,-16058.61,-28593.54,-47167.74,-23594.175,-25048.575
1764505882.126562,18145.665,-24001.2,-7704.99,-16059.96,-28593.9,-47168.595,-23594.85,-25049.79
1764505882.126562,18146.34,-24000.48,-7703.73,-16058.97,-28593.18,-47167.875,-23593.77,-25048.395
1764505882.126562,18148.77,-23998.455,-7700.849999999999,-16056.54,-28590.57,-47165.4,-23591.34,-25045.47
1764505882.126562,18147.15,-24000.885,-7703.054999999999,-16057.755,-28592.28,-47166.75,-23593.995,-25048.35
1764505882.126562,18149.355,-23999.22,-7700.849999999999,-16055.955,-28590.48,-47164.905,-23591.655,-25046.64
1764505882.126562,18148.95,-24000.525,-7702.155,-16057.755,-28592.055,-47166.39,-23593.545,-25046.775
1764505882.126562,18148.545,-24001.155,-7703.235,-16059.555,-28594.71,-47169.9,-23595.255,-25047.18
1764505882.126562,18145.89,-24002.73,-7704.54,-16060.365,-28595.205,-47169.495,-23595.345,-25049.34
1764505882.126562,18150.525,-23998.365,-7700.355,-16055.82,-28591.335,-47164.995,-23590.89,-25045.335
1764505882.126562,18150.3,-23999.67,-7701.75,-16057.08,-28592.505,-47166.165,-23592.015,-25046.19
