Timestamp,Channel1,Channel2,Channel3,Channel4,Channel5,Channel6,Channel7,Channel8
1764505411.3871243,19818.855,-16739.73,-9750.915,-17435.07,-29435.265,-50766.84,-25459.965,-26461.755
1764505411.3871243,19818.405,-16740.405,-9750.24,-17435.745,-29435.715,-50767.875,-25460.595,-26461.755
1764505411.3881228,19819.035,-16740.855,-9749.655,-17435.79,-29435.67,-50768.415,-25460.055,-26461.665
1764505411.3881228,19821.6,-16738.559999999998,-9747.99,-17433.495,-29433.105,-50765.76,-25458.345,-26459.595
1764505411.3881228,19822.86,-16737.93,-9747.09,-17432.73,-29432.52,-50765.22,-25458.12,-26458.425
1764505411.3881228,19825.47,-16734.915,-9744.795,-17429.805,-29429.955,-50762.025,-25455.24,-26455.5
1764505411.3881228,19830.51,-16730.1,-9739.26,-17424.585,-29424.42,-50756.22,-25449.345,-26450.055
1764505411.3881228,19829.16,-16731.405,-9740.34,-17425.98,-29425.86,-50757.57,-25450.38,-26451.54
1764505411.3881228,19824.66,-16735.364999999998,-9745.11,-17430.345,-29430.315,-50761.395,-25453.98,-26456.22
1764505411.3881228,19827.36,-16732.665,-9742.905,-17427.645,-29427.885,-50759.055,-25452.09,-26454.015
1764505411.3881228,19826.28,-16733.925,-9744.75,-17429.265,-29429.01,-50760.315,-25453.89,-26455.41
1764505411.3881228,19824.03,-16736.13,-9746.775,-17431.47,-29431.035,-50762.25,-25455.555,-26457.57
1764505411.3881228,19826.595,-16732.98,-9743.94,-17428.364999999998,-29428.335,-50759.28,-25452.63,-26455.095
1764505411.3881228,19826.91,-16733.34,-9743.58,-17428.68,-29427.48,-50758.965,-25452.63,-26454.465
1764505411.3881228,19823.175,-16737.165,-9747.18,-17433.315,-29431.08,-50762.88,-25455.87,-26458.02
1764505411.3881228,19824.03,-16735.815,-9745.74,-17432.1,-29430.27,-50761.44,-25454.7,-26456.805
1764505411.3881228,19826.865,-16732.89,-9742.32,-17428.545,-29427.39,-50758.605,-25451.28,-26453.88
1764505411.3881228,19823.58,-16736.67,-9746.505,-17431.92,-29431.215,-50762.475,-25455.42,-26457.615
1764505411.38912,19825.02,-16734.915,-9744.93,-17430.165,-29428.875,-50760.45,-25453.98,-26455.635
1764505411.38912,19821.96,-16737.66,-9747.855,-17432.73,-29431.62,-50763.285,-25456.815,-26458.56
1764505411.38912,19822.41,-16737.03,-9746.865,-17431.38,-29430.585,-50762.52,-25455.51,-26457.66
1764505411.38912,19826.865,-16733.655,-9742.815,-17427.645,-29427.3,-50758.605,-25451.775,-26454.555
1764505411.4349008,19825.695,-16735.05,-9743.805,-17428.95,-29428.245,-50759.505,-25452.99,-26455.41
1764505411.4349008,19822.86,-16738.739999999998,-9746.865,-17431.829999999998,-29430.9,-50762.835,-25455.375,-26458.83
1764505411.4349008,19825.875,-16735.32,-9743.94,-17428.545,-29428.245,-50759.865,-25452.54,-26455.635
1764505411.4349008,19825.92,-16734.465,-9743.355,-17428.095,-29427.39,-50759.325,-25451.73,-26454.78
1764505411.4349008,19824.48,-16735.23,-9743.715,-17428.86,-29428.38,-50759.955,-25452.405,-26455.545
1764505411.4349008,19823.715,-16736.625,-9745.515,-17431.065,-29429.415,-50761.215,-25453.485,-26456.265
1764505411.4349008,19819.845,-16740.72,-9749.385,-17435.61,-29433.825,-50765.22,-25457.49,-26460.225
1764505411.4349008,19820.43,-16740.405,-9748.98,-17435.114999999998,-29433.69,-50764.725,-25457.04,-26460.09
1764505411.4349008,19822.41,-16738.425,-9747.045,-17433.405,-29431.44,-50763.285,-25455.06,-26458.47
1764505411.4353223,19825.65,-16734.915,-9743.535,-17429.579999999998,-29427.795,-50759.46,-25451.82,-26455.005
1764505411.4353223,19825.74,-16736.22,-9744.615,-17430.12,-29428.83,-50760.54,-25453.08,-26455.41
1764505411.4353223,19822.41,-16739.64,-9747.945,-17433.09,-29432.025,-50763.465,-25455.915,-26458.11
1764505411.4353223,19824.255,-16737.165,-9744.75,-17430.48,-29429.595,-50761.26,-25453.17,-26455.455
1764505411.4353223,19824.795,-16736.579999999998,-9744.12,-17430.255,-29428.785,-50760.585,-25452.54,-26455.545
1764505411.4353223,19825.785,-16736.579999999998,-9744.12,-17430.12,-29429.01,-50760.45,-25452.63,-26455.635
1764505411.4353223,19820.745,-16741.26,-9748.62,-17434.71,-29434.23,-50765.535,-25457.85,-26459.955
1764505411.4353223,19819.62,-16742.204999999998,-9749.25,-17436.015,-29434.59,-50765.985,-25458.39,-26460.765
1764505411.4353223,19820.205,-16741.89,-9749.655,-17436.149999999998,-29434.32,-50765.265,-25458.75,-26460.54
1764505411.4353223,19821.105,-16740.855,-9749.205,-17434.71,-29434.14,-50764.815,-25458.39,-26460.18
1764505411.4353223,19825.38,-16736.13,-9744.345,-17430.12,-29429.1,-50760.135,-25453.575,-26455.14
1764505411.4353223,19824.12,-16736.895,-9744.705,-17430.614999999998,-29429.82,-50761.395,-25453.845,-26455.905
1764505411.4353223,19822.995,-16737.614999999998,-9745.335,-17431.2,-29430.225,-50761.44,-25454.43,-26456.805
1764505411.479172,19820.205,-16740.27,-9748.125,-17434.215,-29433.195,-50764.59,-25457.76,-26459.505
1764505411.479172,19821.42,-16739.28,-9747.045,-17432.82,-29432.205,-50763.465,-25456.68,-26458.11
1764505411.479172,19824.795,-16735.635,-9743.31,-17428.454999999998,-29428.155,-50759.37,-25452.45,-26454.33
1764505411.479172,19825.38,-16735.274999999998,-9742.635,-17428.68,-29428.02,-50759.055,-25452.72,-26454.555
1764505411.479172,19826.235,-16734.285,-9741.96,-17428.23,-29427.48,-50758.38,-25452.9,-26454.555
1764505411.479172,19823.13,-16737.12,-9744.75,-17430.975,-29430.0,-50761.17,-25454.97,-26456.805
1764505411.479172,19823.22,-16736.805,-9744.39,-17430.57,-29428.695,-50759.82,-25453.575,-26455.815
1764505411.479172,19824.3,-16734.915,-9742.815,-17428.905,-29427.12,-50758.29,-25452.045,-26453.97
1764505411.479172,19825.245,-16734.51,-9741.42,-17428.454999999998,-29426.805,-50757.84,-25451.235,-26452.755
1764505411.479172,19826.37,-16734.149999999998,-9740.205,-17426.79,-29425.995,-50757.21,-25450.38,-26451.63
1764505411.479172,19823.895,-16736.805,-9742.905,-17429.309999999998,-29428.155,-50760.045,-25452.45,-26454.015
1764505411.479172,19827.72,-16732.62,-9739.125,-17425.665,-29423.655,-50756.265,-25448.265,-26450.595
1764505411.479172,19827.27,-16732.62,-9739.53,-17425.89,-29424.6,-50756.355,-25448.355,-26451.27
1764505411.479172,19824.435,-16735.05,-9741.915,-17428.815,-29427.39,-50758.965,-25450.47,-26453.745
1764505411.479172,19826.91,-16732.125,-9739.305,-17425.71,-29425.32,-50755.815,-25448.13,-26450.955
1764505411.479172,19824.12,-16734.78,-9741.645,-17427.825,-29427.795,-50758.065,-25450.245,-26453.025
1764505411.479172,19824.93,-16734.645,-9741.51,-17427.645,-29426.445,-50757.615,-25449.975,-26452.62
1764505411.479172,19826.505,-16733.34,-9740.34,-17426.52,-29424.33,-50756.67,-25448.715,-26451.9
1764505411.479172,19829.79,-16730.145,-9736.83,-17422.605,-29421.045,-50752.845,-25444.665,-26448.39
1764505411.480682,19828.485,-16730.82,-9737.82,-17423.19,-29422.17,-50753.205,-25444.89,-26449.065
1764505411.480682,19826.505,-16732.485,-9739.17,-17424.675,-29423.61,-50754.78,-25446.42,-26450.055
1764505411.480682,19825.92,-16733.114999999998,-9740.115,-17425.125,-29424.195,-50755.59,-25447.59,-26451.09
1764505411.480682,19830.06,-16728.795,-9735.705,-17420.94,-29419.92,-50751.405,-25443.495,-26447.085
1764505411.480682,19828.035,-16730.91,-9736.965,-17422.559999999998,-29421.99,-50753.61,-25445.745,-26448.885
1764505411.5232654,19824.84,-16734.149999999998,-9740.205,-17425.665,-29425.32,-50757.21,-25447.905,-26452.08
1764505411.5237863,19825.875,-16732.98,-9739.08,-17424.72,-29423.7,-50755.59,-25446.42,-26451.045
1764505411.5237863,19827.9,-16730.55,-9737.37,-17422.92,-29421.54,-50753.295,-25444.44,-26448.435
1764505411.5237863,19824.93,-16734.195,-9740.385,-17425.665,-29424.51,-50756.175,-25447.5,-26451.315
1764505411.5237863,19825.38,-16734.059999999998,-9739.665,-17425.485,-29424.24,-50756.31,-25447.77,-26451.0
1764505411.5237863,19826.415,-16732.395,-9738.495,-17423.64,-29422.755,-50754.87,-25446.735,-26449.515
1764505411.5237863,19829.7,-16729.515,-9735.75,-17420.805,-29419.74,-50752.215,-25443.945,-26446.455
1764505411.5237863,19829.61,-16729.739999999998,-9735.705,-17421.255,-29419.605,-50752.485,-25444.215,-26446.185
1764505411.5237863,19832.49,-16726.995,-9732.555,-17417.88,-29416.455,-50748.885,-25441.29,-26443.485
1764505411.5237863,19827.045,-16731.63,-9737.73,-17422.875,-29420.955,-50753.97,-25445.79,-26448.615
1764505411.5247917,19827.945,-16731.45,-9736.965,-17421.93,-29420.28,-50753.205,-25445.295,-26447.94
1764505411.5247917,19829.88,-16729.065,-9735.165,-17419.905,-29418.435,-50751.54,-25443.9,-26445.285
1764505411.5247917,19832.4,-16725.555,-9731.925,-17416.755,-29415.915,-50749.02,-25441.605,-26443.395
1764505411.5247917,19829.97,-16728.975,-9734.58,-17419.23,-29418.57,-50751.855,-25443.855,-26446.815
1764505411.5247917,19830.105,-16728.93,-9734.85,-17419.23,-29419.11,-50751.54,-25444.125,-26446.995
1764505411.5247917,19829.61,-16729.425,-9735.48,-17419.454999999998,-29419.11,-50751.495,-25444.26,-26446.23
1764505411.5247917,19830.42,-16728.704999999998,-9733.995,-17418.87,-29418.57,-50750.91,-25443.63,-26444.745
1764505411.5247917,19834.92,-16723.98,-9728.955,-17414.505,-29413.98,-50746.86,-25439.265,-26440.335
1764505411.5247917,19834.47,-16724.43,-9729.09,-17414.73,-29413.755,-50747.22,-25438.815,-26440.245
1764505411.5247917,19829.7,-16727.715,-9731.565,-17417.34,-29416.5,-50749.02,-25441.29,-26443.98
1764505411.5247917,19831.905,-16727.399999999998,-9730.755,-17417.114999999998,-29416.095,-50749.605,-25440.345,-26442.9
1764505411.5247917,19834.785,-16724.565,-9728.82,-17415.09,-29413.89,-50747.355,-25438.05,-26440.29
1764505411.5247917,19834.065,-16725.285,-9730.08,-17415.09,-29415.24,-50746.86,-25439.04,-26441.37
1764505411.5247917,19832.58,-16726.68,-9731.025,-17415.809999999998,-29416.32,-50748.48,-25440.48,-26442.18
1764505411.571494,19832.085,-16727.805,-9731.7,-17416.845,-29417.445,-50749.29,-25441.425,-26442.63
1764505411.571494,19831.41,-16729.11,-9732.375,-17417.385,-29418.165,-50749.425,-25441.605,-26443.89
1764505411.571494,19831.23,-16728.93,-9732.645,-17417.52,-29417.715,-50749.29,-25441.875,-26443.53
1764505411.571494,19832.355,-16726.5,-9730.8,-17415.675,-29415.465,-50747.895,-25439.58,-26442.045
1764505411.571494,19832.4,-16726.41,-9729.99,-17415.45,-29415.06,-50748.255,-25438.545,-26441.82
1764505411.571494,19829.925,-16728.48,-9733.32,-17418.375,-29418.165,-50750.955,-25441.065,-26444.07
1764505411.571494,19832.535,-16726.23,-9730.89,-17415.36,-29415.915,-50748.39,-25438.77,-26441.64
1764505411.571494,19832.625,-16726.59,-9731.07,-17415.18,-29415.33,-50747.895,-25439.355,-26441.955
1764505411.571494,19830.33,-16729.829999999998,-9733.14,-17417.024999999998,-29417.94,-50750.505,-25440.93,-26445.195
1764505411.571494,19825.92,-16733.745,-9737.01,-17421.614999999998,-29422.44,-50754.78,-25444.98,-26449.47
1764505411.571494,19825.245,-16734.78,-9738.09,-17422.605,-29423.655,-50755.815,-25446.42,-26449.965
1764505411.571494,19828.98,-16731.675,-9733.95,-17418.645,-29420.055,-50752.035,-25442.73,-26446.995
1764505411.571494,19826.28,-16734.42,-9737.505,-17422.065,-29423.34,-50755.14,-25445.88,-26450.145
1764505411.571494,19827.135,-16733.7,-9736.74,-17421.3,-29422.26,-50754.645,-25444.935,-26449.695
1764505411.571494,19828.935,-16730.864999999998,-9733.995,-17417.88,-29419.695,-50751.36,-25442.19,-26446.815
1764505411.571494,19823.76,-16735.364999999998,-9738.72,-17423.235,-29424.465,-50756.13,-25446.78,-26451.36
1764505411.571494,19824.075,-16736.04,-9738.405,-17423.46,-29424.915,-50757.255,-25447.455,-26451.765
1764505411.571494,19825.56,-16734.195,-9736.605,-17422.02,-29423.385,-50754.915,-25445.115,-26449.74
1764505411.571494,19822.545,-16736.715,-9738.72,-17425.035,-29426.04,-50757.3,-25447.455,-26451.945
1764505411.571494,19825.335,-16734.195,-9736.29,-17422.38,-29423.745,-50754.825,-25445.25,-26449.38
1764505411.571494,19821.465,-16738.47,-9739.845,-17425.26,-29428.11,-50758.29,-25448.67,-26453.88
1764505411.571494,19822.905,-16737.39,-9738.9,-17424.045,-29426.13,-50756.85,-25446.915,-26452.08
1764505411.6194706,19823.13,-16737.48,-9739.53,-17424.54,-29426.445,-50756.94,-25447.23,-26451.9
1764505411.6194706,19824.255,-16736.22,-9738.405,-17423.235,-29425.59,-50756.265,-25445.79,-26451.405
1764505411.6194706,19825.11,-16734.42,-9736.605,-17421.885,-29423.79,-50754.78,-25443.765,-26449.74
1764505411.6194706,19822.005,-16738.559999999998,-9739.665,-17425.665,-29426.625,-50758.38,-25447.365,-26452.395
1764505411.6194706,19822.995,-16738.2,-9739.08,-17425.395,-29426.355,-50758.155,-25447.05,-26451.585
1764505411.6194706,19819.845,-16740.63,-9741.87,-17428.274999999998,-29428.785,-50760.63,-25449.795,-26454.555
1764505411.6194706,19819.44,-16741.305,-9742.185,-17427.645,-29428.38,-50761.305,-25449.255,-26454.87
1764505411.6194706,19820.745,-16740.18,-9740.43,-17425.98,-29427.48,-50760.315,-25448.4,-26453.025
1764505411.6204774,19823.31,-16737.48,-9737.37,-17423.415,-29425.095,-50757.39,-25446.15,-26450.73
1764505411.6204774,19821.285,-16739.64,-9739.935,-17425.26,-29426.985,-50759.775,-25448.22,-26453.52
1764505411.6204774,19822.905,-16737.795,-9738.135,-17424.36,-29425.41,-50758.515,-25445.565,-26451.315
1764505411.6204774,19823.22,-16736.265,-9737.235,-17423.46,-29424.78,-50757.93,-25445.16,-26450.505
1764505411.6209884,19822.095,-16737.075,-9738.495,-17423.864999999998,-29425.5,-50758.155,-25446.33,-26451.09
1764505411.6209884,19818.72,-16740.765,-9742.545,-17427.78,-29429.055,-50761.89,-25449.84,-26455.23
1764505411.6209884,19821.33,-16739.145,-9740.43,-17426.204999999998,-29427.39,-50759.73,-25447.59,-26453.295
1764505411.6209884,19820.07,-16739.954999999998,-9741.195,-17427.329999999998,-29428.515,-50760.27,-25448.13,-26455.14
1764505411.6209884,19816.83,-16743.6,-9743.715,-17430.885,-29431.305,-50763.915,-25451.325,-26458.92
1764505411.6209884,19819.17,-16740.315,-9740.385,-17427.195,-29428.38,-50761.62,-25448.625,-26455.59
1764505411.622002,19819.62,-16740.045,-9739.98,-17426.25,-29427.39,-50761.35,-25447.77,-26455.05
1764505411.622002,19819.395,-16740.495,-9741.015,-17426.52,-29428.065,-50761.395,-25448.175,-26455.455
1764505411.622002,19817.82,-16742.114999999998,-9742.635,-17428.545,-29430.27,-50762.79,-25449.795,-26457.21
1764505411.622002,19815.525,-16744.14,-9744.84,-17431.245,-29432.115,-50764.995,-25451.775,-26458.695
1764505411.622002,19818.405,-16741.755,-9742.5,-17428.32,-29428.965,-50762.16,-25448.31,-26454.645
1764505411.622002,19814.895,-16745.535,-9746.46,-17431.739999999998,-29432.475,-50765.895,-25452.09,-26458.47
1764505411.6630418,19815.21,-16744.59,-9745.74,-17430.93,-29432.7,-50765.535,-25451.82,-26458.92
1764505411.6630418,19818.81,-16741.665,-9742.095,-17427.105,-29429.55,-50761.98,-25448.13,-26455.365
1764505411.6640582,19817.595,-16743.465,-9743.22,-17428.454999999998,-29430.765,-50763.69,-25449.345,-26456.58
1764505411.6645737,19814.355,-16745.579999999998,-9745.92,-17431.065,-29433.33,-50766.525,-25452.27,-26459.415
1764505411.6645737,19816.2,-16743.69,-9743.94,-17429.445,-29431.62,-50764.41,-25450.74,-26457.705
1764505411.6645737,19813.095,-16747.2,-9746.82,-17432.145,-29434.41,-50766.885,-25453.44,-26460.63
1764505411.6645737,19814.355,-16746.75,-9746.955,-17431.515,-29434.275,-50766.885,-25453.215,-26460.27
1764505411.6645737,19818.675,-16742.25,-9742.14,-17427.059999999998,-29429.775,-50762.43,-25448.535,-26455.59
1764505411.6645737,19820.115,-16741.17,-9741.42,-17425.845,-29428.245,-50761.125,-25447.815,-26454.465
1764505411.6645737,19817.685,-16742.88,-9743.985,-17428.184999999998,-29430.585,-50763.915,-25449.03,-26456.49
1764505411.6645737,19815.705,-16745.22,-9746.28,-17430.614999999998,-29433.015,-50766.075,-25450.875,-26459.37
1764505411.6645737,19818.945,-16741.665,-9741.735,-17426.745,-29429.01,-50761.71,-25447.32,-26455.005
1764505411.6645737,19818.63,-16742.385,-9741.78,-17427.645,-29429.775,-50762.205,-25447.995,-26455.77
1764505411.6645737,19816.29,-16744.995,-9744.075,-17429.13,-29431.845,-50764.455,-25450.785,-26459.01
1764505411.6645737,19818.27,-16742.52,-9742.005,-17426.79,-29429.64,-50761.845,-25448.04,-26456.265
1764505411.6645737,19817.145,-16743.375,-9742.905,-17427.69,-29430.855,-50762.7,-25448.85,-26456.94
1764505411.6645737,19814.985,-16745.265,-9745.155,-17430.21,-29433.195,-50765.445,-25451.415,-26459.415
1764505411.6645737,19819.035,-16741.035,-9740.7,-17425.26,-29428.92,-50761.26,-25446.915,-26454.555
1764505411.7146125,19819.395,-16739.73,-9740.115,-17424.0,-29427.84,-50760.45,-25444.98,-26453.835
1764505411.7146125,19815.345,-16743.645,-9743.94,-17428.725,-29432.52,-50765.49,-25449.48,-26458.425
1764505411.7146125,19816.47,-16744.095,-9743.805,-17428.32,-29431.98,-50764.32,-25448.94,-26457.84
1764505411.7146125,19818.72,-16742.52,-9741.195,-17426.114999999998,-29429.865,-50761.035,-25447.23,-26455.77
1764505411.7146125,19821.105,-16739.73,-9738.855,-17423.505,-29427.255,-50759.055,-25444.98,-26453.115
1764505411.7146125,19819.26,-16740.765,-9739.485,-17424.18,-29427.93,-50760.315,-25445.565,-26453.835
1764505411.7146125,19816.11,-16744.274999999998,-9742.95,-17427.78,-29431.26,-50763.915,-25449.21,-26457.435
1764505411.7146125,19815.165,-16745.175,-9744.255,-17428.68,-29432.52,-50764.545,-25450.02,-26457.84
1764505411.7146125,19815.435,-16744.77,-9744.3,-17428.364999999998,-29432.295,-50764.68,-25448.895,-26457.255
1764505411.7146125,19820.07,-16740.945,-9740.52,-17424.495,-29427.975,-50760.72,-25444.35,-26453.25
1764505411.7146125,19821.285,-16739.415,-9739.305,-17422.695,-29426.985,-50759.415,-25443.99,-26451.81
1764505411.7146125,19818.945,-16740.945,-9739.305,-17422.29,-29427.345,-50758.785,-25444.08,-26452.71
1764505411.715123,19819.53,-16740.809999999998,-9739.53,-17422.92,-29427.885,-50759.145,-25443.855,-26452.62
1764505411.715123,19820.205,-16739.28,-9738.765,-17422.695,-29427.165,-50758.695,-25443.18,-26451.585
1764505411.715123,19819.35,-16740.135,-9739.35,-17423.774999999998,-29427.795,-50759.37,-25444.08,-26452.44
1764505411.715123,19816.155,-16743.69,-9743.49,-17427.195,-29431.395,-50762.835,-25446.96,-26455.59
1764505411.715123,19818.405,-16741.665,-9740.745,-17424.72,-29429.55,-50760.99,-25444.89,-26453.475
1764505411.715123,19818.045,-16742.7,-9741.465,-17424.989999999998,-29430.045,-50761.8,-25445.25,-26453.52
1764505411.715123,19815.57,-16745.67,-9744.39,-17427.105,-29433.105,-50764.77,-25448.265,-26456.58
1764505411.715123,19818.585,-16741.98,-9740.88,-17424.09,-29429.865,-50760.99,-25444.395,-26453.07
1764505411.7617328,19820.07,-16740.585,-9739.71,-17423.46,-29428.47,-50759.28,-25443.135,-26451.855
1764505411.7617328,19818.18,-16742.52,-9740.88,-17425.395,-29429.82,-50760.27,-25444.305,-26453.88
1764505411.7617328,19815.075,-16746.84,-9743.94,-17428.05,-29432.7,-50763.33,-25447.32,-26456.895
1764505411.7617328,19817.145,-16744.86,-9742.14,-17426.204999999998,-29430.54,-50761.845,-25445.88,-26455.005
1764505411.7617328,19814.355,-16747.245,-9745.47,-17428.5,-29432.79,-50764.275,-25448.13,-26457.345
1764505411.7627342,19813.905,-16747.649999999998,-9745.515,-17428.68,-29433.105,-50764.77,-25447.95,-26457.84
1764505411.7627342,19814.445,-16747.065,-9744.48,-17428.364999999998,-29432.43,-50764.68,-25448.085,-26457.3
1764505411.7627342,19817.82,-16744.14,-9740.79,-17424.45,-29429.685,-50761.575,-25445.115,-26454.465
1764505411.7627342,19816.11,-16745.22,-9742.59,-17426.655,-29431.17,-50762.655,-25447.32,-26455.59
1764505411.7627342,19815.345,-16746.12,-9743.85,-17428.23,-29432.475,-50763.78,-25448.31,-26456.085
1764505411.7627342,19818.99,-16742.385,-9740.07,-17425.079999999998,-29429.19,-50760.63,-25444.44,-26452.44
1764505411.7637322,19816.425,-16745.489999999998,-9742.815,-17427.239999999998,-29431.935,-50763.15,-25447.05,-26455.005
1764505411.7637322,19817.91,-16743.329999999998,-9740.88,-17425.079999999998,-29430.09,-50761.665,-25445.43,-26453.295
1764505411.7637322,19814.085,-16746.84,-9744.21,-17428.364999999998,-29434.455,-50764.995,-25449.39,-26457.12
1764505411.7637322,19815.21,-16746.57,-9744.66,-17428.274999999998,-29434.32,-50763.915,-25448.67,-26457.03
1764505411.7637322,19818.09,-16743.329999999998,-9741.69,-17424.495,-29430.585,-50760.27,-25444.305,-26453.385
1764505411.7637322,19817.505,-16744.274999999998,-9742.455,-17425.395,-29431.485,-50761.62,-25445.52,-26454.6
1764505411.7637322,19814.985,-16747.02,-9745.335,-17427.915,-29434.005,-50764.05,-25448.94,-26457.03
1764505411.7637322,19817.46,-16745.175,-9743.445,-17426.34,-29432.34,-50762.385,-25447.455,-26455.5
1764505411.7637322,19817.64,-16744.095,-9742.275,-17426.07,-29431.125,-50761.485,-25446.78,-26454.555
1764505411.7637322,19818.18,-16744.05,-9742.32,-17425.53,-29430.855,-50761.845,-25446.285,-26454.15
1764505411.7637322,19815.165,-16747.605,-9745.47,-17428.23,-29433.465,-50764.545,-25448.445,-26457.345
1764505411.7637322,19817.28,-16745.715,-9743.13,-17425.665,-29431.665,-50763.105,-25446.285,-26455.32
1764505411.7637322,19815.66,-16747.829999999998,-9744.57,-17427.239999999998,-29433.465,-50765.265,-25448.49,-26458.02
1764505411.7637322,19818.18,-16744.86,-9741.78,-17424.63,-29430.63,-50761.89,-25445.295,-26454.195
1764505411.7637322,19819.215,-16743.87,-9741.015,-17423.505,-29429.46,-50760.405,-25444.305,-26452.845
1764505411.7637322,19815.39,-16747.605,-9744.84,-17427.51,-29433.645,-50764.725,-25448.13,-26456.94
1764505411.7637322,19814.94,-16747.47,-9744.705,-17427.195,-29434.005,-50765.4,-25448.535,-26457.345
1764505411.7637322,19817.91,-16745.309999999998,-9741.51,-17425.26,-29431.26,-50762.835,-25445.565,-26455.14
1764505411.7637322,19817.595,-16745.715,-9742.095,-17425.755,-29432.16,-50762.79,-25446.42,-26455.32
1764505411.7637322,19822.815,-16740.72,-9737.505,-17419.905,-29427.435,-50758.065,-25440.84,-26450.325
1764505411.7637322,19820.61,-16743.285,-9739.89,-17422.2,-29428.695,-50760.18,-25443.0,-26452.125
1764505411.8052282,19816.695,-16746.84,-9743.265,-17426.114999999998,-29432.385,-50763.33,-25446.195,-26455.68
1764505411.8052282,19817.505,-16745.355,-9741.33,-17425.575,-29430.945,-50761.89,-25444.35,-26454.555
1764505411.8052282,19819.575,-16743.465,-9738.945,-17423.235,-29428.065,-50759.37,-25442.145,-26451.945
1764505411.8052282,19816.875,-16746.39,-9742.455,-17426.34,-29431.53,-50762.925,-25445.34,-26455.59
1764505411.8052282,19817.865,-16745.399999999998,-9741.195,-17425.755,-29430.765,-50762.34,-25444.17,-26454.555
1764505411.8052282,19820.745,-16742.88,-9738.675,-17423.01,-29427.795,-50759.28,-25441.38,-26452.08
1764505411.8052282,19817.055,-16745.94,-9742.86,-17427.059999999998,-29431.845,-50763.465,-25445.565,-26455.995
1764505411.8052282,19820.88,-16742.925,-9739.08,-17423.415,-29427.93,-50759.595,-25442.37,-26452.53
1764505411.8052282,19822.32,-16741.62,-9736.74,-17421.93,-29426.49,-50757.66,-25441.425,-26450.82
1764505411.8052282,19822.365,-16741.665,-9736.56,-17421.66,-29425.905,-50757.57,-25441.02,-26450.055
1764505411.8052282,19820.295,-16742.97,-9738.36,-17422.829999999998,-29427.615,-50758.65,-25441.83,-26450.82
1764505411.8052282,19817.73,-16745.85,-9741.285,-17424.989999999998,-29430.27,-50761.035,-25444.44,-26452.98
1764505411.8052282,19820.43,-16742.655,-9738.225,-17422.38,-29426.715,-50758.065,-25441.695,-26450.28
1764505411.8052282,19820.385,-16743.555,-9738.315,-17422.155,-29427.03,-50758.02,-25441.695,-26450.73
1764505411.8052282,19820.745,-16743.69,-9738.18,-17422.515,-29427.525,-50759.145,-25442.82,-26450.91
1764505411.8052282,19821.555,-16743.285,-9737.82,-17422.155,-29426.94,-50758.11,-25442.1,-26449.965
1764505411.8052282,19821.15,-16744.14,-9738.405,-17423.235,-29427.435,-50757.93,-25442.685,-26450.595
1764505411.8052282,19820.385,-16745.265,-9738.945,-17423.774999999998,-29427.615,-50758.74,-25444.215,-26451.945
1764505411.8062294,19824.21,-16741.62,-9735.39,-17419.77,-29424.195,-50755.05,-25441.02,-26447.94
1764505411.8062294,19822.05,-16743.555,-9737.865,-17421.255,-29426.04,-50756.94,-25443.09,-26448.795
1764505411.8062294,19826.01,-16740.18,-9734.355,-17417.97,-29422.395,-50753.745,-25439.94,-26445.24
1764505411.8062294,19823.4,-16742.34,-9736.65,-17420.805,-29424.78,-50756.58,-25441.56,-26448.03
1764505411.8492043,19824.435,-16740.989999999998,-9734.805,-17419.32,-29423.025,-50754.6,-25440.12,-26446.41
1764505411.8492043,19824.93,-16740.36,-9734.265,-17418.555,-29422.98,-50753.7,-25439.94,-26446.005
1764505411.8492043,19825.065,-16740.72,-9734.445,-17418.735,-29423.43,-50753.97,-25439.985,-26445.645
1764505411.8492043,19821.87,-16742.79,-9736.425,-17421.39,-29425.545,-50756.49,-25442.28,-26448.12
1764505411.8492043,19823.085,-16742.024999999998,-9735.48,-17420.309999999998,-29424.42,-50755.86,-25441.02,-26446.86
1764505411.8492043,19826.82,-16737.885,-9731.52,-17415.945,-29420.1,-50752.125,-25436.7,-26442.72
1764505411.8492043,19827.72,-16736.94,-9730.98,-17414.954999999998,-29419.65,-50751.09,-25435.44,-26441.595
1764505411.8492043,19825.11,-16739.1,-9733.23,-17417.97,-29422.62,-50753.34,-25438.095,-26444.61
1764505411.8492043,19822.635,-16743.375,-9736.155,-17421.03,-29424.915,-50756.67,-25440.84,-26447.85
1764505411.8492043,19825.605,-16740.09,-9731.88,-17417.43,-29421.495,-50752.98,-25437.69,-26445.69
1764505411.8492043,19826.01,-16738.29,-9731.25,-17416.845,-29421.225,-50752.08,-25436.7,-26444.88
1764505411.8492043,19825.47,-16738.02,-9730.935,-17416.665,-29421.0,-50751.9,-25436.43,-26444.385
1764505411.8492043,19823.805,-16739.64,-9732.51,-17417.745,-29422.35,-50753.385,-25437.465,-26445.87
1764505411.8492043,19821.915,-16741.26,-9733.545,-17419.68,-29423.7,-50755.005,-25438.725,-26447.535
1764505411.8492043,19824.435,-16739.415,-9731.565,-17417.114999999998,-29421.99,-50752.8,-25436.52,-26445.645
1764505411.8492043,19822.275,-16741.079999999998,-9733.59,-17419.05,-29424.06,-50754.15,-25438.14,-26448.255
1764505411.8492043,19823.85,-16739.37,-9731.25,-17417.204999999998,-29421.54,-50752.08,-25436.205,-26445.645
1764505411.8492043,19820.34,-16742.34,-9734.58,-17420.67,-29425.59,-50755.77,-25439.445,-26448.93
1764505411.8512974,19820.43,-16742.61,-9735.03,-17420.04,-29425.905,-50755.905,-25439.76,-26449.29
1764505411.8512974,19823.445,-16740.54,-9732.015,-17416.755,-29423.205,-50753.34,-25437.24,-26446.14
1764505411.8512974,19822.68,-16741.53,-9733.23,-17418.195,-29424.87,-50754.42,-25437.735,-26446.995
1764505411.8523118,19821.33,-16742.61,-9734.13,-17419.364999999998,-29425.995,-50755.095,-25438.275,-26448.48
1764505411.8523118,19816.785,-16745.85,-9737.73,-17422.38,-29428.695,-50758.875,-25441.92,-26451.315
1764505411.8523118,19818.945,-16743.915,-9736.2,-17419.59,-29426.265,-50757.3,-25440.12,-26448.84
1764505411.8957276,19816.695,-16746.66,-9738.63,-17421.614999999998,-29429.37,-50759.28,-25441.65,-26451.36
1764505411.8957276,19821.06,-16743.51,-9733.815,-17417.7,-29425.59,-50755.32,-25437.42,-26447.49
1764505411.8957276,19821.915,-16742.16,-9733.5,-17416.89,-29424.42,-50755.14,-25437.285,-26447.085
1764505411.8957276,19819.395,-16744.095,-9736.47,-17419.095,-29427.03,-50757.66,-25440.03,-26449.155
1764505411.8957276,19815.345,-16748.145,-9739.62,-17423.145,-29430.81,-50761.305,-25443.36,-26452.98
1764505411.8957276,19815.345,-16747.965,-9739.17,-17423.415,-29430.765,-50760.9,-25443.135,-26453.295
1764505411.8957276,19817.595,-16745.399999999998,-9736.695,-17420.94,-29428.605,-50758.425,-25440.705,-26450.82
1764505411.8957276,19816.47,-16746.93,-9738.495,-17421.84,-29430.405,-50759.82,-25442.415,-26451.405
1764505411.8957276,19818.45,-16745.715,-9737.505,-17421.3,-29428.38,-50758.875,-25441.02,-26450.55
1764505411.8957276,19816.02,-16747.425,-9738.72,-17422.47,-29429.46,-50760.72,-25442.28,-26452.395
1764505411.8957276,19817.19,-16745.445,-9736.605,-17420.085,-29427.795,-50759.055,-25440.12,-26450.595
1764505411.8981242,19815.48,-16746.255,-9737.64,-17421.12,-29428.785,-50759.64,-25440.93,-26451.09
1764505411.8981242,19820.025,-16741.845,-9733.365,-17416.71,-29424.465,-50755.5,-25436.835,-26446.815
1764505411.8981242,19818.72,-16743.285,-9734.355,-17417.565,-29425.815,-50756.67,-25438.005,-26447.175
1764505411.8981242,19815.705,-16746.434999999998,-9737.73,-17420.715,-29429.145,-50759.775,-25441.38,-26450.235
1764505411.8981242,19815.39,-16747.02,-9737.775,-17421.165,-29429.505,-50759.595,-25441.47,-26450.37
1764505411.8981242,19816.02,-16746.75,-9736.92,-17420.805,-29429.235,-50759.28,-25440.57,-26450.505
1764505411.8981242,19817.82,-16743.825,-9734.445,-17417.925,-29426.895,-50756.805,-25438.05,-26448.255
1764505411.8981242,19813.41,-16748.055,-9738.405,-17421.93,-29430.45,-50760.27,-25441.92,-26451.855
1764505411.8981242,19814.22,-16747.92,-9738.585,-17422.38,-29430.45,-50760.27,-25442.415,-26452.305
1764505411.8981242,19813.995,-16748.73,-9738.675,-17422.47,-29430.27,-50760.945,-25442.73,-26452.395
1764505411.8981242,19815.435,-16747.785,-9737.235,-17420.67,-29428.92,-50759.55,-25441.38,-26450.73
1764505411.946603,19821.285,-16742.34,-9731.79,-17415.495,-29423.295,-50753.79,-25435.665,-26445.51
1764505411.9476,19820.295,-16743.105,-9731.925,-17415.495,-29423.88,-50753.79,-25435.98,-26445.24
1764505411.9476,19818.855,-16745.04,-9733.095,-17416.62,-29425.59,-50754.96,-25437.96,-26446.815
1764505411.9476,19817.145,-16747.11,-9735.3,-17419.364999999998,-29427.48,-50757.48,-25439.76,-26448.795
1764505411.9476,19812.78,-16751.43,-9738.855,-17423.28,-29431.44,-50761.125,-25443.765,-26453.07
1764505411.9476,19813.95,-16749.315,-9738.045,-17421.165,-29429.865,-50760.0,-25442.37,-26451.18
1764505411.9485953,19815.885,-16747.605,-9736.02,-17419.5,-29428.245,-50758.065,-25440.165,-26449.38
1764505411.9485953,19814.985,-16748.37,-9736.29,-17420.085,-29429.055,-50758.695,-25440.615,-26451.135
1764505411.9485953,19814.13,-16748.325,-9736.965,-17420.895,-29429.595,-50759.64,-25440.885,-26451.54
1764505411.9485953,19811.88,-16750.44,-9738.135,-17423.055,-29430.855,-50760.72,-25441.965,-26453.295
1764505411.9485953,19815.255,-16747.2,-9735.66,-17419.68,-29428.245,-50758.155,-25439.31,-26450.28
1764505411.9495962,19811.835,-16750.395,-9738.855,-17422.515,-29430.945,-50760.99,-25442.19,-26452.98
1764505411.9495962,19815.21,-16747.335,-9734.85,-17419.32,-29427.615,-50757.615,-25438.905,-26450.01
1764505411.9495962,19815.435,-16747.245,-9734.58,-17418.78,-29427.705,-50757.795,-25438.095,-26450.055
1764505411.9495962,19813.905,-16749.72,-9736.785,-17421.345,-29429.685,-50760.0,-25440.525,-26451.99
1764505411.9495962,19811.115,-16751.97,-9739.305,-17424.045,-29432.205,-50762.61,-25443.315,-26454.285
1764505411.9495962,19813.185,-16749.36,-9737.055,-17421.66,-29430.405,-50760.495,-25440.615,-26452.035
1764505411.9495962,19811.025,-16752.015,-9739.215,-17423.774999999998,-29432.655,-50762.88,-25442.91,-26454.465
1764505411.9495962,19810.665,-16752.915,-9740.385,-17424.495,-29433.51,-50763.51,-25443.675,-26455.455
1764505411.9495962,19812.105,-16751.61,-9738.585,-17422.695,-29432.61,-50761.62,-25442.595,-26455.185
1764505411.9495962,19814.985,-16748.325,-9734.85,-17419.545,-29428.74,-50758.29,-25439.445,-26451.63
1764505411.9495962,19810.62,-16752.465,-9739.08,-17424.045,-29431.755,-50762.79,-25443.405,-26455.095
1764505411.9505925,19813.14,-16750.26,-9737.055,-17421.704999999998,-29430.0,-50760.765,-25442.01,-26452.89
1764505411.9505925,19811.835,-16751.745,-9738.81,-17423.73,-29430.945,-50761.665,-25443.405,-26454.15
1764505411.9904728,19813.995,-16749.54,-9736.245,-17421.39,-29429.1,-50759.28,-25441.02,-26452.26
1764505411.9904728,19813.95,-16749.09,-9735.975,-17421.165,-29429.19,-50758.875,-25440.525,-26452.215
1764505411.9904728,19813.77,-16749.63,-9737.055,-17421.975,-29430.18,-50759.82,-25441.065,-26453.07
1764505411.9904728,19811.835,-16751.52,-9738.945,-17423.82,-29431.89,-50762.25,-25442.91,-26455.455
1764505411.9904728,19815.12,-16748.19,-9735.57,-17420.715,-29428.785,-50759.19,-25439.49,-26452.305
1764505411.991491,19813.41,-16749.585,-9737.595,-17422.02,-29429.73,-50760.18,-25440.705,-26453.565
1764505411.991491,19814.31,-16748.145,-9736.155,-17420.895,-29428.38,-50758.47,-25439.715,-26452.755
1764505411.991491,19809.945,-16753.005,-9740.025,-17425.62,-29432.52,-50762.385,-25443.81,-26456.49
1764505411.991491,19810.935,-16752.915,-9739.395,-17425.215,-29431.755,-50761.98,-25442.91,-26455.905
1764505411.991491,19812.735,-16751.204999999998,-9736.92,-17422.829999999998,-29429.865,-50759.82,-25440.57,-26454.465
1764505411.991491,19809.81,-16754.67,-9740.25,-17425.53,-29432.88,-50763.015,-25443.945,-26457.48
1764505411.991491,19810.935,-16753.545,-9738.63,-17424.36,-29431.26,-50761.8,-25442.64,-26455.995
1764505411.991491,19813.095,-16751.655,-9736.515,-17422.245,-29429.865,-50759.55,-25440.3,-26454.015
1764505411.991491,19810.215,-16754.13,-9739.035,-17424.045,-29432.52,-50762.745,-25443.72,-26455.995
1764505411.991491,19810.125,-16753.905,-9739.44,-17424.495,-29432.655,-50762.79,-25443.81,-26456.58
1764505411.991491,19809.81,-16753.68,-9739.17,-17424.045,-29431.755,-50761.53,-25442.865,-26456.85
1764505411.991491,19813.095,-16750.395,-9736.92,-17421.614999999998,-29428.74,-50759.28,-25439.49,-26452.98
1764505411.993796,19812.6,-16750.98,-9737.955,-17422.02,-29429.55,-50759.82,-25440.705,-26454.195
1764505411.993796,19811.16,-16753.23,-9738.765,-17423.774999999998,-29431.305,-50760.81,-25442.235,-26456.13
1764505411.993796,19808.505,-16755.84,-9741.24,-17425.665,-29433.24,-50762.565,-25443.99,-26458.38
1764505411.993796,19810.53,-16753.77,-9739.17,-17423.73,-29430.405,-50760.54,-25441.74,-26455.995
1764505411.993796,19810.26,-16754.04,-9738.9,-17424.495,-29430.945,-50761.305,-25441.92,-26456.13
1764505411.993796,19807.29,-16757.145,-9741.555,-17427.465,-29433.78,-50764.77,-25444.665,-26458.965
1764505411.993796,19809.585,-16754.76,-9740.115,-17425.395,-29431.89,-50762.88,-25442.55,-26456.715
1764505412.039377,19806.66,-16758.18,-9743.22,-17428.905,-29434.905,-50765.67,-25445.655,-26459.73
1764505412.039377,19808.28,-16756.515,-9741.87,-17427.239999999998,-29432.88,-50763.555,-25443.54,-26457.84
1764505412.039377,19811.88,-16753.095,-9738.81,-17423.1,-29429.415,-50760.405,-25439.85,-26453.97
1764505412.039377,19809.9,-16754.355,-9739.305,-17424.54,-29431.08,-50762.025,-25441.56,-26455.32
1764505412.039377,19808.415,-16755.48,-9739.98,-17425.755,-29432.205,-50763.195,-25442.595,-26456.49
1764505412.039377,19808.91,-16754.445,-9740.115,-17425.125,-29432.565,-50763.285,-25442.19,-26455.455
1764505412.039377,19807.245,-16756.425,-9741.465,-17426.745,-29434.14,-50764.59,-25443.81,-26456.985
1764505412.039377,19804.14,-16760.07,-9744.795,-17430.165,-29437.155,-50768.955,-25446.915,-26461.395
1764505412.039377,19804.59,-16759.934999999998,-9744.615,-17428.995,-29436.93,-50768.1,-25446.42,-26459.775
1764505412.039377,19805.445,-16758.27,-9743.085,-17426.79,-29435.67,-50766.165,-25445.025,-26458.11
1764505412.039377,19807.38,-16756.649999999998,-9741.555,-17425.845,-29434.095,-50765.04,-25443.63,-26457.3
1764505412.039377,19810.755,-16753.364999999998,-9737.775,-17422.245,-29430.135,-50760.81,-25439.58,-26453.52
1764505412.039377,19810.53,-16752.735,-9736.785,-17421.614999999998,-29429.28,-50760.54,-25438.995,-26453.07
1764505412.039377,19808.955,-16755.165,-9738.0,-17423.505,-29431.215,-50762.835,-25440.93,-26455.995
1764505412.039377,19808.01,-16756.515,-9739.53,-17424.989999999998,-29432.655,-50764.365,-25442.28,-26456.625
1764505412.039377,19805.22,-16759.26,-9743.13,-17427.69,-29435.31,-50766.48,-25444.665,-26458.92
1764505412.039377,19806.345,-16757.82,-9741.42,-17425.89,-29433.24,-50764.995,-25443.045,-26457.93
1764505412.039377,19808.955,-16754.805,-9738.765,-17422.965,-29430.315,-50762.115,-25439.985,-26455.095
1764505412.039377,19806.705,-16756.29,-9740.88,-17424.72,-29433.51,-50764.545,-25441.515,-26457.705
1764505412.0408902,19803.555,-16759.755,-9743.67,-17427.6,-29436.615,-50767.965,-25444.935,-26461.35
1764505412.0408902,19804.725,-16759.079999999998,-9742.455,-17427.015,-29435.67,-50766.93,-25443.315,-26460.135
1764505412.0408902,19808.82,-16754.22,-9737.865,-17422.649999999998,-29431.98,-50762.565,-25438.68,-26455.185
1764505412.0408902,19807.785,-16754.309999999998,-9738.945,-17423.46,-29432.115,-50763.33,-25439.625,-26455.23
1764505412.0408902,19804.14,-16758.63,-9742.59,-17427.42,-29436.165,-50767.335,-25443.45,-26459.865
1764505412.085619,19805.31,-16757.19,-9740.79,-17425.89,-29434.365,-50765.445,-25441.47,-26457.93
1764505412.085619,19802.7,-16759.62,-9743.175,-17428.32,-29436.255,-50768.01,-25443.27,-26460.045
1764505412.085619,19805.13,-16757.954999999998,-9741.69,-17425.98,-29434.14,-50765.535,-25441.155,-26457.93
1764505412.085619,19803.825,-16759.26,-9743.625,-17428.005,-29435.535,-50766.93,-25443.54,-26459.28
1764505412.085619,19806.975,-16755.93,-9739.845,-17424.585,-29432.565,-50764.095,-25439.94,-26455.905
1764505412.085619,19806.57,-16756.335,-9739.485,-17424.315,-29432.61,-50764.185,-25440.12,-26455.41
1764505412.0866995,19803.645,-16758.765,-9742.5,-17427.105,-29435.445,-50766.615,-25443.045,-26458.155
1764505412.0866995,19806.57,-16755.84,-9739.575,-17424.045,-29432.295,-50763.6,-25439.715,-26455.365
1764505412.0866995,19805.085,-16758.0,-9741.825,-17426.114999999998,-29433.51,-50765.895,-25440.705,-26456.94
1764505412.0866995,19800.9,-16761.195,-9744.84,-17430.03,-29436.93,-50768.955,-25444.755,-26460.09
1764505412.0866995,19804.725,-16757.64,-9741.15,-17426.43,-29434.32,-50765.94,-25441.155,-26456.94
1764505412.0866995,19806.075,-16756.02,-9740.385,-17424.315,-29433.06,-50764.14,-25439.895,-26455.95
1764505412.0866995,19804.545,-16756.875,-9741.15,-17425.53,-29433.69,-50765.715,-25440.705,-26456.67
1764505412.0866995,19803.96,-16757.415,-9741.105,-17426.475,-29434.41,-50766.12,-25441.605,-26457.435
1764505412.0866995,19802.61,-16759.485,-9742.59,-17428.14,-29436.12,-50767.155,-25442.865,-26459.145
1764505412.0866995,19799.865,-16762.68,-9745.425,-17431.245,-29438.64,-50770.215,-25446.06,-26462.475
1764505412.0866995,19800.135,-16762.41,-9744.93,-17430.57,-29438.145,-50770.17,-25446.15,-26462.07
1764505412.0866995,19803.51,-16759.17,-9741.735,-17427.555,-29434.995,-50766.93,-25443.135,-26459.28
1764505412.0866995,19806.21,-16755.03,-9737.73,-17423.595,-29431.08,-50763.06,-25438.95,-26455.275
1764505412.0866995,19804.5,-16757.055,-9739.17,-17425.215,-29432.34,-50764.995,-25440.705,-26456.13
1764505412.0866995,19802.16,-16760.204999999998,-9741.42,-17428.184999999998,-29434.815,-50768.055,-25443.765,-26459.19
1764505412.0866995,19804.32,-16757.325,-9738.045,-17424.989999999998,-29432.07,-50764.725,-25440.435,-26456.31
1764505412.0866995,19803.96,-16757.64,-9738.18,-17424.855,-29432.7,-50765.445,-25440.255,-26456.22
1764505412.0866995,19803.645,-16756.92,-9738.225,-17424.585,-29432.52,-50764.905,-25439.715,-26455.635
1764505412.1327777,19803.06,-16757.595,-9739.62,-17425.845,-29432.925,-50765.22,-25440.93,-26456.13
1764505412.1327777,19801.71,-16759.62,-9741.555,-17428.545,-29434.995,-50767.11,-25443.0,-26458.785
1764505412.1327777,19804.095,-16758.045,-9740.115,-17426.52,-29433.645,-50765.445,-25441.605,-26456.94
1764505412.1327777,19802.025,-16759.17,-9742.23,-17428.05,-29435.13,-50766.93,-25442.865,-26458.38
1764505412.1327777,19805.445,-16756.245,-9739.215,-17425.079999999998,-29432.43,-50763.87,-25439.895,-26454.915
1764505412.1327777,19802.61,-16758.989999999998,-9741.06,-17426.565,-29434.095,-50766.48,-25441.785,-26457.93
1764505412.1327777,19798.785,-16763.13,-9744.3,-17430.434999999998,-29438.28,-50770.395,-25445.52,-26461.35
1764505412.1327777,19800.495,-16761.329999999998,-9742.365,-17428.815,-29436.12,-50769.045,-25443.765,-26459.28
1764505412.1327777,19801.08,-16761.059999999998,-9741.24,-17428.005,-29434.86,-50768.82,-25443.09,-26459.19
1764505412.1327777,19801.935,-16761.059999999998,-9741.15,-17427.78,-29435.265,-50768.415,-25443.0,-26459.37
1764505412.1327777,19801.665,-16760.745,-9741.825,-17427.645,-29435.445,-50769.18,-25442.865,-26459.955
1764505412.1327777,19801.08,-16760.925,-9742.095,-17428.095,-29435.445,-50768.955,-25442.865,-26460.0
1764505412.1327777,19797.66,-16764.345,-9745.515,-17430.614999999998,-29438.64,-50772.015,-25445.97,-26462.52
1764505412.1327777,19802.115,-16759.575,-9741.6,-17426.25,-29434.32,-50767.605,-25441.605,-26458.29
1764505412.1327777,19802.7,-16757.954999999998,-9739.935,-17425.395,-29433.33,-50766.48,-25440.165,-26457.03
1764505412.1327777,19801.26,-16760.16,-9741.33,-17427.195,-29435.67,-50768.19,-25441.38,-26458.965
1764505412.1327777,19801.53,-16760.204999999998,-9741.87,-17427.239999999998,-29435.58,-50768.595,-25442.19,-26459.145
1764505412.1327777,19799.28,-16761.375,-9743.355,-17428.86,-29436.66,-50769.45,-25443.405,-26460.315
1764505412.1327777,19799.73,-16761.69,-9743.445,-17428.545,-29437.02,-50769.18,-25443.54,-26460.045
1764505412.1327777,19799.82,-16761.825,-9742.545,-17427.915,-29436.75,-50769.54,-25443.72,-26459.64
1764505412.1327777,19799.91,-16762.274999999998,-9743.175,-17427.465,-29436.165,-50769.9,-25443.945,-26459.64
1764505412.1327777,19803.645,-16758.045,-9738.9,-17423.73,-29432.34,-50765.715,-25440.21,-26455.59
1764505412.1805422,19803.645,-16757.28,-9738.315,-17423.864999999998,-29432.115,-50765.265,-25439.13,-26455.05
1764505412.1805422,19803.735,-16757.235,-9737.91,-17423.82,-29432.7,-50764.5,-25438.59,-26455.14
1764505412.1805422,19803.42,-16758.0,-9738.63,-17424.809999999998,-29433.33,-50766.03,-25439.085,-26455.635
1764505412.1805422,19801.395,-16760.34,-9740.745,-17426.88,-29435.67,-50769.18,-25441.065,-26458.11
1764505412.1815605,19799.415,-16763.04,-9743.265,-17428.68,-29437.74,-50771.295,-25443.99,-26461.08
1764505412.1815605,19801.845,-16760.52,-9740.925,-17426.385,-29435.265,-50769.0,-25441.02,-26458.47
1764505412.1815605,19801.035,-16760.88,-9741.42,-17427.059999999998,-29435.85,-50769.63,-25441.515,-26459.055
1764505412.1815605,19800.72,-16761.239999999998,-9741.735,-17427.015,-29435.94,-50769.27,-25442.145,-26459.28
1764505412.1815605,19799.505,-16761.87,-9742.905,-17428.545,-29437.245,-50771.07,-25443.18,-26460.855
1764505412.1815605,19801.035,-16760.204999999998,-9741.105,-17426.88,-29435.265,-50768.685,-25441.425,-26458.47
1764505412.1815605,19799.46,-16762.14,-9742.545,-17428.364999999998,-29437.245,-50769.45,-25442.325,-26459.415
1764505412.1815605,19802.835,-16757.91,-9738.36,-17424.585,-29433.24,-50765.355,-25438.32,-26455.41
1764505412.1815605,19801.485,-16759.26,-9739.98,-17425.395,-29434.905,-50767.2,-25439.715,-26456.625
1764505412.1815605,19799.55,-16761.87,-9741.69,-17427.645,-29437.38,-50769.315,-25441.515,-26458.38
1764505412.1815605,19798.02,-16763.489999999998,-9742.41,-17429.265,-29439.27,-50771.115,-25443.225,-26460.225
1764505412.1815605,19800.495,-16761.015,-9739.215,-17426.07,-29436.39,-50767.92,-25440.705,-26457.21
1764505412.1815605,19799.55,-16762.23,-9741.015,-17426.7,-29437.695,-50769.0,-25441.965,-26458.38
1764505412.1815605,19802.43,-16759.755,-9738.315,-17423.82,-29434.455,-50766.525,-25438.365,-26455.185
1764505412.1815605,19802.025,-16760.295,-9738.765,-17424.585,-29434.59,-50767.335,-25438.365,-26455.68
1764505412.1815605,19799.505,-16762.77,-9741.69,-17426.97,-29437.47,-50769.495,-25441.065,-26458.2
1764505412.1815605,19803.735,-16758.855,-9737.19,-17422.695,-29433.15,-50765.265,-25437.6,-26453.97
1764505412.1815605,19804.455,-16757.19,-9735.345,-17421.21,-29432.07,-50763.69,-25435.89,-26452.26
1764505412.1815605,19804.68,-16756.649999999998,-9734.715,-17421.165,-29431.845,-50764.095,-25435.17,-26451.765
1764505412.1815605,19802.97,-16757.325,-9735.615,-17422.155,-29433.105,-50765.94,-25437.105,-26453.79
1764505412.226112,19800.0,-16759.665,-9739.215,-17425.305,-29436.12,-50768.19,-25439.265,-26456.94
1764505412.226112,19801.575,-16758.315,-9738.18,-17424.18,-29434.5,-50766.435,-25436.79,-26454.915
1764505412.226112,19801.53,-16758.765,-9737.955,-17423.73,-29434.995,-50767.2,-25437.15,-26455.59
1764505412.226112,19800.315,-16760.565,-9739.845,-17425.079999999998,-29436.12,-50769.18,-25438.635,-26457.345
1764505412.226112,19802.79,-16757.73,-9736.02,-17421.93,-29432.475,-50765.355,-25435.665,-26454.195
1764505412.227141,19800.045,-16760.34,-9739.08,-17424.585,-29435.58,-50767.92,-25438.77,-26456.94
1764505412.227141,19801.755,-16759.575,-9738.495,-17423.64,-29434.635,-50767.2,-25437.33,-26455.725
1764505412.227141,19805.445,-16755.434999999998,-9734.31,-17419.995,-29430.495,-50763.465,-25432.965,-26451.675
1764505412.227141,19806.165,-16754.94,-9734.13,-17419.5,-29430.0,-50763.33,-25432.245,-26450.685
1764505412.22818,19801.35,-16759.845,-9738.855,-17423.82,-29434.23,-50767.65,-25437.285,-26455.23
1764505412.22818,19802.16,-16759.35,-9737.955,-17423.864999999998,-29433.915,-50767.695,-25437.24,-26455.095
1764505412.22818,19805.445,-16756.38,-9734.67,-17420.805,-29430.09,-50764.545,-25434.18,-26451.9
1764505412.22818,19803.15,-16758.045,-9736.47,-17422.92,-29431.665,-50766.75,-25435.935,-26453.79
1764505412.22818,19805.22,-16756.155,-9734.13,-17420.22,-29429.64,-50764.095,-25433.37,-26451.765
1764505412.2291749,19805.535,-16755.704999999998,-9733.86,-17420.085,-29429.235,-50763.6,-25433.325,-26451.045
1764505412.2291749,19802.745,-16757.505,-9736.65,-17421.93,-29431.845,-50765.715,-25435.035,-26453.835
1764505412.2291749,19803.42,-16756.605,-9736.155,-17421.48,-29431.035,-50764.815,-25434.135,-26452.755
1764505412.2291749,19804.095,-16756.245,-9735.165,-17421.48,-29429.955,-50764.005,-25433.64,-26451.855
1764505412.2291749,19806.345,-16754.579999999998,-9733.095,-17418.915,-29427.84,-50761.53,-25431.12,-26449.695
1764505412.2291749,19803.195,-16758.18,-9735.93,-17421.57,-29431.665,-50764.77,-25434.855,-26452.35
1764505412.2307167,19803.915,-16757.1,-9734.715,-17420.85,-29430.36,-50763.78,-25433.685,-26451.09
1764505412.2307167,19807.38,-16753.5,-9731.295,-17417.204999999998,-29426.805,-50760.63,-25429.725,-26447.715
1764505412.2307167,19807.245,-16753.454999999998,-9731.88,-17417.07,-29427.12,-50760.855,-25430.4,-26448.435
1764505412.2307167,19804.23,-16756.695,-9734.13,-17420.04,-29429.595,-50763.24,-25432.56,-26450.865
1764505412.2725296,19803.78,-16757.235,-9734.805,-17420.94,-29430.54,-50763.78,-25432.965,-26450.73
1764505412.2725296,19804.815,-16756.29,-9734.445,-17419.41,-29429.505,-50762.97,-25432.155,-26449.695
1764505412.2725296,19807.785,-16753.364999999998,-9731.52,-17416.395,-29427.165,-50760.315,-25429.545,-26447.67
1764505412.2725296,19805.265,-16756.155,-9732.915,-17419.184999999998,-29429.73,-50761.98,-25431.165,-26451.405
1764505412.2725296,19808.145,-16753.68,-9730.665,-17417.475,-29426.94,-50759.505,-25428.06,-26447.895
1764505412.2725296,19805.58,-16756.065,-9732.735,-17419.32,-29427.885,-50761.395,-25429.905,-26449.875
1764505412.2725296,19806.435,-16754.489999999998,-9731.43,-17418.375,-29426.49,-50760.315,-25428.015,-26448.75
1764505412.2725296,19806.66,-16754.13,-9731.07,-17417.745,-29426.265,-50759.64,-25427.97,-26448.39
1764505412.2725296,19809.36,-16751.745,-9729.315,-17415.315,-29424.06,-50757.255,-25426.26,-26446.095
1764505412.2725296,19808.01,-16753.815,-9730.98,-17417.385,-29426.265,-50759.28,-25427.88,-26447.31
1764505412.2725296,19805.76,-16756.065,-9733.365,-17419.41,-29428.74,-50761.395,-25429.545,-26449.92
1764505412.2725296,19810.035,-16752.015,-9728.91,-17414.954999999998,-29424.195,-50757.21,-25425.495,-26445.645
1764505412.2725296,19809.495,-16753.005,-9729.495,-17416.125,-29424.825,-50757.885,-25426.125,-26446.455
1764505412.2725296,19807.2,-16753.95,-9731.52,-17418.059999999998,-29426.715,-50759.55,-25428.015,-26448.525
1764505412.2725296,19810.035,-16751.385,-9728.64,-17414.64,-29423.88,-50756.76,-25424.37,-26445.6
1764505412.2735522,19806.615,-16754.805,-9731.835,-17418.105,-29426.895,-50760.99,-25427.7,-26449.02
1764505412.2735522,19809.36,-16752.239999999998,-9728.64,-17415.315,-29423.475,-50758.11,-25425.045,-26446.23
1764505412.2735522,19810.8,-16751.204999999998,-9727.47,-17413.875,-29421.9,-50755.815,-25423.875,-26444.88
1764505412.2735522,19811.16,-16750.755,-9727.515,-17413.29,-29422.44,-50755.5,-25423.47,-26443.845
1764505412.2735522,19810.53,-16751.565,-9727.785,-17414.145,-29423.115,-50755.995,-25423.92,-26444.655
1764505412.274552,19809.045,-16752.735,-9729.225,-17415.405,-29424.69,-50758.29,-25425.495,-26446.455
1764505412.274552,19809.72,-16752.555,-9729.45,-17415.18,-29423.97,-50758.245,-25425.495,-26446.05
1764505412.3187687,19810.62,-16752.015,-9728.19,-17414.415,-29423.655,-50757.255,-25424.37,-26445.285
1764505412.3192778,19813.455,-16748.28,-9725.22,-17411.22,-29420.1,-50753.565,-25420.995,-26441.865
1764505412.3192778,19811.61,-16749.855,-9727.02,-17412.704999999998,-29421.72,-50755.455,-25423.02,-26443.485
1764505412.3192778,19807.29,-16754.399999999998,-9730.845,-17415.855,-29425.77,-50759.55,-25426.53,-26447.715
1764505412.3192778,19807.155,-16754.579999999998,-9730.98,-17415.585,-29425.635,-50759.505,-25426.98,-26448.435
1764505412.3192778,19807.56,-16754.175,-9730.08,-17415.18,-29424.375,-50758.245,-25425.945,-26448.03
1764505412.3192778,19808.82,-16753.545,-9729.72,-17415.09,-29423.655,-50757.93,-25425.495,-26447.355
1764505412.3192778,19810.575,-16751.07,-9728.055,-17412.57,-29421.765,-50756.31,-25423.11,-26445.105
1764505412.3192778,19807.245,-16754.445,-9731.34,-17415.809999999998,-29425.005,-50759.595,-25425.36,-26448.3
1764505412.3192778,19807.38,-16753.905,-9730.8,-17415.405,-29424.105,-50759.01,-25425.18,-26447.985
1764505412.3192778,19810.26,-16751.43,-9728.91,-17412.66,-29421.99,-50756.13,-25422.84,-26445.105
1764505412.3192778,19809.0,-16752.915,-9729.675,-17413.829999999998,-29423.88,-50757.615,-25424.235,-26446.905
1764505412.3192778,19810.845,-16751.745,-9727.155,-17412.12,-29422.44,-50756.715,-25422.705,-26445.6
1764505412.3192778,19807.065,-16755.48,-9730.98,-17415.72,-29426.58,-50760.945,-25426.935,-26449.29
1764505412.3192778,19810.845,-16751.34,-9726.84,-17411.535,-29422.89,-50756.76,-25422.93,-26446.005
1764505412.3192778,19810.26,-16751.43,-9726.885,-17411.805,-29422.845,-50755.86,-25422.345,-26445.915
1764505412.3192778,19806.3,-16755.345,-9731.295,-17415.63,-29426.445,-50760.54,-25426.485,-26449.56
1764505412.3192778,19806.03,-16754.715,-9731.205,-17415.855,-29426.22,-50760.585,-25425.99,-26448.885
1764505412.3192778,19808.01,-16753.32,-9729.18,-17413.829999999998,-29424.645,-50758.74,-25423.965,-26447.04
1764505412.3192778,19805.31,-16756.29,-9731.79,-17416.35,-29427.12,-50760.81,-25426.485,-26450.145
1764505412.3192778,19805.985,-16755.345,-9730.755,-17415.36,-29425.905,-50760.36,-25425.495,-26448.795
1764505412.321838,19803.825,-16758.09,-9733.365,-17417.565,-29428.065,-50762.88,-25427.43,-26450.865
1764505412.321838,19806.435,-16755.57,-9731.205,-17414.73,-29426.58,-50760.27,-25425.765,-26448.705
1764505412.3228583,19801.845,-16759.71,-9734.445,-17418.195,-29430.27,-50764.005,-25429.77,-26452.62
1764505412.36603,19802.43,-16758.945,-9733.545,-17417.88,-29429.415,-50763.465,-25429.32,-26451.72
1764505412.36603,19805.31,-16755.434999999998,-9730.17,-17414.46,-29426.445,-50760.54,-25425.54,-26447.985
1764505412.36603,19804.59,-16756.02,-9730.665,-17415.63,-29427.3,-50761.395,-25426.17,-26449.065
1764505412.36603,19801.8,-16759.53,-9734.13,-17419.05,-29430.405,-50764.32,-25429.005,-26452.26
1764505412.36603,19803.375,-16758.405,-9732.015,-17417.52,-29428.965,-50763.285,-25428.105,-26451.36
1764505412.36603,19807.02,-16754.67,-9728.82,-17414.64,-29425.5,-50759.64,-25424.415,-26447.985
1764505412.36603,19804.86,-16756.155,-9730.98,-17416.215,-29426.76,-50760.765,-25426.305,-26449.605
1764505412.36603,19802.385,-16758.54,-9733.14,-17418.015,-29429.28,-50763.51,-25429.005,-26452.305
1764505412.36603,19804.365,-16756.605,-9730.935,-17416.215,-29426.895,-50762.025,-25426.665,-26449.515
1764505412.36603,19800.405,-16760.745,-9734.67,-17419.995,-29430.45,-50766.12,-25430.265,-26453.385
1764505412.36603,19800.09,-16760.925,-9734.445,-17419.77,-29430.405,-50766.12,-25430.265,-26453.79
1764505412.36603,19801.125,-16759.44,-9732.555,-17417.88,-29428.515,-50764.275,-25427.97,-26451.99
1764505412.36603,19805.22,-16756.065,-9729.675,-17414.505,-29425.32,-50760.81,-25424.505,-26448.705
1764505412.36603,19803.825,-16757.46,-9730.89,-17415.899999999998,-29426.805,-50761.35,-25426.08,-26449.74
1764505412.36603,19801.08,-16759.934999999998,-9733.59,-17418.87,-29429.415,-50764.455,-25429.14,-26452.8
1764505412.36603,19804.635,-16756.245,-9729.9,-17415.63,-29425.32,-50760.9,-25425.27,-26449.155
1764505412.36603,19803.735,-16757.28,-9730.62,-17416.53,-29426.265,-50761.8,-25425.81,-26450.325
1764505412.36603,19800.495,-16760.43,-9733.185,-17419.725,-29429.19,-50765.13,-25428.555,-26452.89
1764505412.36603,19803.69,-16757.46,-9729.81,-17416.215,-29426.13,-50761.665,-25425.54,-26448.525
1764505412.36603,19802.25,-16759.215,-9732.015,-17418.059999999998,-29427.795,-50763.78,-25427.115,-26450.415
1764505412.36603,19798.83,-16762.77,-9735.57,-17421.48,-29430.765,-50766.885,-25430.22,-26454.015
1764505412.36603,19799.685,-16762.095,-9734.13,-17419.59,-29429.955,-50765.67,-25429.23,-26452.35
1764505412.36603,19800.63,-16760.43,-9732.69,-17418.285,-29428.29,-50764.545,-25427.52,-26450.865
1764505412.36603,19803.6,-16757.595,-9729.99,-17415.495,-29425.32,-50762.07,-25424.19,-26448.435
1764505412.415427,19800.225,-16761.645,-9733.32,-17419.14,-29429.145,-50765.58,-25427.385,-26452.035
1764505412.415427,19799.505,-16762.23,-9734.49,-17420.579999999998,-29429.73,-50766.165,-25427.925,-26453.295
1764505412.415427,19798.29,-16762.815,-9735.165,-17420.489999999998,-29430.09,-50766.84,-25428.51,-26454.105
1764505412.415427,19799.595,-16761.42,-9733.68,-17418.329999999998,-29428.56,-50764.995,-25426.755,-26452.485
1764505412.415427,19802.7,-16758.855,-9729.99,-17414.28,-29425.68,-50762.115,-25424.64,-26449.065
1764505412.415427,19799.64,-16762.095,-9733.545,-17418.105,-29429.19,-50765.085,-25427.655,-26452.395
1764505412.415427,19799.46,-16762.32,-9734.85,-17418.735,-29429.505,-50765.355,-25427.88,-26453.43
1764505412.415427,19799.955,-16761.195,-9733.14,-17417.745,-29428.29,-50764.5,-25426.89,-26452.98
1764505412.415427,19802.25,-16758.495,-9729.945,-17414.91,-29424.915,-50761.215,-25424.37,-26450.145
1764505412.415427,19801.62,-16759.665,-9731.07,-17415.989999999998,-29425.995,-50762.61,-25424.73,-26450.415
1764505412.415427,19798.785,-16763.13,-9734.58,-17418.6,-29428.785,-50766.03,-25427.025,-26453.205
1764505412.415427,19799.235,-16762.905,-9734.175,-17418.285,-29428.965,-50765.535,-25426.62,-26453.205
1764505412.415427,19798.335,-16763.355,-9734.265,-17418.915,-29429.505,-50765.805,-25427.52,-26454.33
1764505412.415427,19799.235,-16761.87,-9733.185,-17417.295,-29428.38,-50764.545,-25426.08,-26453.655
1764505412.415427,19802.745,-16758.135,-9729.36,-17413.875,-29425.005,-50760.99,-25421.895,-26449.74
1764505412.415427,19798.695,-16762.184999999998,-9732.645,-17417.385,-29428.605,-50764.815,-25425.405,-26453.43
1764505412.415427,19801.26,-16759.934999999998,-9730.215,-17414.954999999998,-29426.715,-50762.88,-25422.795,-26450.955
1764505412.415427,19800.675,-16760.835,-9731.475,-17415.675,-29427.255,-50764.185,-25423.47,-26451.54
1764505412.415427,19797.75,-16762.725,-9734.445,-17418.465,-29429.82,-50766.705,-25426.215,-26454.06
1764505412.415427,19801.485,-16759.215,-9730.395,-17414.73,-29426.445,-50763.105,-25422.165,-26450.145
1764505412.416428,19801.305,-16759.755,-9730.17,-17414.82,-29426.76,-50763.105,-25421.535,-26450.055
1764505412.416428,19798.335,-16762.32,-9733.365,-17416.71,-29428.65,-50765.4,-25423.965,-26452.53
1764505412.416428,19798.65,-16761.42,-9732.78,-17416.395,-29427.12,-50763.825,-25423.38,-26451.945
1764505412.416428,19803.195,-16757.37,-9728.55,-17412.48,-29423.385,-50760.18,-25420.095,-26448.39
1764505412.462712,19804.5,-16756.92,-9727.56,-17411.895,-29422.845,-50759.505,-25419.015,-26447.4
1764505412.462712,19803.42,-16758.405,-9728.46,-17413.515,-29424.24,-50760.945,-25420.005,-26448.21
1764505412.462712,19802.7,-16758.765,-9729.09,-17413.47,-29425.05,-50761.08,-25420.05,-26448.12
1764505412.462712,19802.475,-16758.45,-9729.27,-17413.335,-29424.78,-50760.315,-25419.465,-26448.21
1764505412.462712,19801.845,-16759.62,-9730.08,-17414.055,-29425.23,-50761.44,-25420.815,-26449.02
1764505412.462712,19801.44,-16760.565,-9730.8,-17414.64,-29425.95,-50762.43,-25421.94,-26449.695
1764505412.462712,19799.28,-16760.97,-9731.61,-17416.305,-29427.345,-50763.465,-25422.435,-26450.64
1764505412.462712,19796.715,-16762.32,-9731.925,-17417.79,-29428.605,-50764.68,-25423.965,-26452.17
1764505412.462712,19799.595,-16759.845,-9728.955,-17415.135,-29425.23,-50761.665,-25420.86,-26450.145
1764505412.462712,19799.415,-16759.89,-9729.18,-17414.774999999998,-29425.68,-50760.99,-25420.725,-26449.83
1764505412.463727,19800.495,-16758.72,-9728.82,-17414.415,-29425.32,-50760.54,-25420.05,-26448.48
1764505412.463727,19799.055,-16760.475,-9730.8,-17415.989999999998,-29426.67,-50762.52,-25421.49,-26449.605
1764505412.463727,19796.58,-16762.86,-9732.87,-17417.295,-29428.47,-50764.815,-25423.245,-26451.945
1764505412.463727,19793.385,-16766.235,-9736.11,-17419.995,-29431.98,-50767.875,-25426.755,-26455.365
1764505412.463727,19793.88,-16765.92,-9735.435,-17420.399999999998,-29431.44,-50767.875,-25426.575,-26455.41
1764505412.463727,19794.51,-16764.57,-9733.815,-17418.915,-29430.405,-50766.57,-25425.18,-26454.105
1764505412.46473,19796.445,-16762.41,-9730.98,-17416.395,-29427.93,-50764.005,-25422.93,-26451.63
1764505412.46473,19795.095,-16763.76,-9732.915,-17418.42,-29429.46,-50765.67,-25423.965,-26452.8
1764505412.46473,19797.57,-16760.925,-9730.305,-17416.53,-29426.58,-50762.7,-25421.13,-26450.28
1764505412.46473,19798.065,-16760.745,-9729.765,-17415.675,-29425.86,-50762.52,-25420.59,-26449.785
1764505412.46473,19797.795,-16761.329999999998,-9729.9,-17415.765,-29426.22,-50762.88,-25420.545,-26450.28
1764505412.46473,19793.745,-16765.02,-9733.59,-17419.59,-29430.405,-50766.12,-25423.695,-26453.925
1764505412.5105069,19796.31,-16763.13,-9731.34,-17417.024999999998,-29428.245,-50764.005,-25422.12,-26452.26
1764505412.5105069,19794.78,-16764.93,-9732.87,-17418.69,-29430.18,-50765.67,-25424.055,-26453.34
1764505412.5105069,19797.435,-16762.545,-9730.125,-17415.765,-29427.75,-50762.97,-25421.22,-26450.595
1764505412.5105069,19796.175,-16762.995,-9730.8,-17416.485,-29428.965,-50763.645,-25421.67,-26450.46
1764505412.5105069,19793.475,-16765.605,-9733.905,-17419.184999999998,-29431.53,-50766.12,-25425.045,-26453.25
1764505412.5105069,19797.12,-16762.005,-9730.845,-17415.495,-29427.75,-50762.745,-25421.895,-26450.55
1764505412.5105069,19796.58,-16762.725,-9731.16,-17415.765,-29427.84,-50763.015,-25421.85,-26450.865
1764505412.5105069,19796.22,-16763.265,-9731.07,-17415.405,-29428.245,-50763.24,-25421.22,-26450.415
1764505412.5105069,19796.58,-16763.355,-9731.745,-17415.675,-29427.795,-50763.195,-25421.22,-26450.28
1764505412.5105069,19793.61,-16766.415,-9734.58,-17419.364999999998,-29430.54,-50766.12,-25424.19,-26453.07
1764505412.5105069,19795.68,-16763.535,-9731.745,-17416.395,-29427.615,-50763.33,-25421.67,-26450.325
1764505412.5105069,19794.555,-16764.614999999998,-9731.475,-17416.26,-29428.155,-50764.095,-25422.12,-26451.63
1764505412.5105069,19792.035,-16767.675,-9734.4,-17419.41,-29431.215,-50767.065,-25424.595,-26454.105
1764505412.5105069,19793.835,-16765.38,-9732.195,-17417.43,-29428.92,-50764.815,-25422.255,-26451.99
1764505412.5105069,19791.45,-16768.395,-9735.48,-17419.68,-29431.98,-50767.74,-25424.37,-26454.87
1764505412.5105069,19794.06,-16766.28,-9733.23,-17418.015,-29429.82,-50765.49,-25421.94,-26452.395
1764505412.5105069,19793.61,-16767.135,-9733.23,-17418.465,-29430.585,-50766.12,-25422.795,-26453.07
1764505412.5105069,19791.765,-16768.665,-9735.075,-17420.579999999998,-29431.89,-50767.965,-25424.505,-26454.96
1764505412.51152,19795.23,-16764.614999999998,-9732.195,-17417.52,-29427.795,-50764.86,-25421.355,-26451.0
1764505412.51152,19793.97,-16765.695,-9732.87,-17418.375,-29429.19,-50766.03,-25422.345,-26452.125
1764505412.51152,19792.8,-16767.225,-9733.68,-17419.59,-29430.54,-50767.245,-25423.605,-26453.115
1764505412.51152,19789.65,-16770.42,-9736.29,-17422.02,-29432.655,-50769.09,-25426.395,-26455.455
1764505412.51152,19789.74,-16770.735,-9736.065,-17421.93,-29432.7,-50770.08,-25426.935,-26455.05
1764505412.51152,19791.315,-16768.62,-9734.22,-17420.22,-29431.125,-50768.1,-25424.91,-26454.33
1764505412.5566056,19794.78,-16765.29,-9731.16,-17416.575,-29427.66,-50764.365,-25421.445,-26451.36
1764505412.5566056,19794.96,-16765.47,-9731.295,-17416.44,-29427.615,-50764.455,-25422.03,-26450.82
1764505412.5566056,19793.34,-16766.73,-9732.33,-17417.97,-29428.245,-50765.445,-25422.615,-26451.81
1764505412.5566056,19794.87,-16765.02,-9730.665,-17416.755,-29426.715,-50763.69,-25421.58,-26450.595
1764505412.5566056,19794.105,-16765.739999999998,-9731.205,-17416.845,-29427.345,-50765.22,-25422.03,-26452.35
1764505412.5566056,19790.19,-16769.655,-9734.985,-17420.265,-29431.485,-50769.36,-25425.81,-26456.085
1764505412.5566056,19791.945,-16768.17,-9733.365,-17418.78,-29429.64,-50766.975,-25423.83,-26454.375
1764505412.5566056,19789.965,-16770.915,-9735.84,-17421.12,-29432.295,-50769.315,-25426.53,-26456.085
1764505412.5566056,19788.885,-16771.364999999998,-9736.92,-17421.614999999998,-29432.565,-50769.765,-25427.25,-26456.85
1764505412.5566056,19789.515,-16769.52,-9735.39,-17420.445,-29430.945,-50767.83,-25425.675,-26455.14
1764505412.5566056,19793.565,-16766.01,-9732.195,-17417.43,-29427.345,-50764.77,-25421.895,-26451.945
1764505412.5566056,19792.08,-16767.899999999998,-9733.365,-17418.239999999998,-29428.74,-50765.805,-25423.29,-26453.205
1764505412.5566056,19787.355,-16773.03,-9737.595,-17422.829999999998,-29433.96,-50771.115,-25428.105,-26457.93
1764505412.5566056,19788.795,-16771.77,-9737.1,-17421.614999999998,-29432.88,-50769.675,-25427.025,-26456.355
1764505412.5566056,19792.215,-16767.765,-9733.725,-17417.565,-29428.92,-50765.58,-25423.245,-26452.89
1764505412.557617,19790.1,-16769.88,-9735.255,-17419.095,-29431.17,-50767.29,-25425.495,-26455.23
1764505412.557617,19792.575,-16766.55,-9732.195,-17415.809999999998,-29427.84,-50764.545,-25421.445,-26452.08
1764505412.557617,19790.46,-16767.27,-9733.5,-17417.07,-29428.47,-50765.805,-25421.49,-26453.16
1764505412.557617,19789.605,-16768.845,-9734.76,-17418.465,-29429.865,-50766.93,-25422.435,-26454.375
1764505412.557617,19788.21,-16770.015,-9736.11,-17419.995,-29430.945,-50767.965,-25423.785,-26455.77
1764505412.557617,19785.15,-16772.715,-9738.405,-17422.38,-29433.105,-50770.935,-25426.17,-26457.93
1764505412.557617,19787.445,-16770.645,-9735.345,-17419.274999999998,-29430.765,-50768.685,-25423.335,-26455.635
1764505412.60322,19786.185,-16772.445,-9736.74,-17421.03,-29433.78,-50770.935,-25424.955,-26457.84
1764505412.60322,19783.62,-16775.055,-9739.17,-17422.965,-29436.03,-50773.86,-25427.34,-26459.955
1764505412.60322,19786.815,-16771.815,-9735.795,-17419.815,-29432.52,-50770.845,-25423.74,-26456.49
1764505412.60322,19784.7,-16774.695,-9738.72,-17422.559999999998,-29435.13,-50773.365,-25426.305,-26459.19
1764505412.60322,19786.275,-16773.12,-9736.83,-17421.614999999998,-29433.915,-50771.295,-25424.505,-26457.39
1764505412.60322,19784.61,-16773.975,-9737.955,-17422.47,-29434.995,-50772.87,-25425.585,-26458.515
1764505412.60322,19782.045,-16776.495,-9740.565,-17425.17,-29436.84,-50775.165,-25427.52,-26460.63
1764505412.60322,19778.985,-16777.845,-9742.545,-17427.915,-29439.765,-50777.91,-25430.265,-26463.645
1764505412.60322,19781.235,-16775.595,-9740.295,-17425.215,-29438.145,-50776.155,-25427.97,-26461.305
1764505412.60322,19779.3,-16778.114999999998,-9743.175,-17427.465,-29440.26,-50777.73,-25430.13,-26463.06
1764505412.60322,19779.03,-16778.34,-9743.85,-17427.555,-29440.08,-50777.595,-25430.175,-26463.105
1764505412.60322,19783.17,-16774.515,-9739.935,-17423.415,-29435.58,-50773.275,-25425.72,-26458.92
1764505412.60322,19783.035,-16774.515,-9739.755,-17423.145,-29434.77,-50772.87,-25425.99,-26459.145
1764505412.604196,19781.415,-16776.989999999998,-9741.69,-17425.395,-29436.84,-50775.12,-25428.24,-26461.035
1764505412.604196,19777.23,-16780.545,-9744.93,-17429.265,-29439.9,-50778.45,-25431.39,-26464.77
1764505412.604196,19776.24,-16780.32,-9744.345,-17428.68,-29440.08,-50777.64,-25431.03,-26464.95
1764505412.6047115,19779.795,-16778.16,-9742.455,-17426.43,-29438.55,-50777.145,-25430.13,-26462.7
1764505412.6047115,19780.335,-16777.89,-9742.635,-17426.204999999998,-29438.73,-50776.65,-25429.365,-26462.205
1764505412.6047115,19780.155,-16778.79,-9742.905,-17427.42,-29439.54,-50777.415,-25430.13,-26463.105
1764505412.6047115,19778.175,-16780.815,-9744.705,-17429.985,-29441.43,-50779.845,-25432.965,-26465.805
1764505412.6047115,19777.77,-16780.77,-9743.895,-17429.535,-29441.205,-50780.115,-25432.965,-26465.67
1764505412.6047115,19779.12,-16780.184999999998,-9742.77,-17428.995,-29439.855,-50778.54,-25431.66,-26464.455
1764505412.6047115,19782.36,-16776.27,-9739.53,-17425.575,-29436.165,-50774.625,-25427.97,-26460.27
1764505412.6057358,19779.21,-16779.555,-9742.905,-17427.87,-29439.135,-50777.595,-25430.58,-26463.6
1764505412.6492214,19781.28,-16777.395,-9740.835,-17425.98,-29437.245,-50775.75,-25428.195,-26461.305
1764505412.6492214,19781.595,-16777.125,-9740.475,-17426.34,-29437.065,-50774.895,-25428.78,-26461.395
1764505412.6492214,19777.995,-16781.085,-9743.49,-17429.67,-29440.08,-50778.36,-25431.93,-26464.68
1764505412.6507287,19777.815,-16780.905,-9743.04,-17428.05,-29439.27,-50777.64,-25431.705,-26463.915
1764505412.6507287,19780.65,-16778.475,-9740.52,-17426.024999999998,-29437.02,-50775.615,-25429.5,-26461.125
1764505412.6507287,19776.96,-16782.75,-9744.03,-17430.39,-29440.71,-50779.08,-25432.47,-26465.22
1764505412.6507287,19777.545,-16782.704999999998,-9743.4,-17430.3,-29440.62,-50779.215,-25431.795,-26465.265
1764505412.6507287,19782.315,-16777.26,-9738.045,-17424.18,-29435.85,-50774.175,-25427.25,-26460.45
1764505412.6507287,19782.72,-16776.405,-9737.46,-17423.145,-29434.545,-50773.77,-25425.72,-26459.505
1764505412.6507287,19780.155,-16778.475,-9739.89,-17425.215,-29437.065,-50775.48,-25427.745,-26461.17
1764505412.6507287,19778.58,-16779.96,-9740.835,-17426.204999999998,-29439.045,-50777.1,-25429.365,-26462.745
1764505412.6507287,19779.93,-16777.845,-9738.0,-17424.09,-29436.21,-50774.94,-25427.115,-26461.215
1764505412.6507287,19776.105,-16781.94,-9742.23,-17428.32,-29439.855,-50778.495,-25430.895,-26464.545
1764505412.6507287,19777.005,-16781.535,-9742.365,-17428.23,-29439.9,-50777.82,-25430.715,-26464.77
1764505412.6507287,19778.085,-16780.23,-9741.195,-17426.565,-29438.235,-50776.515,-25429.095,-26463.33
1764505412.6507287,19780.965,-16776.855,-9737.955,-17423.684999999998,-29434.995,-50773.365,-25426.17,-26460.135
1764505412.6507287,19779.345,-16778.88,-9739.44,-17424.63,-29436.615,-50775.21,-25427.52,-26461.845
1764505412.6507287,19777.635,-16779.375,-9740.565,-17425.44,-29437.695,-50776.155,-25428.645,-26462.97
1764505412.6507287,19781.73,-16775.235,-9736.29,-17421.57,-29433.825,-50772.33,-25424.73,-26458.965
1764505412.6507287,19779.93,-16777.665,-9738.36,-17423.954999999998,-29435.67,-50773.995,-25426.17,-26460.72
1764505412.6507287,19777.005,-16780.77,-9741.96,-17427.555,-29439.27,-50777.1,-25429.32,-26463.555
1764505412.6507287,19778.76,-16778.565,-9739.665,-17425.035,-29436.975,-50774.715,-25427.115,-26461.98
1764505412.6507287,19775.79,-16780.95,-9741.915,-17427.375,-29438.73,-50776.74,-25429.14,-26463.69
1764505412.6507287,19779.615,-16777.35,-9738.405,-17422.965,-29435.04,-50773.095,-25425.54,-26459.865
1764505412.6960113,19780.245,-16777.89,-9737.595,-17423.145,-29434.635,-50772.96,-25425.36,-26460.315
1764505412.6960113,19777.455,-16780.77,-9740.295,-17426.07,-29437.695,-50776.92,-25427.925,-26463.51
1764505412.6960113,19778.13,-16780.32,-9739.305,-17424.495,-29436.84,-50775.84,-25426.62,-26462.295
1764505412.6960113,19781.73,-16777.305,-9736.29,-17421.345,-29433.24,-50771.79,-25423.515,-26458.92
1764505412.6960113,19779.21,-16779.375,-9739.26,-17423.28,-29435.22,-50774.265,-25425.81,-26461.17
1764505412.6960113,19776.915,-16781.22,-9741.285,-17425.485,-29437.47,-50775.84,-25427.88,-26463.15
1764505412.6960113,19776.78,-16781.22,-9741.15,-17425.485,-29437.785,-50775.57,-25428.015,-26462.43
1764505412.6960113,19778.085,-16780.77,-9740.115,-17424.855,-29437.155,-50775.93,-25427.52,-26462.205
1764505412.6960113,19776.96,-16782.48,-9741.195,-17425.665,-29438.325,-50776.875,-25428.24,-26463.33
1764505412.6970131,19775.52,-16784.19,-9742.77,-17427.87,-29439.765,-50777.955,-25429.77,-26464.815
1764505412.6970131,19778.985,-16781.445,-9738.9,-17424.18,-29436.165,-50774.94,-25426.53,-26461.665
1764505412.6970131,19776.645,-16782.93,-9741.195,-17426.114999999998,-29438.415,-50776.92,-25427.52,-26463.42
1764505412.6970131,19777.86,-16781.04,-9739.305,-17424.63,-29437.29,-50776.02,-25426.53,-26462.34
1764505412.6970131,19782.54,-16777.26,-9735.345,-17420.265,-29432.43,-50771.385,-25422.345,-26457.39
1764505412.6970131,19781.37,-16778.52,-9737.145,-17421.165,-29433.195,-50772.015,-25422.705,-26458.02
1764505412.6970131,19778.445,-16781.085,-9740.34,-17424.405,-29435.895,-50774.805,-25425.765,-26461.26
1764505412.6970131,19778.625,-16781.265,-9739.89,-17424.315,-29436.12,-50774.805,-25425.765,-26461.35
1764505412.6970131,19778.58,-16781.579999999998,-9739.755,-17424.27,-29436.525,-50774.715,-25425.945,-26460.9
1764505412.6970131,19778.58,-16781.715,-9739.845,-17424.54,-29437.11,-50775.615,-25426.485,-26461.215
1764505412.6970131,19778.13,-16781.22,-9740.07,-17424.989999999998,-29436.84,-50775.48,-25426.08,-26461.305
1764505412.6970131,19774.485,-16784.64,-9742.995,-17428.23,-29439.945,-50778.855,-25428.42,-26464.635
1764505412.6970131,19774.755,-16785.135,-9743.13,-17427.42,-29439.09,-50778.54,-25429.05,-26464.23
1764505412.6970131,19775.43,-16784.19,-9742.41,-17426.475,-29438.415,-50777.55,-25427.835,-26462.97
1764505412.6970131,19780.695,-16778.61,-9737.01,-17421.704999999998,-29432.43,-50772.105,-25421.4,-26457.93
1764505412.7414207,19782.09,-16776.945,-9735.615,-17420.355,-29430.72,-50771.745,-25420.005,-26456.49
1764505412.7414207,19780.695,-16777.89,-9736.74,-17421.03,-29432.745,-50773.005,-25421.445,-26457.795
1764505412.7414207,19779.345,-16778.79,-9737.73,-17421.66,-29433.24,-50774.04,-25423.11,-26459.01
1764505412.7414207,19777.005,-16781.22,-9739.665,-17424.63,-29435.085,-50776.245,-25425.225,-26462.205
1764505412.7414207,19778.535,-16780.454999999998,-9738.495,-17423.864999999998,-29434.59,-50775.21,-25423.02,-26460.225
1764505412.7414207,19776.105,-16782.93,-9741.735,-17425.53,-29437.29,-50777.775,-25424.82,-26462.745
1764505412.7414207,19775.88,-16782.704999999998,-9741.645,-17425.62,-29437.695,-50777.73,-25424.595,-26463.42
1764505412.7414207,19777.05,-16781.13,-9739.755,-17424.0,-29436.12,-50776.155,-25423.695,-26461.98
1764505412.7414207,19779.48,-16779.239999999998,-9736.74,-17421.39,-29433.15,-50773.05,-25421.31,-26459.055
1764505412.7414207,19780.155,-16778.745,-9736.29,-17419.995,-29432.34,-50772.24,-25420.59,-26458.155
1764505412.7414207,19780.155,-16778.745,-9736.155,-17420.22,-29432.79,-50772.105,-25420.59,-26458.515
1764505412.7414207,19775.655,-16782.84,-9739.62,-17424.63,-29436.84,-50775.795,-25424.055,-26462.655
1764505412.7414207,19775.52,-16782.93,-9739.89,-17425.395,-29437.155,-50776.29,-25424.1,-26463.015
1764505412.7414207,19775.835,-16782.48,-9740.07,-17424.989999999998,-29436.48,-50775.075,-25423.515,-26462.385
1764505412.742438,19775.205,-16783.065,-9741.06,-17425.845,-29437.515,-50775.84,-25424.145,-26463.015
1764505412.742438,19774.89,-16782.39,-9740.655,-17425.44,-29437.515,-50775.93,-25424.325,-26462.34
1764505412.742438,19776.42,-16781.715,-9739.845,-17424.855,-29436.795,-50775.75,-25423.335,-26461.215
1764505412.742438,19778.76,-16778.97,-9736.065,-17421.03,-29434.095,-50772.285,-25419.915,-26458.38
1764505412.742438,19775.43,-16782.03,-9738.855,-17423.595,-29436.75,-50774.355,-25422.39,-26460.72
1764505412.743432,19778.13,-16779.195,-9736.425,-17421.255,-29434.005,-50771.7,-25420.005,-26457.48
1764505412.7871926,19775.655,-16782.255,-9738.045,-17423.595,-29435.805,-50774.355,-25422.435,-26459.82
1764505412.7871926,19774.305,-16784.37,-9739.665,-17425.26,-29437.2,-50776.02,-25423.74,-26462.43
1764505412.7871926,19774.845,-16784.595,-9740.385,-17425.755,-29437.605,-50776.47,-25423.695,-26462.43
1764505412.7871926,19774.89,-16784.1,-9741.015,-17425.305,-29437.695,-50776.2,-25423.92,-26461.98
1764505412.7871926,19773.27,-16785.989999999998,-9741.915,-17426.475,-29438.685,-50777.64,-25425.045,-26462.565
1764505412.7871926,19772.55,-16786.35,-9742.23,-17426.88,-29438.55,-50778.045,-25425.765,-26462.43
1764505412.7871926,19771.2,-16787.925,-9743.805,-17428.095,-29440.215,-50779.935,-25427.34,-26464.32
1764505412.7871926,19774.17,-16785.0,-9741.33,-17425.17,-29437.38,-50776.515,-25424.01,-26461.08
1764505412.7871926,19773.765,-16785.945,-9741.915,-17425.44,-29438.595,-50777.595,-25424.37,-26461.665
1764505412.7871926,19774.845,-16784.595,-9740.43,-17424.54,-29436.93,-50776.83,-25422.885,-26460.495
1764505412.7871926,19774.17,-16784.64,-9740.655,-17425.485,-29437.38,-50777.415,-25424.19,-26461.305
1764505412.7871926,19769.85,-16789.14,-9744.84,-17429.579999999998,-29441.52,-50781.825,-25428.51,-26465.49
1764505412.7871926,19770.57,-16788.465,-9744.57,-17428.815,-29440.665,-50781.105,-25427.43,-26464.905
1764505412.7871926,19773.36,-16784.954999999998,-9741.465,-17425.98,-29437.56,-50777.55,-25424.145,-26461.8
1764505412.788211,19770.93,-16786.98,-9743.895,-17429.13,-29440.53,-50779.89,-25425.585,-26464.05
1764505412.788211,19774.26,-16784.325,-9740.655,-17425.62,-29437.065,-50776.695,-25422.93,-26460.945
1764505412.788211,19773.9,-16785.135,-9741.69,-17426.52,-29437.92,-50777.775,-25424.235,-26461.665
1764505412.7892065,19770.03,-16788.87,-9745.47,-17430.93,-29441.79,-50781.33,-25428.33,-26465.265
1764505412.7892065,19769.805,-16789.274999999998,-9745.83,-17431.245,-29442.24,-50781.915,-25428.69,-26465.265
1764505412.7892065,19771.605,-16786.755,-9742.545,-17428.41,-29439.405,-50779.08,-25426.08,-26462.7
1764505412.7892065,19775.565,-16782.434999999998,-9737.685,-17424.18,-29435.265,-50774.94,-25422.3,-26459.145
1764505412.7892065,19774.08,-16783.605,-9739.575,-17424.945,-29436.255,-50775.93,-25423.245,-26460.315
1764505412.8391764,19770.615,-16786.71,-9742.185,-17427.329999999998,-29438.865,-50777.46,-25424.64,-26462.34
1764505412.8391764,19771.02,-16787.34,-9743.175,-17428.41,-29439.315,-50778.54,-25425.945,-26462.52
1764505412.8391764,19774.935,-16783.695,-9739.755,-17425.395,-29436.435,-50775.84,-25423.065,-26459.37
1764505412.8391764,19774.845,-16782.48,-9738.09,-17423.505,-29433.915,-50773.32,-25421.22,-26458.47
1764505412.8391764,19774.26,-16783.515,-9738.315,-17423.91,-29435.04,-50774.13,-25420.68,-26458.47
1764505412.8391764,19775.61,-16782.48,-9738.225,-17423.55,-29434.905,-50774.04,-25420.77,-26458.11
1764505412.8391764,19776.195,-16782.795,-9738.72,-17423.415,-29434.14,-50774.715,-25420.995,-26458.11
1764505412.8391764,19776.465,-16781.985,-9737.82,-17422.875,-29434.05,-50774.715,-25419.87,-26457.165
1764505412.8391764,19773.495,-16784.864999999998,-9740.205,-17424.945,-29436.705,-50776.875,-25421.94,-26459.505
1764505412.8391764,19769.445,-16789.095,-9744.525,-17428.454999999998,-29440.98,-50780.88,-25425.81,-26463.645
1764505412.8391764,19768.635,-16789.815,-9745.695,-17428.77,-29441.205,-50781.915,-25426.26,-26464.815
1764505412.8391764,19768.86,-16789.23,-9744.705,-17428.364999999998,-29440.215,-50781.555,-25425.27,-26464.14
1764505412.8406944,19769.22,-16788.195,-9743.76,-17426.97,-29439.18,-50780.16,-25424.28,-26463.24
1764505412.8406944,19772.505,-16785.135,-9740.295,-17424.27,-29435.715,-50777.145,-25421.67,-26460.36
1764505412.8406944,19772.595,-16784.864999999998,-9739.845,-17424.135,-29435.715,-50777.055,-25421.58,-26459.685
1764505412.8406944,19772.82,-16784.37,-9739.53,-17423.954999999998,-29435.04,-50776.83,-25421.49,-26459.64
1764505412.8406944,19770.48,-16786.755,-9741.735,-17425.71,-29437.245,-50780.025,-25423.65,-26462.25
1764505412.8406944,19772.82,-16784.415,-9737.91,-17422.515,-29434.14,-50775.975,-25419.555,-26458.56
1764505412.8406944,19772.685,-16785.225,-9738.72,-17424.405,-29435.49,-50777.235,-25419.42,-26459.775
1764505412.8406944,19770.39,-16787.25,-9741.33,-17426.97,-29438.37,-50780.43,-25422.39,-26461.575
1764505412.8406944,19767.6,-16789.95,-9744.525,-17429.535,-29441.565,-50783.265,-25425.63,-26464.455
1764505412.8406944,19768.905,-16789.23,-9743.535,-17428.725,-29440.62,-50782.455,-25424.415,-26463.6
1764505412.8406944,19770.21,-16787.79,-9742.68,-17428.005,-29439.18,-50781.105,-25423.785,-26462.7
1764505412.8406944,19773.72,-16783.92,-9738.45,-17424.63,-29435.04,-50777.055,-25420.365,-26459.55
1764505412.8406944,19774.17,-16784.235,-9738.405,-17424.765,-29435.76,-50777.325,-25420.05,-26459.19
1764505412.8406944,19772.955,-16785.899999999998,-9739.665,-17425.62,-29436.795,-50778.9,-25420.545,-26459.865
1764505412.8406944,19771.83,-16787.43,-9740.88,-17426.34,-29437.74,-50779.755,-25421.67,-26461.26
1764505412.8406944,19769.94,-16789.545,-9743.04,-17428.005,-29439.72,-50781.285,-25423.875,-26463.645
1764505412.8806348,19771.965,-16787.7,-9741.24,-17425.485,-29437.785,-50778.54,-25421.895,-26461.08
1764505412.8806348,19768.95,-16790.805,-9743.805,-17428.635,-29441.295,-50781.645,-25425.135,-26464.005
1764505412.8806348,19770.57,-16788.015,-9741.645,-17426.52,-29439.135,-50779.8,-25423.155,-26461.71
1764505412.8806348,19768.815,-16789.23,-9743.715,-17428.815,-29440.62,-50781.42,-25424.595,-26463.465
1764505412.8806348,19769.805,-16787.79,-9741.42,-17427.195,-29438.685,-50779.305,-25422.93,-26461.53
1764505412.8806348,19767.285,-16789.815,-9742.32,-17427.825,-29439.495,-50780.205,-25424.73,-26463.6
1764505412.8806348,19770.615,-16787.88,-9741.555,-17425.079999999998,-29437.29,-50778.585,-25421.895,-26461.215
1764505412.8806348,19771.245,-16787.97,-9741.555,-17425.665,-29437.29,-50778.585,-25421.985,-26460.765
1764505412.8806348,19767.69,-16791.39,-9744.525,-17429.579999999998,-29440.575,-50782.23,-25425.18,-26464.635
1764505412.8806348,19769.04,-16789.005,-9741.87,-17427.059999999998,-29437.92,-50780.43,-25424.235,-26462.79
1764505412.8806348,19771.83,-16784.954999999998,-9737.82,-17422.38,-29433.645,-50775.48,-25420.14,-26458.83
1764505412.8817449,19772.37,-16784.864999999998,-9738.99,-17423.415,-29435.535,-50776.515,-25420.185,-26458.785
1764505412.8817449,19772.01,-16785.765,-9739.53,-17423.954999999998,-29436.165,-50777.145,-25420.275,-26458.47
1764505412.8817449,19768.545,-16788.96,-9742.365,-17426.745,-29438.505,-50779.755,-25423.335,-26461.935
1764505412.8817449,19770.39,-16787.34,-9739.845,-17424.855,-29436.615,-50778.045,-25421.49,-26459.685
1764505412.8817449,19768.995,-16789.005,-9742.23,-17426.385,-29438.415,-50779.98,-25423.2,-26461.305
1764505412.8817449,19769.895,-16788.555,-9741.645,-17425.755,-29437.875,-50779.395,-25422.3,-26460.18
1764505412.8817449,19771.38,-16786.98,-9739.53,-17424.72,-29436.66,-50777.82,-25420.905,-26457.705
1764505412.8817449,19774.62,-16782.885,-9735.93,-17421.12,-29433.06,-50773.815,-25418.025,-26454.6
1764505412.8817449,19772.28,-16784.864999999998,-9738.315,-17422.559999999998,-29434.77,-50775.975,-25419.78,-26456.76
1764505412.9308395,19776.285,-16781.22,-9734.49,-17418.465,-29431.215,-50772.42,-25415.82,-26453.565
1764505412.9308395,19775.16,-16781.85,-9735.21,-17419.095,-29431.62,-50772.51,-25416.135,-26454.645
1764505412.9308395,19772.055,-16785.405,-9738.675,-17422.695,-29434.5,-50775.84,-25419.465,-26457.255
1764505412.9308395,19772.01,-16786.53,-9738.63,-17423.28,-29434.32,-50776.92,-25419.87,-26457.615
1764505412.9308395,19773.0,-16785.315,-9736.965,-17421.93,-29433.33,-50775.21,-25418.925,-26456.49
1764505412.9308395,19774.755,-16783.559999999998,-9735.885,-17420.94,-29431.98,-50773.14,-25416.585,-26454.555
1764505412.9308395,19776.42,-16781.805,-9734.265,-17419.095,-29430.225,-50771.475,-25415.19,-26452.62
1764505412.9308395,19774.08,-16783.245,-9735.615,-17419.725,-29432.16,-50772.42,-25417.395,-26454.555
1764505412.9308395,19773.72,-16780.905,-9733.05,-17416.62,-29428.515,-50767.965,-25413.975,-26453.025
1764505412.9318557,19772.01,-16782.255,-9733.995,-17417.61,-29429.19,-50768.91,-25414.65,-26453.79
1764505412.9318557,19776.06,-16779.69,-9730.845,-17415.495,-29426.85,-50767.965,-25412.535,-26450.685
1764505412.9318557,19774.98,-16780.995,-9732.465,-17417.16,-29428.11,-50769.585,-25413.75,-26452.305
1764505412.9318557,19771.47,-16784.145,-9735.21,-17420.13,-29431.845,-50772.24,-25416.675,-26455.005
1764505412.9318557,19770.48,-16784.46,-9735.615,-17420.489999999998,-29432.43,-50773.455,-25416.81,-26454.645
1764505412.9318557,19770.93,-16784.055,-9734.985,-17419.905,-29431.62,-50772.33,-25416.495,-26453.655
1764505412.9318557,19771.605,-16783.47,-9734.49,-17419.454999999998,-29431.125,-50771.52,-25415.55,-26453.7
1764505412.9318557,19773.045,-16781.67,-9732.96,-17417.925,-29429.28,-50770.17,-25414.065,-26452.35
1764505412.9318557,19776.33,-16777.845,-9729.9,-17414.46,-29425.59,-50766.03,-25410.465,-26449.38
1764505412.9318557,19776.555,-16777.17,-9729.315,-17413.965,-29425.23,-50765.85,-25408.665,-26448.48
1764505412.9318557,19777.05,-16776.675,-9727.83,-17413.29,-29423.97,-50764.815,-25408.305,-26447.58
1764505412.9318557,19778.13,-16775.684999999998,-9726.885,-17412.255,-29423.295,-50764.455,-25407.855,-26446.995
1764505412.9318557,19776.78,-16777.079999999998,-9728.1,-17413.875,-29424.24,-50766.255,-25409.7,-26448.165
1764505412.9318557,19772.91,-16781.13,-9732.465,-17418.015,-29428.2,-50769.72,-25413.165,-26451.99
1764505412.9318557,19772.955,-16781.22,-9732.69,-17418.105,-29428.245,-50769.405,-25412.85,-26451.495
1764505412.976917,19775.97,-16777.89,-9729.495,-17415.09,-29425.23,-50766.48,-25409.79,-26448.12
1764505412.976917,19773.315,-16780.635,-9731.925,-17417.295,-29427.795,-50768.775,-25412.175,-26450.595
1764505412.976917,19775.52,-16778.565,-9729.54,-17413.829999999998,-29424.96,-50765.985,-25409.7,-26447.895
1764505412.976917,19773.27,-16780.545,-9731.7,-17415.989999999998,-29426.895,-50768.37,-25412.085,-26449.695
1764505412.976917,19773.81,-16780.184999999998,-9730.665,-17415.63,-29426.445,-50768.145,-25411.59,-26449.515
1764505412.976917,19774.755,-16778.655,-9729.54,-17414.73,-29425.14,-50767.02,-25409.7,-26448.615
1764505412.976917,19776.78,-16775.595,-9727.83,-17412.3,-29423.205,-50764.41,-25406.64,-26446.23
1764505412.97791,19773.315,-16778.925,-9730.53,-17414.415,-29425.59,-50766.03,-25408.8,-26448.84
1764505412.97791,19776.195,-16777.17,-9728.37,-17412.704999999998,-29423.34,-50764.455,-25406.595,-26446.59
1764505412.97791,19776.78,-16776.585,-9727.02,-17412.614999999998,-29422.71,-50764.32,-25405.875,-26445.69
1764505412.97791,19776.78,-16776.36,-9726.795,-17412.84,-29422.395,-50764.365,-25406.64,-26445.33
1764505412.97791,19776.735,-16776.045,-9726.03,-17412.39,-29422.08,-50763.555,-25406.37,-26445.24
1764505412.97791,19775.97,-16776.27,-9726.075,-17412.165,-29421.945,-50763.42,-25405.875,-26445.465
1764505412.97791,19774.845,-16777.755,-9727.965,-17413.11,-29423.07,-50765.715,-25407.18,-26446.95
1764505412.97791,19772.73,-16779.96,-9730.53,-17416.125,-29425.5,-50767.965,-25409.79,-26449.335
1764505412.97791,19777.59,-16774.605,-9725.49,-17411.085,-29420.955,-50763.015,-25404.93,-26444.655
1764505412.97791,19777.455,-16773.885,-9725.58,-17410.005,-29420.145,-50761.89,-25404.345,-26443.71
1764505412.97791,19774.575,-16778.114999999998,-9729.72,-17414.1,-29423.88,-50764.68,-25408.08,-26447.49
1764505412.97791,19777.905,-16775.235,-9725.49,-17410.995,-29420.91,-50761.485,-25404.75,-26444.295
1764505412.97791,19777.86,-16775.505,-9725.085,-17410.905,-29421.27,-50761.98,-25404.57,-26444.565
1764505412.97791,19774.935,-16778.655,-9728.19,-17414.505,-29424.6,-50765.805,-25407.81,-26447.76
1764505412.97791,19776.105,-16777.035,-9726.3,-17412.57,-29422.845,-50764.005,-25405.965,-26445.33
1764505412.97791,19780.56,-16772.445,-9721.71,-17408.295,-29418.12,-50760.27,-25401.42,-26440.65
1764505412.97791,19779.12,-16774.2,-9723.555,-17409.645,-29419.65,-50761.44,-25403.265,-26442.99
1764505413.022141,19776.87,-16776.63,-9725.805,-17411.895,-29421.99,-50764.275,-25406.055,-26445.87
1764505413.022141,19777.545,-16775.055,-9724.32,-17410.635,-29420.91,-50762.475,-25404.075,-26444.07
1764505413.022141,19780.65,-16772.265,-9721.395,-17407.755,-29418.12,-50759.19,-25400.25,-26440.38
1764505413.022141,19778.22,-16774.965,-9724.365,-17411.22,-29420.28,-50761.665,-25402.545,-26443.215
1764505413.022141,19776.6,-16776.945,-9726.03,-17412.704999999998,-29422.08,-50763.555,-25404.795,-26445.51
1764505413.022141,19774.26,-16779.059999999998,-9728.055,-17414.37,-29424.645,-50765.49,-25406.865,-26447.22
1764505413.022141,19777.095,-16775.145,-9724.455,-17410.77,-29421.585,-50762.295,-25404.165,-26443.665
1764505413.022141,19776.285,-16775.595,-9724.77,-17411.175,-29421.675,-50762.925,-25404.39,-26443.89
1764505413.022141,19773.585,-16778.79,-9727.785,-17414.64,-29424.51,-50765.445,-25407.36,-26446.815
1764505413.022141,19774.26,-16777.035,-9727.065,-17413.92,-29422.485,-50764.77,-25405.875,-26445.465
1764505413.022141,19771.425,-16779.96,-9729.765,-17416.215,-29425.365,-50767.065,-25408.575,-26447.85
1764505413.022141,19773.405,-16778.925,-9728.19,-17414.1,-29423.97,-50764.725,-25406.865,-26446.14
1764505413.022141,19777.185,-16774.515,-9724.455,-17409.825,-29420.1,-50760.27,-25402.77,-26442.0
1764505413.022141,19776.195,-16774.875,-9724.68,-17410.68,-29420.64,-50761.08,-25403.445,-26442.18
1764505413.022141,19775.295,-16776.495,-9725.49,-17411.94,-29421.72,-50762.115,-25404.39,-26443.35
1764505413.022141,19775.205,-16777.035,-9726.03,-17411.985,-29422.485,-50762.79,-25404.75,-26443.665
1764505413.022141,19774.17,-16778.385,-9726.48,-17411.985,-29423.295,-50764.005,-25405.38,-26444.745
1764505413.022141,19771.92,-16780.545,-9728.955,-17413.739999999998,-29425.455,-50766.435,-25407.81,-26447.175
1764505413.022141,19771.335,-16781.489999999998,-9729.855,-17414.82,-29426.04,-50766.93,-25408.17,-26447.895
1764505413.022141,19771.11,-16780.995,-9729.18,-17415.315,-29425.77,-50767.11,-25408.215,-26447.355
1764505413.022141,19771.11,-16781.265,-9729.18,-17415.405,-29426.49,-50767.02,-25408.395,-26447.94
1764505413.022141,19773.045,-16779.059999999998,-9727.2,-17413.38,-29424.69,-50764.68,-25405.92,-26445.69
1764505413.0251524,19777.365,-16775.37,-9723.24,-17409.059999999998,-29420.73,-50760.99,-25402.005,-26441.37
1764505413.0251524,19777.59,-16774.605,-9722.745,-17409.375,-29420.64,-50761.305,-25401.96,-26441.91
1764505413.071134,19775.745,-16776.045,-9723.87,-17410.815,-29421.54,-50762.385,-25403.265,-26442.9
1764505413.0721536,19774.62,-16776.63,-9724.77,-17411.895,-29422.62,-50762.925,-25404.165,-26443.035
1764505413.0721536,19771.875,-16778.97,-9727.155,-17413.739999999998,-29424.555,-50765.355,-25406.01,-26445.33
1764505413.0721536,19769.895,-16781.805,-9729.63,-17416.215,-29426.445,-50767.47,-25408.035,-26447.58
1764505413.0731544,19773.045,-16779.329999999998,-9726.93,-17413.47,-29423.61,-50764.59,-25405.335,-26445.465
1764505413.0731544,19772.145,-16779.105,-9726.39,-17413.515,-29424.24,-50764.095,-25405.83,-26445.33
1764505413.0731544,19767.96,-16783.245,-9730.35,-17417.475,-29427.75,-50768.145,-25410.015,-26449.2
1764505413.0731544,19770.255,-16780.905,-9727.65,-17414.145,-29425.23,-50766.03,-25407.315,-26446.41
1764505413.0731544,19772.01,-16780.005,-9726.3,-17412.93,-29423.565,-50764.77,-25406.595,-26445.42
1764505413.0746698,19772.28,-16779.69,-9726.84,-17413.785,-29424.06,-50764.455,-25406.055,-26445.69
1764505413.0746698,19772.82,-16779.239999999998,-9727.245,-17413.245,-29424.195,-50763.915,-25406.01,-26445.375
1764505413.0746698,19771.92,-16779.42,-9727.74,-17413.155,-29423.52,-50763.825,-25406.145,-26445.105
1764505413.0746698,19768.545,-16781.85,-9729.99,-17416.035,-29426.22,-50766.12,-25408.485,-26448.48
1764505413.075662,19768.32,-16781.895,-9729.855,-17416.845,-29427.12,-50766.48,-25408.08,-26448.165
1764505413.075662,19769.535,-16781.22,-9728.82,-17415.855,-29426.265,-50766.435,-25406.73,-26446.32
1764505413.075662,19767.42,-16783.11,-9730.845,-17416.845,-29428.155,-50768.28,-25408.755,-26448.615
1764505413.075662,19770.48,-16780.68,-9728.415,-17414.28,-29426.31,-50765.4,-25406.595,-26446.32
1764505413.0766883,19768.905,-16782.48,-9729.36,-17416.17,-29427.795,-50766.93,-25408.35,-26447.085
1764505413.0766883,19771.56,-16779.195,-9727.335,-17412.84,-29424.825,-50764.275,-25405.92,-26444.385
1764505413.0766883,19769.355,-16781.85,-9729.72,-17414.595,-29427.48,-50767.29,-25407.945,-26447.31
1764505413.0766883,19770.075,-16780.68,-9728.865,-17414.235,-29426.49,-50766.255,-25406.64,-26446.455
1764505413.077676,19772.685,-16777.665,-9725.67,-17411.175,-29423.79,-50763.195,-25404.66,-26443.215
1764505413.077676,19769.67,-16781.355,-9729.45,-17414.64,-29428.02,-50766.48,-25407.945,-26446.005
1764505413.077676,19768.95,-16781.175,-9728.73,-17414.505,-29426.985,-50766.39,-25407.315,-26446.23
1764505413.1189325,19771.11,-16778.7,-9725.31,-17411.535,-29423.655,-50763.825,-25404.57,-26443.98
1764505413.119944,19774.845,-16775.73,-9722.7,-17408.385,-29420.415,-50760.315,-25400.88,-26440.38
1764505413.119944,19774.62,-16776.27,-9723.465,-17408.204999999998,-29421.765,-50760.855,-25401.42,-26440.605
1764505413.119944,19774.62,-16776.27,-9723.06,-17407.845,-29421.09,-50760.495,-25401.78,-26440.335
1764505413.119944,19774.98,-16776.45,-9722.88,-17407.44,-29420.595,-50760.27,-25401.24,-26440.335
1764505413.1209316,19771.38,-16779.51,-9726.21,-17411.265,-29423.61,-50763.465,-25403.805,-26443.845
1764505413.1209316,19771.02,-16780.23,-9726.84,-17412.345,-29424.69,-50763.78,-25404.435,-26444.79
1764505413.1209316,19771.47,-16779.87,-9726.75,-17412.12,-29424.195,-50763.15,-25403.985,-26443.755
1764505413.1209316,19774.485,-16777.305,-9723.825,-17408.835,-29421.27,-50760.54,-25401.375,-26440.92
1764505413.1209316,19772.055,-16780.995,-9726.525,-17411.22,-29424.06,-50763.87,-25404.66,-26443.98
1764505413.1209316,19774.305,-16778.114999999998,-9723.825,-17408.295,-29420.595,-50761.125,-25402.095,-26440.83
1764505413.1209316,19775.115,-16776.989999999998,-9722.43,-17407.305,-29418.795,-50759.955,-25400.745,-26439.795
1764505413.1209316,19775.07,-16776.495,-9722.565,-17407.35,-29419.02,-50759.505,-25400.88,-26439.885
1764505413.1209316,19772.46,-16779.015,-9724.455,-17409.78,-29421.18,-50761.395,-25403.22,-26442.18
1764505413.1209316,19775.7,-16775.91,-9720.765,-17406.54,-29417.4,-50757.975,-25399.71,-26438.355
1764505413.1209316,19772.46,-16778.07,-9722.205,-17407.395,-29418.84,-50758.785,-25401.015,-26440.515
1764505413.1209316,19769.58,-16782.165,-9726.525,-17412.12,-29422.26,-50763.285,-25404.705,-26443.845
1764505413.1209316,19770.975,-16781.399999999998,-9726.57,-17411.715,-29422.215,-50762.79,-25403.94,-26444.115
1764505413.1209316,19770.525,-16781.895,-9726.66,-17412.12,-29422.935,-50763.24,-25404.03,-26444.025
1764505413.1209316,19771.2,-16781.355,-9725.805,-17412.03,-29422.44,-50762.34,-25403.985,-26443.215
1764505413.1209316,19771.56,-16781.94,-9725.895,-17411.94,-29421.99,-50762.43,-25403.715,-26443.53
1764505413.1209316,19771.965,-16781.895,-9725.85,-17411.985,-29422.08,-50762.7,-25403.67,-26443.62
1764505413.1209316,19774.8,-16778.7,-9722.34,-17408.43,-29419.2,-50759.91,-25400.79,-26440.695
1764505413.1209316,19775.7,-16777.215,-9721.44,-17407.755,-29418.3,-50759.055,-25399.35,-26438.94
1764505413.16422,19777.41,-16774.515,-9719.595,-17405.684999999998,-29416.185,-50756.445,-25396.605,-26436.51
1764505413.16422,19777.41,-16776.09,-9720.99,-17406.54,-29416.815,-50756.805,-25397.415,-26437.14
1764505413.16422,19777.455,-16776.765,-9721.53,-17406.989999999998,-29417.625,-50757.525,-25398.54,-26437.68
1764505413.1652236,19775.52,-16777.755,-9721.845,-17407.8,-29417.31,-50757.93,-25399.53,-26439.165
1764505413.1652236,19775.34,-16778.07,-9721.98,-17407.8,-29418.03,-50758.605,-25399.53,-26440.065
1764505413.1652236,19772.28,-16781.76,-9725.13,-17411.13,-29421.855,-50762.07,-25402.23,-26442.855
1764505413.1652236,19772.055,-16781.22,-9724.995,-17411.13,-29421.54,-50761.35,-25401.645,-26442.45
1764505413.1652236,19772.325,-16780.545,-9723.69,-17409.735,-29420.505,-50759.325,-25400.475,-26440.785
1764505413.1652236,19774.62,-16777.53,-9720.81,-17406.27,-29417.895,-50756.67,-25397.595,-26438.715
1764505413.1652236,19774.215,-16778.204999999998,-9722.745,-17408.34,-29418.84,-50758.965,-25399.62,-26439.705
1764505413.1652236,19777.86,-16774.47,-9719.1,-17404.155,-29414.655,-50754.78,-25395.84,-26435.475
1764505413.1652236,19774.845,-16778.385,-9722.61,-17408.204999999998,-29418.39,-50758.38,-25399.89,-26439.525
1764505413.1652236,19774.755,-16778.204999999998,-9722.565,-17408.475,-29418.84,-50758.65,-25398.9,-26439.345
1764505413.1652236,19775.88,-16777.44,-9721.89,-17407.934999999998,-29418.615,-50757.705,-25398.36,-26438.76
1764505413.1652236,19776.87,-16776.809999999998,-9720.945,-17407.395,-29418.075,-50757.165,-25397.775,-26437.815
1764505413.1652236,19779.39,-16773.795,-9718.605,-17404.065,-29415.465,-50754.645,-25395.255,-26434.935
1764505413.1652236,19776.51,-16777.485,-9721.305,-17407.44,-29418.345,-50757.975,-25398.495,-26437.68
1764505413.1652236,19776.285,-16777.485,-9720.855,-17407.26,-29418.165,-50758.02,-25398.225,-26436.96
1764505413.1652236,19780.155,-16773.704999999998,-9717.795,-17403.704999999998,-29414.97,-50754.33,-25394.4,-26433.72
1764505413.1652236,19781.595,-16772.895,-9715.995,-17402.22,-29413.8,-50752.62,-25393.14,-26432.145
1764505413.166231,19782.18,-16772.265,-9715.365,-17401.68,-29412.09,-50752.125,-25391.835,-26430.66
1764505413.1672182,19778.67,-16776.27,-9719.28,-17406.18,-29416.185,-50756.355,-25395.615,-26434.17
1764505413.2102757,19780.695,-16773.48,-9717.435,-17403.3,-29414.205,-50753.295,-25393.545,-26431.65
1764505413.210806,19780.965,-16773.21,-9716.85,-17402.535,-29412.945,-50752.395,-25393.32,-26431.02
1764505413.210806,19781.685,-16772.94,-9716.985,-17402.535,-29413.08,-50752.53,-25393.23,-26430.57
1764505413.210806,19781.145,-16772.94,-9717.75,-17402.085,-29413.44,-50752.71,-25393.365,-26430.39
1764505413.210806,19780.29,-16772.985,-9717.48,-17402.579999999998,-29413.305,-50752.35,-25393.455,-26430.84
1764505413.210806,19780.425,-16772.985,-9716.805,-17401.995,-29413.17,-50752.305,-25393.05,-26430.57
1764505413.210806,19780.335,-16773.165,-9715.995,-17401.905,-29413.17,-50751.765,-25393.05,-26429.31
1764505413.210806,19781.235,-16773.075,-9715.5,-17401.14,-29412.18,-50750.64,-25392.195,-26428.86
1764505413.210806,19784.16,-16770.059999999998,-9712.8,-17398.845,-29409.435,-50748.3,-25389.45,-26427.105
1764505413.210806,19781.91,-16771.68,-9714.465,-17400.78,-29411.055,-50750.55,-25390.305,-26428.68
1764505413.210806,19780.65,-16774.065,-9716.94,-17402.85,-29413.44,-50752.89,-25392.42,-26430.435
1764505413.210806,19784.34,-16769.835,-9714.195,-17399.204999999998,-29410.02,-50749.02,-25389.765,-26426.43
1764505413.210806,19782.27,-16771.68,-9715.59,-17400.915,-29411.28,-50750.28,-25391.835,-26428.095
1764505413.211346,19783.17,-16770.87,-9714.105,-17399.07,-29409.93,-50748.48,-25390.08,-26427.195
1764505413.211346,19780.83,-16774.425,-9716.805,-17401.59,-29413.26,-50750.91,-25392.69,-26429.445
1764505413.211346,19780.29,-16774.739999999998,-9717.12,-17402.175,-29413.8,-50751.54,-25392.87,-26430.03
1764505413.211346,19780.47,-16773.614999999998,-9715.95,-17401.005,-29412.315,-50749.785,-25391.565,-26429.4
1764505413.211346,19784.97,-16769.475,-9711.945,-17397.09,-29408.715,-50746.41,-25388.19,-26425.395
1764505413.211346,19783.305,-16770.465,-9712.17,-17397.405,-29409.84,-50747.22,-25388.46,-26426.52
1764505413.211346,19778.445,-16775.82,-9717.345,-17402.94,-29415.105,-50752.125,-25393.59,-26431.605
1764505413.211346,19781.28,-16774.155,-9715.995,-17401.454999999998,-29413.62,-50750.55,-25392.195,-26430.03
1764505413.211346,19778.31,-16777.305,-9718.515,-17403.66,-29415.915,-50753.025,-25394.175,-26432.595
1764505413.259096,19781.1,-16774.02,-9715.185,-17400.555,-29412.405,-50750.55,-25391.475,-26430.03
1764505413.259096,19779.615,-16774.875,-9716.445,-17401.454999999998,-29413.665,-50751.945,-25392.555,-26431.065
1764505413.259096,19782.135,-16772.625,-9713.97,-17399.34,-29410.785,-50749.605,-25389.72,-26428.68
1764505413.259096,19779.975,-16775.1,-9715.455,-17400.645,-29412.765,-50751.855,-25391.79,-26430.615
1764505413.259096,19781.775,-16772.489999999998,-9713.79,-17398.755,-29411.1,-50749.605,-25389.405,-26428.365
1764505413.259096,19780.695,-16773.84,-9715.41,-17399.475,-29411.91,-50750.505,-25389.9,-26429.805
1764505413.259096,19784.16,-16770.6,-9711.72,-17396.82,-29408.805,-50747.535,-25386.165,-26426.43
1764505413.259096,19781.775,-16773.075,-9714.24,-17399.43,-29411.82,-50750.685,-25389.225,-26428.455
1764505413.259096,19784.115,-16771.095,-9711.855,-17397.54,-29409.705,-50748.66,-25386.705,-26426.43
1764505413.259096,19781.46,-16772.67,-9713.34,-17399.43,-29411.73,-50750.505,-25388.82,-26428.995
1764505413.259096,19783.08,-16771.184999999998,-9711.765,-17396.505,-29409.84,-50748.12,-25387.2,-26426.34
1764505413.259096,19779.435,-16774.02,-9715.725,-17399.52,-29412.54,-50750.28,-25390.17,-26428.77
1764505413.259096,19780.965,-16772.355,-9713.25,-17396.73,-29410.29,-50748.57,-25387.155,-26426.745
1764505413.259096,19782.18,-16772.94,-9713.475,-17397.315,-29410.515,-50750.19,-25387.875,-26426.88
1764505413.259096,19779.435,-16775.595,-9716.22,-17400.735,-29412.99,-50753.025,-25390.98,-26430.03
1764505413.259096,19782.585,-16773.12,-9712.62,-17397.855,-29410.155,-50749.335,-25388.28,-26426.925
1764505413.259096,19782.675,-16772.175,-9712.215,-17397.315,-29409.255,-50748.885,-25387.245,-26425.71
1764505413.259096,19778.13,-16776.54,-9716.49,-17401.454999999998,-29413.08,-50753.115,-25391.43,-26430.3
1764505413.259096,19782.18,-16772.13,-9712.125,-17397.495,-29408.985,-50749.245,-25386.84,-26426.52
1764505413.259096,19782.63,-16771.86,-9711.405,-17397.27,-29408.04,-50748.66,-25386.39,-26425.62
1764505413.259096,19782.495,-16772.579999999998,-9712.395,-17397.945,-29408.445,-50749.065,-25386.93,-26425.665
1764505413.259096,19781.37,-16773.704999999998,-9713.52,-17398.845,-29409.66,-50750.64,-25388.82,-26426.79
1764505413.259096,19778.31,-16776.809999999998,-9716.535,-17401.95,-29412.99,-50753.79,-25392.24,-26430.615
1764505413.259096,19780.965,-16774.739999999998,-9713.88,-17400.195,-29410.74,-50751.225,-25389.765,-26428.32
1764505413.3045683,19779.48,-16776.225,-9715.32,-17402.13,-29412.81,-50752.665,-25391.295,-26429.76
1764505413.3045683,19782.945,-16772.309999999998,-9712.035,-17397.765,-29409.21,-50748.705,-25387.605,-26425.8
1764505413.3045683,19784.43,-16770.78,-9710.82,-17396.19,-29407.59,-50747.13,-25385.895,-26424.27
1764505413.3045683,19782.495,-16773.57,-9712.44,-17398.305,-29408.85,-50749.11,-25387.47,-26425.62
1764505413.3045683,19781.73,-16773.434999999998,-9712.8,-17398.845,-29409.165,-50749.65,-25388.37,-26426.16
1764505413.3045683,19781.055,-16773.795,-9713.52,-17398.44,-29409.03,-50749.785,-25388.64,-26427.15
1764505413.3056092,19781.505,-16773.165,-9713.07,-17398.079999999998,-29408.805,-50749.74,-25388.505,-26427.105
1764505413.3056092,19780.065,-16774.02,-9713.88,-17398.485,-29409.57,-50750.505,-25388.55,-26427.24
1764505413.3056092,19778.805,-16775.64,-9715.455,-17400.195,-29410.74,-50751.855,-25389.81,-26428.275
1764505413.3056092,19781.28,-16773.075,-9713.205,-17398.305,-29408.805,-50748.84,-25387.29,-26425.665
1764505413.3056092,19778.76,-16775.01,-9715.185,-17400.645,-29411.37,-50750.64,-25389.72,-26428.59
1764505413.3056092,19780.605,-16773.57,-9713.07,-17398.755,-29409.3,-50748.66,-25387.92,-26426.34
1764505413.3056092,19784.16,-16769.52,-9709.245,-17395.245,-29405.43,-50745.105,-25384.275,-26421.66
1764505413.3056092,19781.37,-16772.895,-9711.675,-17397.54,-29407.815,-50748.345,-25386.57,-26424.18
1764505413.3056092,19781.28,-16773.524999999998,-9712.26,-17397.675,-29407.995,-50747.67,-25385.805,-26424.225
1764505413.3056092,19780.785,-16773.975,-9712.935,-17398.98,-29408.895,-50747.715,-25386.255,-26425.08
1764505413.3056092,19778.535,-16776.18,-9715.23,-17401.14,-29411.055,-50750.415,-25388.865,-26427.465
1764505413.3056092,19780.245,-16774.425,-9713.7,-17398.755,-29408.805,-50748.075,-25387.335,-26425.08
1764505413.3056092,19778.58,-16775.954999999998,-9714.915,-17400.555,-29410.695,-50749.92,-25389.18,-26427.015
1764505413.3056092,19780.425,-16773.614999999998,-9712.44,-17398.755,-29408.355,-50747.355,-25387.245,-26424.72
1764505413.3056092,19778.445,-16776.135,-9713.79,-17400.465,-29410.425,-50749.515,-25389.54,-26426.43
1764505413.3056092,19781.91,-16773.165,-9711.045,-17397.135,-29407.905,-50746.095,-25386.03,-26423.28
1764505413.3056092,19785.555,-16769.97,-9707.985,-17394.704999999998,-29405.475,-50743.485,-25382.97,-26420.4
1764505413.3056092,19783.665,-16772.13,-9709.155,-17396.415,-29407.005,-50745.96,-25383.96,-26421.975
1764505413.3501587,19781.685,-16773.614999999998,-9711.09,-17397.495,-29407.68,-50747.49,-25385.355,-26423.64
1764505413.350667,19779.705,-16776.54,-9713.61,-17399.7,-29409.705,-50749.47,-25387.965,-26425.845
1764505413.350667,19782.495,-16773.885,-9711.045,-17397.0,-29407.41,-50747.49,-25385.76,-26422.92
1764505413.350667,19779.435,-16776.045,-9713.25,-17399.655,-29409.345,-50749.695,-25388.19,-26425.53
1764505413.350667,19781.685,-16773.12,-9710.325,-17397.045,-29406.42,-50746.815,-25384.815,-26422.74
1764505413.350667,19782.765,-16772.445,-9709.785,-17396.37,-29405.97,-50746.275,-25384.41,-26422.155
1764505413.350667,19781.82,-16773.524999999998,-9710.55,-17397.135,-29406.735,-50747.76,-25385.85,-26422.83
1764505413.350667,19778.67,-16776.63,-9713.745,-17400.42,-29409.93,-50751.045,-25388.82,-26426.115
1764505413.350667,19781.46,-16773.84,-9710.955,-17398.44,-29407.86,-50748.39,-25386.39,-26423.73
1764505413.350667,19777.14,-16778.43,-9714.78,-17402.355,-29412.18,-50752.26,-25389.495,-26426.835
1764505413.350667,19778.985,-16776.315,-9712.17,-17399.745,-29409.525,-50749.155,-25387.155,-26424.63
1764505413.3512197,19776.42,-16779.239999999998,-9714.87,-17401.815,-29412.54,-50751.855,-25389.675,-26426.88
1764505413.3512197,19780.02,-16776.315,-9711.855,-17398.71,-29409.615,-50749.11,-25386.39,-26424.045
1764505413.3512197,19779.39,-16776.0,-9712.44,-17398.8,-29408.715,-50748.975,-25387.2,-26424.27
1764505413.3512197,19776.51,-16779.825,-9716.085,-17402.13,-29412.18,-50752.305,-25390.53,-26427.015
1764505413.3512197,19777.455,-16777.665,-9714.78,-17400.195,-29410.02,-50750.91,-25389.0,-26425.8
1764505413.3512197,19775.655,-16779.69,-9716.76,-17402.22,-29411.865,-50752.62,-25390.98,-26428.23
1764505413.3512197,19780.56,-16775.145,-9712.08,-17398.35,-29407.275,-50747.715,-25385.58,-26423.64
1764505413.3512197,19782.675,-16772.265,-9708.93,-17395.515,-29404.89,-50744.79,-25382.745,-26419.905
1764505413.3512197,19780.245,-16774.155,-9710.865,-17397.225,-29406.24,-50747.175,-25384.14,-26422.11
1764505413.3512197,19778.175,-16776.18,-9713.115,-17398.8,-29408.445,-50748.615,-25385.49,-26424.585
1764505413.3512197,19779.885,-16774.559999999998,-9710.55,-17396.055,-29405.925,-50745.735,-25383.15,-26423.325
1764505413.3989527,19777.455,-16777.44,-9713.79,-17399.61,-29408.94,-50748.93,-25386.615,-26426.025
1764505413.3989527,19777.455,-16777.665,-9714.465,-17400.329999999998,-29409.975,-50749.605,-25387.02,-26426.205
1764505413.3989527,19778.49,-16776.495,-9713.52,-17398.89,-29408.94,-50748.93,-25385.985,-26425.26
1764505413.399959,19778.895,-16776.855,-9712.89,-17398.665,-29408.22,-50748.345,-25385.76,-26424.45
1764505413.399959,19781.865,-16773.795,-9709.695,-17395.559999999998,-29404.08,-50745.33,-25382.565,-26421.12
1764505413.399959,19782.36,-16772.985,-9708.48,-17394.93,-29403.63,-50744.61,-25382.115,-26420.49
1764505413.399959,19781.37,-16772.67,-9708.255,-17394.48,-29403.72,-50744.07,-25381.395,-26420.85
1764505413.399959,19780.38,-16774.425,-9709.74,-17396.325,-29405.07,-50745.825,-25382.565,-26422.425
1764505413.399959,19779.795,-16775.19,-9710.415,-17396.595,-29405.52,-50746.725,-25382.7,-26423.235
1764505413.399959,19777.41,-16778.745,-9713.79,-17399.295,-29408.715,-50749.695,-25385.895,-26426.34
1764505413.399959,19779.03,-16776.72,-9711.63,-17397.855,-29407.14,-50748.12,-25384.545,-26424.72
1764505413.399959,19782.18,-16772.355,-9707.58,-17393.85,-29402.82,-50743.35,-25380.0,-26420.76
1764505413.399959,19782.36,-16773.165,-9707.805,-17394.434999999998,-29402.955,-50744.16,-25380.18,-26420.58
1764505413.399959,19781.145,-16773.704999999998,-9707.85,-17394.39,-29403.18,-50744.25,-25380.765,-26420.94
1764505413.399959,19780.965,-16773.84,-9708.03,-17394.12,-29403.81,-50744.79,-25381.395,-26421.12
1764505413.399959,19780.29,-16774.155,-9708.84,-17394.704999999998,-29404.215,-50745.465,-25381.44,-26421.3
1764505413.399959,19779.795,-16775.1,-9708.885,-17395.515,-29404.845,-50745.87,-25381.665,-26421.48
1764505413.399959,19778.13,-16776.315,-9710.145,-17396.505,-29406.105,-50746.635,-25383.285,-26423.055
1764505413.399959,19776.735,-16776.765,-9710.955,-17397.225,-29407.5,-50748.345,-25383.6,-26423.64
1764505413.399959,19773.045,-16779.329999999998,-9713.565,-17400.059999999998,-29410.425,-50751.405,-25386.48,-26426.745
1764505413.399959,19775.34,-16778.204999999998,-9712.305,-17398.934999999998,-29408.355,-50749.38,-25384.905,-26424.765
1764505413.399959,19772.28,-16781.085,-9715.32,-17402.579999999998,-29411.55,-50752.62,-25388.145,-26427.87
1764505413.399959,19773.54,-16779.825,-9714.51,-17401.77,-29410.335,-50752.215,-25387.245,-26426.745
1764505413.399959,19776.78,-16777.17,-9711.855,-17398.485,-29406.96,-50749.245,-25383.915,-26423.595
1764505413.4009228,19774.26,-16780.23,-9714.51,-17400.87,-29410.065,-50752.17,-25386.255,-26426.16
1764505413.4009228,19774.485,-16779.195,-9713.07,-17399.43,-29409.12,-50751.315,-25385.67,-26424.765
1764505413.443056,19778.22,-16775.37,-9709.515,-17396.235,-29405.79,-50747.22,-25382.475,-26421.345
1764505413.443056,19775.07,-16778.114999999998,-9712.665,-17399.25,-29408.94,-50749.965,-25384.815,-26424.72
1764505413.443056,19777.095,-16776.495,-9711.0,-17397.54,-29407.095,-50747.805,-25382.43,-26422.695
1764505413.443056,19780.065,-16774.29,-9708.12,-17394.524999999998,-29404.485,-50745.375,-25380.27,-26419.95
1764505413.443056,19777.635,-16776.63,-9710.01,-17397.045,-29406.915,-50747.67,-25382.79,-26422.605
1764505413.443056,19779.435,-16774.515,-9708.255,-17395.245,-29404.935,-50746.14,-25380.585,-26419.995
1764505413.443056,19777.41,-16777.26,-9711.135,-17397.855,-29406.915,-50748.165,-25382.34,-26422.695
1764505413.443056,19777.32,-16777.079999999998,-9710.55,-17398.665,-29407.14,-50748.165,-25382.97,-26422.74
1764505413.443056,19778.13,-16776.27,-9709.47,-17398.215,-29406.78,-50747.58,-25381.845,-26421.93
1764505413.443056,19781.64,-16772.489999999998,-9705.915,-17394.39,-29402.46,-50743.665,-25377.57,-26418.51
1764505413.443056,19781.82,-16772.445,-9705.42,-17394.345,-29401.83,-50742.585,-25377.12,-26418.015
1764505413.443056,19777.68,-16775.595,-9709.065,-17397.045,-29405.115,-50745.69,-25380.855,-26420.265
1764505413.4450526,19774.53,-16777.934999999998,-9712.395,-17399.655,-29408.895,-50748.93,-25383.645,-26423.505
1764505413.4450526,19775.115,-16778.024999999998,-9711.63,-17398.98,-29408.4,-50748.57,-25381.98,-26422.785
1764505413.446059,19776.06,-16777.934999999998,-9710.73,-17398.71,-29407.5,-50747.94,-25382.115,-26422.785
1764505413.446059,19776.33,-16778.204999999998,-9710.64,-17398.62,-29407.32,-50747.76,-25381.53,-26422.29
1764505413.446059,19778.445,-16776.045,-9708.93,-17396.864999999998,-29406.33,-50746.41,-25379.415,-26420.445
1764505413.446059,19781.37,-16772.085,-9706.005,-17392.905,-29402.865,-50743.17,-25376.22,-26417.52
1764505413.446059,19780.155,-16773.795,-9707.895,-17395.02,-29404.44,-50744.295,-25377.975,-26419.5
1764505413.446059,19783.215,-16770.915,-9704.565,-17392.59,-29401.92,-50741.235,-25375.005,-26415.945
1764505413.4470575,19782.585,-16771.86,-9705.375,-17393.355,-29402.415,-50742.54,-25376.085,-26417.295
1764505413.4470575,19777.995,-16776.315,-9709.47,-17397.27,-29406.285,-50747.04,-25380.765,-26421.39
1764505413.4908953,19778.04,-16776.54,-9708.3,-17395.47,-29405.52,-50746.32,-25380.36,-26420.4
1764505413.4908953,19780.425,-16773.84,-9706.005,-17393.22,-29403.135,-50743.89,-25377.615,-26417.88
1764505413.4908953,19780.38,-16774.559999999998,-9707.04,-17394.524999999998,-29404.665,-50744.52,-25378.47,-26419.095
1764505413.4914038,19777.545,-16777.35,-9709.47,-17397.36,-29407.005,-50747.895,-25380.675,-26422.02
1764505413.4914038,19774.89,-16780.095,-9712.035,-17400.465,-29409.84,-50750.19,-25383.24,-26423.955
1764505413.4914038,19777.005,-16777.755,-9709.65,-17397.765,-29407.59,-50747.04,-25380.855,-26421.705
1764505413.4914038,19773.855,-16780.815,-9712.395,-17400.42,-29409.93,-50750.235,-25383.555,-26424.945
1764505413.4914038,19775.16,-16779.78,-9711.135,-17399.204999999998,-29407.815,-50749.065,-25381.89,-26423.82
1764505413.4914038,19778.715,-16776.0,-9707.265,-17395.829999999998,-29404.215,-50745.87,-25378.155,-26419.725
1764505413.4914038,19776.105,-16778.43,-9709.83,-17399.25,-29406.825,-50748.57,-25380.72,-26421.84
1764505413.4914038,19774.035,-16780.635,-9712.26,-17401.274999999998,-29409.255,-50750.415,-25382.385,-26423.505
1764505413.4914038,19776.06,-16778.114999999998,-9710.505,-17397.945,-29407.59,-50747.94,-25380.99,-26421.615
1764505413.4914038,19773.765,-16780.815,-9713.565,-17401.14,-29410.29,-50750.325,-25383.87,-26424.18
1764505413.4914038,19774.71,-16780.14,-9712.44,-17399.97,-29409.39,-50749.875,-25382.25,-26423.19
1764505413.4914038,19778.31,-16775.82,-9707.85,-17395.559999999998,-29405.52,-50745.96,-25377.525,-26419.275
1764505413.4914038,19777.77,-16776.495,-9707.715,-17395.695,-29405.745,-50746.14,-25377.75,-26420.265
1764505413.4914038,19774.665,-16780.14,-9711.855,-17399.34,-29409.255,-50749.425,-25381.44,-26424.045
1764505413.4914038,19775.97,-16779.78,-9711.63,-17399.024999999998,-29408.355,-50749.155,-25380.855,-26423.145
1764505413.4914038,19779.3,-16775.73,-9707.22,-17395.29,-29405.295,-50745.195,-25377.525,-26418.555
1764505413.4914038,19775.835,-16779.329999999998,-9710.505,-17398.53,-29408.355,-50749.155,-25380.9,-26422.335
1764505413.4914038,19774.98,-16780.23,-9712.08,-17399.565,-29408.805,-50749.875,-25381.035,-26423.64
1764505413.4914038,19774.8,-16780.5,-9711.27,-17399.295,-29408.355,-50749.875,-25380.585,-26423.64
1764505413.535272,19777.995,-16777.8,-9708.165,-17395.2,-29404.89,-50746.725,-25378.29,-26419.815
1764505413.535272,19778.985,-16777.53,-9707.445,-17394.93,-29405.43,-50746.095,-25378.065,-26419.275
1764505413.535272,19775.835,-16780.32,-9711.36,-17398.755,-29408.265,-50749.155,-25381.08,-26422.335
1764505413.535272,19776.105,-16779.78,-9710.73,-17398.44,-29407.23,-50748.48,-25380.585,-26422.245
1764505413.535272,19776.33,-16779.375,-9710.19,-17397.945,-29406.105,-50747.715,-25379.37,-26421.12
1764505413.535272,19776.825,-16778.565,-9709.38,-17396.64,-29405.655,-50746.905,-25378.335,-26420.49
1764505413.535272,19779.93,-16775.595,-9706.275,-17394.12,-29403.18,-50744.07,-25376.22,-26417.7
1764505413.535272,19778.535,-16776.809999999998,-9707.22,-17394.84,-29404.035,-50745.6,-25377.3,-26418.645
1764505413.535272,19777.635,-16778.114999999998,-9708.66,-17396.055,-29405.115,-50747.265,-25378.065,-26419.95
1764505413.535272,19775.835,-16779.78,-9710.19,-17398.079999999998,-29406.465,-50748.705,-25379.82,-26421.48
1764505413.535272,19780.47,-16775.01,-9705.555,-17393.985,-29402.28,-50744.52,-25375.23,-26416.935
1764505413.535272,19780.56,-16774.875,-9705.465,-17393.985,-29401.92,-50743.89,-25375.005,-26417.385
1764505413.535272,19776.645,-16778.97,-9709.515,-17397.36,-29405.475,-50747.67,-25378.155,-26420.985
1764505413.535272,19776.645,-16779.285,-9709.695,-17397.54,-29405.745,-50746.815,-25378.38,-26421.21
1764505413.535272,19777.995,-16778.07,-9708.525,-17395.739999999998,-29403.81,-50745.6,-25377.21,-26418.78
1764505413.535272,19782.54,-16773.57,-9704.115,-17391.105,-29399.265,-50741.37,-25372.44,-26413.83
1764505413.535272,19783.305,-16772.04,-9702.495,-17390.295,-29398.005,-50740.245,-25371.09,-26413.2
1764505413.535272,19782.135,-16773.3,-9702.99,-17391.105,-29399.445,-50740.965,-25371.945,-26413.83
1764505413.535272,19782.045,-16772.94,-9703.08,-17391.375,-29400.255,-50741.73,-25372.305,-26413.83
1764505413.535272,19783.08,-16772.13,-9702.495,-17390.925,-29399.445,-50741.415,-25371.495,-26413.155
1764505413.5368145,19782.405,-16772.85,-9703.35,-17391.555,-29399.445,-50741.19,-25371.18,-26413.29
1764505413.5368145,19779.975,-16775.595,-9706.095,-17394.075,-29401.695,-50743.305,-25373.43,-26416.215
1764505413.5368145,19782.9,-16772.715,-9703.125,-17391.239999999998,-29398.77,-50741.055,-25371.18,-26413.605
1764505413.5368145,19779.12,-16775.505,-9705.87,-17393.805,-29401.605,-50743.17,-25374.06,-26416.44
1764505413.586076,19779.66,-16775.954999999998,-9706.32,-17393.805,-29402.01,-50743.215,-25374.15,-26416.89
1764505413.586076,19785.105,-16771.05,-9700.92,-17388.315,-29396.52,-50738.94,-25369.29,-26412.39
1764505413.586076,19785.015,-16772.22,-9701.505,-17388.945,-29397.15,-50738.625,-25369.02,-26412.48
1764505413.586076,19783.71,-16773.165,-9702.54,-17389.934999999998,-29398.995,-50739.615,-25370.19,-26413.605
1764505413.586076,19782.72,-16773.795,-9702.99,-17390.61,-29399.535,-50740.245,-25371.18,-26414.37
1764505413.586076,19779.885,-16776.315,-9704.79,-17392.454999999998,-29402.46,-50742.405,-25373.52,-26417.25
1764505413.586076,19782.765,-16773.345,-9702.045,-17389.71,-29399.13,-50739.21,-25370.64,-26414.28
1764505413.586076,19782.18,-16774.065,-9702.27,-17390.07,-29399.4,-50739.345,-25370.865,-26413.965
1764505413.586076,19781.73,-16774.515,-9703.305,-17390.835,-29400.165,-50740.245,-25371.855,-26414.595
1764505413.586076,19778.58,-16777.575,-9706.365,-17394.165,-29403.315,-50743.53,-25375.185,-26418.645
1764505413.586076,19778.445,-16778.745,-9706.455,-17395.065,-29403.54,-50744.565,-25375.995,-26418.915
1764505413.586076,19780.785,-16776.135,-9704.115,-17392.14,-29401.155,-50742.495,-25373.07,-26416.215
1764505413.586076,19784.7,-16772.67,-9700.83,-17389.89,-29397.915,-50738.895,-25369.56,-26412.48
1764505413.586076,19780.83,-16776.36,-9704.205,-17392.86,-29401.065,-50741.28,-25373.295,-26415.63
1764505413.586076,19784.205,-16773.12,-9701.415,-17389.665,-29397.645,-50738.67,-25370.325,-26412.93
1764505413.586076,19783.665,-16773.39,-9702.09,-17390.07,-29398.32,-50739.66,-25370.19,-26413.74
1764505413.586076,19782.36,-16773.3,-9702.72,-17391.329999999998,-29398.545,-50740.29,-25370.82,-26413.785
1764505413.586076,19781.82,-16773.795,-9702.99,-17391.465,-29399.67,-50740.605,-25371.9,-26414.1
1764505413.586076,19779.48,-16776.675,-9706.365,-17393.355,-29402.145,-50743.44,-25374.42,-26416.98
1764505413.586076,19782.36,-16774.47,-9702.72,-17390.024999999998,-29398.68,-50740.425,-25371.63,-26415.09
1764505413.5870953,19781.73,-16775.505,-9702.945,-17391.42,-29399.265,-50740.425,-25371.765,-26415.18
1764505413.5870953,19782.225,-16775.505,-9703.08,-17391.329999999998,-29399.175,-50740.065,-25371.855,-26415.315
1764505413.5870953,19781.01,-16776.27,-9703.845,-17392.14,-29399.31,-50741.19,-25371.945,-26415.72
1764505413.5870953,19776.51,-16780.545,-9708.3,-17396.28,-29403.54,-50746.005,-25375.815,-26420.4
1764505413.6306007,19779.975,-16777.035,-9705.465,-17393.175,-29400.525,-50742.495,-25372.755,-26417.43
1764505413.631143,19780.515,-16776.765,-9705.06,-17393.13,-29399.67,-50741.955,-25372.845,-26416.53
1764505413.631143,19780.38,-16777.485,-9705.195,-17393.805,-29399.445,-50742.315,-25373.43,-26416.935
1764505413.631143,19780.47,-16777.62,-9705.6,-17393.805,-29400.93,-50742.945,-25373.385,-26417.295
1764505413.631143,19777.41,-16780.5,-9708.66,-17397.18,-29403.855,-50746.05,-25376.715,-26420.445
1764505413.631143,19777.005,-16780.635,-9708.66,-17397.765,-29403.855,-50746.14,-25376.4,-26419.905
1764505413.631143,19778.13,-16779.51,-9707.76,-17396.325,-29402.73,-50745.555,-25374.96,-26419.05
1764505413.631143,19779.525,-16778.114999999998,-9706.095,-17394.57,-29401.155,-50743.395,-25373.97,-26417.835
1764505413.631143,19782.495,-16775.145,-9702.99,-17391.465,-29398.095,-50739.93,-25370.91,-26415.135
1764505413.631143,19777.59,-16780.77,-9707.355,-17396.415,-29403.45,-50744.655,-25376.31,-26419.68
1764505413.631143,19777.365,-16780.815,-9707.4,-17396.774999999998,-29403.09,-50744.655,-25375.815,-26419.5
1764505413.631143,19781.775,-16775.864999999998,-9702.495,-17391.239999999998,-29397.87,-50740.155,-25370.82,-26414.775
1764505413.631143,19782.72,-16774.605,-9701.91,-17389.98,-29396.88,-50739.255,-25369.425,-26414.19
1764505413.631143,19781.55,-16776.27,-9703.17,-17391.78,-29398.365,-50740.47,-25370.505,-26414.64
1764505413.631143,19784.88,-16772.489999999998,-9700.11,-17388.27,-29395.575,-50736.555,-25366.95,-26410.995
1764505413.631143,19784.655,-16772.94,-9700.29,-17388.675,-29396.25,-50738.04,-25367.805,-26411.715
1764505413.631143,19781.01,-16777.125,-9704.43,-17393.355,-29400.12,-50742.09,-25371.225,-26415.315
1764505413.631143,19781.595,-16776.045,-9703.8,-17391.69,-29398.32,-50740.38,-25369.29,-26414.415
1764505413.631143,19784.25,-16773.75,-9700.83,-17388.855,-29395.485,-50737.815,-25366.095,-26411.895
1764505413.631143,19780.56,-16777.215,-9704.52,-17392.32,-29400.3,-50742.045,-25370.415,-26416.35
1764505413.631143,19781.955,-16775.91,-9704.25,-17390.97,-29399.805,-50741.19,-25370.145,-26415.0
1764505413.631143,19786.14,-16771.905,-9700.29,-17386.785,-29394.9,-50736.645,-25365.87,-26409.87
1764505413.6321566,19785.735,-16772.04,-9699.705,-17387.325,-29394.765,-50737.095,-25365.78,-26409.33
1764505413.6321566,19783.935,-16774.155,-9701.595,-17388.765,-29396.97,-50739.12,-25367.085,-26411.535
1764505413.68009,19784.025,-16775.64,-9702.63,-17389.395,-29398.32,-50739.795,-25367.895,-26412.705
1764505413.68009,19781.19,-16778.024999999998,-9705.195,-17393.535,-29400.84,-50742.45,-25371.495,-26416.395
1764505413.68009,19780.695,-16778.16,-9705.285,-17394.03,-29401.425,-50742.855,-25371.765,-26416.71
1764505413.68009,19783.395,-16775.28,-9702.945,-17390.655,-29398.77,-50740.245,-25368.615,-26413.065
1764505413.68009,19784.61,-16773.12,-9700.11,-17387.774999999998,-29396.115,-50737.905,-25366.05,-26410.5
1764505413.68009,19780.47,-16777.44,-9704.25,-17392.68,-29400.705,-50741.82,-25370.73,-26415.36
1764505413.68009,19784.295,-16774.38,-9701.145,-17389.62,-29397.42,-50739.345,-25367.49,-26412.345
1764505413.68009,19782.405,-16776.045,-9702.18,-17390.52,-29398.455,-50741.19,-25368.93,-26413.65
1764505413.68009,19779.885,-16779.239999999998,-9704.97,-17392.274999999998,-29400.975,-50743.98,-25371.315,-26415.945
1764505413.68009,19781.28,-16776.63,-9702.27,-17390.07,-29398.41,-50741.235,-25369.155,-26414.055
1764505413.68009,19778.535,-16778.88,-9704.07,-17392.68,-29400.165,-50743.215,-25371.945,-26416.71
1764505413.68009,19779.48,-16778.43,-9703.395,-17392.095,-29399.31,-50742.405,-25370.685,-26415.315
1764505413.68009,19782.36,-16775.954999999998,-9701.19,-17389.62,-29396.835,-50740.02,-25368.03,-26411.625
1764505413.68009,19780.875,-16777.125,-9702.045,-17391.239999999998,-29397.78,-50740.74,-25369.29,-26412.525
1764505413.68009,19784.475,-16773.93,-9698.85,-17388.18,-29393.55,-50737.635,-25365.555,-26409.195
1764505413.68009,19781.055,-16777.89,-9703.305,-17391.51,-29398.005,-50741.415,-25369.605,-26413.11
1764505413.68009,19782.045,-16776.54,-9702.405,-17390.7,-29397.24,-50739.93,-25369.155,-26411.94
1764505413.68009,19785.195,-16773.3,-9698.22,-17387.19,-29393.415,-50736.42,-25364.88,-26408.79
1764505413.68009,19785.195,-16773.66,-9697.365,-17387.19,-29393.505,-50737.095,-25364.97,-26409.195
1764505413.68009,19784.655,-16774.829999999998,-9698.31,-17387.82,-29394.18,-50737.545,-25365.105,-26409.825
1764505413.68009,19781.865,-16777.125,-9701.325,-17390.52,-29397.24,-50740.605,-25367.85,-26412.57
1764505413.68009,19782.54,-16776.18,-9700.515,-17389.17,-29396.97,-50739.93,-25367.49,-26412.39
1764505413.725712,19784.745,-16773.255,-9697.545,-17387.055,-29394.405,-50737.635,-25364.79,-26409.87
1764505413.725712,19785.285,-16773.57,-9697.14,-17387.145,-29394.225,-50737.095,-25364.565,-26409.465
