Timestamp,Channel1,Channel2,Channel3,Channel4,Channel5,Channel6,Channel7,Channel8
1764505723.6746671,18774.45,-21670.785,-8446.23,-16931.565,-29357.235,-48475.44,-24646.995,-25643.25
1764505723.6746671,18764.82,-21675.87,-8447.085,-16918.559999999998,-29344.365,-48460.95,-24644.34,-25647.525
1764505723.6746671,18766.44,-21671.28,-8442.36,-16901.055,-29328.66,-48444.075,-24640.02,-25643.07
1764505723.6746671,18771.435,-21664.08,-8434.44,-16882.739999999998,-29315.745,-48435.84,-24646.455,-25639.02
1764505723.6746671,18763.11,-21671.91,-8440.695,-16876.17,-29308.77,-48425.22,-24636.87,-25641.495
1764505723.6746671,18762.66,-21668.04,-8435.52,-16858.17,-29292.705,-48410.505,-24645.6,-25641.09
1764505723.6746671,18775.395,-21653.19,-8420.13,-16829.1,-29264.04,-48384.72,-24618.735,-25626.825
1764505723.6746671,18758.34,-21670.83,-8437.275,-16827.57,-29257.245,-48369.195,-24595.245,-25634.88
1764505723.6746671,18735.525,-21695.265,-8461.529999999999,-16838.145,-29267.415,-48376.53,-24610.905,-25649.595
1764505723.6746671,18750.24,-21676.635,-8440.335,-16803.855,-29233.935,-48349.08,-24608.52,-25635.24
1764505723.6746671,18754.56,-21668.085,-8434.305,-16784.73,-29214.72,-48332.655,-24609.555,-25633.035
1764505723.6746671,18748.26,-21670.695,-8434.17,-16772.175,-29204.415,-48320.505,-24594.66,-25632.855
1764505723.6746671,18744.21,-21674.925,-8429.895,-16751.34,-29183.04,-48302.37,-24591.42,-25631.955
1764505723.6746671,18761.085,-21657.195,-8416.215,-16724.25,-29154.375,-48279.645,-24586.785,-25618.59
1764505723.6764083,18777.87,-21640.005,-8399.34,-16695.72,-29124.45,-48255.705,-24572.565,-25603.02
1764505723.6764083,18759.735,-21658.5,-8414.324999999999,-16698.96,-29131.92,-48259.71,-24580.08,-25614.72
1764505723.6764083,18749.385,-21668.175,-8419.41,-16685.505,-29114.55,-48243.285,-24584.13,-25621.11
1764505723.6764083,18758.61,-21659.49,-8409.914999999999,-16663.23,-29089.08,-48221.955,-24560.64,-25608.015
1764505723.6764083,18759.15,-21660.39,-8412.48,-16657.155,-29078.505,-48213.045,-24548.94,-25605.09
1764505723.6764083,18765.18,-21653.865,-8410.095,-16645.005,-29060.955,-48201.84,-24556.68,-25601.535
1764505723.6764083,18763.785,-21659.445,-8424.045,-16649.864999999998,-29053.98,-48193.785,-24559.38,-25601.94
1764505723.6764083,18756.36,-21668.445,-8436.96,-16655.579999999998,-29051.82,-48192.165,-24563.79,-25605.045
1764505723.6764083,18756.27,-21665.565,-8426.654999999999,-16630.965,-29027.79,-48176.91,-24564.015,-25601.13
1764505723.6764083,18748.08,-21673.125,-8418.195,-16605.315,-29003.085,-48154.32,-24551.595,-25602.075
1764505723.7207644,18767.25,-21648.69,-8390.025,-16566.93,-28965.375,-48128.715,-24550.785,-25585.695
1764505723.7207644,18780.885,-21629.25,-8364.555,-16521.255,-28924.56,-48103.83,-24567.705,-25580.07
1764505723.7207644,18759.69,-21659.445,-8394.84,-16540.965,-28933.47,-48110.67,-24542.055,-25587.045
1764505723.7207644,18733.905,-21692.655,-8433.765,-16573.77,-28952.19,-48121.065,-24539.94,-25599.78
1764505723.7207644,18737.91,-21688.065,-8431.83,-16566.93,-28936.62,-48109.725,-24557.22,-25600.995
1764505723.7207644,18742.86,-21685.185,-8426.025,-16552.89,-28916.28,-48096.9,-24558.12,-25595.55
1764505723.7207644,18741.555,-21687.165,-8426.654999999999,-16546.14,-28903.68,-48092.355,-24563.97,-25597.8
1764505723.7207644,18741.105,-21687.795,-8425.17,-16538.94,-28883.385,-48080.79,-24568.47,-25597.395
1764505723.7207644,18743.985,-21683.565,-8414.369999999999,-16520.895,-28856.385,-48069.36,-24586.785,-25598.34
1764505723.7207644,18736.47,-21691.71,-8419.23,-16520.895,-28848.87,-48062.925,-24586.38,-25604.685
1764505723.7207644,18733.59,-21701.34,-8430.029999999999,-16524.899999999998,-28848.24,-48063.825,-24560.235,-25600.68
1764505723.7207644,18727.245,-21710.79,-8435.925,-16513.29,-28831.365,-48051.405,-24555.915,-25606.305
1764505723.7207644,18717.84,-21720.825,-8444.52,-16510.905,-28814.535,-48043.44,-24565.995,-25615.845
1764505723.7207644,18720.99,-21718.755,-8444.43,-16509.015,-28799.64,-48038.805,-24568.47,-25616.07
1764505723.7207644,18730.08,-21710.79,-8437.23,-16498.17,-28779.12,-48031.335,-24570.99,-25611.255
1764505723.7207644,18719.46,-21722.94,-8448.164999999999,-16501.23,-28767.33,-48021.705,-24578.955,-25621.245
1764505723.7207644,18711.72,-21729.555,-8453.744999999999,-16498.665,-28749.015,-48008.925,-24583.23,-25629.12
1764505723.7207644,18716.355,-21725.19,-8453.25,-16494.434999999998,-28729.98,-48001.995,-24586.245,-25628.49
1764505723.7207644,18721.665,-21722.67,-8452.44,-16489.079999999998,-28709.64,-47988.72,-24579.405,-25625.79
1764505723.721768,18721.665,-21723.57,-8454.645,-16483.59,-28687.59,-47975.94,-24576.57,-25627.185
1764505723.721768,18728.055,-21713.985,-8442.27,-16470.72,-28657.845,-47959.56,-24570.63,-25623.315
1764505723.721768,18740.43,-21696.57,-8415.765,-16446.149999999998,-28622.925,-47941.83,-24585.795,-25618.545
1764505723.721768,18731.385,-21704.265,-8423.279999999999,-16449.48,-28606.635,-47931.165,-24603.84,-25631.595
1764505723.721768,18689.085,-21755.295,-8479.98,-16500.465,-28630.17,-47935.08,-24563.97,-25655.22
1764505723.7658782,18686.745,-21754.26,-8474.039999999999,-16486.605,-28600.38,-47920.68,-24556.455,-25657.38
1764505723.7658782,18699.03,-21735.855,-8454.645,-16461.989999999998,-28556.145,-47893.545,-24559.425,-25650.315
1764505723.7658782,18696.825,-21735.945,-8458.38,-16468.155,-28540.08,-47888.235,-24562.53,-25655.76
1764505723.7658782,18692.73,-21741.84,-8462.744999999999,-16474.545,-28528.83,-47882.115,-24563.385,-25661.79
1764505723.7658782,18687.15,-21748.275,-8458.92,-16464.239999999998,-28511.73,-47871.99,-24560.415,-25667.325
1764505723.7658782,18681.3,-21751.425,-8461.664999999999,-16461.945,-28495.215,-47866.005,-24563.79,-25675.695
1764505723.7663872,18679.905,-21751.515,-8468.414999999999,-16469.19,-28485.225,-47863.125,-24565.275,-25679.88
1764505723.7663872,18682.56,-21746.34,-8464.68,-16467.66,-28472.94,-47855.34,-24560.37,-25678.665
1764505723.7663872,18678.06,-21747.555,-8464.41,-16468.155,-28462.905,-47849.805,-24558.435,-25682.67
1764505723.7663872,18674.775,-21745.17,-8461.17,-16466.579999999998,-28453.23,-47848.545,-24564.33,-25689.735
1764505723.7663872,18682.695,-21734.685,-8453.34,-16461.63,-28438.515,-47839.995,-24569.19,-25686.225
1764505723.7663872,18673.47,-21744.405,-8466.074999999999,-16476.165,-28437.93,-47836.8,-24554.25,-25691.355
1764505723.7663872,18663.705,-21751.83,-8472.51,-16484.355,-28437.165,-47840.715,-24549.615,-25698.24
1764505723.7663872,18656.37,-21757.86,-8470.845,-16480.035,-28420.605,-47827.575,-24534.045,-25699.05
1764505723.7663872,18666.225,-21745.44,-8464.77,-16481.024999999998,-28417.41,-47825.325,-24529.455,-25691.265
1764505723.7663872,18673.965,-21734.955,-8461.574999999999,-16479.495,-28414.845,-47829.915,-24529.095,-25687.215
1764505723.7663872,18665.505,-21741.435,-8461.125,-16461.495,-28392.885,-47816.415,-24522.165,-25693.11
1764505723.7663872,18666.72,-21733.11,-8447.58,-16451.82,-28386.855,-47822.04,-24506.64,-25689.375
1764505723.7663872,18671.04,-21724.74,-8439.029999999999,-16444.845,-28382.49,-47819.205,-24497.595,-25685.28
1764505723.7663872,18664.425,-21725.505,-8438.805,-16448.94,-28384.83,-47820.6,-24509.43,-25694.28
1764505723.7674046,18661.995,-21726.99,-8439.119999999999,-16451.864999999998,-28383.615,-47821.185,-24500.115,-25692.345
1764505723.7674046,18658.53,-21728.52,-8441.235,-16459.875,-28390.5,-47832.84,-24501.555,-25696.89
1764505723.8109825,18653.535,-21730.185,-8444.789999999999,-16466.895,-28397.115,-47840.445,-24495.345,-25700.67
1764505723.8109825,18646.29,-21736.395,-8450.279999999999,-16474.995,-28403.82,-47845.89,-24483.42,-25702.83
1764505723.8109825,18648.945,-21730.77,-8444.789999999999,-16473.375,-28402.065,-47847.69,-24484.905,-25700.94
1764505723.8109825,18651.96,-21724.155,-8439.3,-16473.735,-28402.065,-47851.875,-24481.98,-25698.78
1764505723.8109825,18654.21,-21718.62,-8433.945,-16471.035,-28400.4,-47853.45,-24474.42,-25694.865
1764505723.8109825,18653.22,-21713.49,-8429.445,-16469.684999999998,-28399.635,-47854.305,-24474.96,-25694.775
1764505723.8109825,18643.635,-21721.275,-8438.805,-16481.745,-28411.38,-47866.365,-24480.855,-25701.48
1764505723.8109825,18640.53,-21721.23,-8438.805,-16486.29,-28417.14,-47874.87,-24481.215,-25701.975
1764505723.8109825,18646.785,-21710.79,-8428.59,-16480.395,-28412.865,-47872.62,-24480.45,-25695.54
1764505723.8109825,18637.65,-21717.945,-8435.744999999999,-16489.845,-28422.405,-47878.11,-24481.125,-25700.4
1764505723.811983,18635.715,-21717.945,-8437.05,-16494.704999999998,-28426.59,-47881.89,-24473.79,-25698.555
1764505723.811983,18635.76,-21714.48,-8433.675,-16495.829999999998,-28428.75,-47886.84,-24471.765,-25697.205
1764505723.811983,18631.17,-21714.84,-8434.845,-16500.465,-28435.32,-47893.455,-24472.395,-25698.87
1764505723.811983,18633.06,-21709.08,-8429.895,-16498.62,-28435.5,-47894.085,-24470.505,-25694.775
1764505723.811983,18637.605,-21700.755,-8423.1,-16494.434999999998,-28432.89,-47892.15,-24466.59,-25687.98
1764505723.811983,18635.355,-21697.965,-8422.605,-16498.395,-28436.625,-47895.3,-24465.6,-25686.72
1764505723.811983,18644.535,-21682.53,-8408.07,-16488.809999999998,-28428.255,-47887.605,-24454.71,-25674.12
1764505723.811983,18647.235,-21675.69,-8399.34,-16482.645,-28424.52,-47887.155,-24453.495,-25666.2
1764505723.811983,18653.76,-21662.82,-8391.42,-16480.755,-28425.915,-47891.97,-24458.13,-25659.27
1764505723.811983,18639.18,-21674.205,-8400.779999999999,-16492.815,-28436.13,-47895.345,-24443.55,-25660.935
1764505723.811983,18629.37,-21681.27,-8405.19,-16497.989999999998,-28440.45,-47893.815,-24440.715,-25663.32
1764505723.811983,18623.61,-21682.08,-8407.305,-16503.075,-28447.515,-47903.535,-24456.105,-25666.92
1764505723.811983,18628.92,-21674.745,-8401.59,-16501.905,-28445.895,-47898.495,-24446.565,-25655.04
1764505723.811983,18637.875,-21659.22,-8386.11,-16492.5,-28440.36,-47891.565,-24442.56,-25643.565
1764505723.8602226,18640.485,-21651.39,-8377.875,-16486.695,-28436.85,-47888.19,-24440.76,-25636.14
1764505723.8602226,18644.985,-21641.535,-8368.199999999999,-16478.415,-28429.47,-47882.16,-24439.095,-25628.715
1764505723.8602226,18659.61,-21619.53,-8346.735,-16462.17,-28415.16,-47871.945,-24436.845,-25615.845
1764505723.8602226,18676.755,-21594.825,-8322.75,-16442.864999999998,-28398.87,-47862.0,-24446.655,-25603.65
1764505723.8602226,18682.56,-21589.155,-8318.34,-16442.37,-28397.79,-47856.51,-24430.14,-25590.24
1764505723.8602226,18667.575,-21607.515,-8335.574999999999,-16462.44,-28414.89,-47864.205,-24401.34,-25589.88
1764505723.8602226,18663.84,-21612.24,-8338.77,-16467.524999999998,-28415.745,-47859.885,-24379.245,-25586.37
1764505723.8602226,18670.545,-21604.005,-8336.205,-16471.89,-28419.705,-47866.005,-24391.98,-25586.955
1764505723.8602226,18681.435,-21591.405,-8324.64,-16466.94,-28416.015,-47865.78,-24394.68,-25581.015
1764505723.8602226,18684.0,-21592.035,-8320.095,-16461.18,-28410.21,-47861.865,-24395.13,-25578.99
1764505723.8602226,18695.61,-21583.44,-8316.09,-16463.745,-28412.415,-47862.99,-24393.375,-25572.735
1764505723.8602226,18709.605,-21571.515,-8301.779999999999,-16454.114999999998,-28404.855,-47855.565,-24382.305,-25562.745
1764505723.8602226,18723.105,-21559.59,-8289.9,-16443.989999999998,-28399.545,-47852.325,-24376.545,-25553.97
1764505723.8602226,18722.745,-21562.245,-8290.755,-16444.89,-28398.24,-47853.63,-24379.56,-25558.74
1764505723.8602226,18728.955,-21566.385,-8298.81,-16463.835,-28409.895,-47860.02,-24376.05,-25559.73
1764505723.8612597,18746.505,-21558.96,-8296.02,-16461.27,-28408.23,-47859.165,-24371.19,-25556.04
1764505723.8612597,18760.68,-21549.915,-8292.465,-16456.095,-28398.69,-47859.93,-24369.705,-25552.89
1764505723.8612597,18763.605,-21546.495,-8297.505,-16469.01,-28412.505,-47873.61,-24371.01,-25554.06
1764505723.8612597,18761.67,-21548.07,-8291.25,-16468.065,-28414.62,-47877.255,-24372.495,-25556.22
1764505723.8612597,18765.765,-21546.09,-8280.18,-16458.165,-28408.005,-47873.115,-24369.075,-25549.695
1764505723.8612597,18766.305,-21553.92,-8288.145,-16465.005,-28416.015,-47874.645,-24364.17,-25547.67
1764505723.8612597,18771.795,-21550.905,-8284.365,-16464.465,-28419.84,-47875.725,-24365.745,-25544.43
1764505723.9040475,18786.195,-21535.29,-8271.045,-16449.885,-28409.355,-47869.605,-24362.415,-25532.37
1764505723.9040475,18790.605,-21529.62,-8266.41,-16444.98,-28401.84,-47866.095,-24364.485,-25528.68
1764505723.9050674,18789.21,-21530.7,-8270.73,-16456.184999999998,-28410.48,-47873.43,-24362.505,-25527.555
1764505723.9050674,18793.98,-21527.325,-8273.97,-16464.195,-28416.96,-47875.185,-24353.055,-25519.86
1764505723.9055965,18795.645,-21525.48,-8264.25,-16450.245,-28403.595,-47863.89,-24348.06,-25513.875
1764505723.9055965,18803.655,-21516.03,-8251.335,-16429.905,-28388.88,-47852.73,-24345.045,-25505.325
1764505723.9055965,18812.79,-21504.195,-8236.395,-16409.204999999998,-28374.885,-47845.395,-24343.875,-25498.395
1764505723.9055965,18823.77,-21490.155,-8225.145,-16400.88,-28368.63,-47841.525,-24343.38,-25488.09
1764505723.9055965,18840.96,-21472.38,-8208.315,-16384.725,-28352.745,-47827.62,-24347.88,-25475.22
1764505723.9055965,18848.97,-21462.48,-8201.205,-16378.83,-28347.165,-47818.98,-24341.805,-25468.155
1764505723.9055965,18822.51,-21491.865,-8234.145,-16412.04,-28376.82,-47833.74,-24324.3,-25482.105
1764505723.9055965,18814.545,-21501.63,-8237.205,-16415.82,-28384.38,-47842.74,-24328.215,-25483.635
1764505723.9055965,18825.66,-21486.33,-8216.865,-16396.245,-28366.92,-47826.81,-24326.955,-25472.88
1764505723.9055965,18833.805,-21474.81,-8212.904999999999,-16394.489999999998,-28366.605,-47820.105,-24326.73,-25467.12
1764505723.9055965,18833.535,-21473.64,-8211.914999999999,-16391.565,-28371.51,-47813.4,-24322.59,-25465.185
1764505723.906674,18832.815,-21472.335,-8200.395,-16361.325,-28344.915,-47790.18,-24317.595,-25462.98
1764505723.906674,18836.145,-21466.71,-8193.779999999999,-16349.805,-28331.505,-47776.005,-24314.04,-25460.01
1764505723.9076896,18841.635,-21457.08,-8184.509999999999,-16345.485,-28328.94,-47768.4,-24307.245,-25456.095
1764505723.9076896,18834.885,-21462.48,-8188.74,-16351.335,-28335.105,-47769.975,-24302.25,-25462.215
1764505723.9076896,18822.015,-21475.755,-8202.6,-16366.23,-28351.44,-47780.28,-24304.005,-25472.295
1764505723.9076896,18816.165,-21480.075,-8203.545,-16363.935,-28349.055,-47772.855,-24298.92,-25476.75
1764505723.9076896,18810.495,-21482.73,-8209.26,-16371.495,-28360.125,-47774.835,-24300.405,-25484.49
1764505723.908683,18810.945,-21482.37,-8210.97,-16364.7,-28356.93,-47768.085,-24300.405,-25486.02
1764505723.908683,18808.605,-21483.18,-8211.285,-16360.605,-28348.605,-47755.44,-24291.45,-25488.315
1764505723.953289,18806.355,-21482.1,-8205.93,-16359.795,-28354.41,-47755.17,-24293.16,-25493.31
1764505723.953289,18779.58,-21511.305,-8236.395,-16386.39,-28384.83,-47771.55,-24301.89,-25515.0
1764505723.953289,18782.82,-21503.925,-8232.525,-16375.77,-28372.41,-47759.265,-24307.155,-25516.215
1764505723.953289,18793.62,-21486.78,-8218.125,-16362.54,-28363.14,-47748.015,-24316.065,-25513.245
1764505723.953289,18787.005,-21491.55,-8220.33,-16364.925,-28368.99,-47746.8,-24308.1,-25517.745
1764505723.953289,18776.52,-21503.655,-8239.365,-16380.225,-28386.27,-47751.84,-24303.555,-25526.43
1764505723.953289,18782.37,-21500.055,-8230.5,-16364.925,-28379.07,-47747.16,-24295.995,-25520.265
1764505723.9543068,18785.52,-21491.46,-8208.18,-16340.985,-28362.915,-47735.64,-24296.265,-25515.765
1764505723.955315,18750.015,-21528.495,-8243.505,-16375.725,-28385.37,-47738.925,-24301.395,-25542.0
1764505723.955315,18764.685,-21512.205,-8237.205,-16374.24,-28384.29,-47734.83,-24292.575,-25530.345
1764505723.955315,18785.565,-21486.33,-8213.58,-16350.345,-28366.47,-47718.18,-24290.91,-25516.395
1764505723.955315,18792.315,-21475.305,-8197.605,-16331.445,-28353.105,-47703.195,-24290.1,-25511.58
1764505723.9563258,18789.255,-21480.12,-8195.445,-16321.32,-28345.77,-47691.72,-24282.945,-25510.05
1764505723.9563258,18806.58,-21462.12,-8182.889999999999,-16309.215,-28341.54,-47695.185,-24277.275,-25494.93
1764505723.9573328,18809.055,-21459.24,-8180.865,-16303.365,-28334.655,-47678.04,-24265.08,-25490.745
1764505723.9573328,18811.485,-21457.89,-8182.62,-16306.785,-28337.805,-47666.115,-24251.13,-25485.3
1764505723.9583416,18825.705,-21441.375,-8162.955,-16287.12,-28327.635,-47655.225,-24249.78,-25474.23
1764505723.9583416,18832.815,-21433.68,-8151.705,-16269.39,-28309.86,-47639.205,-24240.555,-25467.21
1764505723.959332,18840.555,-21424.095,-8145.405,-16261.02,-28299.105,-47629.62,-24235.38,-25460.73
1764505723.959332,18845.82,-21418.47,-8143.38,-16259.715,-28295.37,-47623.545,-24231.735,-25456.455
1764505723.959332,18849.735,-21413.835,-8138.79,-16254.27,-28293.345,-47619.27,-24229.98,-25452.45
1764505723.959332,18851.805,-21410.46,-8132.04,-16246.485,-28292.49,-47614.095,-24228.72,-25449.57
1764505724.001004,18862.605,-21399.255,-8123.174999999999,-16238.79,-28290.51,-47606.58,-24222.735,-25440.255
1764505724.001004,18866.52,-21396.42,-8119.755,-16234.74,-28289.025,-47599.515,-24221.205,-25435.215
1764505724.001004,18867.555,-21395.115,-8117.415,-16228.845,-28280.88,-47590.245,-24221.745,-25433.055
1764505724.001004,18876.51,-21384.72,-8106.165,-16214.175,-28269.0,-47578.635,-24216.66,-25425.225
1764505724.001004,18884.655,-21375.585,-8096.445,-16207.335,-28265.49,-47571.075,-24212.07,-25417.08
1764505724.001004,18888.705,-21370.545,-8090.19,-16201.26,-28264.275,-47565.99,-24216.3,-25413.795
1764505724.0020072,18895.23,-21363.885,-8085.014999999999,-16194.33,-28259.46,-47557.62,-24213.645,-25405.92
1764505724.0020072,18897.795,-21362.355,-8084.025,-16192.08,-28259.145,-47552.31,-24206.175,-25400.07
1764505724.0020072,18909.72,-21351.375,-8074.125,-16183.125,-28253.295,-47542.68,-24202.44,-25389.45
1764505724.0020072,18913.32,-21347.19,-8071.695,-16180.02,-28252.62,-47540.295,-24202.89,-25388.1
1764505724.0020072,18913.815,-21348.315,-8073.179999999999,-16181.73,-28256.13,-47540.115,-24198.165,-25386.255
1764505724.0020072,18921.105,-21340.215,-8065.575,-16174.44,-28253.7,-47534.04,-24197.4,-25380.495
1764505724.0020072,18925.02,-21335.58,-8061.12,-16165.8,-28249.11,-47530.215,-24198.075,-25378.065
1764505724.0020072,18924.165,-21335.445,-8058.465,-16158.87,-28245.285,-47525.67,-24198.93,-25379.01
1764505724.0020072,18916.2,-21346.38,-8066.79,-16164.54,-28251.855,-47527.56,-24205.86,-25384.95
1764505724.0020072,18925.695,-21336.885,-8060.355,-16162.515,-28253.565,-47530.98,-24212.565,-25379.73
1764505724.0020072,18932.94,-21328.695,-8051.219999999999,-16155.09,-28248.885,-47526.03,-24206.265,-25370.73
1764505724.0020072,18938.16,-21322.755,-8043.434999999999,-16146.27,-28243.755,-47519.82,-24211.845,-25367.85
1764505724.0020072,18935.19,-21327.255,-8050.815,-16155.495,-28253.43,-47523.78,-24208.29,-25368.93
1764505724.0020072,18924.885,-21343.23,-8070.615,-16177.995,-28275.255,-47536.11,-24193.98,-25370.505
1764505724.0020072,18930.69,-21334.005,-8058.915,-16168.23,-28271.43,-47534.265,-24205.365,-25369.155
1764505724.0020072,18929.025,-21337.92,-8060.219999999999,-16160.715,-28263.33,-47528.775,-24208.02,-25368.705
1764505724.0030077,18940.185,-21325.455,-8056.394999999999,-16159.365,-28265.535,-47530.575,-24215.49,-25363.125
1764505724.0030077,18946.485,-21317.58,-8045.009999999999,-16148.295,-28261.08,-47527.245,-24227.91,-25360.83
1764505724.0478992,18976.365,-21281.715,-8005.59,-16107.075,-28228.545,-47507.265,-24242.175,-25343.865
1764505724.0478992,18982.935,-21279.06,-8016.84,-16123.68,-28242.495,-47507.805,-24202.89,-25330.635
1764505724.0488908,18931.725,-21342.33,-8078.535,-16185.915,-28300.365,-47543.4,-24193.755,-25359.705
1764505724.0488908,18919.26,-21356.28,-8074.08,-16173.36,-28290.555,-47537.82,-24219.0,-25374.105
1764505724.0488908,18927.855,-21346.065,-8064.585,-16168.275,-28302.255,-47542.455,-24223.905,-25370.82
1764505724.0488908,18935.775,-21336.615,-8054.28,-16160.445,-28307.115,-47541.195,-24222.645,-25365.465
1764505724.0488908,18938.43,-21332.745,-8051.67,-16158.33,-28303.605,-47538.63,-24223.14,-25363.53
1764505724.0499134,18940.275,-21330.72,-8052.795,-16162.065,-28288.755,-47531.7,-24224.67,-25363.53
1764505724.0499134,18956.925,-21315.105,-8041.32,-16151.94,-28273.095,-47529.63,-24217.965,-25349.31
1764505724.0499134,18954.72,-21318.03,-8045.19,-16152.48,-28273.68,-47534.895,-24224.445,-25351.47
1764505724.0499134,18940.68,-21335.265,-8063.099999999999,-16174.98,-28304.055,-47551.185,-24221.07,-25361.055
1764505724.050912,18942.48,-21332.34,-8060.58,-16174.62,-28316.34,-47552.85,-24226.92,-25361.415
1764505724.050912,18947.565,-21323.34,-8048.745,-16157.97,-28297.53,-47544.84,-24232.86,-25360.29
1764505724.050912,18948.42,-21320.37,-8040.87,-16152.57,-28291.32,-47540.79,-24226.47,-25358.4
1764505724.0519245,18939.465,-21332.25,-8056.215,-16170.39,-28311.48,-47553.12,-24220.62,-25363.395
1764505724.0519245,18935.91,-21337.515,-8065.035,-16184.025,-28325.34,-47563.38,-24221.835,-25365.24
1764505724.0519245,18936.405,-21336.435,-8065.304999999999,-16187.985,-28332.225,-47570.535,-24228.81,-25367.13
1764505724.0519245,18934.92,-21337.515,-8066.79,-16186.14,-28330.92,-47569.68,-24228.99,-25368.39
1764505724.0519245,18935.82,-21335.58,-8069.985,-16189.515,-28337.04,-47577.105,-24232.725,-25368.66
1764505724.0519245,18928.125,-21343.005,-8074.934999999999,-16195.59,-28344.825,-47584.035,-24237.495,-25374.285
1764505724.0519245,18926.91,-21340.08,-8064.855,-16191.99,-28347.03,-47585.025,-24241.995,-25375.59
1764505724.0519245,18927.9,-21337.425,-8070.12,-16203.105,-28357.2,-47590.2,-24238.44,-25374.33
1764505724.0519245,18927.495,-21342.465,-8078.174999999999,-16204.23,-28356.255,-47590.65,-24223.815,-25370.145
1764505724.0519245,18921.555,-21348.675,-8090.73,-16212.15,-28364.715,-47596.41,-24223.59,-25374.87
1764505724.0919976,18916.335,-21350.34,-8081.955,-16202.16,-28364.4,-47600.685,-24227.955,-25377.75
1764505724.0919976,18925.56,-21336.48,-8056.125,-16181.64,-28354.185,-47595.825,-24225.705,-25371.0
1764505724.0919976,18924.75,-21335.04,-8055.855,-16183.035,-28354.68,-47594.655,-24214.275,-25370.55
1764505724.0919976,18912.96,-21344.715,-8068.455,-16196.895,-28367.505,-47609.82,-24221.385,-25380.0
1764505724.0919976,18911.565,-21344.58,-8068.545,-16196.895,-28367.325,-47614.41,-24224.355,-25379.505
1764505724.0919976,18910.845,-21343.815,-8064.54,-16192.755,-28367.37,-47610.405,-24221.385,-25377.795
1764505724.0919976,18905.13,-21346.605,-8070.84,-16205.04,-28387.17,-47624.49,-24222.105,-25382.16
1764505724.0919976,18895.77,-21355.695,-8080.514999999999,-16209.27,-28397.295,-47634.345,-24213.915,-25387.335
1764505724.0919976,18912.105,-21336.03,-8060.804999999999,-16186.32,-28375.29,-47623.635,-24205.77,-25372.665
1764505724.0919976,18905.67,-21340.62,-8060.535,-16183.98,-28372.59,-47622.735,-24206.13,-25376.49
1764505724.0919976,18884.025,-21360.06,-8083.844999999999,-16207.695,-28397.025,-47642.22,-24207.12,-25393.14
1764505724.093643,18881.19,-21361.635,-8087.625,-16213.32,-28405.62,-47651.94,-24204.825,-25393.995
1764505724.093643,18886.635,-21354.705,-8078.804999999999,-16204.5,-28399.5,-47649.105,-24193.755,-25387.38
1764505724.093643,18885.105,-21354.795,-8080.875,-16209.405,-28406.43,-47657.7,-24191.145,-25388.73
1764505724.093643,18886.86,-21348.81,-8076.69,-16207.425,-28407.15,-47662.02,-24188.715,-25386.795
1764505724.093643,18886.32,-21343.365,-8070.389999999999,-16200.135,-28403.19,-47662.155,-24189.615,-25388.415
1764505724.093643,18896.355,-21327.435,-8056.755,-16189.29,-28395.945,-47660.355,-24187.905,-25380.855
1764505724.093643,18883.17,-21343.455,-8074.755,-16207.92,-28416.42,-47675.115,-24172.2,-25383.105
1764505724.093643,18856.665,-21371.985,-8099.549999999999,-16229.745,-28439.64,-47694.42,-24185.52,-25403.04
1764505724.093643,18849.42,-21376.62,-8102.61,-16232.49,-28441.485,-47697.345,-24189.48,-25409.925
1764505724.093643,18857.925,-21362.445,-8092.98,-16227.63,-28437.57,-47696.94,-24187.995,-25403.13
1764505724.0941956,18857.745,-21359.385,-8090.865,-16226.82,-28438.92,-47706.12,-24193.755,-25404.21
1764505724.0941956,18839.115,-21378.96,-8109.764999999999,-16243.965,-28455.57,-47719.53,-24186.825,-25417.035
1764505724.0941956,18818.19,-21400.92,-8134.155,-16271.19,-28485.09,-47745.675,-24181.29,-25430.895
1764505724.1419165,18814.14,-21400.785,-8131.094999999999,-16266.42,-28492.515,-47755.935,-24192.495,-25436.97
1764505724.1419165,18805.59,-21407.76,-8134.514999999999,-16265.88,-28491.795,-47760.57,-24198.165,-25443.72
1764505724.1419165,18799.74,-21411.315,-8137.394999999999,-16270.875,-28496.565,-47768.805,-24203.34,-25448.49
1764505724.1419165,18790.605,-21416.58,-8146.08,-16281.54,-28509.93,-47785.455,-24217.65,-25459.56
1764505724.1419165,18774.63,-21432.555,-8164.08,-16300.17,-28531.98,-47805.345,-24216.75,-25471.755
1764505724.1419165,18757.935,-21451.95,-8180.415,-16315.605,-28548.675,-47821.32,-24215.175,-25482.465
1764505724.1419165,18743.13,-21465.405,-8190.179999999999,-16326.945,-28561.725,-47833.11,-24218.415,-25495.875
1764505724.143429,18734.58,-21473.145,-8199.765,-16336.755,-28573.92,-47847.915,-24234.84,-25506.54
1764505724.143429,18719.235,-21489.525,-8214.795,-16351.74,-28591.965,-47865.96,-24244.11,-25518.78
1764505724.143429,18713.43,-21494.745,-8217.449999999999,-16354.44,-28597.14,-47873.25,-24245.055,-25523.235
1764505724.143429,18707.085,-21501.315,-8226.945,-16364.205,-28608.3,-47884.815,-24250.275,-25530.84
1764505724.143429,18696.42,-21512.295,-8239.23,-16377.21,-28624.05,-47905.155,-24269.355,-25543.62
1764505724.1444428,18686.7,-21523.14,-8252.505,-16392.69,-28639.395,-47918.385,-24266.295,-25549.47
1764505724.1444428,18672.03,-21541.05,-8267.445,-16406.774999999998,-28652.04,-47923.695,-24257.475,-25557.75
1764505724.1444428,18660.78,-21553.47,-8278.965,-16419.059999999998,-28671.84,-47947.995,-24273.63,-25572.06
1764505724.1444428,18655.11,-21560.22,-8285.895,-16424.145,-28677.375,-47956.68,-24276.195,-25577.19
1764505724.1444428,18652.005,-21563.955,-8289.539999999999,-16427.204999999998,-28679.04,-47957.94,-24276.33,-25580.565
1764505724.1444428,18648.36,-21567.915,-8294.895,-16433.01,-28687.815,-47969.19,-24284.79,-25585.785
1764505724.1444428,18643.77,-21574.125,-8301.465,-16440.614999999998,-28699.425,-47979.9,-24289.74,-25590.645
1764505724.1444428,18642.42,-21577.32,-8304.119999999999,-16444.035,-28707.795,-47985.75,-24287.985,-25591.185
1764505724.1444428,18643.05,-21578.04,-8305.515,-16444.934999999998,-28706.355,-47986.38,-24286.32,-25590.87
1764505724.1444428,18643.77,-21577.59,-8304.615,-16442.595,-28698.21,-47982.69,-24284.025,-25589.565
1764505724.145443,18646.605,-21576.015,-8303.49,-16441.965,-28695.285,-47981.835,-24281.865,-25586.865
1764505724.145443,18643.77,-21580.74,-8308.35,-16447.815,-28705.77,-47990.205,-24286.095,-25589.97
1764505724.1893797,18645.525,-21579.525,-8307.404999999999,-16447.905,-28707.84,-47992.23,-24287.85,-25588.395
1764505724.1893797,18658.035,-21565.485,-8294.22,-16433.64,-28696.32,-47984.895,-24287.13,-25580.295
1764505724.1893797,18657.9,-21567.33,-8296.92,-16435.665,-28699.065,-47987.55,-24288.93,-25580.655
1764505724.1903603,18638.91,-21591.405,-8322.074999999999,-16462.26,-28720.665,-48004.515,-24292.44,-25592.04
1764505724.1903603,18642.915,-21587.94,-8318.385,-16459.739999999998,-28716.885,-48002.715,-24291.9,-25589.16
1764505724.1903603,18647.1,-21584.97,-8315.775,-16459.965,-28719.54,-48006.9,-24284.655,-25585.065
1764505724.1903603,18652.365,-21577.68,-8308.17,-16454.07,-28718.865,-48006.0,-24292.395,-25584.03
1764505724.1903603,18646.245,-21583.665,-8316.09,-16459.965,-28726.245,-48013.65,-24289.38,-25585.965
1764505724.1903603,18632.07,-21601.35,-8332.38,-16476.03,-28737.855,-48022.695,-24293.88,-25596.54
1764505724.1903603,18617.04,-21619.17,-8347.86,-16490.07,-28751.175,-48037.275,-24313.905,-25610.58
1764505724.1903603,18622.395,-21611.835,-8343.855,-16489.035,-28752.255,-48042.09,-24320.655,-25609.095
1764505724.1903603,18611.595,-21621.06,-8351.685,-16495.155,-28757.52,-48050.865,-24332.895,-25621.02
1764505724.1903603,18593.28,-21645.945,-8377.02,-16519.32,-28776.6,-48069.9,-24344.865,-25634.115
1764505724.1903603,18592.38,-21648.33,-8383.32,-16530.39,-28790.64,-48082.815,-24345.63,-25634.295
1764505724.1903603,18573.615,-21667.14,-8399.43,-16548.795,-28812.78,-48100.905,-24352.065,-25650.63
1764505724.1903603,18557.64,-21681.18,-8410.095,-16557.03,-28824.48,-48111.75,-24364.215,-25665.21
1764505724.1903603,18553.59,-21684.87,-8415.539999999999,-16560.18,-28822.275,-48117.33,-24368.58,-25669.71
1764505724.1903603,18547.605,-21690.99,-8426.97,-16579.215,-28844.82,-48138.255,-24375.78,-25678.35
1764505724.1903603,18532.89,-21706.83,-8448.345,-16608.69,-28867.815,-48161.385,-24390.135,-25693.47
1764505724.1908674,18507.105,-21733.47,-8469.99,-16627.59,-28884.87,-48181.545,-24409.26,-25715.745
1764505724.1908674,18485.1,-21759.03,-8491.41,-16649.28,-28915.425,-48206.835,-24423.75,-25737.03
1764505724.1908674,18460.26,-21784.455,-8516.16,-16668.225,-28947.06,-48237.93,-24439.59,-25759.8
1764505724.235744,18442.44,-21800.97,-8527.275,-16662.645,-28933.155,-48234.555,-24444.0,-25775.19
1764505724.235744,18424.665,-21816.855,-8541.539999999999,-16678.305,-28934.595,-48245.715,-24464.61,-25794.855
1764505724.235744,18393.75,-21849.345,-8579.654999999999,-16722.27,-28980.315,-48289.815,-24496.335,-25825.545
1764505724.236743,18362.205,-21879.855,-8615.654999999999,-16764.21,-29027.52,-48331.17,-24521.76,-25856.865
1764505724.236743,18338.22,-21903.66,-8632.529999999999,-16778.925,-29047.095,-48351.285,-24544.08,-25881.12
1764505724.236743,18325.485,-21915.99,-8643.015,-16785.54,-29054.475,-48363.165,-24558.165,-25893.72
1764505724.236743,18319.68,-21924.18,-8652.105,-16797.239999999998,-29068.155,-48377.97,-24554.07,-25896.24
1764505724.236743,18303.075,-21942.09,-8671.095,-16817.67,-29085.75,-48393.045,-24565.23,-25911.27
1764505724.236743,18289.305,-21957.615,-8689.68,-16836.434999999998,-29101.59,-48399.075,-24577.245,-25922.565
1764505724.236743,18299.115,-21944.295,-8678.789999999999,-16827.57,-29097.27,-48402.405,-24584.805,-25916.67
1764505724.236743,18302.58,-21938.49,-8668.395,-16816.59,-29086.245,-48396.645,-24576.615,-25910.505
1764505724.236743,18317.205,-21923.865,-8654.445,-16804.62,-29073.015,-48382.2,-24560.1,-25893.945
1764505724.236743,18332.055,-21906.63,-8638.244999999999,-16790.309999999998,-29066.265,-48369.825,-24552.0,-25879.05
1764505724.236743,18344.07,-21892.41,-8624.205,-16773.345,-29047.41,-48353.175,-24542.415,-25863.975
1764505724.236743,18355.275,-21882.195,-8614.845,-16763.085,-29031.93,-48341.07,-24535.89,-25850.835
1764505724.2377398,18368.55,-21866.58,-8600.535,-16751.385,-29019.195,-48329.415,-24532.245,-25838.325
1764505724.2377398,18388.35,-21841.29,-8575.875,-16732.845,-29005.965,-48313.215,-24521.04,-25818.705
1764505724.2377398,18417.51,-21807.99,-8538.975,-16693.92,-28984.95,-48291.57,-24517.845,-25792.425
1764505724.2377398,18443.295,-21775.59,-8503.154999999999,-16651.755,-28941.93,-48258.27,-24509.43,-25771.14
1764505724.2377398,18415.935,-21808.845,-8536.5,-16684.335,-28966.275,-48265.065,-24463.98,-25777.575
1764505724.2377398,18425.205,-21800.205,-8533.35,-16684.2,-28965.195,-48261.375,-24446.07,-25760.115
1764505724.2377398,18444.96,-21774.015,-8506.215,-16659.27,-28942.2,-48243.33,-24449.22,-25742.88
1764505724.2387328,18463.86,-21748.59,-8482.994999999999,-16638.704999999998,-28924.29,-48227.715,-24452.64,-25728.57
1764505724.2387328,18466.02,-21742.965,-8477.64,-16635.555,-28920.015,-48214.485,-24431.895,-25722.81
1764505724.2835183,18471.915,-21736.935,-8472.33,-16631.64,-28919.43,-48211.515,-24418.395,-25709.67
1764505724.2835183,18479.655,-21723.705,-8456.94,-16612.92,-28905.39,-48201.39,-24415.245,-25699.545
1764505724.2835183,18474.975,-21724.605,-8457.029999999999,-16609.905,-28901.7,-48200.13,-24416.19,-25701.795
1764505724.2835183,18473.13,-21721.5,-8453.52,-16604.415,-28893.96,-48193.47,-24413.895,-25700.715
1764505724.2835183,18483.885,-21701.97,-8435.205,-16591.364999999998,-28883.925,-48184.065,-24413.805,-25690.41
1764505724.2835183,18490.41,-21689.73,-8424.404999999999,-16582.86,-28878.39,-48178.305,-24400.845,-25679.565
1764505724.2835183,18491.445,-21683.07,-8414.055,-16570.845,-28868.085,-48166.515,-24385.815,-25671.825
1764505724.2835183,18492.345,-21675.42,-8410.5,-16571.7,-28868.085,-48164.31,-24380.505,-25667.415
1764505724.2846055,18493.515,-21669.705,-8408.07,-16574.04,-28867.68,-48162.33,-24378.885,-25662.6
1764505724.2846055,18502.47,-21652.74,-8391.465,-16562.07,-28856.79,-48156.705,-24377.49,-25653.24
1764505724.2846055,18536.085,-21607.155,-8347.545,-16523.325,-28827.54,-48138.12,-24363.27,-25623.81
1764505724.2846055,18539.01,-21600.765,-8337.869999999999,-16509.329999999998,-28813.23,-48119.85,-24337.89,-25611.93
1764505724.2846055,18488.655,-21650.085,-8385.39,-16554.465,-28853.19,-48142.44,-24346.08,-25646.895
1764505724.2846055,18486.81,-21645.405,-8386.785,-16557.48,-28857.42,-48152.655,-24361.92,-25649.1
1764505724.2846055,18497.655,-21629.115,-8375.039999999999,-16551.989999999998,-28839.87,-48143.61,-24352.56,-25634.88
1764505724.2846055,18486.675,-21630.96,-8373.105,-16555.184999999998,-28842.345,-48141.63,-24355.62,-25641.225
1764505724.2846055,18491.085,-21615.255,-8351.595,-16537.005,-28855.305,-48145.86,-24351.57,-25640.685
1764505724.2855923,18496.26,-21602.16,-8339.94,-16506.989999999998,-28845.18,-48137.94,-24350.715,-25646.895
1764505724.2855923,18481.05,-21608.91,-8343.449999999999,-16491.645,-28829.475,-48143.07,-24350.895,-25665.345
1764505724.2855923,18447.84,-21631.32,-8366.265,-16513.29,-28848.915,-48160.935,-24338.34,-25680.375
1764505724.2855923,18442.98,-21627.495,-8373.824999999999,-16533.54,-28870.83,-48173.67,-24337.395,-25670.43
1764505724.2855923,18454.77,-21615.39,-8361.135,-16523.505,-28863.09,-48167.955,-24339.555,-25656.975
1764505724.3264115,18464.76,-21607.965,-8351.324999999999,-16511.985,-28851.525,-48164.67,-24342.255,-25654.095
1764505724.3264115,18473.805,-21599.37,-8337.51,-16495.965,-28832.58,-48154.005,-24336.27,-25649.73
1764505724.3264115,18467.595,-21610.89,-8352.99,-16511.805,-28847.115,-48164.715,-24320.295,-25647.795
1764505724.3264115,18461.97,-21617.865,-8367.074999999999,-16527.87,-28865.565,-48181.68,-24328.44,-25653.195
1764505724.328426,18464.13,-21616.38,-8371.305,-16535.295,-28870.92,-48191.445,-24335.235,-25653.06
1764505724.328426,18463.545,-21618.54,-8372.025,-16539.57,-28874.07,-48195.9,-24343.29,-25655.67
1764505724.328426,18457.83,-21629.43,-8379.045,-16551.63,-28882.215,-48190.86,-24324.795,-25657.29
1764505724.328426,18449.685,-21641.58,-8386.785,-16548.57,-28880.865,-48193.785,-24333.84,-25666.605
1764505724.328426,18461.07,-21630.195,-8372.565,-16527.329999999998,-28864.89,-48192.21,-24339.375,-25661.97
1764505724.328426,18458.145,-21638.79,-8387.64,-16552.665,-28886.76,-48207.78,-24342.255,-25664.355
1764505724.328426,18465.255,-21637.485,-8393.625,-16567.335,-28903.635,-48221.685,-24346.98,-25659.54
1764505724.328426,18475.65,-21629.07,-8390.744999999999,-16570.305,-28908.54,-48228.255,-24353.685,-25653.42
1764505724.328426,18483.435,-21624.57,-8387.955,-16565.535,-28903.77,-48223.395,-24343.38,-25644.555
1764505724.328426,18494.46,-21610.26,-8369.91,-16537.364999999998,-28880.055,-48214.845,-24361.245,-25641.09
1764505724.328426,18509.985,-21593.97,-8356.59,-16530.57,-28878.21,-48219.93,-24376.14,-25634.655
1764505724.328426,18489.87,-21623.985,-8383.275,-16550.415,-28894.275,-48225.33,-24354.405,-25642.44
1764505724.328426,18481.095,-21633.345,-8388.0,-16545.42,-28889.19,-48230.685,-24388.65,-25658.595
1764505724.328426,18497.205,-21622.32,-8378.145,-16537.23,-28880.1,-48219.975,-24369.48,-25641.045
1764505724.328426,18496.26,-21627.81,-8385.119999999999,-16547.94,-28892.88,-48231.27,-24377.895,-25643.43
1764505724.328426,18503.01,-21619.35,-8372.654999999999,-16534.215,-28887.345,-48229.155,-24387.345,-25642.845
1764505724.3294258,18523.35,-21600.63,-8356.815,-16518.42,-28871.28,-48214.665,-24392.34,-25632.765
1764505724.3294258,18516.735,-21611.655,-8368.74,-16530.434999999998,-28870.38,-48218.49,-24389.19,-25635.87
1764505724.3294258,18515.43,-21619.305,-8379.09,-16546.095,-28877.985,-48219.84,-24375.555,-25630.155
1764505724.3294258,18524.205,-21613.995,-8378.91,-16555.635,-28901.745,-48233.835,-24368.805,-25622.1
1764505724.373746,18535.545,-21601.935,-8361.63,-16532.954999999998,-28891.62,-48223.08,-24371.37,-25615.53
1764505724.373746,18550.665,-21586.5,-8336.744999999999,-16491.6,-28846.485,-48187.575,-24363.225,-25603.695
1764505724.373746,18530.505,-21612.24,-8362.08,-16514.73,-28865.655,-48205.62,-24373.305,-25620.795
1764505724.373746,18522.585,-21623.355,-8375.4,-16533.135,-28881.945,-48219.3,-24380.145,-25628.31
1764505724.373746,18534.105,-21612.78,-8367.029999999999,-16529.13,-28874.34,-48213.315,-24378.03,-25619.175
1764505724.373746,18543.195,-21603.42,-8357.175,-16518.69,-28863.315,-48204.315,-24373.17,-25611.12
1764505724.373746,18550.71,-21598.38,-8351.414999999999,-16511.175,-28856.205,-48198.735,-24370.56,-25605.09
1764505724.373746,18554.04,-21598.065,-8349.93,-16509.42,-28853.415,-48195.36,-24368.265,-25601.49
1764505724.373746,18555.21,-21600.27,-8351.64,-16512.255,-28854.99,-48193.335,-24362.73,-25597.8
1764505724.373746,18560.61,-21596.265,-8349.39,-16509.645,-28852.29,-48191.58,-24364.215,-25593.57
1764505724.373746,18567.18,-21589.605,-8343.765,-16507.395,-28850.175,-48189.78,-24365.34,-25588.62
1764505724.373746,18566.46,-21592.44,-8341.74,-16504.515,-28846.935,-48185.37,-24362.595,-25586.055
1764505724.373746,18568.665,-21591.99,-8341.605,-16505.145,-28848.015,-48187.17,-24370.29,-25584.39
1764505724.373746,18570.825,-21591.72,-8343.09,-16508.07,-28851.03,-48190.95,-24371.505,-25581.42
1764505724.373746,18576.315,-21589.02,-8346.33,-16511.895,-28853.19,-48189.465,-24364.755,-25572.735
1764505724.374761,18576.405,-21587.13,-8341.83,-16507.079999999998,-28846.98,-48183.165,-24367.185,-25570.575
1764505724.374761,18581.175,-21581.28,-8330.22,-16496.954999999998,-28842.12,-48176.415,-24363.045,-25562.79
1764505724.374761,18580.32,-21581.865,-8329.904999999999,-16493.04,-28836.72,-48171.915,-24359.49,-25560.45
1764505724.376242,18600.12,-21559.05,-8306.235,-16467.614999999998,-28807.875,-48152.25,-24338.43,-25540.92
1764505724.376242,18589.905,-21573.315,-8323.695,-16487.325,-28809.675,-48157.965,-24349.365,-25545.735
1764505724.376242,18580.905,-21586.32,-8342.369999999999,-16517.565,-28828.215,-48170.925,-24362.415,-25550.37
1764505724.376242,18588.06,-21577.185,-8333.82,-16519.05,-28841.67,-48175.38,-24367.635,-25545.555
1764505724.376242,18594.9,-21568.275,-8319.869999999999,-16498.71,-28844.505,-48168.405,-24368.58,-25540.875
1764505724.376242,18593.325,-21570.705,-8314.425,-16469.55,-28812.105,-48151.98,-24351.48,-25537.59
1764505724.4234684,18606.735,-21556.755,-8297.73,-16447.995,-28783.665,-48135.33,-24340.005,-25524.225
1764505724.4234684,18619.515,-21541.95,-8283.285,-16439.355,-28776.78,-48127.995,-24341.535,-25514.91
1764505724.4234684,18620.865,-21541.5,-8283.33,-16442.055,-28777.14,-48125.88,-24327.54,-25508.88
1764505724.4234684,18624.87,-21538.62,-8281.08,-16444.89,-28774.08,-48123.9,-24320.205,-25502.355
1764505724.4234684,18633.915,-21529.62,-8272.619999999999,-16441.695,-28766.97,-48115.305,-24320.295,-25495.92
1764505724.4234684,18640.98,-21522.105,-8266.59,-16437.87,-28762.29,-48111.165,-24321.42,-25490.97
1764505724.4234684,18646.65,-21517.29,-8262.855,-16433.415,-28760.355,-48107.295,-24316.245,-25484.895
1764505724.4234684,18654.255,-21509.955,-8252.19,-16415.954999999998,-28744.515,-48096.315,-24312.06,-25476.84
1764505724.4234684,18658.8,-21504.015,-8242.65,-16407.27,-28738.395,-48094.74,-24309.765,-25471.98
1764505724.4234684,18676.71,-21485.07,-8226.36,-16396.065,-28729.71,-48086.775,-24295.815,-25456.545
1764505724.4234684,18675.72,-21488.4,-8231.535,-16402.77,-28731.51,-48083.67,-24278.895,-25453.89
1764505724.4234684,18653.76,-21514.635,-8255.565,-16424.28,-28745.505,-48091.365,-24292.305,-25469.145
1764505724.4234684,18658.62,-21508.56,-8248.095,-16417.17,-28737.0,-48087.81,-24306.03,-25468.02
1764505724.4234684,18667.035,-21498.84,-8236.845,-16406.505,-28726.2,-48080.025,-24299.28,-25461.315
1764505724.4234684,18669.87,-21497.805,-8238.6,-16409.114999999998,-28727.505,-48081.195,-24287.04,-25457.94
1764505724.4234684,18668.385,-21498.525,-8240.715,-16412.94,-28730.745,-48088.575,-24301.62,-25462.53
1764505724.4234684,18673.29,-21492.045,-8235.0,-16410.015,-28727.01,-48083.715,-24300.405,-25461.0
1764505724.4234684,18670.095,-21498.57,-8241.119999999999,-16413.03,-28728.0,-48084.75,-24285.51,-25460.55
1764505724.4234684,18671.445,-21495.555,-8237.744999999999,-16410.42,-28727.505,-48085.02,-24285.105,-25460.01
1764505724.4234684,18675.495,-21489.885,-8229.735,-16404.524999999998,-28722.87,-48085.605,-24299.37,-25460.865
1764505724.4234684,18690.12,-21473.19,-8211.869999999999,-16387.965,-28708.83,-48076.92,-24304.77,-25450.83
1764505724.4234684,18673.92,-21491.28,-8232.93,-16412.985,-28728.27,-48085.245,-24300.945,-25462.755
1764505724.4713185,18657.675,-21511.98,-8257.455,-16445.25,-28755.36,-48102.885,-24293.565,-25470.765
1764505724.4713185,18663.075,-21502.125,-8249.985,-16440.48,-28751.49,-48102.12,-24307.515,-25471.755
1764505724.4713185,18659.07,-21505.41,-8253.675,-16438.635,-28746.045,-48104.055,-24320.7,-25478.055
1764505724.4713185,18660.195,-21505.23,-8254.755,-16431.39,-28732.68,-48103.245,-24311.205,-25473.69
1764505724.4713185,18659.16,-21504.465,-8254.395,-16432.92,-28742.445,-48101.76,-24306.66,-25471.89
1764505724.4713185,18647.685,-21512.34,-8254.755,-16429.454999999998,-28753.875,-48099.69,-24317.865,-25482.285
1764505724.4713185,18645.66,-21510.945,-8248.994999999999,-16412.085,-28728.855,-48093.39,-24316.74,-25480.17
1764505724.4713185,18644.355,-21509.595,-8246.789999999999,-16407.585,-28718.46,-48086.37,-24320.88,-25481.88
1764505724.4724293,18650.07,-21505.59,-8247.914999999999,-16414.155,-28721.97,-48089.61,-24322.23,-25476.885
1764505724.4724293,18652.68,-21504.105,-8249.445,-16420.364999999998,-28725.03,-48090.465,-24320.745,-25473.6
1764505724.4724293,18655.92,-21502.215,-8249.715,-16425.315,-28726.74,-48089.16,-24316.695,-25469.64
1764505724.4724293,18656.685,-21500.19,-8247.195,-16423.29,-28732.815,-48094.065,-24320.835,-25468.38
1764505724.4724293,18655.38,-21501.45,-8242.515,-16413.704999999998,-28727.325,-48091.725,-24324.03,-25469.1
1764505724.4724293,18656.46,-21501.45,-8241.75,-16410.78,-28726.74,-48088.53,-24325.245,-25468.065
1764505724.4724293,18659.475,-21498.48,-8240.58,-16405.245,-28717.425,-48084.12,-24325.74,-25463.34
1764505724.4724293,18669.96,-21485.655,-8226.0,-16391.204999999998,-28702.98,-48076.065,-24325.83,-25455.105
1764505724.4724293,18698.985,-21454.83,-8200.17,-16372.62,-28685.07,-48061.845,-24310.44,-25431.66
1764505724.4724293,18685.53,-21473.1,-8221.68,-16397.64,-28708.605,-48075.3,-24316.02,-25438.77
1764505724.4724293,18652.545,-21515.13,-8257.815,-16427.34,-28730.205,-48087.135,-24325.605,-25459.605
1764505724.4724293,18656.91,-21510.54,-8250.615,-16421.355,-28721.115,-48081.78,-24320.34,-25454.43
1764505724.4724293,18668.52,-21497.625,-8241.39,-16421.535,-28720.305,-48079.485,-24316.965,-25445.655
1764505724.4724293,18679.995,-21484.215,-8226.99,-16407.54,-28710.09,-48072.645,-24322.68,-25439.67
1764505724.4724293,18688.68,-21473.685,-8212.41,-16386.57,-28696.095,-48064.365,-24323.31,-25432.29
1764505724.4724293,18691.11,-21475.53,-8211.24,-16376.985,-28690.83,-48057.84,-24312.105,-25426.845
1764505724.4724293,18691.47,-21475.845,-8208.494999999999,-16364.475,-28675.8,-48053.79,-24317.28,-25424.73
1764505724.4724293,18698.895,-21468.825,-8202.465,-16362.63,-28669.095,-48048.39,-24312.24,-25417.485
1764505724.5155225,18701.595,-21470.13,-8206.38,-16373.07,-28676.79,-48048.705,-24303.015,-25414.47
1764505724.5155225,18707.805,-21464.415,-8201.16,-16367.76,-28670.85,-48042.945,-24301.62,-25407.405
1764505724.5155225,18721.395,-21450.015,-8187.075,-16354.08,-28657.53,-48032.73,-24299.055,-25396.38
1764505724.5155225,18728.235,-21443.265,-8179.11,-16348.23,-28652.31,-48029.175,-24302.205,-25392.42
1764505724.5165403,18737.1,-21436.92,-8174.16,-16344.99,-28650.15,-48027.195,-24293.745,-25382.34
1764505724.5165403,18740.835,-21437.055,-8176.995,-16350.03,-28653.255,-48030.48,-24288.165,-25377.795
1764505724.5165403,18738.765,-21437.055,-8171.37,-16340.76,-28645.515,-48028.095,-24296.805,-25381.89
1764505724.5165403,18734.22,-21444.255,-8175.599999999999,-16341.165,-28642.14,-48022.695,-24299.55,-25383.915
1764505724.5165403,18744.12,-21435.615,-8171.144999999999,-16342.875,-28640.025,-48019.05,-24295.365,-25376.355
1764505724.5165403,18752.67,-21429.72,-8170.155,-16351.425,-28648.8,-48018.33,-24292.125,-25368.21
1764505724.5165403,18758.88,-21424.455,-8163.09,-16341.885,-28642.905,-48012.345,-24286.725,-25361.415
1764505724.5165403,18759.69,-21424.545,-8159.4,-16333.74,-28629.765,-48008.97,-24288.615,-25361.595
1764505724.5165403,18762.075,-21422.34,-8155.08,-16321.41,-28621.44,-48007.44,-24299.505,-25364.295
1764505724.51805,18774.99,-21407.94,-8136.269999999999,-16300.395,-28607.85,-48000.42,-24299.235,-25353.045
1764505724.51805,18784.485,-21399.345,-8128.71,-16295.22,-28596.42,-47994.03,-24291.9,-25344.9
1764505724.51805,18780.12,-21408.435,-8139.735,-16309.08,-28600.965,-47990.52,-24275.205,-25346.52
1764505724.51805,18786.42,-21405.33,-8141.174999999999,-16321.005,-28610.46,-47991.69,-24269.04,-25340.535
1764505724.51805,18798.66,-21395.655,-8136.0,-16323.885,-28613.565,-47990.115,-24257.52,-25327.53
1764505724.51805,18806.265,-21387.87,-8126.415,-16316.73,-28605.42,-47985.39,-24272.82,-25324.515
1764505724.51805,18802.395,-21392.055,-8130.33,-16316.685,-28607.58,-47986.965,-24287.31,-25331.22
1764505724.51805,18807.3,-21386.52,-8122.545,-16295.265,-28584.54,-47975.22,-24275.34,-25326.36
1764505724.51805,18823.095,-21371.085,-8102.429999999999,-16270.11,-28562.67,-47959.38,-24263.505,-25310.655
1764505724.51805,18825.795,-21371.76,-8102.25,-16275.825,-28573.515,-47966.355,-24253.155,-25304.13
1764505724.51805,18822.96,-21373.47,-8100.179999999999,-16270.155,-28574.28,-47964.555,-24264.855,-25311.015
1764505724.5613308,18831.555,-21365.19,-8091.9,-16260.39,-28561.005,-47955.465,-24266.88,-25306.11
1764505724.5613308,18832.41,-21370.32,-8100.54,-16272.855,-28567.53,-47957.445,-24239.25,-25298.64
1764505724.5613308,18844.2,-21358.08,-8087.94,-16260.48,-28555.47,-47948.535,-24245.37,-25292.655
1764505724.5613308,18861.21,-21340.395,-8069.67,-16242.57,-28537.065,-47942.1,-24252.165,-25283.07
1764505724.5613308,18860.445,-21344.49,-8076.014999999999,-16252.47,-28542.915,-47941.965,-24256.8,-25286.22
1764505724.5613308,18842.355,-21367.395,-8102.025,-16282.395,-28572.075,-47967.57,-24259.815,-25300.08
1764505724.5613308,18851.445,-21359.34,-8091.495,-16273.395,-28568.115,-47963.43,-24261.93,-25293.015
1764505724.5613308,18856.17,-21353.355,-8082.09,-16262.64,-28560.645,-47956.005,-24259.815,-25291.305
1764505724.5613308,18850.995,-21362.4,-8094.69,-16280.37,-28571.58,-47962.62,-24263.1,-25295.445
1764505724.5613308,18849.87,-21366.45,-8103.014999999999,-16299.585,-28584.945,-47970.18,-24274.35,-25298.235
1764505724.5613308,18858.33,-21359.16,-8097.344999999999,-16298.055,-28585.44,-47967.93,-24270.075,-25292.205
1764505724.5613308,18857.97,-21358.845,-8094.644999999999,-16288.02,-28579.545,-47968.695,-24281.325,-25296.165
1764505724.5613308,18854.955,-21362.22,-8094.42,-16278.21,-28568.7,-47967.795,-24281.19,-25300.845
1764505724.5613308,18848.385,-21370.545,-8099.28,-16277.895,-28569.33,-47976.39,-24280.74,-25306.065
1764505724.5613308,18847.935,-21370.095,-8094.059999999999,-16273.215,-28565.955,-47976.39,-24287.985,-25308.045
1764505724.5613308,18843.345,-21376.755,-8105.985,-16290.18,-28577.61,-47980.44,-24292.62,-25314.345
1764505724.5613308,18846.63,-21371.895,-8100.269999999999,-16289.595,-28578.33,-47986.02,-24299.505,-25315.065
1764505724.5613308,18853.245,-21366.18,-8098.83,-16299.315,-28589.895,-47989.62,-24295.77,-25309.755
1764505724.5613308,18847.98,-21375.54,-8114.264999999999,-16315.155,-28606.905,-47995.38,-24291.63,-25314.12
1764505724.5613308,18850.005,-21372.12,-8105.58,-16297.74,-28594.845,-47990.205,-24295.455,-25314.345
1764505724.6111002,18856.395,-21364.11,-8091.045,-16268.31,-28563.66,-47974.14,-24294.645,-25311.285
1764505724.6111002,18849.6,-21371.94,-8101.485,-16280.01,-28569.24,-47983.905,-24299.595,-25319.79
1764505724.6111002,18855.135,-21366.945,-8099.82,-16286.4,-28575.945,-47988.405,-24306.975,-25319.565
1764505724.612096,18870.66,-21349.305,-8080.875,-16270.47,-28566.855,-47980.665,-24311.79,-25309.89
1764505724.612096,18858.6,-21364.245,-8096.219999999999,-16285.455,-28580.04,-47985.075,-24287.175,-25314.075
1764505724.612096,18844.38,-21379.455,-8115.57,-16307.73,-28587.645,-47986.065,-24286.545,-25327.17
1764505724.612096,18832.41,-21393.855,-8133.299999999999,-16331.67,-28608.3,-48006.54,-24297.12,-25339.905
1764505724.612096,18828.855,-21399.165,-8137.575,-16335.585,-28619.28,-48018.015,-24297.48,-25339.23
1764505724.612096,18826.83,-21398.22,-8131.769999999999,-16317.855,-28614.105,-48015.27,-24297.66,-25342.92
1764505724.612096,18833.22,-21390.39,-8123.49,-16302.195,-28593.99,-48002.535,-24295.68,-25340.04
1764505724.612096,18838.485,-21380.805,-8111.88,-16297.47,-28597.365,-48002.985,-24289.47,-25336.71
1764505724.612096,18838.53,-21379.365,-8112.554999999999,-16303.275,-28604.43,-48009.24,-24293.07,-25338.375
1764505724.612096,18832.68,-21387.33,-8117.415,-16304.49,-28599.3,-48004.92,-24292.215,-25343.145
1764505724.612096,18830.07,-21390.435,-8122.184999999999,-16306.245,-28601.685,-48008.79,-24295.905,-25346.43
1764505724.612096,18834.48,-21382.29,-8114.58,-16297.695,-28596.42,-48009.375,-24299.325,-25344.9
1764505724.612096,18835.875,-21380.58,-8111.115,-16294.14,-28590.03,-48004.83,-24295.365,-25342.92
1764505724.612096,18832.635,-21387.555,-8123.13,-16311.69,-28602.945,-48014.01,-24284.43,-25345.17
1764505724.612096,18828.18,-21392.865,-8131.365,-16325.145,-28616.94,-48023.01,-24291.9,-25351.425
1764505724.612096,18825.795,-21394.98,-8132.759999999999,-16327.89,-28625.31,-48028.23,-24298.245,-25354.755
1764505724.613605,18824.31,-21394.665,-8129.205,-16319.925,-28624.14,-48027.78,-24306.255,-25361.37
1764505724.613605,18829.98,-21390.3,-8123.94,-16313.445,-28605.06,-48015.09,-24289.2,-25354.395
1764505724.613605,18823.23,-21401.64,-8142.165,-16340.13,-28626.93,-48028.14,-24290.505,-25358.895
1764505724.613605,18814.86,-21410.955,-8153.144999999999,-16353.72,-28650.465,-48044.88,-24299.19,-25368.57
1764505724.613605,18818.82,-21402.99,-8140.275,-16334.055,-28641.735,-48036.15,-24293.52,-25367.58
1764505724.6574416,18815.76,-21406.905,-8139.195,-16315.74,-28622.88,-48030.66,-24304.5,-25371.945
1764505724.6574416,18833.58,-21384.855,-8111.969999999999,-16279.83,-28592.595,-48016.755,-24311.52,-25361.595
1764505724.6574416,18824.535,-21397.68,-8129.34,-16309.08,-28613.475,-48028.095,-24296.94,-25367.31
1764505724.6574416,18815.13,-21410.55,-8144.639999999999,-16332.345,-28632.465,-48037.725,-24285.24,-25372.665
1764505724.6574416,18815.535,-21411.045,-8144.054999999999,-16329.78,-28628.73,-48033.45,-24282.27,-25371.72
1764505724.6574416,18814.68,-21412.395,-8142.615,-16324.92,-28626.12,-48026.97,-24282.72,-25374.06
1764505724.6574416,18829.395,-21397.14,-8129.745,-16313.175,-28616.49,-48021.3,-24279.84,-25363.89
1764505724.6574416,18828.945,-21397.815,-8129.565,-16314.705,-28621.845,-48025.305,-24280.335,-25364.79
1764505724.6574416,18822.285,-21405.78,-8135.955,-16321.59,-28624.455,-48026.34,-24280.02,-25369.695
1764505724.6574416,18821.97,-21406.005,-8136.224999999999,-16324.38,-28627.155,-48025.755,-24277.905,-25370.1
1764505724.6574416,18825.84,-21402.54,-8132.715,-16317.72,-28624.095,-48020.94,-24275.61,-25366.995
1764505724.6574416,18830.745,-21396.105,-8119.889999999999,-16295.85,-28610.505,-48015.45,-24283.215,-25366.095
1764505724.6574416,18823.23,-21404.79,-8126.73,-16298.595,-28608.93,-48018.195,-24288.615,-25372.575
1764505724.6574416,18828.36,-21403.485,-8129.835,-16308.54,-28613.07,-48017.97,-24278.4,-25366.95
1764505724.6574416,18829.215,-21403.935,-8131.545,-16309.755,-28611.0,-48014.775,-24272.64,-25364.745
1764505724.6574416,18839.88,-21392.19,-8119.125,-16300.98,-28607.265,-48010.77,-24272.19,-25356.735
1764505724.6574416,18856.305,-21376.26,-8105.219999999999,-16291.215,-28600.425,-48006.315,-24275.115,-25347.105
1764505724.6574416,18855.72,-21378.195,-8104.95,-16290.405,-28598.535,-48002.76,-24268.68,-25347.285
1764505724.6574416,18832.815,-21408.48,-8131.455,-16310.43,-28610.37,-48005.595,-24259.5,-25359.975
1764505724.6574416,18837.63,-21403.755,-8128.125,-16308.945,-28606.185,-47999.835,-24259.815,-25356.645
1764505724.6574416,18850.635,-21389.985,-8118.179999999999,-16306.335,-28602.81,-47995.605,-24258.33,-25346.115
1764505724.6574416,18857.205,-21384.225,-8114.13,-16304.76,-28600.83,-47993.94,-24254.595,-25338.465
1764505724.6574416,18861.435,-21381.39,-8111.295,-16303.815,-28603.17,-47992.23,-24247.395,-25335.0
1764505724.6574416,18860.94,-21382.11,-8108.144999999999,-16292.115,-28597.86,-47987.37,-24242.805,-25334.64
1764505724.70187,18863.685,-21378.87,-8099.144999999999,-16272.99,-28577.025,-47973.24,-24241.23,-25332.03
1764505724.70187,18866.025,-21375.9,-8094.825,-16271.145,-28572.84,-47971.395,-24239.34,-25329.42
1764505724.70187,18874.8,-21368.07,-8089.695,-16268.265,-28567.8,-47964.51,-24235.515,-25322.175
1764505724.70187,18881.955,-21360.735,-8082.495,-16260.84,-28562.085,-47960.505,-24241.905,-25320.015
1764505724.70187,18891.495,-21350.7,-8072.28,-16251.12,-28554.345,-47951.955,-24233.04,-25310.835
1764505724.70187,18887.76,-21357.585,-8082.045,-16262.865,-28564.065,-47957.67,-24224.175,-25310.205
1764505724.70187,18876.645,-21369.555,-8095.275,-16280.19,-28577.97,-47963.295,-24226.29,-25318.89
1764505724.70187,18874.395,-21373.335,-8098.29,-16290.63,-28580.22,-47962.485,-24220.89,-25317.72
1764505724.70187,18881.145,-21368.115,-8097.75,-16298.505,-28579.635,-47960.325,-24218.91,-25312.365
1764505724.70187,18884.61,-21365.865,-8096.67,-16298.82,-28580.94,-47963.475,-24225.03,-25311.42
1764505724.70187,18882.54,-21364.92,-8089.065,-16283.655,-28584.72,-47965.275,-24224.445,-25313.67
1764505724.70187,18882.72,-21363.66,-8078.894999999999,-16250.805,-28557.225,-47948.04,-24208.785,-25310.25
1764505724.702884,18887.715,-21356.865,-8070.344999999999,-16239.78,-28541.34,-47940.705,-24208.425,-25306.74
1764505724.702884,18873.72,-21370.545,-8086.005,-16262.46,-28557.405,-47953.125,-24227.73,-25321.23
1764505724.702884,18872.64,-21370.77,-8087.085,-16266.915,-28558.62,-47952.54,-24229.62,-25322.67
1764505724.702884,18863.595,-21381.795,-8098.019999999999,-16282.44,-28579.545,-47960.955,-24219.495,-25326.945
1764505724.702884,18855.54,-21389.895,-8103.375,-16284.15,-28582.02,-47963.34,-24221.43,-25332.84
1764505724.702884,18856.62,-21386.7,-8096.94,-16275.78,-28572.12,-47958.39,-24225.255,-25334.01
1764505724.70541,18860.985,-21381.57,-8091.315,-16271.505,-28568.79,-47956.095,-24222.465,-25330.275
1764505724.70541,18862.155,-21379.95,-8090.099999999999,-16267.995,-28567.44,-47955.96,-24224.355,-25329.105
1764505724.70541,18862.47,-21378.915,-8088.57,-16265.745,-28566.45,-47955.87,-24223.68,-25328.655
1764505724.70541,18861.75,-21380.445,-8094.195,-16273.755,-28568.655,-47954.835,-24218.055,-25327.665
1764505724.70541,18864.045,-21376.755,-8092.304999999999,-16276.905,-28567.17,-47955.24,-24222.285,-25327.35
1764505724.70541,18852.39,-21386.61,-8097.525,-16283.565,-28575.45,-47960.865,-24219.945,-25335.54
1764505724.7530775,18853.11,-21387.15,-8097.389999999999,-16285.59,-28578.42,-47954.745,-24208.29,-25331.985
1764505724.7530775,18849.105,-21389.58,-8100.045,-16287.39,-28587.735,-47962.89,-24225.885,-25339.095
1764505724.7530775,18845.73,-21394.17,-8104.23,-16285.41,-28582.29,-47965.545,-24233.67,-25343.64
1764505724.7530775,18843.84,-21395.205,-8106.705,-16289.415,-28581.255,-47965.32,-24224.985,-25343.145
1764505724.7530775,18842.13,-21397.545,-8108.505,-16294.725,-28587.42,-47968.515,-24221.025,-25343.055
1764505724.7530775,18837.945,-21401.055,-8108.505,-16289.595,-28584.81,-47967.615,-24226.335,-25348.59
1764505724.7536058,18834.075,-21403.89,-8108.28,-16281.81,-28579.5,-47963.295,-24223.14,-25352.595
1764505724.7536058,18835.11,-21401.64,-8110.215,-16284.51,-28579.815,-47961.585,-24220.35,-25350.615
1764505724.7536058,18835.38,-21398.22,-8107.11,-16284.42,-28581.795,-47962.125,-24221.295,-25350.255
1764505724.7536058,18835.335,-21395.52,-8104.815,-16283.835,-28581.885,-47964.15,-24223.32,-25350.3
1764505724.7536058,18842.895,-21384.495,-8095.724999999999,-16277.355,-28574.325,-47959.92,-24228.72,-25346.385
1764505724.7536058,18830.16,-21397.455,-8105.759999999999,-16287.165,-28581.255,-47965.59,-24232.86,-25356.24
1764505724.7536058,18815.175,-21414.465,-8122.5,-16303.185,-28593.27,-47974.275,-24221.79,-25364.25
1764505724.7536058,18820.53,-21407.625,-8116.965,-16297.83,-28591.38,-47968.47,-24210.54,-25357.23
1764505724.7536058,18823.14,-21401.19,-8109.045,-16289.865,-28587.645,-47966.175,-24215.265,-25357.455
1764505724.7536058,18819.945,-21403.08,-8110.889999999999,-16294.365,-28596.96,-47969.28,-24218.46,-25360.11
1764505724.7536058,18814.86,-21404.565,-8109.764999999999,-16289.46,-28589.49,-47964.33,-24226.695,-25366.815
1764505724.7536058,18814.635,-21404.34,-8110.394999999999,-16291.08,-28587.78,-47964.78,-24223.77,-25366.005
1764505724.7536058,18806.49,-21419.64,-8134.065,-16316.82,-28608.57,-47977.695,-24213.825,-25367.355
1764505724.7536058,18796.365,-21425.04,-8136.405,-16320.555,-28616.94,-47988.0,-24231.645,-25378.425
1764505724.7536058,18793.485,-21422.925,-8127.045,-16308.765,-28614.24,-47987.28,-24239.475,-25384.005
1764505724.7536058,18786.915,-21429.765,-8135.955,-16315.38,-28614.78,-47985.48,-24236.01,-25387.605
1764505724.7536058,18787.455,-21427.74,-8128.62,-16304.265,-28601.64,-47980.62,-24237.18,-25385.445
1764505724.7536058,18793.62,-21422.79,-8129.565,-16312.005,-28614.78,-47986.965,-24245.055,-25384.59
1764505724.7972224,18781.56,-21433.68,-8143.38,-16323.255,-28620.45,-47986.74,-24247.395,-25395.975
1764505724.7972224,18782.055,-21432.195,-8138.384999999999,-16318.26,-28617.165,-47993.355,-24247.845,-25393.23
1764505724.7972224,18769.5,-21445.92,-8145.719999999999,-16319.07,-28618.29,-47995.38,-24243.93,-25399.935
1764505724.7972224,18757.395,-21457.665,-8154.315,-16323.93,-28627.155,-48001.095,-24235.335,-25405.605
1764505724.7972224,18761.445,-21449.97,-8148.69,-16319.655,-28627.065,-48001.77,-24246.315,-25405.605
1764505724.7972224,18758.385,-21451.455,-8150.94,-16322.67,-28628.955,-48005.865,-24253.11,-25408.305
1764505724.7972224,18751.545,-21457.215,-8153.639999999999,-16324.65,-28630.08,-48005.82,-24256.53,-25412.445
1764505724.7972224,18744.75,-21462.255,-8158.365,-16331.67,-28635.885,-48009.51,-24264.09,-25419.555
1764505724.7972224,18737.73,-21469.905,-8167.545,-16341.525,-28644.345,-48016.575,-24266.79,-25423.92
1764505724.7972224,18740.025,-21466.395,-8165.519999999999,-16339.095,-28642.365,-48015.0,-24265.485,-25420.14
1764505724.7972224,18742.545,-21463.65,-8164.62,-16340.13,-28643.04,-48014.46,-24264.675,-25416.99
1764505724.7972224,18741.285,-21464.865,-8165.519999999999,-16343.145,-28646.28,-48016.755,-24267.555,-25417.71
1764505724.7972224,18737.82,-21466.665,-8166.69,-16342.695,-28650.15,-48018.33,-24270.48,-25420.365
1764505724.7972224,18735.435,-21466.89,-8165.295,-16334.865,-28641.465,-48013.605,-24267.96,-25420.59
1764505724.7972224,18734.13,-21467.43,-8165.429999999999,-16335.36,-28640.97,-48012.48,-24267.735,-25419.645
1764505724.7972224,18732.105,-21469.41,-8168.67,-16339.77,-28645.155,-48016.44,-24269.58,-25420.815
1764505724.7972224,18730.35,-21470.175,-8171.009999999999,-16342.11,-28647.405,-48018.69,-24270.12,-25421.265
1764505724.7972224,18728.145,-21470.535,-8173.44,-16345.305,-28652.22,-48022.515,-24273.99,-25423.02
1764505724.7972224,18721.845,-21473.865,-8174.429999999999,-16344.63,-28654.83,-48025.26,-24283.89,-25430.085
1764505724.7972224,18717.75,-21477.015,-8174.34,-16343.82,-28654.515,-48023.64,-24282.09,-25432.605
1764505724.7997963,18713.43,-21482.595,-8179.83,-16350.615,-28661.85,-48028.95,-24276.24,-25434.765
1764505724.7997963,18715.77,-21479.67,-8177.894999999999,-16347.915,-28657.98,-48024.945,-24277.68,-25432.605
1764505724.7997963,18720.18,-21474.0,-8172.269999999999,-16341.345,-28651.95,-48020.85,-24281.82,-25429.635
1764505724.7997963,18728.055,-21464.775,-8164.844999999999,-16333.56,-28643.625,-48013.875,-24277.995,-25423.065
1764505724.8456893,18728.685,-21465.045,-8168.894999999999,-16340.355,-28650.42,-48019.455,-24270.48,-25421.49
1764505724.8456893,18710.685,-21484.08,-8184.87,-16355.565,-28666.305,-48032.055,-24275.07,-25432.92
1764505724.8456893,18716.58,-21476.07,-8172.315,-16342.38,-28655.1,-48022.155,-24268.185,-25424.37
1764505724.8456893,18723.555,-21467.88,-8165.16,-16334.73,-28647.315,-48016.53,-24267.51,-25417.935
1764505724.8456893,18721.71,-21468.42,-8167.86,-16335.9,-28648.44,-48016.755,-24267.465,-25418.43
1764505724.8456893,18720.495,-21469.995,-8170.514999999999,-16337.88,-28650.195,-48017.655,-24265.08,-25418.565
1764505724.8456893,18726.255,-21466.98,-8171.73,-16337.205,-28646.55,-48013.38,-24262.38,-25412.445
1764505724.8472052,18730.71,-21462.885,-8176.094999999999,-16345.395,-28654.245,-48020.985,-24264.72,-25410.24
1764505724.8472052,18732.96,-21456.45,-8165.205,-16335.855,-28647.405,-48016.575,-24263.775,-25407.09
1764505724.8472052,18735.885,-21450.78,-8149.005,-16318.08,-28630.98,-48004.155,-24261.57,-25401.195
1764505724.8472052,18719.775,-21468.87,-8167.184999999999,-16336.89,-28647.495,-48015.315,-24265.845,-25414.65
1764505724.8472052,18706.86,-21483.135,-8182.215,-16350.525,-28659.69,-48024.765,-24266.655,-25425.27
1764505724.8482163,18715.995,-21472.02,-8175.42,-16344.405,-28654.965,-48024.315,-24270.93,-25417.935
1764505724.8482163,18717.615,-21470.04,-8174.295,-16344.45,-28655.37,-48027.24,-24275.565,-25417.89
1764505724.8492253,18713.52,-21476.295,-8179.965,-16347.645,-28658.205,-48028.32,-24274.44,-25418.835
1764505724.8492253,18711.09,-21477.6,-8181.945,-16349.94,-28659.645,-48028.14,-24266.385,-25417.665
1764505724.8492253,18708.03,-21476.52,-8179.2,-16348.86,-28658.7,-48029.805,-24269.625,-25419.33
1764505724.8492253,18710.73,-21474.72,-8182.125,-16352.64,-28661.355,-48032.82,-24272.01,-25416.585
1764505724.8502166,18718.47,-21464.64,-8178.84,-16352.28,-28665.18,-48037.86,-24273.18,-25412.58
1764505724.8502166,18714.645,-21472.38,-8187.255,-16358.985,-28670.085,-48044.925,-24280.155,-25416.495
1764505724.8502166,18708.84,-21476.655,-8185.995,-16356.87,-28670.04,-48045.78,-24285.915,-25419.915
1764505724.8502166,18698.67,-21484.35,-8191.889999999999,-16360.695,-28672.11,-48040.2,-24292.53,-25428.87
1764505724.8512158,18694.755,-21492.0,-8202.15,-16369.785,-28679.85,-48051.405,-24291.945,-25429.095
1764505724.8512158,18690.39,-21497.67,-8208.72,-16379.955,-28687.095,-48055.68,-24281.01,-25428.915
1764505724.8920562,18690.075,-21494.34,-8200.935,-16373.52,-28687.14,-48059.055,-24289.92,-25432.155
1764505724.8920562,18687.645,-21492.945,-8196.93,-16367.715,-28685.97,-48062.34,-24301.125,-25437.015
1764505724.8920562,18680.445,-21503.43,-8209.8,-16377.165,-28693.395,-48065.94,-24297.39,-25440.48
1764505724.8920562,18677.475,-21507.57,-8217.449999999999,-16385.355,-28700.64,-48070.62,-24298.245,-25441.965
1764505724.8920562,18679.32,-21508.245,-8220.015,-16389.09,-28704.015,-48075.705,-24299.505,-25441.56
1764505724.8935635,18678.195,-21508.56,-8218.8,-16387.695,-28703.475,-48078.27,-24306.525,-25445.07
1764505724.8935635,18682.965,-21501.585,-8211.645,-16382.79,-28698.84,-48075.705,-24312.6,-25443.945
1764505724.8935635,18687.69,-21496.455,-8211.51,-16385.94,-28703.025,-48082.05,-24322.5,-25445.295
1764505724.8935635,18689.805,-21491.955,-8205.345,-16378.605,-28697.49,-48081.06,-24328.305,-25447.5
1764505724.8935635,18678.42,-21509.28,-8216.324999999999,-16383.645,-28699.92,-48077.19,-24301.98,-25445.25
1764505724.8935635,18665.37,-21529.755,-8242.83,-16412.22,-28726.785,-48095.28,-24292.89,-25452.225
1764505724.8935635,18669.105,-21522.96,-8235.675,-16406.37,-28721.835,-48095.595,-24311.07,-25455.915
1764505724.8935635,18673.245,-21517.74,-8231.49,-16402.32,-28718.73,-48095.64,-24315.84,-25454.79
1764505724.8935635,18681.48,-21510.225,-8227.125,-16400.475,-28719.63,-48096.945,-24312.15,-25448.49
1764505724.8945744,18687.645,-21505.905,-8223.435,-16396.29,-28711.395,-48090.87,-24306.48,-25442.82
1764505724.8945744,18687.645,-21507.345,-8224.289999999999,-16396.605,-28708.29,-48089.52,-24313.905,-25445.34
1764505724.8945744,18684.135,-21512.205,-8232.3,-16409.61,-28721.475,-48099.69,-24316.92,-25449.975
1764505724.8945744,18679.365,-21518.235,-8238.42,-16420.32,-28741.77,-48110.31,-24323.49,-25454.34
1764505724.89558,18673.11,-21523.41,-8237.52,-16409.385,-28731.69,-48105.36,-24331.815,-25459.74
1764505724.89558,18676.8,-21520.89,-8233.47,-16400.565,-28714.77,-48096.09,-24324.12,-25454.25
1764505724.89558,18679.59,-21520.89,-8237.744999999999,-16409.07,-28723.455,-48102.57,-24325.605,-25453.53
1764505724.89558,18680.49,-21521.205,-8240.58,-16412.895,-28732.905,-48107.205,-24329.97,-25455.015
1764505724.9383326,18681.12,-21518.955,-8236.125,-16404.345,-28728.0,-48105.45,-24330.87,-25455.105
1764505724.9383326,18680.49,-21519.855,-8235.27,-16404.704999999998,-28725.435,-48107.07,-24333.345,-25456.59
1764505724.9383326,18681.345,-21521.79,-8239.68,-16410.015,-28728.495,-48108.87,-24334.605,-25456.95
1764505724.9383326,18684.36,-21520.17,-8239.275,-16409.655,-28728.36,-48107.475,-24333.075,-25453.665
1764505724.9383326,18684.315,-21518.73,-8239.005,-16410.375,-28729.62,-48108.465,-24334.02,-25454.115
1764505724.9383326,18677.835,-21525.705,-8243.055,-16413.93,-28733.355,-48113.145,-24339.645,-25459.065
1764505724.9383326,18677.295,-21527.28,-8245.215,-16415.55,-28734.93,-48114.9,-24342.93,-25461.18
1764505724.9383326,18680.355,-21526.155,-8246.07,-16416.27,-28738.125,-48119.04,-24346.53,-25461.99
1764505724.9383326,18684.63,-21525.255,-8249.039999999999,-16420.454999999998,-28741.14,-48121.92,-24347.79,-25460.19
1764505724.9383326,18684.675,-21524.67,-8245.98,-16415.864999999998,-28736.955,-48116.925,-24342.93,-25457.94
1764505724.9383326,18688.68,-21519.27,-8238.779999999999,-16409.385,-28732.365,-48112.74,-24348.51,-25455.96
1764505724.9383326,18678.15,-21531.87,-8253.72,-16423.92,-28745.73,-48123.405,-24356.79,-25465.275
1764505724.9383326,18672.885,-21538.395,-8261.414999999999,-16432.29,-28754.19,-48131.19,-24362.55,-25469.685
1764505724.9393425,18670.23,-21541.005,-8264.07,-16433.91,-28756.665,-48135.735,-24366.375,-25471.8
1764505724.9393425,18677.745,-21534.525,-8260.38,-16432.245,-28755.27,-48135.105,-24363.99,-25466.13
1764505724.9393425,18676.845,-21535.38,-8260.244999999999,-16431.345,-28754.82,-48131.28,-24361.965,-25467.075
1764505724.9393425,18668.925,-21544.695,-8264.25,-16431.12,-28755.18,-48130.92,-24363.405,-25473.105
1764505724.9393425,18665.73,-21547.26,-8268.705,-16435.755,-28760.94,-48137.49,-24370.92,-25477.425
1764505724.9393425,18666.045,-21545.64,-8269.515,-16437.42,-28763.415,-48139.335,-24372.99,-25478.145
1764505724.9393425,18666.315,-21547.89,-8269.02,-16434.855,-28761.3,-48137.715,-24371.28,-25477.695
1764505724.9393425,18667.26,-21547.305,-8267.535,-16433.19,-28761.12,-48137.67,-24370.875,-25477.11
1764505724.9393425,18667.125,-21546.855,-8268.119999999999,-16433.864999999998,-28762.38,-48138.03,-24371.865,-25477.785
1764505724.9846687,18667.26,-21546.18,-8267.49,-16432.605,-28761.57,-48136.725,-24370.605,-25477.695
1764505724.9846687,18663.255,-21550.185,-8271.36,-16436.204999999998,-28764.99,-48140.235,-24373.665,-25481.88
1764505724.9846687,18665.37,-21549.015,-8270.64,-16436.024999999998,-28765.035,-48140.055,-24373.035,-25480.98
1764505724.9846687,18667.98,-21545.91,-8269.695,-16438.364999999998,-28768.77,-48142.98,-24376.5,-25480.08
1764505724.9846687,18669.06,-21545.19,-8268.39,-16437.285,-28768.68,-48142.62,-24378.345,-25480.395
1764505724.9846687,18654.705,-21561.48,-8283.15,-16449.93,-28781.19,-48150.225,-24379.155,-25491.915
1764505724.9846687,18649.62,-21566.655,-8287.38,-16450.47,-28781.55,-48153.69,-24384.105,-25496.37
1764505724.9846687,18657.135,-21559.725,-8282.34,-16445.52,-28775.205,-48150.495,-24383.07,-25491.825
1764505724.9846687,18663.93,-21555.9,-8282.07,-16450.515,-28772.865,-48148.335,-24380.055,-25486.02
1764505724.9846687,18661.77,-21559.905,-8290.44,-16465.86,-28780.515,-48156.12,-24382.53,-25488.675
1764505724.9846687,18664.11,-21559.77,-8290.755,-16473.645,-28786.095,-48155.445,-24376.095,-25486.875
1764505724.9846687,18662.625,-21563.19,-8294.22,-16482.78,-28810.71,-48161.34,-24376.995,-25489.62
1764505724.9846687,18662.13,-21561.75,-8284.77,-16456.32,-28802.115,-48155.265,-24379.2,-25490.7
1764505724.9846687,18666.495,-21556.98,-8271.36,-16424.01,-28765.71,-48137.445,-24376.77,-25489.305
1764505724.9846687,18667.98,-21556.98,-8268.66,-16421.85,-28759.23,-48133.665,-24374.97,-25490.16
1764505724.9846687,18665.82,-21561.39,-8277.255,-16437.329999999998,-28773.27,-48141.045,-24378.57,-25492.905
1764505724.9846687,18668.7,-21561.66,-8280.0,-16443.54,-28777.5,-48143.295,-24378.12,-25492.365
1764505724.9856863,18666.315,-21565.665,-8284.635,-16449.975,-28781.595,-48146.895,-24380.82,-25495.155
1764505724.9856863,18668.835,-21565.62,-8285.039999999999,-16451.91,-28783.125,-48147.885,-24381.54,-25494.525
1764505724.9856863,18671.805,-21564.45,-8283.33,-16450.11,-28781.82,-48145.995,-24380.73,-25493.94
1764505724.9856863,18674.955,-21563.28,-8282.61,-16449.93,-28781.145,-48144.285,-24378.75,-25492.86
1764505724.9856863,18681.93,-21558.915,-8279.865,-16449.48,-28777.005,-48138.84,-24376.185,-25487.82
1764505724.9856863,18685.845,-21558.195,-8280.36,-16450.829999999998,-28776.015,-48136.23,-24377.805,-25486.65
1764505724.9856863,18685.71,-21560.715,-8280.855,-16452.0,-28777.095,-48135.285,-24373.44,-25488.18
1764505725.0361717,18690.525,-21558.105,-8277.75,-16449.75,-28777.095,-48135.555,-24372.09,-25485.57
1764505725.0361717,18695.565,-21555.45,-8274.555,-16442.505,-28771.155,-48132.225,-24373.53,-25483.14
1764505725.0361717,18702.81,-21548.97,-8269.154999999999,-16437.735,-28767.825,-48130.155,-24371.37,-25478.415
1764505725.0361717,18708.705,-21546.945,-8269.515,-16441.965,-28769.715,-48128.4,-24369.615,-25476.03
1764505725.0361717,18710.955,-21547.44,-8268.57,-16440.21,-28768.275,-48123.63,-24368.355,-25474.68
1764505725.0361717,18720.27,-21539.97,-8259.119999999999,-16427.024999999998,-28754.595,-48109.635,-24359.13,-25465.95
1764505725.0361717,18728.685,-21532.68,-8250.345,-16419.645,-28747.665,-48103.515,-24355.215,-25459.425
1764505725.0361717,18734.31,-21528.045,-8246.744999999999,-16417.755,-28744.83,-48099.195,-24350.355,-25455.015
1764505725.0361717,18738.72,-21526.605,-8245.755,-16417.53,-28743.075,-48097.485,-24348.555,-25452.9
1764505725.037198,18740.7,-21530.07,-8246.295,-16419.105,-28743.975,-48097.89,-24350.445,-25453.125
1764505725.037198,18748.845,-21526.065,-8240.039999999999,-16414.605,-28738.44,-48092.49,-24346.35,-25447.23
1764505725.037198,18752.4,-21524.445,-8238.869999999999,-16413.524999999998,-28736.055,-48090.42,-24345.855,-25445.655
1764505725.037198,18760.275,-21518.19,-8233.289999999999,-16408.89,-28731.195,-48083.85,-24339.33,-25438.545
1764505725.037198,18764.145,-21515.04,-8231.039999999999,-16408.62,-28731.375,-48083.175,-24340.995,-25436.16
1764505725.037198,18767.565,-21512.34,-8227.035,-16404.57,-28728.63,-48079.845,-24341.22,-25435.62
1764505725.037198,18777.015,-21501.045,-8216.414999999999,-16392.059999999998,-28714.725,-48068.685,-24329.34,-25427.52
1764505725.037198,18783.27,-21497.895,-8214.164999999999,-16385.489999999998,-28700.37,-48058.965,-24320.34,-25422.03
1764505725.037198,18784.485,-21497.04,-8213.49,-16386.03,-28699.425,-48057.255,-24326.46,-25422.795
1764505725.037198,18789.21,-21492.945,-8210.475,-16386.84,-28706.625,-48058.695,-24320.475,-25416.585
1764505725.037198,18787.185,-21496.59,-8213.355,-16387.515,-28713.06,-48057.48,-24312.645,-25417.575
1764505725.037198,18799.02,-21484.485,-8200.98,-16374.015,-28696.77,-48043.395,-24308.73,-25408.8
1764505725.037198,18802.305,-21481.38,-8199.045,-16373.115,-28693.53,-48042.0,-24313.545,-25406.64
1764505725.0381894,18807.435,-21477.735,-8194.23,-16368.255,-28686.195,-48033.765,-24307.155,-25402.185
1764505725.0381894,18813.645,-21471.345,-8190.224999999999,-16364.745,-28688.355,-48030.21,-24301.485,-25397.01
1764505725.0381894,18819.18,-21464.28,-8184.24,-16355.43,-28684.125,-48027.42,-24298.74,-25393.05
1764505725.0381894,18833.445,-21451.185,-8173.304999999999,-16345.89,-28676.295,-48017.385,-24291.675,-25382.52
1764505725.0381894,18839.835,-21446.37,-8164.394999999999,-16335.63,-28662.57,-48003.48,-24283.845,-25374.735
1764505725.0381894,18848.475,-21439.08,-8157.24,-16329.78,-28650.87,-47991.78,-24277.815,-25365.645
1764505725.085502,18856.395,-21434.67,-8159.309999999999,-16335.18,-28654.425,-47989.62,-24277.545,-25360.605
1764505725.085502,18861.255,-21428.64,-8157.87,-16334.82,-28664.505,-47995.29,-24281.73,-25359.66
1764505725.085502,18868.95,-21420.27,-8140.094999999999,-16304.04,-28642.32,-47979.855,-24276.015,-25353.585
1764505725.085502,18882.45,-21407.67,-8119.035,-16273.395,-28607.13,-47953.35,-24266.61,-25341.03
1764505725.085502,18898.245,-21392.28,-8105.67,-16267.32,-28601.37,-47947.77,-24269.31,-25330.005
1764505725.085502,18906.795,-21386.7,-8103.15,-16268.13,-28601.37,-47942.91,-24261.03,-25323.525
1764505725.085502,18893.79,-21402.63,-8120.835,-16288.065,-28618.47,-47946.915,-24250.95,-25329.555
1764505725.085502,18898.965,-21397.905,-8116.695,-16282.395,-28611.09,-47939.49,-24258.6,-25325.73
1764505725.085502,18915.75,-21380.445,-8099.639999999999,-16267.14,-28595.52,-47925.135,-24253.29,-25312.275
1764505725.085502,18924.12,-21372.12,-8088.84,-16256.88,-28586.115,-47913.705,-24245.37,-25302.375
1764505725.085502,18929.385,-21368.115,-8080.83,-16247.655,-28577.115,-47904.885,-24242.67,-25296.255
1764505725.085502,18932.715,-21365.865,-8081.865,-16251.3,-28577.295,-47903.76,-24247.62,-25293.015
1764505725.086514,18943.245,-21356.595,-8076.554999999999,-16247.655,-28572.03,-47899.035,-24245.55,-25284.105
1764505725.086514,18953.46,-21347.415,-8068.995,-16241.94,-28566.27,-47891.655,-24234.705,-25272.765
1764505725.086514,18956.88,-21344.04,-8060.985,-16231.77,-28559.025,-47881.935,-24227.145,-25268.355
1764505725.086514,18953.685,-21346.29,-8059.365,-16222.725,-28552.995,-47875.32,-24226.155,-25269.705
1764505725.086514,18957.195,-21341.79,-8053.2,-16214.22,-28545.48,-47869.065,-24224.94,-25266.15
1764505725.086514,18964.71,-21334.545,-8046.945,-16209.855,-28540.665,-47864.88,-24224.58,-25260.12
1764505725.086514,18974.385,-21325.77,-8038.934999999999,-16203.105,-28532.97,-47856.78,-24216.615,-25250.67
1764505725.086514,18979.695,-21321.27,-8035.019999999999,-16199.595,-28529.01,-47851.65,-24212.115,-25245.045
1764505725.086514,18984.465,-21316.59,-8030.519999999999,-16195.455,-28525.41,-47847.87,-24210.855,-25241.265
1764505725.086514,18984.96,-21315.015,-8029.304999999999,-16193.835,-28524.78,-47847.69,-24213.69,-25241.13
1764505725.1306882,18990.135,-21310.47,-8026.965,-16191.945,-28523.025,-47844.27,-24213.465,-25237.08
1764505725.1306882,18996.03,-21305.295,-8021.16,-16185.915,-28517.58,-47836.305,-24205.05,-25230.96
1764505725.1306882,18997.56,-21303.18,-8016.795,-16180.56,-28512.405,-47830.14,-24198.435,-25227.0
1764505725.1306882,19001.61,-21298.5,-8012.565,-16175.25,-28506.6,-47826.81,-24198.615,-25224.705
1764505725.1306882,19006.02,-21294.18,-8008.11,-16169.625,-28501.11,-47822.85,-24198.255,-25222.815
1764505725.1306882,19006.11,-21292.92,-8006.309999999999,-16168.32,-28501.605,-47822.4,-24200.055,-25222.59
1764505725.1306882,19007.505,-21290.805,-8003.34,-16164.765,-28499.67,-47819.07,-24197.67,-25220.79
1764505725.1306882,19014.39,-21284.01,-7996.455,-16157.43,-28492.155,-47809.89,-24188.67,-25213.905
1764505725.1306882,19015.335,-21282.165,-7995.465,-16156.53,-28489.905,-47808.765,-24188.355,-25212.42
1764505725.1306882,19012.995,-21283.515,-7996.545,-16157.52,-28489.5,-47811.15,-24191.505,-25214.85
1764505725.1306882,19018.62,-21278.385,-7994.115,-16155.72,-28486.845,-47809.755,-24188.085,-25210.98
1764505725.1306882,19021.41,-21274.965,-7991.37,-16154.595,-28484.37,-47807.19,-24184.62,-25207.605
1764505725.1306882,19021.635,-21274.74,-7988.58,-16154.415,-28487.97,-47805.795,-24184.44,-25208.19
1764505725.1306882,19021.05,-21274.245,-7985.835,-16151.715,-28491.12,-47805.12,-24186.105,-25209.72
1764505725.1306882,19025.01,-21267.99,-7979.4,-16140.96,-28477.89,-47798.415,-24184.665,-25206.84
1764505725.1306882,19017.135,-21275.865,-7988.13,-16151.265,-28485.0,-47804.04,-24188.445,-25211.925
1764505725.1317043,19013.805,-21281.445,-7995.465,-16162.02,-28499.85,-47812.68,-24189.255,-25215.705
1764505725.1317043,19014.48,-21278.61,-7994.025,-16160.13,-28503.945,-47816.82,-24193.305,-25217.145
1764505725.1317043,19015.605,-21275.865,-7989.344999999999,-16157.385,-28497.015,-47815.02,-24190.29,-25215.525
1764505725.1317043,19011.87,-21279.69,-7990.83,-16159.14,-28491.165,-47814.165,-24191.145,-25219.53
1764505725.1326995,19010.835,-21281.58,-7993.215,-16162.515,-28496.34,-47817.0,-24190.02,-25220.565
1764505725.1326995,19015.2,-21275.01,-7985.519999999999,-16153.515,-28494.765,-47814.3,-24185.115,-25217.82
1764505725.1795945,19015.605,-21274.29,-7982.775,-16141.14,-28482.84,-47807.685,-24182.775,-25218.27
1764505725.1795945,19018.935,-21270.69,-7976.745,-16130.43,-28469.565,-47800.17,-24177.87,-25214.94
1764505725.1795945,19020.105,-21271.14,-7979.4,-16137.72,-28475.145,-47803.635,-24177.69,-25213.95
1764505725.1795945,19020.555,-21271.59,-7982.28,-16144.38,-28481.355,-47808.945,-24179.94,-25214.58
1764505725.1795945,19020.69,-21272.22,-7983.315,-16148.34,-28484.28,-47812.23,-24181.47,-25215.615
1764505725.1795945,19016.595,-21274.875,-7982.46,-16148.43,-28485.72,-47812.455,-24182.19,-25219.575
1764505725.1795945,19017.405,-21274.92,-7985.295,-16152.75,-28488.195,-47814.3,-24180.075,-25219.845
1764505725.1795945,19015.11,-21278.52,-7990.74,-16157.475,-28491.12,-47819.925,-24185.655,-25223.94
1764505725.1795945,19012.41,-21280.005,-7990.2,-16154.955,-28493.415,-47824.56,-24189.39,-25227.72
1764505725.1795945,19013.445,-21280.68,-7988.49,-16149.915,-28490.085,-47822.22,-24179.625,-25225.74
1764505725.1795945,19017.135,-21277.71,-7986.915,-16151.715,-28490.715,-47824.29,-24179.31,-25224.165
1764505725.1795945,19016.37,-21279.42,-7988.355,-16153.515,-28488.96,-47823.255,-24179.805,-25223.715
1764505725.1795945,19015.02,-21278.565,-7989.21,-16155.495,-28491.525,-47827.62,-24185.52,-25227.675
1764505725.1795945,19009.125,-21281.67,-7992.9,-16160.67,-28497.06,-47832.615,-24189.66,-25234.74
1764505725.1795945,19008.27,-21284.145,-7989.795,-16154.235,-28489.365,-47826.36,-24184.08,-25232.67
1764505725.1795945,19022.175,-21274.245,-7983.99,-16149.42,-28484.73,-47823.84,-24178.905,-25222.59
1764505725.1795945,19022.94,-21276.675,-7988.49,-16154.595,-28489.815,-47829.33,-24185.34,-25225.56
1764505725.1795945,19019.61,-21281.94,-7993.575,-16160.85,-28495.17,-47833.515,-24180.21,-25227.765
1764505725.1795945,19020.33,-21281.49,-7994.25,-16162.605,-28495.08,-47834.37,-24174.765,-25226.82
1764505725.1795945,19020.06,-21281.985,-7996.32,-16165.62,-28498.32,-47839.275,-24180.93,-25230.015
1764505725.1795945,19020.735,-21280.905,-7995.78,-16165.665,-28498.995,-47840.085,-24182.325,-25231.095
1764505725.1795945,19017.315,-21286.98,-8001.09,-16169.265,-28502.955,-47844.54,-24184.845,-25235.865
1764505725.1806176,19019.25,-21286.395,-8000.865,-16169.94,-28504.08,-47848.545,-24183.315,-25236.315
1764505725.1806176,19021.23,-21285.405,-7999.605,-16166.07,-28496.835,-47845.71,-24180.615,-25235.82
1764505725.2256243,19026.405,-21283.155,-7998.389999999999,-16168.32,-28496.655,-47847.51,-24178.725,-25234.065
1764505725.2256243,19028.07,-21282.57,-8000.594999999999,-16174.215,-28496.565,-47848.86,-24175.305,-25233.57
1764505725.2256243,19027.485,-21284.28,-8002.799999999999,-16178.31,-28501.065,-47852.415,-24174.405,-25235.145
1764505725.2256243,19024.875,-21289.23,-8007.615,-16183.665,-28512.495,-47860.29,-24179.175,-25240.77
1764505725.2256243,19019.385,-21293.595,-8009.235,-16179.39,-28516.635,-47862.72,-24183.405,-25246.395
1764505725.2256243,19018.935,-21293.415,-8006.759999999999,-16172.1,-28505.16,-47859.66,-24182.595,-25247.16
1764505725.2256243,19015.695,-21296.7,-8011.98,-16181.55,-28511.415,-47867.265,-24186.465,-25252.065
1764505725.2256243,19012.185,-21299.31,-8015.625,-16187.13,-28517.67,-47872.44,-24184.62,-25255.215
1764505725.2256243,19004.895,-21307.32,-8022.69,-16194.105,-28530.315,-47883.465,-24187.23,-25263.045
1764505725.2256243,19001.025,-21311.55,-8026.29,-16193.52,-28530.405,-47887.245,-24187.635,-25268.085
1764505725.2256243,18999.63,-21311.73,-8028.315,-16197.93,-28533.24,-47892.105,-24187.68,-25270.965
1764505725.2256243,18994.68,-21318.93,-8033.759999999999,-16203.15,-28536.75,-47896.02,-24187.365,-25274.25
1764505725.2256243,18992.07,-21321.99,-8037.179999999999,-16207.47,-28541.07,-47900.205,-24188.94,-25278.255
1764505725.2256243,18985.86,-21326.625,-8043.344999999999,-16214.445,-28549.08,-47909.97,-24195.195,-25286.13
1764505725.2256243,18978.885,-21332.385,-8049.509999999999,-16220.655,-28555.29,-47917.8,-24200.325,-25293.465
1764505725.2256243,18976.095,-21336.3,-8054.415,-16226.505,-28560.42,-47923.47,-24202.035,-25296.93
1764505725.2256243,18969.795,-21342.15,-8061.389999999999,-16232.67,-28566.675,-47930.715,-24205.005,-25302.735
1764505725.2256243,18969.615,-21341.925,-8062.155,-16234.785,-28569.15,-47935.395,-24203.745,-25303.365
1764505725.2256243,18963.36,-21348.405,-8067.87,-16241.76,-28575.45,-47944.935,-24208.38,-25310.34
1764505725.2256243,18956.925,-21354.345,-8073.9,-16247.43,-28580.58,-47951.28,-24210.855,-25316.415
1764505725.2256243,18952.605,-21357.09,-8078.13,-16250.94,-28586.25,-47958.435,-24211.89,-25321.14
1764505725.2256243,18944.595,-21364.92,-8084.969999999999,-16258.365,-28594.35,-47967.885,-24216.57,-25329.24
1764505725.2256243,18942.03,-21366.54,-8087.355,-16261.02,-28597.905,-47972.745,-24216.84,-25332.12
1764505725.2256243,18936.855,-21371.355,-8093.79,-16267.095,-28604.025,-47980.755,-24219.855,-25338.015
1764505725.2698677,18931.5,-21375.54,-8098.335,-16272.99,-28609.695,-47988.495,-24222.915,-25343.19
1764505725.2698677,18924.615,-21382.245,-8104.455,-16278.66,-28616.625,-47996.505,-24227.055,-25349.625
1764505725.2698677,18923.49,-21383.955,-8105.759999999999,-16280.73,-28619.055,-48001.095,-24226.2,-25351.065
1764505725.2698677,18916.515,-21390.75,-8112.644999999999,-16288.245,-28626.21,-48010.23,-24230.61,-25358.13
1764505725.2698677,18913.095,-21393.09,-8116.065,-16291.305,-28629.315,-48014.82,-24231.555,-25361.325
1764505725.2709072,18911.205,-21393.675,-8116.92,-16291.125,-28630.17,-48017.43,-24232.23,-25362.27
1764505725.2709072,18903.735,-21401.19,-8124.75,-16299.63,-28639.395,-48027.645,-24238.575,-25370.055
1764505725.2709072,18902.205,-21402.18,-8124.615,-16299.765,-28641.87,-48031.155,-24237.99,-25371.225
1764505725.2709072,18897.885,-21406.68,-8128.889999999999,-16303.905,-28646.775,-48036.735,-24240.69,-25374.735
1764505725.2709072,18890.19,-21413.205,-8135.505,-16311.24,-28652.49,-48043.62,-24245.595,-25380.81
1764505725.2709072,18888.975,-21414.06,-8135.73,-16312.185,-28653.84,-48045.33,-24244.785,-25381.53
1764505725.2709072,18889.47,-21413.43,-8134.965,-16311.285,-28653.165,-48045.33,-24241.32,-25380.855
1764505725.2709072,18888.795,-21414.69,-8137.44,-16314.93,-28656.855,-48049.83,-24242.625,-25382.565
1764505725.2709072,18886.68,-21420.45,-8144.415,-16322.67,-28665.045,-48057.84,-24247.53,-25386.12
1764505725.2709072,18885.105,-21421.575,-8144.594999999999,-16322.895,-28666.17,-48059.685,-24246.495,-25386.48
1764505725.2709072,18886.5,-21419.28,-8141.67,-16320.105,-28663.155,-48058.245,-24242.445,-25383.24
1764505725.2709072,18885.465,-21420.63,-8143.245,-16322.175,-28666.26,-48062.025,-24243.48,-25384.14
1764505725.2709072,18883.395,-21422.52,-8145.269999999999,-16323.3,-28667.655,-48064.545,-24244.38,-25385.175
1764505725.2709072,18880.11,-21426.03,-8148.195,-16325.595,-28669.725,-48067.515,-24245.82,-25387.65
1764505725.2709072,18874.17,-21431.07,-8152.65,-16329.87,-28674.27,-48072.645,-24247.665,-25391.43
1764505725.2709072,18875.52,-21429.54,-8150.804999999999,-16327.62,-28673.055,-48072.465,-24245.64,-25389.495
1764505725.2709072,18873.405,-21431.43,-8152.424999999999,-16328.745,-28674.765,-48075.03,-24246.99,-25390.62
1764505725.2709072,18871.515,-21434.49,-8156.115,-16333.245,-28681.02,-48084.435,-24255.225,-25394.76
1764505725.2709072,18876.375,-21431.115,-8154.719999999999,-16333.02,-28682.145,-48088.08,-24258.33,-25391.34
1764505725.3167307,18874.845,-21431.205,-8154.719999999999,-16332.255,-28682.145,-48087.945,-24258.015,-25390.935
1764505725.3167307,18870.255,-21433.77,-8157.195,-16333.605,-28683.405,-48090.24,-24259.905,-25393.635
1764505725.3167307,18861.165,-21442.77,-8166.33,-16342.47,-28692.09,-48098.79,-24265.44,-25400.835
1764505725.3167307,18860.085,-21443.94,-8167.365,-16344.405,-28692.585,-48100.32,-24263.55,-25400.43
1764505725.3167307,18862.155,-21441.195,-8165.025,-16341.975,-28690.155,-48099.87,-24261.21,-25397.73
1764505725.3167307,18861.705,-21441.105,-8164.98,-16342.425,-28691.235,-48104.145,-24268.365,-25399.98
1764505725.3167307,18862.605,-21439.17,-8162.82,-16341.255,-28690.335,-48105.945,-24269.805,-25400.79
1764505725.3167307,18858.96,-21443.04,-8165.7,-16343.73,-28691.91,-48106.845,-24264.99,-25402.59
1764505725.3167307,18853.425,-21448.53,-8169.615,-16347.42,-28696.32,-48110.805,-24266.43,-25405.965
1764505725.3167307,18842.31,-21460.275,-8180.415,-16357.365,-28704.96,-48119.175,-24271.29,-25414.155
1764505725.3167307,18838.17,-21464.46,-8186.264999999999,-16363.17,-28710.72,-48125.565,-24279.435,-25418.655
1764505725.3172858,18837.045,-21466.215,-8187.795,-16365.555,-28711.08,-48127.77,-24280.875,-25421.13
1764505725.3172858,18838.845,-21464.46,-8185.815,-16364.115,-28710.045,-48129.03,-24283.08,-25420.77
1764505725.3172858,18839.295,-21464.37,-8185.32,-16362.72,-28709.595,-48131.82,-24283.125,-25418.385
1764505725.3172858,18832.32,-21472.245,-8193.555,-16370.055,-28716.84,-48139.425,-24283.35,-25423.29
1764505725.3172858,18826.38,-21479.22,-8200.17,-16377.615,-28723.545,-48147.615,-24292.935,-25430.625
1764505725.3172858,18827.595,-21479.49,-8201.52,-16379.1,-28725.165,-48149.91,-24294.645,-25430.67
1764505725.3172858,18822.06,-21484.215,-8205.93,-16384.23,-28731.24,-48158.64,-24302.835,-25437.78
1764505725.3172858,18821.205,-21486.105,-8207.055,-16385.489999999998,-28731.69,-48159.99,-24302.835,-25439.265
1764505725.3172858,18814.68,-21492.54,-8213.22,-16392.015,-28739.655,-48169.485,-24312.96,-25446.555
1764505725.3172858,18809.055,-21499.785,-8220.645,-16399.575,-28749.015,-48182.85,-24327.45,-25454.115
1764505725.3172858,18807.12,-21503.43,-8225.19,-16403.76,-28754.145,-48189.015,-24332.355,-25458.075
1764505725.3616135,18804.78,-21505.77,-8227.529999999999,-16406.145,-28755.54,-48189.96,-24331.23,-25460.325
1764505725.3616135,18803.43,-21507.3,-8228.52,-16406.954999999998,-28755.945,-48191.31,-24328.44,-25460.595
1764505725.3616135,18805.59,-21504.915,-8226.315,-16404.57,-28754.055,-48190.68,-24326.37,-25458.48
1764505725.3616135,18800.82,-21509.28,-8231.039999999999,-16408.845,-28758.735,-48196.665,-24333.345,-25464.195
1764505725.3616135,18794.52,-21517.335,-8241.119999999999,-16419.059999999998,-28769.22,-48205.575,-24334.785,-25469.505
1764505725.3616135,18778.59,-21535.155,-8255.789999999999,-16432.2,-28781.685,-48217.455,-24337.17,-25482.555
1764505725.3616135,18779.22,-21537.18,-8259.75,-16436.43,-28786.455,-48224.97,-24345.495,-25486.65
1764505725.3616135,18779.445,-21539.115,-8265.195,-16443.54,-28794.195,-48233.79,-24352.065,-25488.495
1764505725.3616135,18777.195,-21539.205,-8261.55,-16437.465,-28788.345,-48231.405,-24349.545,-25488.855
1764505725.3616135,18771.93,-21543.615,-8264.925,-16438.95,-28790.505,-48234.69,-24355.62,-25495.335
1764505725.3616135,18772.065,-21542.985,-8264.07,-16439.175,-28790.775,-48235.68,-24362.595,-25498.62
1764505725.3616135,18773.955,-21540.195,-8262.855,-16437.239999999998,-28789.38,-48235.095,-24363.54,-25497.495
1764505725.3616135,18776.97,-21536.55,-8259.164999999999,-16433.19,-28785.555,-48231.9,-24358.545,-25493.58
1764505725.3616135,18774.36,-21540.645,-8262.675,-16436.88,-28790.1,-48237.57,-24358.815,-25494.84
1764505725.3616135,18780.39,-21538.35,-8262.315,-16436.114999999998,-28789.065,-48238.92,-24347.97,-25485.525
1764505725.3616135,18783.315,-21536.775,-8261.55,-16436.97,-28791.99,-48244.455,-24344.82,-25481.61
1764505725.3616135,18772.2,-21545.46,-8268.795,-16442.505,-28797.12,-48250.53,-24353.055,-25492.32
1764505725.3616135,18754.83,-21564.945,-8285.039999999999,-16457.265,-28809.63,-48261.285,-24361.65,-25506.18
1764505725.3616135,18754.11,-21568.5,-8290.305,-16462.62,-28815.39,-48269.115,-24373.305,-25509.24
1764505725.3616135,18764.235,-21555.09,-8276.67,-16448.355,-28803.555,-48261.645,-24372.72,-25503.48
1764505725.3616135,18763.335,-21552.57,-8272.08,-16443.315,-28799.01,-48258.855,-24375.51,-25506.765
1764505725.3616135,18759.735,-21555.0,-8274.105,-16444.35,-28799.28,-48258.63,-24372.63,-25508.25
1764505725.410287,18765.135,-21549.645,-8268.345,-16438.59,-28793.79,-48254.76,-24366.915,-25503.525
1764505725.410287,18768.645,-21548.88,-8268.074999999999,-16439.445,-28794.105,-48257.64,-24367.635,-25501.59
1764505725.410287,18768.735,-21549.78,-8269.47,-16439.895,-28794.645,-48259.755,-24369.615,-25501.32
1764505725.410287,18775.125,-21541.32,-8260.154999999999,-16429.77,-28785.24,-48251.385,-24363.72,-25496.955
1764505725.410287,18783.18,-21532.815,-8251.92,-16421.399999999998,-28777.68,-48245.445,-24360.975,-25493.715
1764505725.410287,18782.685,-21528.045,-8245.755,-16414.245,-28770.39,-48240.18,-24354.72,-25492.14
1764505725.410287,18779.76,-21530.97,-8247.645,-16415.415,-28773.405,-48244.455,-24352.065,-25489.215
1764505725.410287,18773.595,-21540.42,-8258.49,-16425.809999999998,-28783.98,-48255.345,-24354.225,-25489.71
1764505725.410287,18758.34,-21557.25,-8275.365,-16442.46,-28799.46,-48271.545,-24362.37,-25499.34
1764505725.410287,18749.88,-21562.38,-8280.81,-16447.77,-28803.915,-48276.945,-24369.345,-25507.89
1764505725.410287,18738.945,-21571.65,-8290.619999999999,-16457.895,-28816.29,-48290.49,-24385.545,-25518.465
1764505725.410287,18740.475,-21566.115,-8284.59,-16451.28,-28811.79,-48288.42,-24380.1,-25515.18
1764505725.410287,18746.37,-21555.045,-8271.72,-16438.005,-28797.975,-48278.295,-24372.405,-25505.64
1764505725.410287,18750.87,-21549.33,-8265.285,-16430.22,-28789.29,-48271.68,-24366.69,-25495.965
1764505725.410287,18751.23,-21547.89,-8266.05,-16430.76,-28790.235,-48274.38,-24369.435,-25496.415
1764505725.410287,18745.605,-21545.1,-8262.27,-16427.475,-28787.13,-48273.12,-24369.795,-25501.77
1764505725.411286,18742.005,-21541.41,-8257.59,-16422.3,-28781.955,-48268.53,-24362.82,-25501.185
1764505725.411286,18730.08,-21549.87,-8264.789999999999,-16429.05,-28789.965,-48276.54,-24367.455,-25505.1
1764505725.411286,18716.22,-21559.59,-8273.654999999999,-16437.915,-28797.57,-48286.035,-24375.105,-25513.29
1764505725.411286,18712.935,-21558.735,-8273.52,-16438.005,-28797.255,-48288.195,-24383.25,-25515.09
1764505725.411286,18701.37,-21561.165,-8273.34,-16436.97,-28795.815,-48288.42,-24387.03,-25522.2
1764505725.411286,18692.595,-21564.9,-8277.119999999999,-16439.85,-28798.425,-48289.005,-24377.76,-25522.695
1764505725.411286,18690.795,-21565.755,-8278.83,-16442.145,-28802.07,-48291.345,-24371.19,-25518.555
1764505725.411286,18703.98,-21547.305,-8261.595,-16424.91,-28789.74,-48281.625,-24360.66,-25504.515
1764505725.457229,18703.305,-21545.415,-8259.164999999999,-16422.84,-28790.505,-48282.93,-24349.32,-25492.635
1764505725.457229,18690.525,-21549.465,-8261.1,-16422.84,-28791.045,-48284.505,-24346.305,-25499.88
1764505725.457229,18684.855,-21546.99,-8258.355,-16419.195,-28788.255,-48282.975,-24347.295,-25503.12
1764505725.457229,18677.655,-21546.18,-8257.41,-16417.62,-28786.68,-48281.58,-24346.89,-25505.055
1764505725.457229,18665.235,-21545.64,-8256.33,-16416.315,-28786.365,-48282.66,-24344.46,-25512.48
1764505725.457229,18650.34,-21546.045,-8254.529999999999,-16414.155,-28785.15,-48283.425,-24344.325,-25522.56
1764505725.457229,18640.125,-21542.22,-8249.805,-16409.204999999998,-28779.795,-48280.095,-24336.315,-25526.16
1764505725.457229,18624.24,-21544.83,-8249.625,-16409.34,-28780.695,-48282.975,-24328.035,-25531.065
1764505725.457229,18612.18,-21547.215,-8250.119999999999,-16409.43,-28782.18,-48285.765,-24314.895,-25532.415
1764505725.457229,18594.135,-21561.84,-8264.43,-16424.505,-28797.84,-48302.415,-24306.03,-25536.825
1764505725.457229,18583.83,-21561.075,-8262.404999999999,-16422.704999999998,-28796.58,-48302.505,-24294.42,-25538.625
1764505725.457229,18579.42,-21548.745,-8247.914999999999,-16406.595,-28781.145,-48290.67,-24282.99,-25542.27
1764505725.457229,18561.825,-21554.235,-8251.56,-16409.024999999998,-28783.89,-48298.455,-24294.24,-25558.875
1764505725.457229,18546.165,-21560.985,-8256.015,-16412.85,-28788.93,-48307.635,-24310.89,-25574.49
1764505725.457229,18526.185,-21579.48,-8273.835,-16431.524999999998,-28807.47,-48326.355,-24310.845,-25579.44
1764505725.457229,18526.41,-21575.925,-8270.91,-16429.005,-28804.14,-48322.935,-24280.38,-25561.125
1764505725.457229,18520.695,-21587.49,-8284.904999999999,-16443.765,-28819.71,-48335.22,-24267.195,-25551.945
1764505725.457229,18508.41,-21597.03,-8294.4,-16452.945,-28829.925,-48344.67,-24271.83,-25565.265
1764505725.457229,18500.715,-21603.915,-8302.904999999999,-16460.595,-28836.72,-48354.3,-24282.63,-25579.53
1764505725.457229,18487.575,-21616.92,-8317.305,-16475.579999999998,-28847.52,-48370.5,-24309.765,-25603.02
1764505725.457229,18483.705,-21610.98,-8309.07,-16467.075,-28837.935,-48363.435,-24305.355,-25609.41
1764505725.457229,18479.655,-21607.515,-8303.535,-16461.45,-28834.56,-48361.86,-24297.165,-25608.69
1764505725.457229,18464.58,-21622.86,-8319.645,-16476.93,-28850.67,-48376.71,-24295.455,-25610.715
1764505725.457229,18440.46,-21653.505,-8352.494999999999,-16509.105,-28882.755,-48406.275,-24300.54,-25615.26
1764505725.506203,18428.4,-21657.825,-8355.69,-16511.94,-28888.47,-48412.62,-24310.08,-25629.48
1764505725.506203,18418.635,-21659.355,-8355.15,-16509.465,-28886.31,-48409.965,-24310.53,-25641.54
1764505725.506203,18408.195,-21664.71,-8358.84,-16512.21,-28888.56,-48412.89,-24323.04,-25653.375
1764505725.506203,18393.3,-21677.625,-8370.539999999999,-16522.829999999998,-28899.09,-48422.25,-24339.69,-25669.035
1764505725.506203,18382.14,-21685.23,-8375.67,-16526.655,-28901.88,-48424.5,-24339.24,-25675.29
1764505725.506203,18376.245,-21683.34,-8373.105,-16524.855,-28900.035,-48422.07,-24327.0,-25667.865
1764505725.506203,18382.23,-21676.005,-8370.404999999999,-16523.415,-28900.395,-48423.645,-24313.41,-25653.015
1764505725.506203,18370.035,-21685.185,-8386.154999999999,-16541.19,-28921.14,-48447.675,-24331.365,-25669.44
1764505725.506203,18348.705,-21692.475,-8387.279999999999,-16541.145,-28919.79,-48450.69,-24350.49,-25695.81
1764505725.506203,18337.545,-21692.205,-8379.675,-16531.785,-28908.99,-48443.175,-24356.295,-25704.72
1764505725.506203,18336.24,-21692.97,-8380.26,-16532.145,-28908.72,-48445.11,-24350.13,-25703.145
1764505725.506203,18344.43,-21698.415,-8390.025,-16542.63,-28916.01,-48447.495,-24334.155,-25685.505
1764505725.506203,18366.3,-21694.41,-8393.58,-16548.524999999998,-28919.52,-48446.775,-24313.86,-25654.455
1764505725.506203,18362.745,-21697.335,-8395.83,-16550.82,-28921.77,-48446.505,-24308.865,-25652.295
1764505725.506203,18359.91,-21691.62,-8387.91,-16541.91,-28910.88,-48436.155,-24307.875,-25660.125
1764505725.506203,18350.91,-21703.545,-8403.21,-16557.84,-28925.82,-48450.69,-24313.815,-25661.745
1764505725.506203,18334.845,-21727.44,-8427.375,-16580.88,-28950.705,-48472.83,-24339.195,-25673.22
1764505725.5071833,18342.54,-21716.865,-8415.404999999999,-16569.045,-28942.245,-48463.38,-24346.755,-25675.83
1764505725.5071833,18348.21,-21710.34,-8407.71,-16560.72,-28935.27,-48455.1,-24353.19,-25677.585
1764505725.5071833,18347.22,-21715.38,-8413.02,-16564.68,-28938.555,-48457.755,-24351.75,-25678.575
1764505725.5071833,18348.84,-21716.865,-8414.369999999999,-16566.03,-28939.77,-48457.305,-24351.255,-25678.44
1764505725.5071833,18352.26,-21715.515,-8413.289999999999,-16565.85,-28937.565,-48452.535,-24351.345,-25676.64
1764505725.5071833,18356.85,-21713.265,-8409.869999999999,-16562.835,-28932.12,-48444.615,-24351.39,-25675.83
1764505725.5071833,18359.955,-21714.3,-8410.095,-16563.239999999998,-28932.03,-48442.545,-24352.47,-25676.055
1764505725.5520515,18365.445,-21713.895,-8410.185,-16563.825,-28933.965,-48443.265,-24349.275,-25672.995
1764505725.5520515,18367.74,-21721.59,-8418.824999999999,-16574.76,-28945.08,-48451.545,-24349.905,-25670.07
1764505725.5520515,18369.315,-21727.98,-8426.25,-16582.635,-28953.0,-48456.0,-24354.0,-25669.215
1764505725.5520515,18371.205,-21729.195,-8427.824999999999,-16584.165,-28954.98,-48455.82,-24358.365,-25671.015
1764505725.5520515,18371.88,-21733.425,-8432.055,-16588.35,-28959.48,-48457.035,-24364.89,-25676.28
1764505725.5520515,18377.415,-21733.38,-8431.92,-16587.63,-28959.57,-48453.57,-24365.97,-25675.605
1764505725.5520515,18389.61,-21727.755,-8427.6,-16583.895,-28957.14,-48447.855,-24363.18,-25669.44
1764505725.5520515,18389.025,-21734.865,-8434.89,-16591.454999999998,-28965.51,-48453.66,-24373.575,-25673.535
1764505725.5520515,18387.135,-21743.73,-8443.755,-16600.005,-28973.07,-48460.005,-24384.285,-25677.945
1764505725.5520515,18380.16,-21755.88,-8456.445,-16612.155,-28984.68,-48468.69,-24394.905,-25685.685
1764505725.5520515,18385.785,-21754.485,-8454.869999999999,-16610.535,-28984.545,-48463.515,-24396.345,-25685.415
1764505725.5520515,18392.985,-21751.065,-8451.494999999999,-16607.79,-28982.07,-48456.9,-24395.04,-25681.86
1764505725.5520515,18397.35,-21748.59,-8449.38,-16605.315,-28978.605,-48447.675,-24391.755,-25679.205
1764505725.5520515,18403.02,-21744.63,-8444.744999999999,-16600.14,-28972.62,-48435.525,-24388.47,-25676.55
1764505725.5520515,18407.655,-21743.055,-8442.99,-16598.295,-28970.82,-48429.225,-24390.405,-25676.055
1764505725.5520515,18415.53,-21738.42,-8437.77,-16591.77,-28964.205,-48419.595,-24387.75,-25670.97
1764505725.5520515,18423.72,-21738.42,-8438.715,-16592.985,-28965.51,-48418.47,-24390.045,-25665.57
1764505725.5520515,18434.79,-21732.03,-8433.72,-16587.315,-28959.84,-48410.775,-24385.23,-25655.445
1764505725.5520515,18438.525,-21729.69,-8430.615,-16584.12,-28956.87,-48405.24,-24383.565,-25654.365
1764505725.5520515,18435.96,-21732.705,-8434.035,-16586.954999999998,-28961.595,-48403.935,-24387.93,-25658.595
1764505725.5520515,18438.3,-21729.555,-8431.289999999999,-16582.5,-28958.715,-48395.655,-24385.77,-25655.985
1764505725.5520515,18442.08,-21726.045,-8427.24,-16576.695,-28952.505,-48387.15,-24381.495,-25653.195
1764505725.5520515,18443.385,-21724.2,-8424.585,-16573.815,-28948.86,-48382.695,-24381.045,-25651.485
1764505725.5520515,18444.285,-21723.84,-8423.55,-16572.329999999998,-28946.655,-48379.095,-24381.09,-25651.26
1764505725.5963087,18447.075,-21721.41,-8422.199999999999,-16569.855,-28944.315,-48374.775,-24379.335,-25649.865
1764505725.5963087,18452.205,-21717.63,-8418.824999999999,-16566.03,-28941.57,-48369.6,-24376.77,-25646.49
1764505725.5963087,18454.95,-21717.585,-8418.015,-16565.715,-28942.515,-48368.025,-24376.68,-25647.48
1764505725.5963087,18462.375,-21713.805,-8414.01,-16559.774999999998,-28935.45,-48358.215,-24371.235,-25642.8
1764505725.5963087,18468.765,-21711.06,-8411.895,-16557.12,-28932.57,-48352.725,-24369.75,-25638.39
1764505725.5963087,18470.61,-21712.815,-8413.47,-16558.065,-28932.21,-48349.665,-24372.405,-25638.84
1764505725.5963087,18472.905,-21714.165,-8414.369999999999,-16558.559999999998,-28932.03,-48346.83,-24373.53,-25638.3
1764505725.5963087,18478.395,-21711.24,-8411.22,-16555.184999999998,-28927.53,-48340.62,-24371.73,-25635.465
1764505725.5963087,18483.075,-21709.845,-8410.455,-16552.89,-28925.505,-48335.625,-24372.54,-25633.44
1764505725.5963087,18485.955,-21711.375,-8412.705,-16554.239999999998,-28926.27,-48333.465,-24375.825,-25634.43
1764505725.5963087,18493.47,-21705.84,-8408.205,-16550.145,-28923.165,-48329.505,-24375.06,-25629.39
1764505725.5963087,18496.62,-21707.055,-8410.455,-16552.485,-28925.64,-48330.765,-24376.095,-25627.32
1764505725.5963087,18497.655,-21709.71,-8412.57,-16553.79,-28924.74,-48328.605,-24380.415,-25628.805
1764505725.5963087,18500.22,-21708.99,-8410.095,-16551.495,-28921.86,-48323.385,-24383.52,-25628.76
1764505725.5963087,18504.315,-21708.54,-8408.925,-16550.954999999998,-28921.275,-48319.83,-24385.59,-25627.995
1764505725.5963087,18506.655,-21708.36,-8409.555,-16550.82,-28920.78,-48317.49,-24389.415,-25628.85
1764505725.5963087,18510.66,-21708.765,-8411.085,-16551.315,-28921.455,-48315.87,-24393.06,-25626.51
1764505725.5963087,18517.23,-21705.795,-8408.43,-16549.155,-28919.475,-48310.02,-24393.465,-25622.01
1764505725.5963087,18522.315,-21703.68,-8405.414999999999,-16547.309999999998,-28917.18,-48304.98,-24395.49,-25620.255
1764505725.5963087,18523.35,-21703.95,-8404.65,-16545.915,-28914.66,-48300.12,-24398.19,-25619.67
1764505725.5963087,18521.91,-21705.885,-8405.82,-16547.085,-28914.615,-48297.24,-24403.77,-25621.965
1764505725.5963087,18526.725,-21705.03,-8403.84,-16545.645,-28912.725,-48292.605,-24404.895,-25621.56
1764505725.643609,18527.715,-21706.92,-8406.63,-16548.345,-28913.985,-48292.245,-24411.15,-25624.98
1764505725.643609,18535.68,-21702.825,-8403.75,-16546.05,-28911.15,-48287.34,-24410.97,-25618.905
1764505725.643609,18538.695,-21700.62,-8401.23,-16543.665,-28908.765,-48283.245,-24410.205,-25618.77
1764505725.643609,18538.335,-21701.88,-8401.904999999999,-16544.07,-28908.855,-48280.815,-24413.22,-25622.28
1764505725.643609,18544.455,-21696.03,-8395.289999999999,-16537.364999999998,-28903.365,-48273.885,-24411.195,-25618.005
1764505725.643609,18545.67,-21695.04,-8392.275,-16535.16,-28900.53,-48269.115,-24410.43,-25616.835
1764505725.6441436,18548.91,-21695.355,-8393.58,-16536.195,-28901.655,-48268.53,-24412.77,-25616.115
1764505725.6441436,18552.465,-21692.655,-8390.295,-16532.91,-28898.64,-48264.795,-24413.49,-25613.73
1764505725.6441436,18559.845,-21686.04,-8383.68,-16527.329999999998,-28892.475,-48258.045,-24411.6,-25609.68
1764505725.6441436,18566.775,-21680.37,-8377.515,-16522.11,-28887.525,-48251.115,-24408.27,-25605.09
1764505725.6441436,18568.08,-21679.65,-8376.615,-16520.985,-28885.905,-48248.46,-24409.215,-25605.27
1764505725.6441436,18571.275,-21677.13,-8373.645,-16517.97,-28882.26,-48243.78,-24408.45,-25603.245
1764505725.6451583,18575.19,-21673.395,-8370.36,-16514.235,-28878.84,-48239.37,-24406.38,-25601.355
1764505725.6461642,18572.895,-21673.395,-8369.955,-16513.245,-28877.535,-48238.11,-24408.855,-25605.27
1764505725.6461642,18576.405,-21668.265,-8363.699999999999,-16507.89,-28872.315,-48232.305,-24406.245,-25602.93
1764505725.6461642,18581.625,-21662.91,-8356.949999999999,-16500.87,-28865.205,-48223.71,-24401.52,-25597.665
1764505725.6461642,18585.045,-21658.5,-8352.81,-16496.864999999998,-28861.29,-48219.795,-24397.47,-25591.545
1764505725.6461642,18592.605,-21655.71,-8352.36,-16498.215,-28863.945,-48221.91,-24397.605,-25585.065
1764505725.6461642,18600.03,-21650.535,-8347.32,-16493.175,-28857.645,-48215.475,-24394.545,-25581.195
1764505725.6461642,18610.335,-21643.155,-8342.279999999999,-16488.585,-28852.83,-48211.965,-24390.315,-25573.995
1764505725.6461642,18612.135,-21639.105,-8337.015,-16481.835,-28844.01,-48202.245,-24381.315,-25571.43
1764505725.6461642,18618.21,-21631.23,-8328.015,-16472.07,-28834.965,-48193.695,-24373.17,-25566.12
1764505725.6461642,18628.2,-21619.845,-8318.205,-16462.53,-28827.63,-48185.865,-24363.72,-25556.175
1764505725.6461642,18631.125,-21616.74,-8313.435,-16457.85,-28821.24,-48179.565,-24356.88,-25551.99
1764505725.6902769,18633.015,-21615.165,-8310.914999999999,-16455.105,-28817.64,-48176.055,-24353.505,-25551.225
1764505725.6902769,18641.655,-21605.85,-8302.994999999999,-16449.3,-28813.32,-48172.14,-24347.385,-25543.98
1764505725.6902769,18644.265,-21604.365,-8300.475,-16446.015,-28810.035,-48168.27,-24344.73,-25542.18
1764505725.6902769,18652.68,-21595.23,-8292.24,-16437.285,-28801.215,-48158.64,-24334.695,-25534.485
1764505725.6902769,18656.235,-21589.425,-8286.705,-16432.785,-28797.3,-48156.165,-24330.735,-25531.065
1764505725.6902769,18655.425,-21590.01,-8285.355,-16430.579999999998,-28793.205,-48152.295,-24327.765,-25530.12
1764505725.6902769,18661.815,-21584.43,-8279.775,-16424.505,-28787.67,-48146.31,-24320.385,-25523.145
1764505725.6902769,18670.185,-21578.04,-8273.115,-16417.665,-28780.56,-48138.975,-24311.07,-25516.305
1764505725.6902769,18672.975,-21576.42,-8270.595,-16413.93,-28776.015,-48134.565,-24305.22,-25513.245
1764505725.6902769,18671.355,-21577.365,-8270.235,-16413.795,-28774.44,-48133.395,-24302.925,-25513.2
1764505725.6902769,18676.575,-21568.455,-8261.505,-16406.1,-28767.6,-48126.42,-24295.32,-25506.27
1764505725.6902769,18689.085,-21553.065,-8248.77,-16395.12,-28757.475,-48116.745,-24286.32,-25495.875
1764505725.6902769,18697.86,-21547.485,-8246.07,-16392.645,-28755.135,-48114.27,-24282.99,-25490.79
1764505725.6912885,18701.235,-21547.8,-8246.295,-16392.78,-28755.675,-48114.495,-24281.64,-25489.26
1764505725.6912885,18706.095,-21544.515,-8242.875,-16389.315,-28752.66,-48111.345,-24277.275,-25484.04
1764505725.6912885,18705.78,-21543.39,-8240.535,-16387.605,-28749.825,-48109.185,-24274.215,-25483.14
1764505725.6912885,18705.555,-21542.805,-8239.904999999999,-16387.515,-28749.06,-48108.33,-24272.37,-25482.375
1764505725.6912885,18709.47,-21538.665,-8235.63,-16383.555,-28745.19,-48104.73,-24269.04,-25479.9
1764505725.6912885,18714.24,-21534.705,-8231.31,-16379.19,-28740.24,-48099.915,-24264.855,-25476.165
1764505725.6912885,18714.87,-21533.355,-8230.095,-16377.795,-28737.675,-48098.025,-24263.055,-25474.815
1764505725.6912885,18715.86,-21532.005,-8229.105,-16376.85,-28737.135,-48097.44,-24262.425,-25474.275
1764505725.6912885,18719.955,-21527.82,-8225.01,-16373.52,-28734.345,-48095.19,-24258.24,-25469.595
1764505725.738299,18721.35,-21526.785,-8223.84,-16372.17,-28731.42,-48091.995,-24254.595,-25467.615
1764505725.739308,18722.7,-21525.03,-8223.074999999999,-16370.955,-28731.105,-48090.915,-24253.74,-25466.895
1764505725.739308,18721.935,-21526.29,-8223.48,-16372.44,-28732.185,-48092.715,-24254.73,-25467.93
1764505725.739308,18721.98,-21526.02,-8223.57,-16372.395,-28731.645,-48092.715,-24254.595,-25468.2
1764505725.740307,18722.745,-21523.995,-8222.175,-16369.56,-28728.585,-48090.465,-24252.75,-25466.76
1764505725.740307,18723.33,-21523.005,-8221.77,-16369.29,-28727.865,-48090.15,-24251.13,-25465.545
1764505725.740307,18722.52,-21523.68,-8222.4,-16371.09,-28728.315,-48091.59,-24252.165,-25466.085
1764505725.740307,18717.57,-21527.595,-8225.369999999999,-16373.97,-28731.51,-48094.425,-24257.52,-25470.99
1764505725.7413082,18716.67,-21526.155,-8224.335,-16372.575,-28730.79,-48093.84,-24258.96,-25471.44
1764505725.7413082,18720.36,-21523.455,-8222.31,-16372.125,-28729.89,-48093.885,-24257.745,-25467.975
1764505725.7413082,18721.845,-21523.995,-8224.47,-16374.735,-28732.275,-48096.63,-24259.68,-25468.065
1764505725.7413082,18716.22,-21528.765,-8228.789999999999,-16378.695,-28734.705,-48098.385,-24264.18,-25472.52
1764505725.7423172,18717.705,-21526.695,-8227.305,-16377.93,-28734.39,-48098.475,-24264.765,-25470.72
1764505725.7423172,18722.61,-21521.43,-8222.355,-16373.79,-28729.98,-48094.245,-24261.345,-25464.69
1764505725.7423172,18722.52,-21520.98,-8221.095,-16373.025,-28727.505,-48091.635,-24260.31,-25463.925
1764505725.7423172,18725.04,-21521.07,-8220.96,-16373.07,-28727.685,-48092.445,-24262.02,-25463.7
1764505725.7423172,18725.31,-21521.34,-8220.33,-16371.945,-28726.47,-48091.68,-24262.245,-25462.35
1764505725.7423172,18725.67,-21521.745,-8220.465,-16372.08,-28726.065,-48090.69,-24263.865,-25460.055
1764505725.7423172,18728.055,-21521.565,-8220.645,-16372.305,-28727.28,-48090.78,-24264.99,-25457.4
1764505725.7438295,18727.695,-21523.545,-8222.805,-16375.545,-28730.565,-48093.795,-24268.23,-25459.47
1764505725.7438295,18732.69,-21520.98,-8221.32,-16375.005,-28728.81,-48092.355,-24268.815,-25456.68
1764505725.7438295,18733.41,-21523.32,-8224.02,-16377.615,-28729.665,-48092.58,-24271.83,-25456.23
1764505725.7438295,18734.625,-21521.205,-8223.3,-16377.345,-28729.035,-48091.815,-24272.775,-25454.745
1764505725.7438295,18738.72,-21519.09,-8221.949999999999,-16377.165,-28729.395,-48092.4,-24274.89,-25451.865
1764505725.7860374,18738.63,-21523.005,-8225.505,-16381.89,-28733.805,-48096.99,-24280.29,-25452.72
1764505725.7860374,18736.92,-21524.85,-8225.19,-16380.63,-28730.385,-48093.255,-24279.93,-25453.125
1764505725.7860374,18741.96,-21521.79,-8223.255,-16379.64,-28729.17,-48092.22,-24279.3,-25449.75
1764505725.7860374,18741.42,-21524.355,-8226.404999999999,-16383.195,-28732.365,-48094.965,-24283.08,-25451.415
1764505725.7860374,18744.93,-21522.195,-8224.289999999999,-16380.945,-28730.115,-48092.265,-24284.07,-25449.255
1764505725.7860374,18745.2,-21523.725,-8225.91,-16382.79,-28731.555,-48094.245,-24289.515,-25450.695
1764505725.7860374,18747.45,-21523.275,-8226.539999999999,-16384.23,-28732.635,-48095.415,-24292.71,-25449.39
1764505725.7860374,18751.32,-21522.24,-8225.73,-16384.184999999998,-28731.915,-48093.885,-24293.295,-25446.375
1764505725.7860374,18756.36,-21519.855,-8222.355,-16380.945,-28727.955,-48089.115,-24292.665,-25442.19
1764505725.7860374,18758.61,-21519.99,-8222.085,-16380.495,-28727.415,-48087.675,-24295.455,-25441.155
1764505725.7885585,18766.62,-21514.68,-8217.225,-16376.76,-28723.77,-48083.985,-24293.835,-25435.17
1764505725.7885585,18769.815,-21513.87,-8216.324999999999,-16375.68,-28722.42,-48081.735,-24294.195,-25432.83
1764505725.7885585,18777.51,-21509.64,-8210.925,-16370.685,-28716.975,-48075.165,-24290.595,-25426.08
1764505725.7885585,18780.795,-21506.94,-8208.18,-16368.84,-28714.815,-48072.42,-24291.765,-25422.345
1764505725.7885585,18784.89,-21505.14,-8205.57,-16366.59,-28712.16,-48069.99,-24292.575,-25420.05
1764505725.7885585,18789.885,-21505.23,-8206.154999999999,-16367.49,-28711.89,-48069.495,-24296.04,-25418.205
1764505725.7885585,18797.4,-21501.405,-8204.265,-16366.59,-28709.955,-48066.93,-24297.12,-25413.93
1764505725.7885585,18799.2,-21501.63,-8204.58,-16366.905,-28709.37,-48065.22,-24300.405,-25414.92
1764505725.7885585,18804.375,-21498.345,-8200.17,-16362.045,-28703.07,-48057.93,-24298.695,-25410.825
1764505725.7885585,18804.78,-21499.335,-8197.47,-16360.2,-28700.505,-48056.13,-24299.595,-25407.0
1764505725.7885585,18811.17,-21500.46,-8199.494999999999,-16363.665,-28705.545,-48060.99,-24305.355,-25401.42
1764505725.7885585,18817.56,-21496.77,-8196.615,-16361.685,-28702.17,-48057.03,-24305.355,-25397.19
1764505725.8333757,18818.055,-21497.49,-8195.76,-16359.885,-28697.94,-48052.08,-24305.76,-25397.91
1764505725.8333757,18824.985,-21495.51,-8194.77,-16359.57,-28698.21,-48051.495,-24308.955,-25395.075
1764505725.8333757,18830.97,-21494.25,-8194.365,-16361.145,-28700.55,-48053.205,-24313.14,-25392.96
1764505725.8333757,18831.51,-21496.14,-8193.869999999999,-16361.055,-28699.065,-48051.855,-24317.055,-25394.22
1764505725.8333757,18838.71,-21491.19,-8188.38,-16356.105,-28693.71,-48045.78,-24314.535,-25388.19
1764505725.8333757,18842.805,-21489.57,-8187.12,-16355.43,-28692.63,-48043.035,-24315.84,-25385.94
1764505725.8333757,18847.935,-21487.23,-8185.049999999999,-16354.17,-28691.55,-48041.55,-24317.37,-25382.97
1764505725.8333757,18852.795,-21485.79,-8182.665,-16351.74,-28688.13,-48037.32,-24316.605,-25379.415
1764505725.8333757,18857.205,-21484.215,-8180.594999999999,-16349.805,-28686.375,-48035.115,-24317.415,-25377.12
1764505725.8333757,18858.15,-21485.79,-8182.259999999999,-16351.515,-28685.385,-48034.53,-24321.195,-25377.345
1764505725.8333757,18864.675,-21481.74,-8176.95,-16347.24,-28681.65,-48030.615,-24320.925,-25372.62
1764505725.8333757,18864.72,-21482.37,-8177.174999999999,-16348.41,-28682.82,-48031.38,-24325.92,-25373.52
1764505725.8333757,18870.66,-21477.78,-8171.865,-16343.82,-28677.69,-48024.945,-24323.715,-25368.975
1764505725.8333757,18874.395,-21477.285,-8170.695,-16342.74,-28676.565,-48022.875,-24326.1,-25367.49
1764505725.8333757,18877.68,-21478.77,-8172.09,-16344.9,-28677.825,-48022.92,-24330.555,-25366.995
1764505725.8333757,18886.41,-21475.62,-8170.469999999999,-16344.405,-28676.205,-48021.21,-24331.14,-25361.235
1764505725.8333757,18886.14,-21476.7,-8171.144999999999,-16345.215,-28676.43,-48020.58,-24334.74,-25362.675
1764505725.8333757,18889.83,-21474.36,-8168.894999999999,-16343.19,-28674.27,-48017.52,-24335.505,-25361.145
1764505725.8333757,18893.565,-21472.83,-8166.465,-16340.58,-28670.67,-48013.2,-24335.055,-25359.57
1764505725.8333757,18897.615,-21469.86,-8162.37,-16336.71,-28665.36,-48008.07,-24333.48,-25356.735
1764505725.8333757,18904.77,-21465.81,-8157.87,-16332.75,-28660.095,-48003.615,-24331.05,-25350.075
1764505725.8333757,18905.49,-21467.565,-8160.389999999999,-16335.675,-28663.29,-48006.18,-24336.135,-25351.965
1764505725.8343916,18906.66,-21468.015,-8158.905,-16334.64,-28661.31,-48004.02,-24337.215,-25351.56
1764505725.8343916,18909.63,-21466.89,-8157.105,-16332.705,-28657.89,-48000.555,-24336.945,-25350.03
1764505725.8343916,18915.345,-21464.1,-8154.315,-16331.13,-28654.38,-47997.315,-24335.595,-25347.375
1764505725.8343916,18920.565,-21463.74,-8155.08,-16332.705,-28655.64,-47998.8,-24338.115,-25345.665
1764505725.877143,18922.95,-21464.595,-8156.565,-16335.0,-28658.07,-48001.545,-24341.715,-25345.89
1764505725.877143,18925.56,-21462.3,-8153.37,-16331.49,-28653.39,-47996.415,-24338.34,-25343.955
1764505725.8776524,18930.06,-21459.645,-8149.679999999999,-16327.575,-28648.035,-47989.935,-24334.65,-25341.345
1764505725.8776524,18930.87,-21461.04,-8150.13,-16329.555,-28649.16,-47991.87,-24336.495,-25343.145
1764505725.8776524,18931.635,-21460.905,-8149.5,-16330.095,-28648.215,-47990.88,-24336.855,-25342.875
1764505725.8776524,18930.285,-21463.47,-8152.2,-16332.705,-28650.915,-47992.59,-24340.095,-25346.115
1764505725.8776524,18933.21,-21462.615,-8151.795,-16331.175,-28648.53,-47990.745,-24338.34,-25345.755
1764505725.8776524,18939.465,-21459.645,-8149.275,-16329.105,-28645.65,-47987.865,-24335.595,-25341.795
1764505725.8776524,18944.595,-21456.45,-8145.63,-16325.055,-28641.42,-47983.275,-24331.545,-25338.87
1764505725.8776524,18948.915,-21453.48,-8141.58,-16321.365,-28636.515,-47979.09,-24327.09,-25337.205
1764505725.8776524,18957.42,-21448.71,-8137.844999999999,-16318.665,-28633.185,-47976.255,-24324.3,-25333.92
1764505725.8776524,18958.05,-21451.905,-8141.94,-16322.265,-28636.74,-47979.585,-24326.55,-25336.17
1764505725.8776524,18959.985,-21449.205,-8139.644999999999,-16319.205,-28632.465,-47974.59,-24322.275,-25335.225
1764505725.8776524,18965.295,-21444.12,-8135.82,-16316.82,-28630.125,-47972.205,-24319.08,-25333.425
1764505725.8776524,18967.68,-21442.41,-8133.57,-16315.065,-28628.64,-47972.025,-24317.91,-25332.705
1764505725.8776524,18962.415,-21448.215,-8136.764999999999,-16316.595,-28627.425,-47969.64,-24319.035,-25337.34
1764505725.8776524,18970.515,-21444.615,-8135.37,-16315.47,-28627.065,-47969.055,-24317.955,-25332.12
1764505725.8776524,18977.85,-21439.17,-8131.094999999999,-16311.06,-28622.745,-47964.78,-24313.545,-25326.495
1764505725.8776524,18978.165,-21437.145,-8128.17,-16308.0,-28617.165,-47959.965,-24311.52,-25327.665
1764505725.8776524,18981.135,-21434.535,-8127.134999999999,-16309.125,-28619.145,-47963.07,-24311.61,-25326.72
1764505725.8776524,18982.485,-21434.445,-8126.009999999999,-16307.28,-28615.32,-47958.21,-24307.785,-25325.19
1764505725.8776524,18985.455,-21433.005,-8122.5,-16302.6,-28609.74,-47951.82,-24302.07,-25319.7
1764505725.8776524,18990.0,-21432.915,-8123.174999999999,-16303.815,-28611.72,-47953.08,-24302.475,-25316.73
1764505725.8786666,18988.65,-21433.635,-8122.005,-16302.375,-28609.74,-47950.29,-24300.585,-25317.81
1764505725.9262114,18989.595,-21429.855,-8119.304999999999,-16301.205,-28608.48,-47949.57,-24298.155,-25317.36
1764505725.9262114,18990.36,-21427.875,-8118.719999999999,-16301.745,-28608.93,-47951.415,-24298.245,-25317.72
1764505725.9262114,18988.74,-21430.395,-8120.79,-16301.88,-28607.31,-47949.615,-24297.21,-25319.925
1764505725.9262114,18993.645,-21427.785,-8119.889999999999,-16301.43,-28607.67,-47950.56,-24295.95,-25318.125
1764505725.9262114,18992.43,-21430.215,-8122.005,-16303.5,-28609.56,-47952.99,-24297.435,-25318.665
1764505725.9262114,18990.27,-21430.035,-8120.745,-16301.43,-28607.04,-47949.93,-24294.87,-25320.555
1764505725.9262114,18991.08,-21429.36,-8120.115,-16302.645,-28608.525,-47951.73,-24293.7,-25321.68
1764505725.9262114,18991.215,-21430.08,-8120.07,-16302.375,-28607.535,-47951.01,-24291.99,-25322.31
1764505725.9262114,18992.07,-21428.82,-8118.945,-16299.72,-28604.97,-47948.76,-24287.805,-25321.23
1764505725.9262114,18991.845,-21427.065,-8117.684999999999,-16298.46,-28604.655,-47948.895,-24285.87,-25321.77
1764505725.9262114,18990.675,-21427.38,-8117.235,-16298.19,-28603.8,-47947.77,-24284.115,-25322.355
1764505725.9262114,18987.975,-21429.99,-8119.17,-16300.125,-28604.88,-47948.625,-24284.88,-25326.0
1764505725.9262114,18986.985,-21429.63,-8120.519999999999,-16302.105,-28608.75,-47953.395,-24285.78,-25328.565
1764505725.9262114,18987.03,-21428.82,-8119.44,-16300.935,-28607.445,-47951.91,-24282.18,-25328.115
1764505725.9262114,18982.35,-21432.87,-8122.545,-16303.635,-28610.37,-47954.565,-24283.395,-25332.705
1764505725.9262114,18979.605,-21433.635,-8124.255,-16305.39,-28612.44,-47957.4,-24283.845,-25335.045
1764505725.9262114,18976.995,-21435.03,-8125.514999999999,-16305.93,-28612.71,-47958.345,-24284.295,-25337.655
1764505725.9262114,18973.71,-21436.74,-8125.965,-16305.21,-28611.495,-47957.76,-24283.215,-25339.995
1764505725.927214,18971.775,-21437.19,-8125.695,-16306.11,-28613.97,-47959.335,-24281.055,-25340.49
1764505725.927214,18970.11,-21439.44,-8126.684999999999,-16305.615,-28613.745,-47958.255,-24278.445,-25341.75
1764505725.927214,18975.33,-21437.46,-8126.549999999999,-16304.58,-28612.305,-47958.48,-24275.205,-25336.62
1764505725.9282112,18975.195,-21440.43,-8131.23,-16310.07,-28617.795,-47963.34,-24279.615,-25339.905
1764505725.97355,18974.52,-21439.89,-8133.075,-16313.49,-28621.98,-47967.84,-24284.205,-25344.405
1764505725.97355,18970.785,-21439.53,-8134.29,-16316.325,-28625.805,-47973.24,-24287.895,-25349.985
1764505725.97355,18964.305,-21444.03,-8135.955,-16316.64,-28626.12,-47973.42,-24287.13,-25353.765
1764505725.97355,18962.01,-21447.315,-8138.519999999999,-16318.485,-28628.145,-47976.03,-24288.615,-25355.655
1764505725.97355,18960.12,-21450.33,-8142.165,-16322.49,-28633.05,-47980.89,-24290.865,-25358.535
1764505725.97355,18957.87,-21452.355,-8143.245,-16321.905,-28632.105,-47979.855,-24290.415,-25360.965
1764505725.97355,18957.285,-21452.94,-8144.009999999999,-16322.76,-28633.095,-47981.115,-24291.99,-25363.215
1764505725.97355,18955.26,-21453.84,-8144.955,-16324.29,-28633.815,-47981.655,-24292.89,-25365.33
1764505725.97355,18957.465,-21451.365,-8141.67,-16320.51,-28630.98,-47978.82,-24289.965,-25363.755
1764505725.9745634,18958.725,-21453.3,-8145.9,-16325.325,-28636.425,-47984.94,-24293.16,-25366.14
