Timestamp,Channel1,Channel2,Channel3,Channel4,Channel5,Channel6,Channel7,Channel8
1764505723.6746671,650.745,11320.335,-36616.455,-16541.235,-27044.685,-17518.454999999998,-7456.995,2585.07
1764505723.6746671,647.3249999999999,11317.905,-36618.03,-16542.225,-27047.43,-17521.335,-7459.514999999999,2580.705
1764505723.6746671,638.9549999999999,11305.575,-36631.305,-16554.465,-27054.45,-17518.95,-7460.19,2575.485
1764505723.6746671,632.385,11298.735,-36638.37,-16561.44,-27058.545,-17520.39,-7465.32,2568.42
1764505723.6746671,634.9499999999999,11302.47,-36634.545,-16556.535,-27053.865,-17516.565,-7465.32,2568.78
1764505723.6746671,637.47,11305.35,-36631.08,-16552.44,-27048.465,-17510.355,-7462.98,2571.525
1764505723.6746671,635.895,11304.585,-36632.295,-16554.42,-27051.93,-17514.945,-7465.365,2569.77
1764505723.6746671,630.135,11297.61,-36640.35,-16564.905,-27063.18,-17527.14,-7470.269999999999,2564.325
1764505723.6746671,632.88,11300.49,-36639.045,-16565.579999999998,-27065.88,-17533.665,-7471.485,2566.17
1764505723.6746671,633.645,11302.2,-36635.355,-16562.25,-27064.35,-17536.454999999998,-7474.094999999999,2563.695
1764505723.6746671,641.0699999999999,11311.605,-36624.915,-16551.495,-27055.44,-17530.829999999998,-7470.99,2568.015
1764505723.6746671,638.01,11308.77,-36627.39,-16554.015,-27058.68,-17535.69,-7476.03,2563.515
1764505723.6746671,633.645,11302.065,-36635.13,-16561.53,-27062.91,-17534.114999999998,-7476.75,2560.995
1764505723.6746671,629.595,11296.17,-36643.095,-16568.01,-27068.445,-17535.465,-7479.134999999999,2557.935
1764505723.6746671,626.0849999999999,11291.085,-36650.25,-16577.19,-27077.94,-17544.285,-7482.42,2554.965
1764505723.6746671,628.875,11293.74,-36647.64,-16577.64,-27081.945,-17554.23,-7484.94,2555.82
1764505723.6746671,630.27,11294.595,-36647.685,-16578.18,-27084.42,-17559.045,-7486.605,2556.54
1764505723.6746671,632.655,11296.08,-36645.93,-16576.38,-27082.215,-17555.625,-7485.75,2557.755
1764505723.6746671,633.87,11297.925,-36643.005,-16573.005,-27078.84,-17552.88,-7485.705,2558.07
1764505723.6746671,633.3299999999999,11298.015,-36642.915,-16571.925,-27079.02,-17553.329999999998,-7487.684999999999,2557.17
1764505723.6746671,640.035,11304.99,-36636.3,-16565.805,-27074.97,-17551.98,-7486.38,2561.76
1764505723.6746671,645.03,11311.83,-36627.705,-16558.29,-27070.38,-17552.07,-7488.315,2562.975
1764505723.6746671,643.68,11309.04,-36630.99,-16561.26,-27073.395,-17552.16,-7490.025,2561.31
1764505723.6746671,638.73,11303.145,-36638.37,-16568.415,-27078.345,-17554.095,-7492.995,2556.81
1764505723.7191863,644.85,11309.13,-36631.575,-16560.63,-27069.57,-17543.114999999998,-7488.54,2561.985
1764505723.7191863,639.81,11302.245,-36637.74,-16566.255,-27071.055,-17538.12,-7488.45,2558.655
1764505723.7197518,638.73,11302.29,-36638.1,-16567.515,-27073.89,-17542.035,-7491.014999999999,2556.18
1764505723.7197518,642.51,11305.89,-36635.58,-16563.555,-27070.065,-17538.39,-7490.16,2556.72
1764505723.7197518,647.73,11311.695,-36628.245,-16553.295,-27058.455,-17526.87,-7486.83,2560.86
1764505723.7197518,647.73,11312.82,-36627.255,-16552.62,-27058.905,-17527.454999999998,-7487.594999999999,2560.68
1764505723.7197518,650.43,11315.25,-36624.69,-16552.215,-27061.245,-17532.63,-7489.394999999999,2560.995
1764505723.7197518,648.27,11312.325,-36628.605,-16557.795,-27068.355,-17540.82,-7494.434999999999,2556.72
1764505723.7197518,644.715,11307.555,-36634.77,-16564.725,-27073.395,-17546.579999999998,-7498.799999999999,2551.59
1764505723.7197518,647.9549999999999,11310.255,-36632.835,-16563.645,-27074.655,-17550.495,-7499.474999999999,2553.12
1764505723.7197518,647.235,11307.105,-36636.255,-16565.76,-27078.12,-17555.535,-7499.924999999999,2553.975
1764505723.7197518,647.91,11307.87,-36635.355,-16564.32,-27079.065,-17558.37,-7503.974999999999,2551.95
1764505723.7197518,648.765,11308.545,-36636.3,-16565.805,-27080.19,-17557.829999999998,-7505.144999999999,2551.185
1764505723.7197518,657.0,11318.94,-36624.195,-16552.035,-27069.705,-17550.989999999998,-7503.525,2555.505
1764505723.7197518,659.6999999999999,11322.18,-36621.36,-16548.075,-27068.22,-17551.71,-7505.054999999999,2555.01
1764505723.7197518,650.0699999999999,11307.915,-36637.875,-16562.745,-27075.105,-17546.445,-7505.46,2550.87
1764505723.7197518,643.4549999999999,11297.655,-36649.17,-16571.97,-27080.235,-17543.07,-7507.575,2547.27
1764505723.7197518,645.84,11301.705,-36644.31,-16566.84,-27078.795,-17547.57,-7511.264999999999,2545.83
1764505723.7197518,646.3349999999999,11300.94,-36645.615,-16568.28,-27081.99,-17550.989999999998,-7513.695,2545.695
1764505723.7197518,644.265,11298.24,-36648.99,-16572.239999999998,-27086.49,-17554.77,-7516.215,2543.535
1764505723.7197518,642.87,11296.575,-36651.825,-16574.67,-27090.045,-17559.899999999998,-7519.049999999999,2541.015
1764505723.7197518,644.85,11297.565,-36651.555,-16573.995,-27090.99,-17562.555,-7520.67,2540.61
1764505723.7197518,647.01,11300.13,-36649.17,-16573.05,-27093.06,-17566.02,-7522.155,2540.745
1764505723.7197518,650.0699999999999,11301.57,-36647.55,-16571.79,-27091.665,-17564.67,-7521.57,2542.725
1764505723.763595,647.64,11298.735,-36650.565,-16573.545,-27095.04,-17567.415,-7525.394999999999,2538.945
1764505723.763595,650.52,11303.055,-36644.13,-16563.915,-27086.49,-17558.145,-7523.865,2539.485
1764505723.763595,651.9599999999999,11303.235,-36645.39,-16562.7,-27084.105,-17552.655,-7520.49,2541.555
1764505723.763595,648.36,11298.33,-36651.33,-16567.11,-27088.695,-17557.335,-7524.945,2536.605
1764505723.7646184,653.13,11302.785,-36647.28,-16560.315,-27083.88,-17553.645,-7524.405,2537.46
1764505723.7646184,654.39,11302.74,-36648.54,-16561.62,-27086.94,-17556.57,-7524.179999999999,2539.305
1764505723.7646184,653.49,11300.13,-36653.04,-16565.265,-27090.99,-17557.155,-7524.405,2539.665
1764505723.7646184,649.0799999999999,11295.36,-36658.08,-16568.505,-27093.33,-17557.515,-7527.599999999999,2534.535
1764505723.7646184,653.04,11300.355,-36653.895,-16564.23,-27090.855,-17561.79,-7527.195,2535.795
1764505723.7646184,653.895,11299.635,-36654.84,-16562.745,-27088.875,-17557.245,-7526.25,2535.93
1764505723.7646184,655.1999999999999,11299.365,-36656.415,-16562.295,-27087.075,-17551.98,-7524.719999999999,2536.74
1764505723.7646184,659.16,11301.48,-36657.36,-16564.184999999998,-27090.54,-17556.21,-7521.57,2542.005
1764505723.7646184,660.06,11299.905,-36660.78,-16568.415,-27095.895,-17562.78,-7521.929999999999,2542.86
1764505723.7646184,655.965,11293.515,-36671.04,-16581.555,-27111.375,-17581.905,-7528.905,2538.225
1764505723.7646184,657.27,11294.82,-36671.13,-16580.295,-27111.78,-17585.055,-7530.21,2538.0
1764505723.7646184,655.02,11292.93,-36672.3,-16577.82,-27108.09,-17580.239999999998,-7531.92,2534.22
1764505723.7646184,660.78,11297.925,-36668.835,-16574.22,-27105.075,-17576.774999999998,-7527.825,2538.9
1764505723.7646184,664.11,11301.39,-36666.0,-16572.645,-27105.435,-17578.53,-7527.105,2541.06
1764505723.7646184,667.305,11303.325,-36665.325,-16571.07,-27103.185,-17576.19,-7525.394999999999,2542.545
1764505723.7658782,667.35,11303.37,-36664.785,-16569.899999999998,-27100.35,-17573.13,-7525.62,2541.78
1764505723.7663872,663.75,11298.735,-36668.835,-16573.274999999998,-27101.25,-17572.545,-7526.969999999999,2537.505
1764505723.7674046,668.115,11303.19,-36665.055,-16568.595,-27095.58,-17566.695,-7524.269999999999,2540.61
1764505723.809965,672.84,11308.86,-36659.205,-16563.555,-27092.205,-17564.715,-7522.92,2541.78
1764505723.809965,673.785,11309.445,-36659.115,-16562.97,-27091.71,-17565.614999999998,-7523.28,2540.97
1764505723.809965,670.9499999999999,11304.27,-36665.505,-16566.345,-27091.755,-17564.175,-7522.605,2539.98
1764505723.809965,670.9499999999999,11302.155,-36667.395,-16567.38,-27090.63,-17563.68,-7522.695,2539.89
1764505723.8109825,676.395,11307.69,-36662.58,-16565.805,-27092.295,-17568.45,-7523.054999999999,2541.24
1764505723.8109825,677.295,11307.69,-36662.175,-16565.67,-27093.015,-17570.61,-7523.91,2540.745
1764505723.8109825,675.9449999999999,11306.745,-36664.245,-16565.535,-27092.385,-17569.845,-7524.54,2539.305
1764505723.8109825,671.355,11302.11,-36669.105,-16569.72,-27095.445,-17571.645,-7527.87,2534.625
1764505723.8109825,674.415,11304.855,-36664.965,-16564.905,-27090.63,-17566.695,-7525.485,2535.975
1764505723.8109825,673.56,11301.795,-36669.555,-16567.695,-27090.045,-17561.475,-7522.469999999999,2536.29
1764505723.8109825,678.51,11307.105,-36664.785,-16562.61,-27085.365,-17559.405,-7520.58,2539.98
1764505723.8109825,682.65,11312.235,-36659.88,-16557.345,-27081.765,-17557.92,-7519.32,2541.51
1764505723.8109825,684.3149999999999,11314.26,-36658.08,-16554.78,-27079.38,-17554.454999999998,-7518.195,2542.095
1764505723.8109825,681.615,11311.605,-36661.005,-16557.48,-27080.685,-17555.715,-7519.275,2539.71
1764505723.811983,676.0799999999999,11304.945,-36667.845,-16563.915,-27085.005,-17558.235,-7522.29,2535.39
1764505723.811983,681.12,11309.58,-36663.255,-16559.774999999998,-27081.315,-17555.76,-7517.969999999999,2539.395
1764505723.811983,684.0,11312.505,-36661.59,-16557.524999999998,-27081.18,-17557.38,-7516.934999999999,2541.015
1764505723.813571,683.055,11312.37,-36662.085,-16558.829999999998,-27084.24,-17563.815,-7519.905,2539.305
1764505723.813571,682.605,11312.325,-36662.04,-16558.695,-27083.205,-17563.364999999998,-7520.67,2539.485
1764505723.813571,685.98,11316.42,-36657.63,-16554.555,-27078.12,-17560.17,-7518.78,2542.545
1764505723.813571,689.5799999999999,11320.56,-36654.12,-16550.145,-27073.98,-17555.895,-7515.134999999999,2546.28
1764505723.813571,676.845,11305.215,-36670.59,-16565.22,-27084.195,-17557.829999999998,-7519.769999999999,2537.235
1764505723.813571,677.5649999999999,11305.305,-36671.94,-16566.434999999998,-27085.77,-17559.315,-7519.769999999999,2538.27
1764505723.813571,679.185,11306.745,-36670.32,-16565.13,-27088.245,-17566.515,-7521.299999999999,2538.405
1764505723.8570795,681.255,11308.545,-36668.925,-16562.52,-27086.4,-17564.445,-7519.905,2540.88
1764505723.8570795,680.265,11307.465,-36669.915,-16563.105,-27086.94,-17563.995,-7519.905,2539.62
1764505723.8570795,683.055,11311.47,-36666.225,-16559.37,-27083.295,-17561.25,-7517.115,2542.815
1764505723.8570795,683.145,11312.64,-36665.28,-16558.605,-27082.755,-17561.52,-7517.25,2542.635
1764505723.8570795,682.47,11312.28,-36666.54,-16560.495,-27086.085,-17565.975,-7518.825,2541.555
1764505723.8570795,684.72,11314.53,-36664.515,-16557.93,-27083.655,-17562.87,-7517.7,2543.355
1764505723.8570795,686.025,11314.845,-36663.93,-16556.76,-27081.855,-17560.215,-7516.799999999999,2544.57
1764505723.8570795,680.895,11309.4,-36669.33,-16561.62,-27087.345,-17565.57,-7521.84,2538.63
1764505723.8570795,684.72,11313.585,-36666.495,-16557.704999999998,-27083.925,-17561.295,-7519.23,2542.185
1764505723.8570795,686.2049999999999,11316.06,-36663.705,-16553.79,-27080.505,-17557.245,-7517.205,2545.02
1764505723.8570795,684.3149999999999,11314.8,-36663.795,-16553.16,-27080.865,-17557.605,-7517.115,2543.67
1764505723.8570795,687.285,11317.41,-36661.095,-16549.155,-27077.265,-17552.475,-7513.469999999999,2547.675
1764505723.8570795,687.51,11316.96,-36661.815,-16549.739999999998,-27077.22,-17552.204999999998,-7513.559999999999,2548.395
1764505723.8570795,683.685,11312.595,-36664.47,-16553.07,-27080.46,-17554.725,-7516.485,2544.975
1764505723.8586743,683.055,11312.46,-36664.515,-16552.44,-27081.225,-17554.68,-7516.665,2544.84
1764505723.8586743,687.555,11317.185,-36658.305,-16546.23,-27077.355,-17551.215,-7513.245,2549.07
1764505723.8586743,695.52,11326.05,-36649.26,-16537.23,-27068.445,-17544.825,-7508.429999999999,2556.945
1764505723.8586743,697.23,11328.705,-36646.245,-16535.204999999998,-27067.095,-17546.175,-7508.205,2559.6
1764505723.8586743,697.14,11328.255,-36645.84,-16534.215,-27067.275,-17546.579999999998,-7508.07,2559.96
1764505723.8586743,696.6899999999999,11325.645,-36648.945,-16534.934999999998,-27063.675,-17536.005,-7504.65,2561.985
1764505723.8586743,693.135,11321.055,-36652.455,-16537.454999999998,-27063.72,-17530.38,-7503.57,2560.68
1764505723.8586743,693.045,11321.73,-36650.565,-16536.195,-27065.205,-17535.105,-7504.92,2560.41
1764505723.8586743,695.8349999999999,11323.575,-36648.675,-16533.989999999998,-27061.74,-17529.84,-7502.219999999999,2564.235
1764505723.8586743,695.52,11322.09,-36650.025,-16535.565,-27063.81,-17532.225,-7502.715,2564.01
1764505723.906674,693.855,11320.92,-36651.105,-16536.555,-27068.22,-17539.695,-7505.505,2562.975
1764505723.906674,699.255,11324.655,-36647.865,-16531.965,-27063.72,-17535.195,-7501.634999999999,2568.6
1764505723.9076896,702.54,11328.885,-36641.745,-16525.98,-27058.185,-17531.73,-7500.33,2570.895
1764505723.9076896,703.62,11331.0,-36638.595,-16521.66,-27055.305,-17532.27,-7502.04,2570.445
1764505723.9076896,703.755,11330.64,-36637.92,-16519.995,-27054.27,-17532.27,-7503.344999999999,2568.24
1764505723.9076896,704.88,11329.965,-36639.36,-16522.245,-27057.15,-17533.26,-7501.724999999999,2570.31
1764505723.9076896,700.875,11321.28,-36649.17,-16529.085,-27059.4,-17526.149999999998,-7500.375,2569.5
1764505723.908683,698.355,11316.42,-36652.995,-16532.37,-27061.335,-17524.079999999998,-7502.219999999999,2567.97
1764505723.908683,706.185,11325.6,-36642.195,-16522.38,-27055.755,-17524.035,-7501.995,2570.985
1764505723.908683,709.155,11328.345,-36638.37,-16517.7,-27052.47,-17520.975,-7502.67,2571.345
1764505723.909354,708.93,11328.21,-36636.48,-16515.675,-27050.625,-17520.75,-7504.965,2568.105
1764505723.909354,710.9549999999999,11329.335,-36635.31,-16512.704999999998,-27046.26,-17515.8,-7503.389999999999,2570.67
1764505723.909354,714.015,11328.435,-36637.695,-16512.57,-27044.685,-17514.54,-7500.24,2575.98
1764505723.909354,717.66,11330.37,-36637.47,-16512.3,-27046.62,-17517.329999999998,-7501.365,2576.385
1764505723.909354,720.9,11332.845,-36634.545,-16510.5,-27045.27,-17516.16,-7500.375,2577.915
1764505723.909354,718.155,11329.2,-36636.57,-16511.85,-27048.06,-17520.39,-7505.46,2573.64
1764505723.909354,720.9,11330.55,-36635.22,-16510.68,-27048.87,-17523.675,-7507.755,2574.855
1764505723.9103713,727.92,11334.735,-36631.17,-16506.765,-27045.54,-17519.94,-7504.019999999999,2580.48
1764505723.9103713,729.135,11335.23,-36632.655,-16505.595,-27041.49,-17514.09,-7502.849999999999,2581.245
1764505723.9103713,731.655,11336.76,-36630.945,-16501.364999999998,-27036.405,-17508.87,-7502.849999999999,2582.73
1764505723.9103713,731.025,11334.285,-36632.205,-16501.68,-27037.08,-17509.59,-7506.855,2579.85
1764505723.9103713,738.225,11341.125,-36623.79,-16492.184999999998,-27025.965,-17498.565,-7503.12,2584.8
1764505723.911361,743.355,11345.445,-36619.155,-16485.885,-27018.54,-17489.79,-7499.115,2588.265
1764505723.911361,744.255,11344.32,-36619.83,-16485.03,-27017.1,-17488.71,-7501.005,2587.095
1764505723.9517448,744.66,11343.15,-36619.65,-16483.545,-27016.56,-17490.105,-7504.74,2584.17
1764505723.9517448,749.16,11345.985,-36615.24,-16479.585,-27013.23,-17486.415,-7504.74,2585.385
1764505723.9517448,754.74,11349.36,-36612.315,-16478.595,-27015.615,-17492.579999999998,-7506.09,2588.265
1764505723.9517448,755.73,11348.055,-36617.31,-16486.649999999998,-27027.765,-17510.445,-7510.815,2586.69
1764505723.9517448,759.42,11349.405,-36617.265,-16485.84,-27029.43,-17513.37,-7511.58,2586.735
1764505723.9517448,760.5899999999999,11345.985,-36621.315,-16488.09,-27028.26,-17504.954999999998,-7510.184999999999,2587.275
1764505723.9517448,756.99,11338.065,-36630.18,-16495.92,-27031.725,-17503.695,-7513.019999999999,2582.865
1764505723.9517448,764.685,11344.14,-36623.79,-16488.989999999998,-27027.765,-17506.62,-7512.21,2585.745
1764505723.9543068,773.28,11350.53,-36617.31,-16484.76,-27024.3,-17505.945,-7509.014999999999,2590.65
1764505723.9543068,773.595,11349.495,-36618.075,-16487.145,-27027.99,-17511.165,-7511.67,2587.68
1764505723.955315,779.355,11353.86,-36613.755,-16482.42,-27024.75,-17509.59,-7508.835,2590.74
1764505723.955315,781.3349999999999,11354.85,-36611.865,-16479.945,-27021.42,-17506.98,-7509.014999999999,2589.345
1764505723.955315,784.395,11355.93,-36609.3,-16475.715,-27015.705,-17502.255,-7509.24,2589.03
1764505723.9563258,786.555,11356.92,-36607.455,-16473.239999999998,-27014.04,-17501.805,-7510.32,2587.32
1764505723.9563258,790.6949999999999,11359.665,-36603.945,-16469.774999999998,-27008.865,-17492.94,-7507.304999999999,2590.875
1764505723.9563258,791.28,11359.62,-36604.215,-16469.505,-27008.955,-17494.92,-7508.025,2590.695
1764505723.9573328,790.02,11357.55,-36607.23,-16471.62,-27011.655,-17498.385,-7509.87,2589.03
1764505723.9573328,794.025,11360.16,-36605.205,-16469.954999999998,-27009.855,-17498.204999999998,-7509.24,2591.19
1764505723.9583416,800.685,11365.245,-36599.22,-16463.34,-27001.035,-17488.53,-7504.74,2596.5
1764505723.9583416,799.29,11362.995,-36601.245,-16464.645,-27000.36,-17486.864999999998,-7506.315,2594.295
1764505723.9583416,802.5749999999999,11365.785,-36597.6,-16460.82,-26996.58,-17486.505,-7505.28,2595.285
1764505723.959332,798.255,11362.77,-36600.795,-16461.18,-26994.465,-17483.67,-7508.429999999999,2590.11
1764505723.9999945,799.3349999999999,11364.21,-36599.085,-16457.175,-26989.83,-17476.965,-7506.09,2591.415
1764505723.9999945,805.905,11369.97,-36592.245,-16455.285,-26993.205,-17482.005,-7503.615,2595.555
1764505723.9999945,802.935,11364.57,-36599.895,-16462.485,-27000.765,-17491.59,-7506.54,2593.485
1764505723.9999945,806.805,11368.62,-36597.015,-16464.195,-27004.005,-17499.105,-7508.34,2595.375
1764505723.9999945,810.4499999999999,11372.895,-36592.47,-16460.864999999998,-27001.17,-17496.36,-7505.91,2597.94
1764505723.9999945,811.935,11375.46,-36588.42,-16455.059999999998,-26993.79,-17487.63,-7503.389999999999,2599.56
1764505723.9999945,815.895,11378.88,-36585.045,-16450.605,-26987.13,-17480.97,-7500.105,2602.62
1764505723.9999945,817.3349999999999,11379.69,-36584.865,-16450.785,-26989.47,-17485.829999999998,-7501.86,2601.945
1764505723.9999945,822.06,11385.45,-36578.025,-16444.755,-26986.59,-17486.954999999998,-7501.545,2603.97
1764505723.9999945,821.8349999999999,11384.505,-36577.935,-16442.595,-26985.06,-17483.805,-7501.32,2602.98
1764505723.9999945,819.81,11380.005,-36584.415,-16447.095,-26986.5,-17477.864999999998,-7498.98,2603.295
1764505723.9999945,819.4499999999999,11380.23,-36583.875,-16447.14,-26986.5,-17481.329999999998,-7500.644999999999,2601.99
1764505723.9999945,818.28,11377.98,-36585.36,-16447.545,-26985.105,-17478.945,-7501.86,2600.28
1764505723.9999945,821.385,11380.545,-36582.03,-16442.415,-26979.48,-17470.665,-7499.565,2602.665
1764505723.9999945,824.9399999999999,11384.55,-36578.565,-16439.625,-26980.29,-17476.47,-7499.474999999999,2604.06
1764505724.001004,822.78,11381.535,-36583.065,-16446.329999999998,-26989.695,-17488.305,-7503.48,2600.595
1764505724.001004,824.67,11381.985,-36584.145,-16448.22,-26990.46,-17485.785,-7502.894999999999,2601.63
1764505724.001004,819.99,11375.91,-36590.355,-16453.755,-26996.04,-17490.239999999998,-7507.62,2596.005
1764505724.001004,824.13,11381.625,-36584.415,-16446.87,-26990.595,-17488.305,-7505.82,2599.02
1764505724.001004,819.36,11377.845,-36587.34,-16449.795,-26992.98,-17491.815,-7509.69,2594.07
1764505724.001004,820.17,11378.025,-36585.945,-16447.095,-26990.685,-17491.32,-7509.69,2593.935
1764505724.0020072,822.015,11379.78,-36584.235,-16443.63,-26988.21,-17489.43,-7510.23,2592.72
1764505724.0020072,820.35,11377.845,-36587.205,-16445.655,-26988.345,-17487.27,-7511.13,2589.93
1764505724.0020072,822.555,11379.285,-36586.62,-16444.44,-26982.405,-17475.795,-7508.565,2591.505
1764505724.0478992,825.93,11382.21,-36584.37,-16442.595,-26982.54,-17478.225,-7506.63,2592.405
1764505724.0478992,821.655,11378.25,-36586.89,-16444.8,-26988.39,-17488.079999999998,-7509.33,2589.435
1764505724.0478992,819.855,11376.405,-36588.06,-16442.82,-26986.545,-17486.64,-7508.88,2590.155
1764505724.0488908,817.38,11374.245,-36591.39,-16448.715,-26994.33,-17491.05,-7512.389999999999,2585.43
1764505724.0488908,823.3199999999999,11382.03,-36586.035,-16449.075,-26999.055,-17498.16,-7511.309999999999,2589.165
1764505724.0488908,827.145,11384.775,-36584.19,-16446.645,-26996.4,-17499.6,-7510.545,2591.505
1764505724.0488908,822.105,11378.43,-36591.39,-16452.27,-26999.685,-17502.434999999998,-7512.929999999999,2587.86
1764505724.0488908,821.16,11377.215,-36593.19,-16455.015,-27003.24,-17503.965,-7514.099999999999,2586.24
1764505724.0499134,830.0699999999999,11388.465,-36581.67,-16443.63,-26995.68,-17500.364999999998,-7510.679999999999,2592.27
1764505724.0499134,832.995,11392.155,-36575.865,-16437.69,-26989.515,-17493.614999999998,-7509.465,2593.485
1764505724.0499134,826.4699999999999,11384.73,-36582.525,-16444.079999999998,-26989.695,-17486.19,-7509.554999999999,2588.895
1764505724.0499134,821.5649999999999,11381.58,-36585.36,-16446.015,-26988.795,-17484.39,-7511.355,2583.405
1764505724.0499134,826.56,11389.41,-36575.64,-16431.84,-26973.945,-17473.32,-7509.105,2586.555
1764505724.050912,813.1949999999999,11373.435,-36591.93,-16442.415,-26982.72,-17479.845,-7510.769999999999,2580.48
1764505724.050912,813.6899999999999,11370.285,-36601.155,-16460.235,-27008.415,-17504.91,-7511.535,2582.46
1764505724.050912,822.6,11383.65,-36586.08,-16450.515,-27002.34,-17500.635,-7511.13,2586.24
1764505724.050912,825.66,11389.14,-36579.645,-16442.595,-26992.62,-17495.505,-7509.915,2588.085
1764505724.0519245,819.7199999999999,11382.255,-36588.555,-16449.75,-26997.615,-17498.114999999998,-7510.995,2584.755
1764505724.0519245,808.6949999999999,11370.285,-36603.045,-16464.78,-27010.98,-17506.53,-7515.224999999999,2577.06
1764505724.0519245,808.56,11371.77,-36599.715,-16462.845,-27011.655,-17509.005,-7516.844999999999,2575.845
1764505724.0519245,812.2049999999999,11375.73,-36594.585,-16456.23,-27005.265,-17502.57,-7512.12,2579.94
1764505724.0519245,812.475,11376.81,-36593.235,-16455.239999999998,-27004.41,-17503.92,-7510.094999999999,2580.345
1764505724.0919976,820.0799999999999,11386.17,-36583.2,-16448.625,-27002.565,-17505.495,-7506.764999999999,2586.06
1764505724.0919976,815.805,11381.895,-36588.24,-16453.44,-27008.46,-17512.02,-7509.87,2582.235
1764505724.0919976,813.9599999999999,11379.645,-36592.29,-16455.555,-27005.67,-17505.27,-7506.585,2582.73
1764505724.0919976,810.99,11376.63,-36595.89,-16460.1,-27009.225,-17507.204999999998,-7508.25,2579.22
1764505724.0919976,815.4,11383.335,-36589.005,-16453.89,-27003.375,-17502.434999999998,-7504.559999999999,2583.27
1764505724.0919976,815.31,11384.1,-36587.79,-16450.92,-26999.955,-17499.149999999998,-7502.13,2583.315
1764505724.0919976,813.51,11383.605,-36587.565,-16450.38,-26998.695,-17498.024999999998,-7501.32,2582.145
1764505724.0919976,812.43,11384.415,-36586.62,-16450.875,-26999.1,-17499.375,-7500.87,2581.11
1764505724.0919976,812.025,11383.65,-36588.915,-16453.755,-27000.855,-17497.845,-7498.304999999999,2582.64
1764505724.0919976,813.87,11385.27,-36588.78,-16453.755,-26999.145,-17496.809999999998,-7494.795,2586.735
1764505724.0919976,815.265,11388.42,-36585.765,-16451.235,-26995.14,-17492.445,-7492.365,2587.41
1764505724.0919976,813.4649999999999,11389.77,-36582.885,-16448.76,-26992.89,-17490.285,-7495.29,2583.495
1764505724.0919976,812.61,11391.39,-36579.87,-16445.204999999998,-26987.805,-17484.84,-7495.155,2583.54
1764505724.0919976,801.675,11380.05,-36589.32,-16453.26,-26995.23,-17489.475,-7495.065,2579.04
1764505724.0941956,803.25,11377.665,-36594.99,-16459.739999999998,-27004.59,-17497.845,-7490.474999999999,2584.755
1764505724.0947285,812.43,11392.11,-36580.23,-16449.524999999998,-26999.955,-17499.6,-7491.42,2587.77
1764505724.0947285,815.04,11397.06,-36573.705,-16444.44,-26995.095,-17496.63,-7489.259999999999,2589.39
1764505724.0947285,816.7049999999999,11398.995,-36571.95,-16441.829999999998,-26988.615,-17488.665,-7484.13,2593.755
1764505724.0947285,819.045,11402.595,-36567.495,-16437.149999999998,-26983.44,-17485.965,-7481.745,2595.105
1764505724.0947285,817.3349999999999,11401.155,-36567.99,-16435.35,-26979.12,-17483.13,-7479.945,2593.665
1764505724.0947285,811.8449999999999,11393.37,-36576.855,-16438.77,-26978.895,-17478.495,-7478.91,2593.26
1764505724.0947285,812.8349999999999,11397.555,-36572.22,-16442.595,-26988.21,-17488.44,-7479.764999999999,2592.99
1764505724.0947285,817.4699999999999,11405.655,-36562.095,-16437.51,-26984.655,-17484.75,-7477.469999999999,2596.86
1764505724.0947285,811.935,11399.085,-36567.45,-16437.69,-26979.48,-17477.46,-7478.505,2593.935
1764505724.1387718,804.4649999999999,11388.555,-36577.89,-16441.11,-26978.85,-17477.37,-7479.224999999999,2590.38
1764505724.1387718,806.31,11390.31,-36580.455,-16449.39,-26991.405,-17491.68,-7480.575,2591.055
1764505724.1387718,812.115,11398.59,-36570.51,-16444.62,-26990.1,-17491.995,-7476.795,2596.185
1764505724.1387718,807.7049999999999,11395.035,-36572.445,-16445.114999999998,-26988.84,-17490.915,-7478.415,2593.08
1764505724.1387718,813.42,11401.92,-36564.705,-16437.915,-26982.495,-17486.01,-7474.679999999999,2597.265
1764505724.1387718,819.27,11407.23,-36560.115,-16432.065,-26974.98,-17477.1,-7467.255,2604.15
1764505724.1387718,816.12,11404.62,-36562.32,-16434.405,-26975.385,-17473.905,-7465.41,2604.105
1764505724.1387718,811.0799999999999,11404.35,-36559.62,-16432.785,-26975.205,-17477.1,-7470.855,2599.695
1764505724.1387718,808.0649999999999,11403.18,-36558.27,-16426.845,-26967.69,-17472.105,-7470.495,2596.545
1764505724.1387718,803.88,11392.56,-36573.21,-16432.425,-26969.13,-17470.665,-7467.66,2598.255
1764505724.1387718,809.3249999999999,11399.13,-36565.605,-16432.2,-26973.72,-17474.895,-7465.184999999999,2603.25
1764505724.1387718,817.38,11408.985,-36555.03,-16430.13,-26973.72,-17473.635,-7461.269999999999,2609.415
1764505724.1387718,821.385,11410.83,-36555.12,-16430.04,-26974.755,-17477.82,-7458.795,2614.77
1764505724.1403933,818.8199999999999,11406.51,-36561.69,-16436.25,-26979.75,-17484.614999999998,-7458.929999999999,2613.015
1764505724.1403933,822.8249999999999,11414.565,-36551.655,-16426.665,-26973.045,-17480.97,-7455.735,2616.57
1764505724.1403933,816.255,11410.155,-36553.77,-16427.295,-26973.99,-17483.625,-7457.49,2613.195
1764505724.1403933,819.7199999999999,11413.575,-36550.26,-16424.505,-26971.065,-17479.845,-7454.835,2616.48
1764505724.1403933,817.0649999999999,11412.18,-36550.845,-16425.315,-26970.615,-17478.989999999998,-7456.455,2613.15
1764505724.1403933,822.105,11418.255,-36544.23,-16417.755,-26962.74,-17471.925,-7452.36,2617.785
1764505724.1403933,821.52,11417.805,-36543.915,-16417.755,-26963.37,-17473.905,-7452.945,2617.47
1764505724.1403933,816.48,11411.235,-36550.62,-16424.19,-26968.005,-17475.885,-7455.69,2614.41
1764505724.1403933,813.06,11406.96,-36554.175,-16426.485,-26966.655,-17471.07,-7455.915,2613.78
1764505724.1403933,818.235,11414.79,-36545.58,-16419.239999999998,-26961.435,-17470.079999999998,-7454.88,2617.11
1764505724.1414073,820.755,11418.93,-36541.845,-16417.305,-26961.705,-17474.13,-7453.844999999999,2619.045
1764505724.1851392,818.91,11416.725,-36543.87,-16418.88,-26962.74,-17476.155,-7453.394999999999,2618.82
1764505724.1851392,813.06,11409.21,-36552.33,-16428.059999999998,-26970.39,-17482.5,-7456.545,2614.77
1764505724.1851392,813.9599999999999,11409.705,-36550.98,-16426.8,-26965.89,-17473.68,-7454.969999999999,2615.22
1764505724.1851392,812.2049999999999,11407.23,-36552.195,-16427.475,-26965.53,-17473.14,-7457.894999999999,2612.79
1764505724.1851392,815.355,11411.505,-36546.57,-16422.12,-26961.66,-17474.309999999998,-7457.355,2614.68
1764505724.1861625,817.245,11414.7,-36542.565,-16418.79,-26960.715,-17477.55,-7458.03,2616.21
1764505724.1861625,817.3349999999999,11415.105,-36542.52,-16420.545,-26962.2,-17478.72,-7459.785,2615.355
1764505724.1861625,812.9699999999999,11411.37,-36546.705,-16424.595,-26961.615,-17472.51,-7460.82,2610.45
1764505724.1861625,807.255,11406.375,-36551.52,-16428.915,-26965.71,-17476.92,-7463.429999999999,2605.905
1764505724.1861625,802.755,11398.725,-36559.035,-16433.415,-26965.98,-17477.055,-7460.325,2608.425
1764505724.1861625,802.935,11399.355,-36558.765,-16434.045,-26966.07,-17477.055,-7462.844999999999,2606.535
1764505724.1861625,802.8449999999999,11399.355,-36559.17,-16426.98,-26955.54,-17464.905,-7462.755,2605.68
1764505724.1861625,809.4599999999999,11407.995,-36549.99,-16419.78,-26952.345,-17462.43,-7459.065,2611.26
1764505724.1861625,816.795,11418.48,-36538.29,-16418.52,-26958.105,-17473.635,-7459.155,2614.32
1764505724.1861625,808.875,11407.635,-36549.855,-16418.835,-26949.195,-17463.69,-7460.684999999999,2610.135
1764505724.1861625,803.385,11399.58,-36558.63,-16425.27,-26957.7,-17471.114999999998,-7463.474999999999,2607.75
1764505724.1861625,805.3199999999999,11405.16,-36549.72,-16427.97,-26968.77,-17483.625,-7466.13,2607.75
1764505724.1861625,808.9649999999999,11407.5,-36546.48,-16426.62,-26961.705,-17472.78,-7462.035,2611.305
1764505724.1861625,802.035,11394.72,-36564.345,-16430.22,-26951.355,-17456.625,-7458.615,2609.505
1764505724.1861625,797.22,11390.175,-36570.33,-16430.445,-26951.4,-17458.425,-7460.549999999999,2605.41
1764505724.1871622,803.88,11401.425,-36557.505,-16426.755,-26957.97,-17470.305,-7460.415,2607.885
1764505724.1871622,805.14,11404.035,-36552.195,-16427.835,-26967.69,-17482.995,-7460.37,2610.81
1764505724.1871622,809.4599999999999,11413.53,-36539.46,-16423.065,-26971.2,-17491.59,-7463.519999999999,2612.79
1764505724.1871622,811.935,11415.33,-36538.425,-16424.864999999998,-26972.415,-17492.715,-7462.08,2614.23
1764505724.235744,811.62,11416.275,-36537.345,-16419.285,-26964.315,-17484.255,-7459.155,2614.995
1764505724.235744,811.755,11417.445,-36535.77,-16417.305,-26961.48,-17481.78,-7457.58,2615.535
1764505724.235744,807.795,11412.135,-36541.215,-16421.579999999998,-26962.965,-17481.96,-7458.615,2612.835
1764505724.235744,807.525,11412.045,-36541.575,-16419.735,-26958.465,-17477.415,-7457.309999999999,2613.375
1764505724.235744,808.6949999999999,11413.26,-36539.955,-16418.16,-26957.07,-17475.255,-7455.285,2615.175
1764505724.235744,806.265,11410.47,-36543.195,-16423.245,-26960.94,-17479.934999999998,-7455.014999999999,2614.725
1764505724.235744,807.66,11411.19,-36543.645,-16421.94,-26958.24,-17476.739999999998,-7452.269999999999,2616.615
1764505724.235744,808.38,11411.595,-36543.87,-16421.265,-26955.405,-17473.995,-7448.849999999999,2618.775
1764505724.235744,808.155,11409.12,-36546.255,-16421.715,-26951.985,-17468.864999999998,-7443.269999999999,2622.555
1764505724.235744,803.0699999999999,11406.735,-36549.27,-16423.155,-26954.73,-17470.215,-7448.445,2617.02
1764505724.235744,818.01,11429.64,-36521.865,-16404.165,-26945.145,-17470.485,-7445.115,2625.03
1764505724.235744,824.76,11433.78,-36518.22,-16398.225,-26938.125,-17465.22,-7438.005,2634.345
1764505724.235744,820.98,11427.21,-36525.96,-16403.309999999998,-26937.315,-17457.93,-7435.17,2634.84
1764505724.235744,814.545,11418.57,-36536.22,-16414.965,-26943.795,-17459.864999999998,-7436.07,2631.555
1764505724.235744,816.255,11423.295,-36531.945,-16406.64,-26933.58,-17447.085,-7433.639999999999,2631.915
1764505724.235744,816.93,11424.555,-36529.695,-16400.835,-26929.98,-17446.995,-7434.269999999999,2629.935
1764505724.236743,817.56,11424.06,-36530.19,-16407.045,-26941.68,-17462.79,-7434.045,2632.635
1764505724.236743,823.3199999999999,11430.45,-36523.125,-16401.69,-26937.09,-17461.71,-7430.985,2636.505
1764505724.236743,830.52,11438.505,-36514.62,-16392.149999999998,-26928.0,-17453.745,-7425.315,2642.85
1764505724.2377398,822.285,11428.785,-36526.14,-16402.77,-26934.525,-17455.14,-7429.634999999999,2637.225
1764505724.2377398,828.99,11435.175,-36520.83,-16398.18,-26931.24,-17453.97,-7425.99,2642.445
1764505724.2377398,819.81,11424.015,-36531.54,-16401.375,-26929.215,-17447.085,-7428.195,2635.875
1764505724.2377398,829.8,11436.21,-36518.94,-16397.864999999998,-26932.86,-17452.305,-7426.889999999999,2639.79
1764505724.2387328,838.7099999999999,11445.975,-36509.22,-16389.135,-26925.165,-17448.345,-7419.78,2646.315
1764505724.2819831,839.0699999999999,11443.5,-36511.29,-16381.17,-26907.93,-17426.97,-7413.03,2649.78
1764505724.282494,840.285,11444.895,-36507.69,-16372.53,-26892.36,-17407.125,-7413.12,2649.42
1764505724.282494,828.9,11426.58,-36528.75,-16388.73,-26902.98,-17407.62,-7414.2,2647.08
1764505724.282494,834.2099999999999,11435.265,-36518.895,-16387.965,-26912.925,-17422.739999999998,-7416.045,2646.99
1764505724.282494,838.26,11441.25,-36511.335,-16386.39,-26923.5,-17446.005,-7415.37,2648.745
1764505724.282494,840.06,11439.45,-36515.475,-16395.93,-26940.285,-17471.295,-7417.934999999999,2651.895
1764505724.282494,838.7099999999999,11441.385,-36513.27,-16394.355,-26939.07,-17469.945,-7420.905,2648.34
1764505724.282494,836.4599999999999,11438.955,-36515.61,-16390.98,-26931.06,-17458.649999999998,-7419.105,2647.17
1764505724.282494,837.135,11437.605,-36514.935,-16385.895,-26922.105,-17448.12,-7415.415,2648.385
1764505724.282494,835.8299999999999,11435.805,-36517.095,-16386.704999999998,-26921.52,-17444.745,-7414.335,2648.16
1764505724.282494,839.8349999999999,11442.42,-36510.03,-16385.985,-26923.815,-17446.545,-7413.389999999999,2649.465
1764505724.282494,843.66,11447.28,-36505.665,-16381.755,-26918.865,-17439.885,-7411.139999999999,2652.03
1764505724.282494,838.935,11439.72,-36513.495,-16383.87,-26918.865,-17439.704999999998,-7410.915,2649.42
1764505724.282494,836.055,11435.445,-36518.94,-16385.625,-26919.675,-17440.02,-7411.905,2649.555
1764505724.282494,838.305,11441.25,-36511.065,-16381.17,-26916.39,-17437.77,-7411.59,2649.78
1764505724.282494,832.23,11434.05,-36520.74,-16391.565,-26925.615,-17445.195,-7415.594999999999,2645.145
1764505724.282494,832.23,11433.645,-36521.775,-16392.69,-26926.425,-17445.015,-7413.255,2647.08
1764505724.282494,828.81,11430.495,-36525.69,-16395.975,-26928.27,-17447.04,-7414.695,2643.885
1764505724.282494,832.635,11435.4,-36519.615,-16388.774999999998,-26919.63,-17438.94,-7411.365,2646.72
1764505724.282494,830.16,11433.42,-36520.47,-16390.575,-26922.33,-17442.135,-7412.67,2644.245
1764505724.282494,832.365,11436.345,-36516.42,-16387.11,-26920.215,-17441.325,-7410.78,2646.54
1764505724.282494,832.545,11438.91,-36512.55,-16383.105,-26916.57,-17439.614999999998,-7409.655,2646.765
1764505724.3294258,837.81,11443.77,-36508.815,-16378.83,-26910.54,-17432.82,-7402.23,2651.58
1764505724.3294258,833.67,11439.72,-36513.135,-16384.23,-26913.06,-17432.415,-7402.815,2649.375
1764505724.3294258,829.17,11434.41,-36518.94,-16389.405,-26912.97,-17425.079999999998,-7401.644999999999,2648.835
1764505724.3294258,821.16,11425.77,-36529.38,-16394.579999999998,-26915.13,-17425.845,-7406.505,2641.725
1764505724.3294258,828.99,11435.31,-36518.895,-16388.145,-26914.815,-17428.635,-7402.905,2647.17
1764505724.3294258,833.805,11442.465,-36510.345,-16382.07,-26910.27,-17425.845,-7397.549999999999,2650.5
1764505724.3294258,835.605,11446.2,-36505.575,-16373.7,-26898.705,-17415.36,-7393.86,2652.57
1764505724.3294258,830.79,11440.08,-36512.415,-16382.43,-26908.155,-17426.024999999998,-7394.894999999999,2650.635
1764505724.3294258,824.4,11430.765,-36524.835,-16396.649999999998,-26918.73,-17430.21,-7394.94,2647.08
1764505724.3294258,826.02,11434.14,-36520.515,-16394.579999999998,-26917.515,-17431.605,-7393.59,2648.34
1764505724.3294258,833.5799999999999,11443.32,-36512.28,-16388.415,-26913.33,-17431.29,-7388.505,2655.225
1764505724.3294258,835.74,11446.695,-36511.47,-16386.524999999998,-26905.095,-17420.535,-7385.535,2655.945
1764505724.33049,828.27,11438.91,-36517.14,-16384.995,-26894.385,-17406.27,-7383.195,2652.57
1764505724.33049,810.495,11416.095,-36538.965,-16399.755,-26908.695,-17417.97,-7389.719999999999,2643.93
1764505724.33049,827.8199999999999,11440.8,-36513.225,-16392.465,-26918.595,-17433.989999999998,-7389.36,2652.705
1764505724.33049,827.28,11440.62,-36515.07,-16393.05,-26914.5,-17427.915,-7387.559999999999,2652.66
1764505724.33049,819.675,11434.77,-36519.705,-16394.22,-26912.655,-17425.215,-7389.179999999999,2647.89
1764505724.33049,823.545,11442.51,-36509.805,-16386.12,-26908.785,-17425.17,-7389.45,2650.32
1764505724.33049,824.4449999999999,11443.32,-36509.895,-16388.145,-26912.16,-17430.39,-7389.405,2651.265
1764505724.33049,816.7049999999999,11432.745,-36523.035,-16400.52,-26919.315,-17432.954999999998,-7392.69,2646.135
1764505724.33049,811.665,11429.01,-36526.365,-16404.255,-26921.88,-17435.745,-7394.985,2642.67
1764505724.33049,809.9549999999999,11428.245,-36525.195,-16403.445,-26917.785,-17432.55,-7395.12,2641.05
1764505724.33049,809.235,11425.86,-36530.145,-16403.94,-26914.095,-17425.98,-7393.679999999999,2641.995
1764505724.33049,804.555,11421.405,-36535.185,-16405.785,-26917.38,-17430.255,-7398.045,2637.72
1764505724.374761,807.39,11426.355,-36526.905,-16405.92,-26924.085,-17439.795,-7398.99,2637.81
1764505724.374761,807.3449999999999,11425.635,-36527.715,-16406.01,-26920.17,-17436.149999999998,-7397.955,2639.16
1764505724.374761,806.4449999999999,11423.655,-36530.145,-16407.36,-26920.215,-17434.485,-7396.785,2639.34
1764505724.374761,803.61,11420.28,-36534.33,-16411.86,-26924.985,-17438.94,-7398.719999999999,2636.775
1764505724.374761,802.17,11417.58,-36536.31,-16414.38,-26925.84,-17439.12,-7398.315,2635.515
1764505724.374761,799.6949999999999,11415.645,-36537.66,-16415.28,-26926.47,-17441.595,-7401.105,2633.13
1764505724.374761,802.35,11419.56,-36533.565,-16409.52,-26922.555,-17441.28,-7400.295,2634.12
1764505724.374761,807.795,11426.31,-36525.78,-16402.545,-26916.165,-17436.87,-7397.82,2638.62
1764505724.374761,807.255,11425.455,-36527.715,-16405.92,-26919.135,-17437.05,-7398.585,2638.935
1764505724.374761,797.355,11413.62,-36540.765,-16419.645,-26929.125,-17442.675,-7403.625,2631.69
1764505724.374761,784.035,11397.645,-36559.215,-16430.13,-26930.295,-17433.989999999998,-7407.269999999999,2620.8
1764505724.374761,788.13,11404.665,-36551.745,-16423.875,-26926.155,-17430.345,-7406.955,2622.465
1764505724.374761,785.0699999999999,11401.875,-36553.905,-16423.47,-26927.415,-17436.555,-7407.99,2621.835
1764505724.374761,782.595,11398.635,-36557.145,-16428.78,-26939.43,-17453.024999999998,-7410.465,2620.35
1764505724.374761,790.11,11409.57,-36545.58,-16423.649999999998,-26939.295,-17453.745,-7409.07,2624.13
1764505724.374761,786.285,11406.06,-36548.37,-16425.045,-26935.2,-17445.915,-7410.15,2622.42
1764505724.374761,783.4499999999999,11401.92,-36552.15,-16428.555,-26937.855,-17448.075,-7410.915,2621.385
1764505724.374761,783.99,11401.56,-36553.635,-16427.204999999998,-26937.54,-17451.405,-7410.014999999999,2622.6
1764505724.374761,786.735,11405.52,-36549.81,-16424.64,-26936.325,-17451.315,-7411.545,2623.68
1764505724.3766885,785.25,11404.62,-36550.755,-16426.98,-26939.88,-17456.309999999998,-7414.29,2621.295
1764505724.3766885,781.3349999999999,11400.57,-36554.67,-16429.68,-26940.015,-17453.07,-7415.19,2618.235
1764505724.3766885,780.795,11400.795,-36552.915,-16427.79,-26939.34,-17456.715,-7416.945,2615.94
1764505724.4208696,780.795,11400.66,-36554.445,-16430.355,-26940.6,-17458.38,-7416.719999999999,2615.985
1764505724.4208696,776.8349999999999,11395.305,-36560.79,-16436.34,-26942.625,-17452.395,-7417.17,2614.05
1764505724.4208696,769.995,11387.07,-36569.745,-16446.195,-26949.195,-17452.53,-7419.915,2609.145
1764505724.4208696,775.0799999999999,11394.18,-36562.005,-16438.68,-26942.625,-17450.864999999998,-7417.934999999999,2613.51
1764505724.4214046,773.73,11393.865,-36561.105,-16437.149999999998,-26941.185,-17451.405,-7420.59,2611.26
1764505724.4214046,777.6,11398.995,-36555.12,-16430.895,-26934.39,-17445.285,-7418.16,2614.95
1764505724.4214046,781.56,11402.73,-36550.17,-16426.845,-26930.52,-17441.64,-7415.28,2618.505
1764505724.4214046,777.9599999999999,11398.995,-36554.895,-16432.38,-26936.775,-17447.94,-7418.969999999999,2615.355
1764505724.4214046,768.42,11390.67,-36563.085,-16440.75,-26943.255,-17451.495,-7423.695,2608.425
1764505724.4214046,764.4599999999999,11388.105,-36565.83,-16443.135,-26945.505,-17454.51,-7425.179999999999,2606.625
1764505724.4214046,768.9599999999999,11393.595,-36561.51,-16439.715,-26942.22,-17453.925,-7423.514999999999,2609.46
1764505724.4214046,772.875,11399.22,-36555.93,-16434.72,-26938.8,-17453.52,-7422.434999999999,2612.655
1764505724.4214046,776.025,11404.71,-36548.73,-16427.204999999998,-26932.905,-17448.93,-7421.849999999999,2615.94
1764505724.4214046,775.17,11405.025,-36546.93,-16424.954999999998,-26928.945,-17443.845,-7422.705,2614.95
1764505724.4214046,774.045,11400.795,-36552.555,-16431.75,-26931.555,-17439.704999999998,-7421.894999999999,2615.76
1764505724.4214046,771.975,11399.445,-36552.96,-16432.739999999998,-26931.78,-17438.94,-7423.875,2613.915
1764505724.4214046,769.905,11398.635,-36552.915,-16432.065,-26933.04,-17443.755,-7427.16,2612.16
1764505724.4214046,765.495,11392.92,-36559.665,-16439.76,-26940.06,-17452.17,-7432.38,2608.065
1764505724.4214046,772.02,11399.94,-36553.23,-16434.135,-26933.76,-17449.29,-7429.545,2612.97
1764505724.4214046,769.005,11397.6,-36554.58,-16434.27,-26931.555,-17443.395,-7431.165,2610.585
1764505724.4214046,767.745,11396.7,-36554.67,-16433.055,-26928.72,-17438.445,-7431.344999999999,2609.64
1764505724.4214046,766.5749999999999,11396.385,-36555.795,-16436.204999999998,-26936.055,-17448.255,-7435.53,2607.795
1764505724.4214046,775.035,11403.945,-36549.36,-16434.045,-26935.425,-17448.12,-7433.639999999999,2612.88
1764505724.4214046,766.62,11392.695,-36560.655,-16442.774999999998,-26935.605,-17442.315,-7434.045,2608.38
1764505724.4687707,762.255,11381.805,-36574.29,-16448.67,-26932.815,-17435.835,-7430.804999999999,2610.495
1764505724.4687707,767.2049999999999,11389.32,-36565.38,-16438.095,-26924.94,-17432.73,-7435.98,2611.215
1764505724.4687707,771.255,11397.06,-36554.715,-16440.345,-26937.675,-17450.46,-7438.95,2611.935
1764505724.4687707,770.0849999999999,11402.46,-36544.905,-16434.045,-26937.36,-17454.51,-7444.575,2607.795
1764505724.4687707,772.47,11403.63,-36543.69,-16429.545,-26930.43,-17447.489999999998,-7442.865,2609.82
1764505724.4687707,769.4549999999999,11395.62,-36554.265,-16437.105,-26936.73,-17449.92,-7440.929999999999,2610.225
1764505724.4687707,774.855,11400.84,-36550.44,-16433.82,-26933.445,-17449.065,-7440.57,2613.195
1764505724.4687707,772.785,11398.185,-36552.825,-16436.25,-26932.95,-17448.345,-7441.019999999999,2611.035
1764505724.4687707,773.3249999999999,11399.355,-36551.565,-16434.18,-26930.025,-17445.87,-7440.12,2611.575
1764505724.4687707,774.675,11398.95,-36551.97,-16434.765,-26931.33,-17447.13,-7439.985,2612.295
1764505724.4687707,775.5749999999999,11398.77,-36552.285,-16434.72,-26929.305,-17444.61,-7438.139999999999,2613.645
1764505724.4687707,775.935,11399.985,-36550.44,-16432.739999999998,-26926.155,-17442.045,-7437.465,2615.22
1764505724.4687707,780.255,11405.34,-36544.59,-16428.149999999998,-26923.41,-17441.37,-7435.17,2618.865
1764505724.4687707,779.4449999999999,11403.855,-36545.625,-16429.454999999998,-26923.77,-17442.495,-7435.755,2618.01
1764505724.4687707,780.2099999999999,11405.295,-36543.555,-16427.655,-26922.69,-17443.395,-7434.45,2618.595
1764505724.4687707,785.5649999999999,11410.785,-36537.84,-16422.84,-26917.56,-17439.614999999998,-7429.86,2624.085
1764505724.4687707,780.66,11403.585,-36545.265,-16432.155,-26922.24,-17440.38,-7430.58,2621.61
1764505724.4687707,777.915,11399.94,-36549.99,-16432.965,-26919.495,-17436.735,-7430.94,2620.305
1764505724.4687707,782.4599999999999,11406.42,-36542.565,-16426.079999999998,-26914.68,-17434.17,-7426.394999999999,2625.435
1764505724.4687707,782.37,11408.445,-36539.415,-16425.315,-26916.615,-17438.625,-7426.304999999999,2624.76
1764505724.4687707,786.3299999999999,11411.865,-36536.445,-16421.805,-26908.38,-17430.39,-7423.155,2627.91
1764505724.4687707,788.355,11411.19,-36539.145,-16426.079999999998,-26908.47,-17426.655,-7420.545,2632.005
1764505724.4703026,783.5849999999999,11402.955,-36548.28,-16428.195,-26905.32,-17421.03,-7420.32,2630.385
1764505724.4703026,782.415,11408.445,-36536.805,-16415.1,-26899.38,-17420.309999999998,-7424.594999999999,2623.14
1764505724.51892,790.6949999999999,11422.08,-36519.255,-16408.845,-26904.465,-17435.565,-7423.245,2628.54
1764505724.51892,785.43,11410.38,-36533.07,-16419.465,-26910.09,-17440.92,-7419.375,2631.33
1764505724.51892,784.755,11407.095,-36539.145,-16423.92,-26911.215,-17440.245,-7419.465,2630.97
1764505724.51892,786.375,11409.165,-36538.47,-16426.395,-26913.06,-17439.075,-7418.519999999999,2631.645
1764505724.51892,785.6999999999999,11408.85,-36538.38,-16426.395,-26910.945,-17437.32,-7418.61,2631.24
1764505724.51892,785.3399999999999,11408.985,-36536.67,-16425.27,-26908.02,-17435.565,-7419.599999999999,2629.665
1764505724.51892,790.3349999999999,11415.33,-36530.415,-16414.92,-26894.925,-17423.864999999998,-7416.63,2632.095
1764505724.51892,785.25,11409.345,-36535.14,-16415.055,-26893.08,-17422.065,-7418.565,2627.775
1764505724.51892,784.395,11409.21,-36535.815,-16423.155,-26903.745,-17428.815,-7419.195,2628.81
1764505724.51892,783.405,11406.87,-36536.94,-16429.59,-26914.095,-17443.665,-7419.42,2628.945
1764505724.51892,777.915,11391.84,-36554.715,-16432.785,-26906.22,-17431.425,-7414.83,2630.16
1764505724.51892,794.16,11416.68,-36526.77,-16415.415,-26900.01,-17433.045,-7414.29,2633.355
1764505724.51892,798.5699999999999,11419.11,-36525.375,-16418.385,-26904.555,-17439.84,-7409.205,2639.835
1764505724.51892,791.865,11411.505,-36534.285,-16424.864999999998,-26905.635,-17437.14,-7410.105,2634.795
1764505724.51892,792.225,11414.43,-36528.975,-16420.59,-26901.315,-17434.395,-7409.565,2633.625
1764505724.51892,788.4,11408.04,-36536.085,-16423.155,-26902.62,-17434.98,-7412.94,2630.295
1764505724.51892,794.88,11415.465,-36529.29,-16420.184999999998,-26903.7,-17439.795,-7411.95,2633.535
1764505724.51892,794.475,11411.685,-36535.77,-16424.64,-26902.89,-17436.915,-7409.07,2634.03
1764505724.51892,796.3199999999999,11412.405,-36536.04,-16424.145,-26899.38,-17432.73,-7406.415,2636.91
1764505724.51892,792.765,11411.37,-36534.42,-16423.065,-26901.18,-17434.98,-7410.96,2633.085
1764505724.51892,792.225,11415.285,-36527.715,-16418.97,-26901.945,-17438.85,-7414.83,2629.53
1764505724.51892,789.255,11409.705,-36534.555,-16425.855,-26906.04,-17443.215,-7415.28,2626.605
1764505724.51892,790.65,11410.065,-36536.76,-16426.89,-26905.455,-17440.649999999998,-7413.12,2628.45
1764505724.51892,789.39,11408.535,-36539.235,-16428.555,-26906.805,-17441.235,-7414.2,2626.2
1764505724.563598,791.685,11409.885,-36537.93,-16427.34,-26902.89,-17436.285,-7411.23,2628.27
1764505724.563598,791.505,11408.4,-36539.775,-16429.095,-26904.915,-17439.975,-7413.12,2627.685
1764505724.563598,791.37,11406.915,-36542.745,-16430.175,-26905.77,-17440.559999999998,-7414.875,2626.11
1764505724.563598,791.235,11408.985,-36537.975,-16428.51,-26906.94,-17442.63,-7416.764999999999,2622.195
1764505724.563598,786.645,11402.19,-36544.455,-16427.655,-26897.22,-17430.704999999998,-7415.639999999999,2619.945
1764505724.563598,778.68,11387.7,-36562.95,-16440.075,-26906.265,-17435.61,-7419.915,2613.555
1764505724.563598,783.495,11393.91,-36554.67,-16440.84,-26916.48,-17446.454999999998,-7422.929999999999,2613.33
1764505724.563598,785.655,11399.67,-36547.92,-16437.195,-26917.245,-17451.72,-7423.245,2613.825
1764505724.563598,787.3199999999999,11401.38,-36546.795,-16436.204999999998,-26919.945,-17458.92,-7425.224999999999,2614.635
1764505724.563598,786.06,11398.23,-36551.655,-16443.18,-26926.02,-17463.105,-7427.07,2611.125
1764505724.563598,783.405,11393.01,-36557.865,-16443.54,-26921.205,-17455.05,-7427.25,2608.11
1764505724.563598,783.5849999999999,11393.64,-36556.92,-16442.64,-26922.33,-17456.489999999998,-7428.509999999999,2607.885
1764505724.563598,788.5799999999999,11399.67,-36550.08,-16441.245,-26925.165,-17460.045,-7429.995,2610.135
1764505724.563598,784.755,11394.36,-36556.065,-16445.07,-26926.83,-17460.585,-7432.92,2605.68
1764505724.563598,783.855,11393.055,-36558.585,-16446.195,-26927.145,-17458.829999999998,-7433.28,2604.78
1764505724.563598,781.74,11390.22,-36562.23,-16449.21,-26930.475,-17462.114999999998,-7436.115,2601.81
1764505724.563598,780.66,11388.87,-36563.67,-16451.505,-26933.31,-17464.59,-7438.679999999999,2598.93
1764505724.563598,779.895,11386.98,-36565.605,-16452.36,-26935.02,-17465.805,-7440.795,2596.365
1764505724.563598,778.41,11383.335,-36570.33,-16455.6,-26935.38,-17465.13,-7441.965,2594.925
1764505724.563598,775.305,11379.735,-36573.705,-16459.2,-26941.005,-17470.89,-7446.69,2589.795
1764505724.563598,776.2049999999999,11380.005,-36573.57,-16459.559999999998,-26941.68,-17470.98,-7447.724999999999,2589.03
1764505724.564612,775.26,11378.34,-36576.045,-16461.54,-26941.455,-17470.125,-7449.255,2587.5
1764505724.6090865,778.41,11380.545,-36575.775,-16457.13,-26936.865,-17464.23,-7446.96,2590.11
1764505724.6090865,776.52,11377.575,-36578.745,-16456.86,-26939.52,-17466.21,-7450.2,2586.78
1764505724.6090865,780.3,11382.03,-36573.48,-16458.84,-26947.935,-17474.67,-7453.17,2586.195
1764505724.6090865,773.865,11374.875,-36582.795,-16467.3,-26953.065,-17476.875,-7458.525,2580.12
1764505724.6090865,767.025,11367.54,-36590.085,-16470.54,-26954.145,-17475.795,-7463.88,2573.37
1764505724.6090865,769.005,11368.755,-36588.195,-16468.02,-26954.01,-17477.37,-7465.905,2572.695
1764505724.6100984,769.725,11369.52,-36587.115,-16468.92,-26959.77,-17484.434999999998,-7468.605,2570.625
1764505724.6100984,763.515,11361.285,-36596.34,-16477.695,-26966.79,-17488.845,-7473.915,2563.92
1764505724.6100984,760.8149999999999,11356.965,-36602.55,-16482.059999999998,-26968.95,-17489.07,-7476.795,2561.31
1764505724.6100984,765.135,11361.24,-36598.185,-16476.345,-26964.36,-17483.445,-7475.445,2563.83
1764505724.6111002,765.4499999999999,11359.71,-36599.895,-16475.445,-26963.55,-17481.239999999998,-7476.075,2563.605
1764505724.6111002,766.035,11360.97,-36598.68,-16476.12,-26967.825,-17484.57,-7478.054999999999,2561.985
1764505724.6111002,766.4399999999999,11360.835,-36598.095,-16478.055,-26971.74,-17487.72,-7480.17,2560.32
1764505724.6111002,760.995,11354.175,-36605.34,-16482.915,-26974.62,-17489.475,-7485.12,2553.75
1764505724.6111002,763.02,11355.705,-36605.07,-16480.934999999998,-26972.865,-17486.55,-7486.514999999999,2554.2
1764505724.6111002,763.56,11354.805,-36607.185,-16483.274999999998,-26975.565,-17489.07,-7489.304999999999,2552.175
1764505724.6111002,761.76,11351.835,-36610.515,-16487.235,-26981.415,-17493.21,-7493.085,2550.33
1764505724.612096,757.98,11347.425,-36615.555,-16491.239999999998,-26987.04,-17498.114999999998,-7497.99,2545.74
1764505724.612096,761.04,11349.63,-36614.16,-16488.72,-26985.015,-17494.965,-7495.74,2547.63
1764505724.612096,760.095,11347.785,-36616.365,-16491.105,-26988.03,-17496.09,-7495.74,2544.93
1764505724.612096,758.115,11345.355,-36618.975,-16492.725,-26989.2,-17496.09,-7497.09,2542.68
1764505724.612096,757.62,11344.77,-36620.28,-16494.524999999998,-26990.325,-17496.765,-7499.7,2541.105
1764505724.612096,757.0799999999999,11342.43,-36622.98,-16497.18,-26993.295,-17499.825,-7503.165,2538.81
1764505724.612096,752.5799999999999,11337.21,-36628.92,-16502.13,-26998.02,-17503.38,-7509.24,2532.96
1764505724.6574416,759.51,11343.195,-36623.295,-16496.145,-26992.755,-17497.125,-7506.045,2537.55
1764505724.6584668,760.5,11342.835,-36624.195,-16496.73,-26994.555,-17498.655,-7505.639999999999,2537.415
1764505724.6584668,758.61,11339.82,-36627.39,-16500.059999999998,-26998.155,-17502.48,-7507.485,2534.4
1764505724.6584668,757.53,11338.785,-36627.165,-16501.05,-27000.135,-17503.649999999998,-7508.745,2532.285
1764505724.6584668,761.535,11342.835,-36624.24,-16496.595,-26995.23,-17498.16,-7506.54,2534.715
1764505724.6584668,758.295,11338.29,-36629.505,-16500.69,-26999.505,-17501.67,-7510.679999999999,2528.64
1764505724.6584668,760.365,11339.955,-36628.245,-16499.024999999998,-26999.505,-17500.995,-7511.174999999999,2528.91
1764505724.6584668,763.785,11343.24,-36625.005,-16495.92,-26996.13,-17497.079999999998,-7509.554999999999,2532.24
1764505724.6584668,764.4599999999999,11342.34,-36626.355,-16496.954999999998,-26996.67,-17496.405,-7509.599999999999,2532.06
1764505724.6584668,763.47,11341.26,-36626.715,-16498.755,-26999.955,-17499.87,-7512.075,2529.9
1764505724.6584668,762.975,11340.72,-36628.605,-16500.555,-27002.475,-17502.12,-7513.469999999999,2528.325
1764505724.6584668,762.48,11339.685,-36630.45,-16502.445,-27003.78,-17503.38,-7515.674999999999,2526.435
1764505724.6584668,759.915,11336.94,-36632.97,-16504.29,-27005.805,-17505.809999999998,-7520.04,2521.89
1764505724.6584668,761.5799999999999,11338.65,-36631.17,-16502.625,-27004.14,-17503.47,-7520.94,2521.485
1764505724.6584668,765.405,11341.485,-36628.83,-16499.52,-27000.54,-17497.17,-7519.545,2525.085
1764505724.6584668,766.62,11341.08,-36628.74,-16499.07,-27000.18,-17497.934999999998,-7519.769999999999,2524.275
1764505724.6584668,768.015,11341.935,-36628.875,-16499.79,-27001.62,-17500.905,-7518.554999999999,2524.185
1764505724.6584668,770.535,11344.32,-36626.22,-16497.989999999998,-27001.71,-17500.545,-7517.429999999999,2525.715
1764505724.6584668,773.505,11347.605,-36622.755,-16493.985,-26998.29,-17496.36,-7515.674999999999,2528.37
1764505724.6584668,771.03,11344.995,-36625.995,-16497.45,-27001.17,-17498.79,-7518.24,2524.59
1764505724.6584668,776.5649999999999,11349.72,-36621.72,-16493.22,-26998.29,-17496.495,-7513.695,2529.36
1764505724.6584668,776.88,11349.18,-36623.25,-16495.47,-27001.17,-17500.005,-7515.179999999999,2528.91
1764505724.6584668,775.17,11347.83,-36626.4,-16498.934999999998,-27004.455,-17503.47,-7516.934999999999,2527.695
1764505724.6584668,773.685,11345.805,-36628.38,-16500.555,-27006.615,-17504.73,-7518.24,2526.48
1764505724.702884,771.75,11342.7,-36630.63,-16503.93,-27009.27,-17507.295,-7520.13,2523.42
1764505724.7033956,773.9549999999999,11344.32,-36628.965,-16502.94,-27007.47,-17504.73,-7518.465,2525.355
1764505724.7033956,773.9549999999999,11344.545,-36629.01,-16502.265,-27007.155,-17503.92,-7518.915,2524.86
1764505724.7033956,770.985,11342.52,-36630.855,-16504.695,-27008.415,-17506.215,-7522.605,2521.755
1764505724.7033956,772.74,11343.96,-36628.695,-16503.93,-27007.155,-17505.315,-7522.695,2522.97
1764505724.7033956,768.9599999999999,11340.27,-36631.935,-16507.26,-27010.53,-17508.645,-7524.855,2519.505
1764505724.7033956,769.905,11341.44,-36630.045,-16505.1,-27008.865,-17505.405,-7522.65,2520.9
1764505724.7033956,767.385,11339.28,-36633.465,-16508.07,-27011.34,-17507.7,-7524.945,2517.435
1764505724.7033956,766.8,11338.515,-36633.6,-16507.89,-27010.08,-17505.18,-7526.16,2516.715
1764505724.7033956,763.11,11336.085,-36634.815,-16509.915,-27012.375,-17507.114999999998,-7528.905,2512.62
1764505724.7033956,761.175,11334.96,-36636.975,-16512.84,-27014.805,-17508.015,-7529.219999999999,2511.54
1764505724.7033956,764.9549999999999,11338.785,-36633.105,-16507.71,-27010.44,-17504.19,-7528.139999999999,2514.285
1764505724.7033956,762.885,11337.255,-36634.275,-16509.735,-27012.555,-17505.54,-7531.559999999999,2512.62
1764505724.7033956,760.635,11335.095,-36637.56,-16512.84,-27016.02,-17508.915,-7532.37,2511.0
1764505724.7033956,764.145,11338.245,-36634.725,-16509.465,-27011.655,-17504.1,-7528.23,2514.69
1764505724.7033956,762.93,11336.085,-36635.94,-16510.905,-27013.275,-17505.09,-7529.264999999999,2512.8
1764505724.7033956,760.905,11334.06,-36637.245,-16512.795,-27015.93,-17507.385,-7532.144999999999,2509.695
1764505724.7033956,759.51,11333.52,-36638.055,-16513.155,-27016.965,-17508.285,-7533.269999999999,2508.345
1764505724.704409,757.17,11331.27,-36639.945,-16514.91,-27017.865,-17509.05,-7534.17,2506.815
1764505724.704409,757.89,11331.81,-36638.55,-16513.425,-27016.965,-17508.329999999998,-7534.62,2506.545
1764505724.704409,760.005,11333.25,-36636.66,-16512.57,-27017.19,-17508.87,-7534.259999999999,2507.895
1764505724.704409,761.5799999999999,11335.095,-36635.355,-16511.04,-27015.93,-17506.62,-7533.405,2509.38
1764505724.7515426,761.5799999999999,11336.13,-36635.4,-16510.86,-27016.2,-17506.44,-7533.0,2509.92
1764505724.752052,762.93,11337.345,-36633.195,-16509.149999999998,-27014.04,-17504.91,-7531.695,2511.855
1764505724.752052,757.0799999999999,11331.99,-36638.01,-16514.595,-27020.115,-17510.04,-7536.69,2505.87
1764505724.752052,750.105,11325.555,-36644.13,-16520.805,-27025.83,-17514.495,-7541.865,2498.22
1764505724.752052,751.77,11327.355,-36641.565,-16517.34,-27021.825,-17511.345,-7541.009999999999,2499.48
1764505724.752052,754.245,11330.055,-36639.27,-16513.965,-27018.72,-17507.385,-7538.309999999999,2501.595
1764505724.752052,753.03,11329.47,-36639.765,-16514.19,-27019.17,-17507.07,-7538.535,2502.18
1764505724.752052,750.3299999999999,11326.68,-36643.32,-16519.23,-27023.94,-17512.515,-7539.884999999999,2500.425
1764505724.752052,752.895,11327.85,-36642.33,-16519.364999999998,-27024.705,-17513.864999999998,-7538.67,2501.73
1764505724.752052,750.42,11324.52,-36643.905,-16521.345,-27026.055,-17514.495,-7540.605,2498.85
1764505724.752052,753.3,11327.67,-36640.665,-16517.835,-27023.31,-17511.93,-7539.705,2501.505
1764505724.752052,754.245,11329.38,-36639.675,-16516.305,-27022.59,-17510.94,-7539.255,2501.64
1764505724.752052,754.515,11330.955,-36638.55,-16515.765,-27021.96,-17509.905,-7538.759999999999,2501.82
1764505724.752052,753.7049999999999,11331.405,-36638.19,-16516.395,-27022.275,-17510.715,-7539.615,2501.73
1764505724.752052,754.0649999999999,11330.505,-36638.19,-16516.53,-27022.32,-17510.895,-7539.299999999999,2501.415
1764505724.752052,751.3199999999999,11327.58,-36640.395,-16517.61,-27024.12,-17511.165,-7540.514999999999,2499.615
1764505724.752052,748.62,11325.15,-36643.095,-16520.445,-27026.37,-17513.19,-7542.179999999999,2497.095
1764505724.752052,750.42,11327.13,-36641.25,-16519.59,-27025.065,-17512.155,-7540.695,2499.12
1764505724.752052,751.905,11329.65,-36639.135,-16517.34,-27022.14,-17508.915,-7539.525,2499.795
1764505724.752052,754.11,11332.8,-36635.715,-16512.345,-27017.235,-17503.605,-7537.545,2501.91
1764505724.752052,751.3199999999999,11329.875,-36638.595,-16515.54,-27021.015,-17507.25,-7539.84,2498.85
1764505724.752052,754.47,11332.35,-36636.12,-16513.649999999998,-27018.99,-17505.405,-7537.905,2501.28
1764505724.752052,754.875,11331.585,-36635.76,-16513.739999999998,-27018.09,-17504.954999999998,-7537.184999999999,2501.73
1764505724.752052,752.625,11329.2,-36637.785,-16516.079999999998,-27019.845,-17506.934999999998,-7540.65,2500.155
1764505724.752052,751.635,11328.84,-36638.46,-16517.52,-27021.735,-17508.915,-7541.639999999999,2500.47
1764505724.752052,749.0699999999999,11326.59,-36640.98,-16521.165,-27025.515,-17511.57,-7542.224999999999,2497.86
1764505724.7997963,752.67,11330.73,-36635.265,-16515.27,-27018.945,-17504.82,-7539.03,2501.19
1764505724.8012002,752.985,11330.505,-36635.265,-16514.55,-27017.595,-17503.47,-7539.434999999999,2501.055
1764505724.8012002,750.645,11328.21,-36636.93,-16515.495,-27019.08,-17504.774999999998,-7541.19,2498.355
1764505724.8012002,745.245,11323.71,-36642.105,-16520.579999999998,-27024.165,-17510.67,-7545.014999999999,2493.495
1764505724.8012002,742.8149999999999,11321.28,-36644.715,-16523.82,-27027.54,-17513.82,-7546.094999999999,2492.37
1764505724.8012002,745.245,11324.025,-36642.375,-16521.524999999998,-27024.345,-17510.265,-7542.495,2494.98
1764505724.8012002,751.635,11331.45,-36634.995,-16513.695,-27016.515,-17502.66,-7535.969999999999,2501.955
1764505724.8012002,749.025,11329.875,-36636.57,-16515.405,-27018.405,-17504.235,-7537.455,2499.03
1764505724.8012002,746.505,11326.95,-36639.81,-16518.42,-27021.15,-17507.385,-7538.759999999999,2496.51
1764505724.8012002,750.105,11331.225,-36636.03,-16515.18,-27017.055,-17503.245,-7534.98,2500.695
1764505724.8012002,750.6899999999999,11331.945,-36634.95,-16513.695,-27015.705,-17501.805,-7533.405,2501.37
1764505724.8012002,747.0,11328.165,-36638.37,-16517.114999999998,-27018.045,-17504.774999999998,-7533.719999999999,2498.13
1764505724.8012002,749.295,11332.26,-36635.04,-16514.28,-27014.895,-17500.95,-7531.469999999999,2501.505
1764505724.8012002,751.5,11334.69,-36632.43,-16512.3,-27011.25,-17496.945,-7529.309999999999,2504.43
1764505724.8012002,748.26,11332.395,-36633.78,-16514.595,-27012.96,-17498.024999999998,-7529.894999999999,2501.955
1764505724.8012002,751.23,11335.635,-36628.515,-16510.995,-27009.495,-17494.29,-7525.889999999999,2506.545
1764505724.8012002,751.365,11337.03,-36628.695,-16510.364999999998,-27008.28,-17493.21,-7524.0,2507.22
1764505724.8012002,748.395,11335.23,-36630.855,-16512.66,-27010.575,-17496.855,-7526.88,2504.475
1764505724.8012002,748.395,11335.995,-36629.505,-16512.39,-27010.17,-17497.934999999998,-7526.16,2504.745
1764505724.8012002,745.155,11334.33,-36630.63,-16513.335,-27010.62,-17498.7,-7526.519999999999,2502.72
1764505724.8012002,745.92,11335.86,-36628.695,-16510.184999999998,-27008.37,-17495.73,-7525.259999999999,2504.7
1764505724.8012002,747.675,11336.985,-36627.84,-16510.274999999998,-27008.28,-17494.92,-7522.65,2507.13
1764505724.8446748,746.64,11337.66,-36627.795,-16511.805,-27010.755,-17498.07,-7523.594999999999,2506.455
1764505724.8446748,745.65,11337.975,-36627.885,-16511.355,-27009.09,-17495.415,-7522.83,2505.375
1764505724.8446748,742.5899999999999,11335.14,-36630.54,-16513.875,-27010.485,-17495.505,-7522.92,2502.9
1764505724.8446748,744.165,11336.4,-36629.505,-16512.03,-27008.37,-17493.12,-7520.715,2505.51
1764505724.8456893,750.555,11344.77,-36620.595,-16502.625,-27000.315,-17487.315,-7515.54,2511.9
1764505724.8456893,752.535,11348.1,-36616.14,-16497.63,-26994.6,-17482.005,-7513.695,2513.07
1764505724.8456893,753.3,11348.685,-36616.005,-16497.675,-26992.89,-17477.82,-7510.455,2515.68
1764505724.8456893,750.8249999999999,11345.085,-36620.01,-16502.265,-26996.445,-17479.079999999998,-7510.59,2515.005
1764505724.8456893,750.24,11345.22,-36618.84,-16502.67,-26998.74,-17483.895,-7510.59,2516.445
1764505724.8456893,749.385,11345.535,-36617.31,-16501.005,-26997.345,-17484.614999999998,-7511.535,2515.005
1764505724.8456893,752.535,11351.115,-36612.09,-16495.11,-26991.54,-17481.105,-7509.69,2517.21
1764505724.8456893,751.86,11350.53,-36613.35,-16495.965,-26991.27,-17478.72,-7508.16,2518.74
1764505724.8472052,753.12,11349.945,-36614.745,-16496.864999999998,-26989.65,-17473.95,-7504.559999999999,2522.52
1764505724.8472052,755.37,11352.375,-36610.605,-16493.04,-26985.24,-17471.475,-7503.615,2524.365
1764505724.8482163,755.775,11353.905,-36608.58,-16491.78,-26984.925,-17472.42,-7502.894999999999,2524.86
1764505724.8482163,752.0849999999999,11350.575,-36611.955,-16496.19,-26989.605,-17478.495,-7505.865,2521.395
1764505724.8482163,756.0,11354.58,-36607.32,-16491.329999999998,-26984.925,-17473.41,-7502.264999999999,2525.76
1764505724.8492253,754.515,11353.23,-36607.905,-16491.78,-26986.41,-17476.155,-7503.974999999999,2523.375
1764505724.8492253,757.62,11356.695,-36604.035,-16487.73,-26982.9,-17472.555,-7502.085,2526.615
1764505724.8492253,752.13,11351.385,-36609.885,-16493.445,-26988.165,-17476.47,-7505.054999999999,2522.61
1764505724.8502166,754.47,11353.815,-36608.13,-16492.59,-26987.22,-17477.01,-7502.94,2524.815
1764505724.8502166,754.1999999999999,11352.645,-36608.85,-16492.095,-26983.395,-17469.54,-7500.375,2526.885
1764505724.8502166,751.5899999999999,11349.18,-36612.18,-16494.614999999998,-26984.655,-17470.305,-7501.455,2525.04
1764505724.8502166,751.23,11348.595,-36613.26,-16494.75,-26984.52,-17468.864999999998,-7500.825,2526.48
1764505724.8905115,758.97,11357.28,-36602.865,-16484.625,-26975.79,-17462.295,-7495.695,2533.005
1764505724.8905115,760.23,11359.935,-36598.77,-16480.305,-26972.415,-17461.665,-7495.65,2533.275
1764505724.8905115,760.4549999999999,11360.43,-36596.025,-16478.055,-26971.695,-17463.059999999998,-7495.514999999999,2532.96
1764505724.8905115,762.435,11363.31,-36593.37,-16475.67,-26968.59,-17461.845,-7494.165,2535.345
1764505724.8905115,761.895,11361.285,-36596.745,-16479.585,-26971.74,-17462.07,-7493.309999999999,2537.1
1764505724.8905115,755.685,11353.59,-36605.295,-16487.864999999998,-26976.6,-17464.05,-7495.559999999999,2532.06
1764505724.8905115,759.015,11357.235,-36601.29,-16483.32,-26971.47,-17458.605,-7491.509999999999,2536.29
1764505724.8905115,759.555,11358.63,-36599.94,-16481.835,-26970.48,-17459.82,-7491.24,2537.775
1764505724.8905115,760.23,11361.105,-36596.52,-16479.045,-26969.13,-17461.215,-7491.285,2538.0
1764505724.8905115,757.035,11357.55,-36600.345,-16483.815,-26975.475,-17468.01,-7493.804999999999,2535.48
1764505724.8910446,758.385,11357.91,-36600.615,-16485.57,-26978.175,-17472.015,-7493.759999999999,2537.235
1764505724.8920562,755.9549999999999,11356.875,-36600.525,-16483.635,-26976.33,-17470.305,-7495.469999999999,2534.445
1764505724.8920562,758.655,11361.555,-36593.64,-16477.245,-26971.11,-17467.47,-7494.434999999999,2535.03
1764505724.8920562,756.81,11359.215,-36596.52,-16480.17,-26973.18,-17467.515,-7494.389999999999,2535.21
1764505724.8920562,756.63,11357.145,-36601.425,-16484.715,-26975.925,-17465.625,-7491.599999999999,2537.055
1764505724.8920562,753.435,11352.645,-36607.41,-16491.465,-26981.415,-17469.495,-7492.365,2535.345
1764505724.8920562,752.22,11353.095,-36605.97,-16490.565,-26982.315,-17474.085,-7494.255,2533.005
1764505724.8920562,751.725,11352.78,-36605.295,-16490.204999999998,-26982.225,-17475.12,-7495.38,2532.15
1764505724.8920562,753.48,11354.58,-36603.945,-16489.17,-26980.515,-17473.77,-7494.48,2533.635
1764505724.8920562,758.97,11360.565,-36598.815,-16483.454999999998,-26974.395,-17468.055,-7490.969999999999,2538.405
1764505724.8920562,759.915,11360.97,-36597.915,-16482.465,-26973.315,-17467.425,-7489.934999999999,2539.305
1764505724.8920562,755.37,11357.775,-36601.245,-16485.84,-26976.69,-17470.53,-7492.59,2534.985
1764505724.8920562,757.62,11360.88,-36598.545,-16483.545,-26973.18,-17467.92,-7490.429999999999,2536.515
1764505724.8920562,757.755,11360.745,-36598.455,-16484.04,-26974.17,-17469.855,-7490.79,2536.65
1764505724.9368072,760.185,11363.22,-36595.935,-16482.105,-26973.72,-17470.845,-7488.315,2538.72
1764505724.9368072,764.235,11367.675,-36590.085,-16475.265,-26967.465,-17466.255,-7486.065,2541.735
1764505724.93732,761.805,11363.985,-36593.46,-16479.27,-26969.265,-17466.165,-7487.099999999999,2540.16
1764505724.93732,753.7049999999999,11354.715,-36604.755,-16491.015,-26979.03,-17471.88,-7490.88,2534.76
1764505724.93732,757.62,11360.16,-36599.76,-16485.795,-26974.62,-17470.125,-7489.08,2538.315
1764505724.93732,758.43,11361.825,-36597.24,-16483.41,-26972.64,-17469.809999999998,-7489.215,2538.675
1764505724.93732,757.395,11359.935,-36598.23,-16483.905,-26972.82,-17470.079999999998,-7490.745,2536.92
1764505724.93732,753.8399999999999,11357.685,-36599.445,-16485.524999999998,-26973.72,-17471.88,-7493.219999999999,2533.77
1764505724.93732,760.005,11364.795,-36593.055,-16480.17,-26967.645,-17466.57,-7489.304999999999,2538.945
1764505724.93732,761.0849999999999,11364.255,-36593.955,-16481.52,-26969.22,-17469.63,-7489.62,2539.08
1764505724.93732,756.765,11357.73,-36601.02,-16486.785,-26973.72,-17474.13,-7490.295,2536.47
1764505724.93732,756.9449999999999,11356.695,-36604.485,-16488.36,-26974.755,-17474.985,-7489.215,2538.585
1764505724.93732,761.5799999999999,11363.175,-36597.465,-16483.995,-26973.135,-17476.155,-7487.82,2541.285
1764505724.93732,757.035,11358.585,-36600.03,-16486.11,-26973.945,-17477.73,-7490.115,2537.055
1764505724.93732,757.8,11359.35,-36599.805,-16486.739999999998,-26976.465,-17482.995,-7491.105,2537.37
1764505724.93732,759.735,11360.61,-36597.51,-16485.434999999998,-26974.665,-17481.105,-7489.755,2539.53
1764505724.93732,765.495,11366.595,-36592.605,-16479.0,-26966.25,-17471.295,-7484.04,2545.785
1764505724.93732,765.495,11367.135,-36593.19,-16480.665,-26966.52,-17471.07,-7483.5,2545.875
1764505724.93732,764.55,11366.01,-36592.695,-16479.495,-26964.09,-17469.809999999998,-7482.915,2544.21
1764505724.93732,757.89,11356.47,-36600.075,-16481.114999999998,-26960.22,-17461.98,-7481.565,2541.51
1764505724.93732,761.4449999999999,11359.935,-36597.375,-16477.38,-26958.24,-17462.745,-7479.764999999999,2545.83
1764505724.93732,772.9649999999999,11376.09,-36580.005,-16468.965,-26959.455,-17472.51,-7479.405,2551.185
1764505724.987703,775.98,11380.005,-36576.36,-16468.515,-26957.565,-17471.16,-7476.705,2553.57
1764505724.987703,768.285,11370.285,-36586.755,-16477.38,-26957.07,-17465.715,-7477.469999999999,2549.655
1764505724.987703,761.76,11359.395,-36601.245,-16483.41,-26953.245,-17455.14,-7475.625,2548.26
1764505724.987703,755.865,11355.345,-36607.995,-16483.545,-26954.64,-17456.579999999998,-7480.799999999999,2543.31
1764505724.987703,770.355,11376.225,-36581.085,-16470.54,-26959.23,-17470.665,-7477.965,2552.355
1764505724.987703,773.685,11380.815,-36576.45,-16466.445,-26952.255,-17466.524999999998,-7476.075,2552.715
1764505724.987703,762.12,11363.715,-36594.54,-16477.605,-26954.145,-17462.97,-7475.4,2548.485
1764505724.987703,763.92,11365.875,-36591.21,-16475.94,-26952.93,-17461.845,-7476.03,2548.98
1764505724.987703,763.65,11366.73,-36589.545,-16472.835,-26949.555,-17457.57,-7474.365,2550.195
1764505724.987703,768.51,11373.435,-36581.265,-16465.545,-26948.43,-17461.26,-7472.835,2554.245
1764505724.987703,775.305,11383.875,-36570.87,-16462.575,-26950.275,-17466.48,-7472.025,2557.71
1764505724.987703,772.56,11380.23,-36576.81,-16468.559999999998,-26951.04,-17465.13,-7471.304999999999,2556.72
1764505724.987703,771.93,11379.915,-36576.765,-16467.704999999998,-26949.33,-17463.645,-7470.36,2558.07
1764505724.987703,764.73,11371.185,-36583.965,-16473.87,-26956.62,-17468.28,-7471.889999999999,2553.66
1764505724.987703,767.745,11374.38,-36581.625,-16475.85,-26964.495,-17480.475,-7472.429999999999,2555.64
1764505724.987703,765.27,11371.905,-36586.62,-16478.64,-26965.575,-17481.42,-7474.184999999999,2554.11
1764505724.987703,765.63,11372.445,-36585.27,-16476.84,-26962.38,-17477.954999999998,-7473.78,2555.235
1764505724.987703,765.99,11372.355,-36585.0,-16476.885,-26961.12,-17477.28,-7472.34,2556.315
1764505724.987703,763.02,11369.7,-36588.42,-16480.395,-26964.63,-17481.059999999998,-7473.69,2553.345
1764505724.987703,761.31,11368.98,-36589.455,-16481.114999999998,-26964.99,-17481.51,-7474.679999999999,2552.76
1764505724.987703,763.47,11371.23,-36587.52,-16479.18,-26962.47,-17479.485,-7472.7,2554.695
1764505724.987703,764.73,11372.31,-36586.44,-16477.11,-26958.87,-17473.454999999998,-7469.955,2556.0
1764505724.987703,760.905,11368.08,-36590.76,-16481.204999999998,-26961.165,-17473.77,-7470.045,2553.66
1764505724.987703,763.11,11371.995,-36586.44,-16478.055,-26958.69,-17473.68,-7469.37,2556.36
1764505725.0397098,762.525,11371.995,-36587.16,-16478.415,-26959.995,-17476.559999999998,-7470.315,2555.37
1764505725.0397098,761.22,11371.455,-36587.385,-16479.495,-26960.04,-17477.1,-7471.665,2553.21
1764505725.0397098,759.915,11371.5,-36585.675,-16477.785,-26955.0,-17470.71,-7471.08,2552.22
1764505725.0397098,757.035,11368.935,-36587.25,-16477.245,-26952.48,-17467.335,-7471.71,2549.79
1764505725.0397098,754.605,11364.885,-36595.17,-16480.845,-26955.54,-17469.225,-7471.889999999999,2549.61
1764505725.0397098,754.38,11364.48,-36593.415,-16483.59,-26963.055,-17477.055,-7470.315,2551.14
1764505725.0397098,756.63,11365.83,-36592.065,-16482.195,-26963.145,-17479.665,-7468.2,2553.93
1764505725.0397098,764.1,11376.495,-36581.31,-16472.88,-26953.695,-17470.53,-7466.67,2557.035
1764505725.0397098,765.225,11377.17,-36581.67,-16473.69,-26952.525,-17468.19,-7462.98,2559.015
1764505725.0397098,758.925,11370.555,-36588.6,-16477.965,-26953.83,-17467.829999999998,-7462.889999999999,2556.405
1764505725.0397098,760.4549999999999,11372.31,-36586.17,-16469.55,-26942.985,-17455.59,-7460.37,2559.555
1764505725.0397098,765.5849999999999,11380.32,-36575.865,-16467.03,-26949.78,-17466.84,-7461.719999999999,2561.22
1764505725.0397098,768.105,11383.11,-36573.165,-16466.309999999998,-26950.275,-17466.345,-7460.054999999999,2563.515
1764505725.0397098,764.415,11378.52,-36578.655,-16468.649999999998,-26945.01,-17455.86,-7459.155,2562.795
1764505725.0397098,760.9499999999999,11373.435,-36584.145,-16472.61,-26946.765,-17456.579999999998,-7459.74,2560.68
1764505725.0397098,755.3249999999999,11364.57,-36596.475,-16480.53,-26953.695,-17460.63,-7459.785,2559.555
1764505725.0397098,766.8,11380.995,-36577.17,-16468.559999999998,-26952.93,-17468.145,-7459.38,2565.495
1764505725.0397098,770.985,11388.87,-36564.255,-16456.905,-26944.335,-17464.815,-7459.424999999999,2565.405
1764505725.0397098,765.225,11382.48,-36572.445,-16460.864999999998,-26943.075,-17457.614999999998,-7458.03,2563.02
1764505725.0397098,763.3349999999999,11376.45,-36580.815,-16469.82,-26950.59,-17462.925,-7456.905,2564.28
1764505725.0397098,771.435,11384.37,-36571.635,-16462.53,-26943.84,-17454.915,-7450.965,2571.03
1764505725.0397098,764.8199999999999,11376.9,-36578.52,-16467.524999999998,-26944.65,-17451.09,-7452.045,2567.43
1764505725.0397098,765.81,11378.16,-36578.43,-16468.155,-26948.565,-17457.93,-7453.304999999999,2567.79
1764505725.040725,765.63,11378.025,-36580.86,-16472.52,-26957.115,-17469.36,-7455.87,2567.475
1764505725.040725,765.63,11377.845,-36583.875,-16476.3,-26963.28,-17479.215,-7456.815,2567.16
1764505725.040725,765.855,11377.305,-36582.615,-16475.04,-26963.55,-17480.52,-7457.625,2566.08
1764505725.0839536,769.905,11381.985,-36576.9,-16467.704999999998,-26955.765,-17471.295,-7454.519999999999,2570.13
1764505725.084483,764.145,11374.965,-36584.73,-16474.454999999998,-26959.05,-17468.055,-7455.105,2567.16
1764505725.084483,763.605,11374.38,-36584.64,-16474.68,-26960.94,-17469.27,-7454.969999999999,2566.215
1764505725.084483,765.045,11376.27,-36582.885,-16472.16,-26959.32,-17468.145,-7453.934999999999,2567.52
1764505725.084483,766.26,11377.845,-36581.85,-16468.875,-26955.045,-17463.915,-7451.775,2568.78
1764505725.084483,765.4499999999999,11377.395,-36582.255,-16467.255,-26952.84,-17461.934999999998,-7452.09,2567.7
1764505725.084483,765.765,11377.575,-36582.345,-16469.055,-26956.215,-17467.425,-7453.125,2567.79
1764505725.084483,765.4499999999999,11376.72,-36584.19,-16474.815,-26963.1,-17472.96,-7454.519999999999,2566.17
1764505725.084483,764.91,11375.01,-36586.26,-16475.85,-26963.82,-17472.69,-7455.014999999999,2564.685
1764505725.084483,763.02,11372.895,-36588.195,-16477.065,-26965.53,-17474.445,-7455.78,2564.505
1764505725.084483,761.355,11372.445,-36587.52,-16476.21,-26965.8,-17477.37,-7457.94,2562.03
1764505725.084483,766.5749999999999,11379.195,-36580.23,-16469.1,-26961.435,-17476.785,-7457.445,2564.145
1764505725.084483,768.555,11380.635,-36579.105,-16466.94,-26957.205,-17469.315,-7454.79,2567.43
1764505725.084483,763.11,11372.265,-36588.24,-16476.614999999998,-26964.135,-17470.755,-7455.599999999999,2563.92
1764505725.084483,769.41,11378.61,-36581.67,-16470.765,-26959.005,-17467.155,-7452.224999999999,2568.06
1764505725.084483,766.62,11376.18,-36584.955,-16473.105,-26959.905,-17466.614999999998,-7453.62,2565.315
1764505725.084483,765.135,11373.66,-36587.565,-16474.454999999998,-26960.625,-17466.57,-7453.98,2563.425
1764505725.084483,763.785,11372.76,-36588.33,-16474.59,-26962.92,-17471.07,-7456.5,2560.185
1764505725.084483,765.5849999999999,11375.82,-36585.135,-16471.755,-26962.245,-17471.745,-7455.599999999999,2562.435
1764505725.084483,766.8,11377.395,-36582.615,-16468.875,-26960.895,-17471.88,-7455.195,2563.65
1764505725.084483,766.26,11376.855,-36582.93,-16470.63,-26962.47,-17472.285,-7454.655,2564.595
1764505725.084483,766.395,11375.685,-36584.325,-16471.305,-26960.175,-17465.579999999998,-7454.025,2565.315
1764505725.084483,768.15,11378.295,-36580.635,-16467.975,-26958.285,-17467.829999999998,-7454.384999999999,2565.045
1764505725.085502,768.3299999999999,11379.015,-36580.365,-16466.175,-26955.18,-17463.195,-7452.63,2566.08
1764505725.129159,767.97,11377.8,-36582.39,-16467.12,-26954.28,-17456.04,-7449.795,2567.7
1764505725.129159,763.56,11371.5,-36588.825,-16474.05,-26960.94,-17460.135,-7452.855,2565.0
1764505725.129159,765.675,11374.2,-36585.855,-16472.204999999998,-26962.29,-17465.22,-7454.34,2565.495
1764505725.129672,766.935,11375.145,-36585.765,-16473.51,-26967.015,-17472.375,-7454.969999999999,2565.0
1764505725.129672,765.5849999999999,11375.28,-36586.485,-16474.545,-26969.445,-17475.524999999998,-7456.724999999999,2563.38
1764505725.129672,770.4,11380.68,-36580.23,-16467.93,-26960.445,-17467.47,-7453.755,2567.79
1764505725.129672,767.295,11374.785,-36588.24,-16472.655,-26957.79,-17459.235,-7450.74,2567.43
1764505725.129672,766.35,11372.49,-36590.715,-16473.78,-26954.685,-17452.845,-7449.705,2566.755
1764505725.129672,766.395,11375.235,-36584.19,-16465.32,-26946.27,-17445.69,-7449.389999999999,2566.35
1764505725.129672,763.02,11372.445,-36585.315,-16470.315,-26957.34,-17456.67,-7453.17,2562.705
1764505725.129672,770.31,11380.185,-36578.925,-16470.18,-26965.08,-17469.09,-7453.62,2566.98
1764505725.129672,763.515,11373.66,-36585.72,-16472.565,-26964.63,-17468.595,-7460.144999999999,2559.195
1764505725.129672,769.275,11381.85,-36578.79,-16471.035,-26970.345,-17478.09,-7461.945,2561.4
1764505725.129672,760.41,11366.955,-36593.37,-16481.16,-26977.905,-17484.66,-7461.855,2558.115
1764505725.129672,764.4599999999999,11370.15,-36590.76,-16474.77,-26969.94,-17476.605,-7460.639999999999,2561.535
1764505725.129672,770.535,11379.87,-36579.78,-16471.305,-26971.335,-17479.44,-7462.304999999999,2562.795
1764505725.129672,767.295,11374.065,-36586.485,-16476.255,-26973.99,-17478.63,-7462.755,2561.58
1764505725.129672,766.26,11372.805,-36587.7,-16477.515,-26974.305,-17479.035,-7464.24,2560.455
1764505725.129672,770.4449999999999,11376.675,-36584.055,-16474.364999999998,-26972.73,-17480.79,-7463.474999999999,2563.785
1764505725.129672,768.87,11374.47,-36586.08,-16475.22,-26970.705,-17475.93,-7462.53,2562.435
1764505725.129672,770.4449999999999,11375.73,-36585.765,-16471.71,-26960.85,-17460.809999999998,-7456.365,2565.0
1764505725.129672,769.5899999999999,11374.38,-36587.16,-16470.045,-26958.015,-17457.795,-7457.58,2563.83
1764505725.1785994,772.0649999999999,11375.955,-36586.035,-16471.845,-26963.505,-17457.39,-7457.715,2566.845
1764505725.1785994,773.415,11377.53,-36582.975,-16472.204999999998,-26968.95,-17464.95,-7457.759999999999,2567.61
1764505725.1785994,772.605,11377.935,-36581.265,-16470.18,-26969.175,-17471.475,-7459.469999999999,2566.71
1764505725.1785994,772.245,11376.81,-36583.695,-16472.114999999998,-26969.85,-17472.239999999998,-7459.29,2567.07
1764505725.1785994,775.35,11380.095,-36580.635,-16470.765,-26969.985,-17475.165,-7461.269999999999,2566.485
1764505725.1785994,774.99,11379.51,-36582.255,-16472.295,-26972.37,-17478.945,-7463.25,2565.99
1764505725.1785994,767.97,11370.555,-36591.885,-16481.565,-26979.12,-17479.98,-7465.86,2560.59
1764505725.1785994,765.72,11367.405,-36593.145,-16481.97,-26976.555,-17473.184999999998,-7463.34,2561.22
1764505725.1785994,770.4,11372.895,-36588.42,-16476.12,-26971.02,-17468.684999999998,-7459.965,2564.19
1764505725.1785994,771.255,11374.245,-36586.62,-16473.96,-26969.265,-17467.47,-7459.65,2564.325
1764505725.1785994,772.92,11375.595,-36584.685,-16471.35,-26966.88,-17464.59,-7459.245,2564.235
1764505725.1785994,770.625,11373.255,-36586.08,-16470.675,-26964.225,-17460.18,-7460.82,2561.13
1764505725.1785994,770.13,11370.285,-36590.895,-16475.895,-26967.915,-17461.53,-7460.235,2562.165
1764505725.1785994,771.5699999999999,11370.195,-36593.19,-16479.945,-26974.53,-17469.63,-7459.785,2563.92
1764505725.1785994,768.51,11367.18,-36595.755,-16483.14,-26976.015,-17469.09,-7462.665,2561.175
1764505725.1785994,774.495,11376.27,-36583.875,-16473.059999999998,-26969.265,-17465.13,-7461.809999999999,2564.91
1764505725.1785994,778.23,11380.455,-36579.42,-16467.93,-26966.7,-17466.165,-7460.549999999999,2566.755
1764505725.1785994,781.65,11381.895,-36578.43,-16465.5,-26963.28,-17462.43,-7456.995,2571.12
1764505725.1785994,780.255,11378.97,-36582.12,-16467.795,-26962.29,-17457.795,-7455.69,2570.31
1764505725.1785994,775.935,11375.055,-36585.855,-16473.105,-26966.835,-17461.485,-7459.92,2565.135
1764505725.1785994,770.85,11368.08,-36595.125,-16483.23,-26973.45,-17465.94,-7463.205,2561.76
1764505725.1795945,767.8349999999999,11363.58,-36598.59,-16484.895,-26976.015,-17473.725,-7466.445,2559.06
1764505725.1795945,769.095,11360.835,-36606.285,-16491.915,-26985.6,-17479.8,-7466.355,2561.535
1764505725.1795945,775.665,11369.88,-36595.17,-16487.954999999998,-26989.605,-17486.055,-7465.32,2565.0
1764505725.22207,774.045,11368.17,-36595.305,-16485.84,-26989.155,-17486.415,-7466.085,2563.335
1764505725.22207,779.4449999999999,11375.145,-36588.735,-16481.43,-26985.285,-17484.614999999998,-7465.23,2566.17
1764505725.22207,777.42,11372.535,-36589.86,-16480.035,-26979.93,-17479.665,-7466.355,2563.605
1764505725.22207,783.54,11377.98,-36585.045,-16473.195,-26973.855,-17477.19,-7462.799999999999,2569.185
1764505725.22207,784.89,11379.285,-36582.615,-16473.239999999998,-26977.995,-17479.44,-7461.134999999999,2570.49
1764505725.22207,773.4599999999999,11364.93,-36597.375,-16487.82,-26987.265,-17480.43,-7466.174999999999,2561.085
1764505725.22207,771.66,11361.87,-36601.155,-16490.97,-26985.78,-17474.94,-7465.995,2560.185
1764505725.22207,767.745,11358.945,-36603.945,-16492.005,-26985.915,-17475.975,-7468.559999999999,2555.28
1764505725.22207,766.26,11356.785,-36604.485,-16486.515,-26980.425,-17473.995,-7469.775,2554.47
1764505725.22207,776.88,11368.755,-36592.92,-16482.195,-26984.16,-17482.364999999998,-7467.165,2561.58
1764505725.22207,778.3199999999999,11370.87,-36593.28,-16484.85,-26987.085,-17481.735,-7464.059999999999,2563.515
1764505725.22207,774.81,11366.19,-36598.455,-16487.37,-26986.14,-17481.329999999998,-7465.5,2560.545
1764505725.2246175,772.155,11363.535,-36600.39,-16488.765,-26987.58,-17483.085,-7466.985,2557.17
1764505725.2246175,773.1899999999999,11364.57,-36598.23,-16486.739999999998,-26984.43,-17479.395,-7465.815,2558.115
1764505725.2246175,777.9599999999999,11369.745,-36592.83,-16481.114999999998,-26978.76,-17474.625,-7462.125,2562.795
1764505725.2246175,773.8199999999999,11367.81,-36595.98,-16484.489999999998,-26982.27,-17477.684999999998,-7466.94,2556.585
1764505725.2246175,773.1899999999999,11368.305,-36594.585,-16482.96,-26979.975,-17475.3,-7465.365,2556.945
1764505725.2246175,765.0899999999999,11355.255,-36608.58,-16492.14,-26985.915,-17479.17,-7463.745,2555.91
1764505725.2246175,772.8299999999999,11364.165,-36599.67,-16484.805,-26980.02,-17475.93,-7462.844999999999,2560.635
1764505725.2246175,781.785,11374.29,-36588.96,-16476.84,-26972.37,-17468.415,-7457.219999999999,2566.305
1764505725.2246175,776.295,11368.935,-36593.955,-16480.89,-26974.845,-17467.11,-7456.455,2563.56
1764505725.2246175,776.88,11370.645,-36593.01,-16481.07,-26974.89,-17469.72,-7456.049999999999,2563.56
1764505725.2688303,782.145,11375.595,-36589.095,-16478.055,-26972.64,-17469.45,-7452.45,2568.42
1764505725.2688303,778.095,11371.68,-36592.425,-16480.53,-26972.415,-17468.325,-7452.674999999999,2566.935
1764505725.2688303,777.6899999999999,11371.23,-36592.965,-16482.645,-26974.935,-17472.239999999998,-7453.755,2566.8
1764505725.2693398,774.72,11367.405,-36598.14,-16489.035,-26982.405,-17481.149999999998,-7457.13,2563.335
1764505725.2693398,778.5899999999999,11372.085,-36592.695,-16483.364999999998,-26977.23,-17477.46,-7452.045,2567.655
1764505725.2693398,777.8249999999999,11372.04,-36591.66,-16482.51,-26978.175,-17481.015,-7453.394999999999,2566.08
1764505725.2693398,780.93,11375.55,-36588.555,-16478.55,-26973.0,-17474.76,-7450.514999999999,2568.285
1764505725.2693398,782.235,11376.855,-36587.52,-16474.815,-26965.395,-17463.87,-7446.014999999999,2571.885
1764505725.2693398,779.985,11376.495,-36586.305,-16471.71,-26961.705,-17463.69,-7446.465,2568.78
1764505725.2693398,781.56,11380.725,-36580.68,-16465.5,-26959.32,-17465.13,-7447.275,2569.41
1764505725.2693398,781.8299999999999,11381.22,-36578.295,-16469.055,-26964.495,-17460.765,-7443.99,2570.895
1764505725.2693398,782.01,11382.345,-36578.655,-16470.45,-26963.82,-17457.704999999998,-7442.865,2572.11
1764505725.2693398,780.255,11379.96,-36582.93,-16473.69,-26966.565,-17461.665,-7443.99,2571.255
1764505725.2698677,772.47,11369.88,-36592.875,-16482.69,-26974.485,-17468.46,-7448.04,2565.54
1764505725.2698677,768.915,11365.245,-36597.78,-16487.1,-26978.355,-17473.545,-7449.21,2564.325
1764505725.2698677,775.755,11373.48,-36589.995,-16481.79,-26974.305,-17474.715,-7444.98,2570.175
1764505725.2698677,772.65,11369.925,-36594.765,-16487.1,-26978.13,-17476.965,-7445.07,2568.555
1764505725.2698677,777.06,11377.935,-36584.595,-16481.475,-26979.615,-17483.94,-7445.565,2569.59
1764505725.271906,771.3,11367.9,-36598.14,-16487.774999999998,-26982.945,-17486.505,-7446.15,2569.455
1764505725.271906,776.97,11376.855,-36588.825,-16484.94,-26985.465,-17490.69,-7445.565,2572.425
1764505725.271906,776.385,11378.295,-36585.765,-16483.454999999998,-26983.62,-17488.89,-7444.98,2571.03
1764505725.271906,774.81,11376.585,-36586.395,-16480.98,-26978.895,-17483.355,-7444.304999999999,2571.03
1764505725.271906,776.6999999999999,11379.195,-36582.345,-16477.02,-26973.63,-17478.72,-7443.179999999999,2573.37
1764505725.271906,773.415,11376.18,-36583.515,-16478.145,-26973.09,-17476.515,-7445.565,2570.535
1764505725.3186798,770.895,11373.48,-36584.1,-16476.885,-26969.58,-17469.225,-7444.53,2568.195
1764505725.3186798,767.52,11371.275,-36585.27,-16477.38,-26968.815,-17469.899999999998,-7446.644999999999,2564.955
1764505725.3186798,767.6999999999999,11371.95,-36584.37,-16475.13,-26965.395,-17465.22,-7446.465,2564.46
1764505725.3186798,768.285,11373.03,-36583.065,-16472.655,-26960.355,-17458.02,-7444.53,2565.81
1764505725.3186798,770.4449999999999,11375.505,-36582.165,-16473.69,-26963.28,-17463.42,-7444.125,2568.195
1764505725.3186798,766.845,11371.59,-36587.34,-16480.934999999998,-26971.605,-17474.625,-7447.59,2566.26
1764505725.3186798,763.56,11368.665,-36589.545,-16482.149999999998,-26971.38,-17473.59,-7449.255,2563.425
1764505725.3186798,766.5749999999999,11373.435,-36585.135,-16477.92,-26968.185,-17471.925,-7446.96,2566.395
1764505725.3186798,767.295,11373.795,-36585.72,-16479.989999999998,-26972.64,-17479.53,-7447.815,2566.755
1764505725.3186798,753.7049999999999,11357.865,-36605.07,-16500.555,-26990.505,-17491.005,-7456.139999999999,2555.595
1764505725.3186798,752.13,11357.73,-36605.43,-16502.309999999998,-26990.955,-17490.78,-7456.95,2554.515
1764505725.3186798,749.52,11355.21,-36607.815,-16503.795,-26989.38,-17488.845,-7456.995,2552.94
1764505725.3186798,748.0799999999999,11352.69,-36610.74,-16500.6,-26985.33,-17487.18,-7457.535,2553.03
1764505725.3192978,756.81,11363.94,-36598.5,-16498.53,-26993.655,-17499.78,-7457.219999999999,2558.655
1764505725.3192978,755.685,11363.895,-36597.87,-16497.945,-26991.585,-17497.62,-7457.535,2557.935
1764505725.3192978,749.16,11358.72,-36603.63,-16500.149999999998,-26992.98,-17501.22,-7461.855,2551.725
1764505725.3192978,748.305,11358.99,-36603.63,-16500.239999999998,-26992.89,-17504.37,-7463.79,2550.51
1764505725.3192978,746.235,11355.66,-36607.05,-16501.14,-26989.74,-17497.44,-7462.799999999999,2550.06
1764505725.3192978,746.37,11355.48,-36606.645,-16500.285,-26985.915,-17487.989999999998,-7459.245,2552.535
1764505725.3192978,745.9649999999999,11356.245,-36605.655,-16503.434999999998,-26991.315,-17494.605,-7460.865,2551.005
1764505725.3192978,741.285,11352.915,-36608.355,-16503.434999999998,-26992.17,-17499.105,-7465.139999999999,2546.145
1764505725.3192978,744.12,11356.83,-36604.845,-16505.145,-26999.37,-17508.6,-7465.905,2548.53
1764505725.3192978,747.135,11358.045,-36605.025,-16507.079999999998,-27000.045,-17507.52,-7462.215,2552.265
1764505725.3192978,744.7049999999999,11353.995,-36610.335,-16509.195,-26996.31,-17498.88,-7459.785,2551.95
1764505725.3631735,742.77,11353.41,-36609.03,-16506.855,-26992.89,-17493.93,-7459.695,2551.005
1764505725.3631735,748.98,11363.04,-36597.42,-16494.93,-26982.18,-17484.975,-7456.005,2555.82
1764505725.363738,751.725,11368.395,-36589.995,-16491.239999999998,-26982.045,-17488.62,-7456.139999999999,2556.495
1764505725.363738,752.85,11369.16,-36587.88,-16487.055,-26974.575,-17475.524999999998,-7451.325,2559.735
1764505725.363738,749.16,11363.67,-36594.0,-16489.934999999998,-26973.0,-17468.055,-7449.615,2558.475
1764505725.363738,748.98,11366.64,-36590.67,-16489.934999999998,-26973.585,-17470.665,-7451.505,2555.55
1764505725.363738,746.595,11362.725,-36594.9,-16490.024999999998,-26969.49,-17466.03,-7447.5,2557.485
1764505725.363738,749.295,11362.545,-36595.62,-16486.11,-26966.205,-17467.559999999998,-7445.519999999999,2562.57
1764505725.363738,761.31,11379.24,-36576.27,-16474.23,-26967.42,-17479.665,-7446.42,2566.89
1764505725.363738,762.345,11378.34,-36580.095,-16484.76,-26981.01,-17489.655,-7443.764999999999,2570.58
1764505725.363738,749.0699999999999,11361.33,-36599.13,-16500.825,-26984.475,-17477.73,-7444.44,2564.19
1764505725.363738,747.9449999999999,11360.97,-36597.555,-16495.695,-26978.13,-17469.765,-7444.035,2563.11
1764505725.363738,754.8299999999999,11371.365,-36583.695,-16479.63,-26964.09,-17460.855,-7440.389999999999,2567.25
1764505725.363738,753.885,11370.33,-36586.125,-16486.335,-26971.83,-17469.54,-7441.38,2567.295
1764505725.363738,748.0799999999999,11362.95,-36594.855,-16498.62,-26984.115,-17480.745,-7444.844999999999,2563.785
1764505725.363738,743.985,11358.27,-36600.84,-16505.954999999998,-26995.86,-17497.395,-7451.19,2559.555
1764505725.363738,743.67,11357.55,-36603.315,-16510.545,-27003.51,-17508.96,-7453.215,2559.51
1764505725.363738,743.31,11357.505,-36603.135,-16510.05,-27002.88,-17508.78,-7454.34,2558.52
1764505725.363738,749.97,11364.705,-36595.62,-16501.14,-26994.015,-17500.995,-7449.525,2564.73
1764505725.363738,752.535,11368.575,-36590.04,-16493.579999999998,-26984.835,-17491.364999999998,-7447.049999999999,2566.26
1764505725.363738,748.035,11363.625,-36595.8,-16499.97,-26987.04,-17488.35,-7446.735,2564.46
1764505725.363738,746.4599999999999,11361.645,-36598.455,-16503.704999999998,-26991.63,-17491.725,-7447.905,2563.47
1764505725.4077554,748.5749999999999,11363.895,-36596.34,-16502.085,-26991.765,-17492.489999999998,-7446.554999999999,2565.72
1764505725.4077554,748.7099999999999,11363.445,-36595.62,-16500.915,-26991.495,-17492.715,-7446.105,2565.585
1764505725.4077554,748.845,11364.345,-36594.585,-16499.835,-26991.27,-17493.12,-7446.735,2564.82
1764505725.408268,744.66,11360.385,-36598.05,-16503.03,-26993.79,-17495.774999999998,-7450.469999999999,2560.77
1764505725.408268,748.89,11364.75,-36594.405,-16498.485,-26988.435,-17489.07,-7447.049999999999,2564.28
1764505725.408268,750.9599999999999,11365.02,-36593.145,-16497.63,-26988.345,-17488.53,-7446.15,2565.765
1764505725.408268,750.9599999999999,11366.145,-36591.39,-16495.785,-26986.68,-17486.954999999998,-7444.934999999999,2565.675
1764505725.408268,750.1949999999999,11365.695,-36590.715,-16495.29,-26985.96,-17487.315,-7445.474999999999,2563.965
1764505725.408268,754.56,11370.42,-36584.64,-16489.53,-26981.82,-17485.29,-7443.674999999999,2567.34
1764505725.408268,756.18,11372.31,-36583.2,-16487.145,-26978.67,-17482.86,-7443.0,2568.105
1764505725.408268,752.76,11366.28,-36589.68,-16491.239999999998,-26977.815,-17477.954999999998,-7443.315,2566.62
1764505725.408268,751.14,11363.13,-36593.1,-16494.12,-26980.515,-17481.105,-7444.259999999999,2565.45
1764505725.408268,760.14,11373.615,-36582.39,-16489.845,-26982.09,-17483.489999999998,-7439.759999999999,2571.75
1764505725.408268,759.6899999999999,11373.48,-36581.94,-16489.35,-26979.21,-17477.64,-7439.355,2571.12
1764505725.408268,760.5,11373.57,-36581.535,-16486.245,-26972.955,-17470.62,-7438.455,2571.21
1764505725.408268,762.7049999999999,11374.92,-36580.5,-16480.305,-26965.395,-17465.04,-7438.005,2572.2
1764505725.408268,762.12,11375.055,-36578.79,-16480.755,-26970.435,-17467.065,-7436.79,2572.11
1764505725.408268,755.28,11365.965,-36589.41,-16493.579999999998,-26980.47,-17471.07,-7437.554999999999,2568.465
1764505725.408268,756.63,11367.36,-36590.76,-16499.835,-26988.39,-17480.835,-7439.58,2568.915
1764505725.408268,753.12,11360.655,-36596.565,-16497.945,-26985.69,-17479.395,-7442.054999999999,2565.495
1764505725.408268,760.365,11369.79,-36585.63,-16493.535,-26990.595,-17486.82,-7442.639999999999,2568.645
1764505725.408268,764.28,11377.305,-36574.245,-16485.3,-26983.17,-17479.079999999998,-7441.695,2569.995
1764505725.4092767,766.2149999999999,11382.255,-36567.54,-16473.105,-26964.99,-17459.595,-7439.174999999999,2570.13
1764505725.4092767,760.23,11371.455,-36580.41,-16477.92,-26965.845,-17460.18,-7440.03,2567.52
1764505725.4582117,765.72,11372.805,-36580.77,-16481.114999999998,-26966.565,-17460.315,-7436.07,2573.73
1764505725.4582117,769.545,11376.63,-36577.755,-16481.88,-26964.405,-17458.875,-7436.88,2575.26
1764505725.4582117,760.05,11364.345,-36592.605,-16495.38,-26981.055,-17473.184999999998,-7439.4,2571.39
1764505725.4582117,755.145,11358.09,-36597.915,-16503.255,-26996.58,-17487.495,-7443.809999999999,2566.665
1764505725.4582117,759.4649999999999,11365.155,-36588.78,-16497.09,-26997.795,-17497.53,-7447.139999999999,2567.385
1764505725.4582117,760.41,11367.945,-36588.24,-16502.489999999998,-27009.315,-17512.965,-7450.965,2566.935
1764505725.4582117,758.925,11365.875,-36591.48,-16505.145,-27008.055,-17508.69,-7450.019999999999,2566.755
1764505725.4582117,761.4449999999999,11366.37,-36590.265,-16501.454999999998,-27002.07,-17500.815,-7446.105,2568.285
1764505725.4582117,764.145,11369.43,-36587.655,-16497.315,-26995.32,-17493.704999999998,-7442.775,2570.715
1764505725.4582117,759.51,11365.02,-36590.895,-16499.114999999998,-26994.42,-17492.535,-7446.509999999999,2565.36
1764505725.4582117,759.555,11364.12,-36591.84,-16497.63,-26991.54,-17488.44,-7446.735,2565.54
1764505725.4582117,764.3249999999999,11368.935,-36587.205,-16494.48,-26992.215,-17488.17,-7444.755,2569.095
1764505725.4582117,766.98,11372.67,-36583.29,-16492.77,-26990.82,-17487.63,-7442.37,2570.04
1764505725.4582117,763.1999999999999,11368.17,-36588.105,-16494.614999999998,-26991.54,-17489.16,-7444.755,2565.9
1764505725.4582117,769.05,11375.1,-36580.59,-16486.245,-26985.78,-17487.045,-7443.0,2569.635
1764505725.4582117,769.68,11375.37,-36581.58,-16488.09,-26988.93,-17489.79,-7443.224999999999,2569.545
1764505725.4582117,759.1949999999999,11363.13,-36595.575,-16501.68,-26997.795,-17491.14,-7447.005,2561.805
1764505725.4582117,758.0699999999999,11361.51,-36596.655,-16501.454999999998,-26994.24,-17485.38,-7446.195,2561.265
1764505725.4582117,760.77,11362.815,-36594.9,-16500.105,-26991.675,-17483.265,-7444.17,2563.83
1764505725.4582117,761.22,11364.525,-36595.17,-16499.114999999998,-26991.99,-17484.75,-7446.825,2561.13
1764505725.4582117,764.415,11368.17,-36590.94,-16490.97,-26981.055,-17471.7,-7445.07,2562.705
1764505725.4582117,757.0799999999999,11356.785,-36602.595,-16498.035,-26977.905,-17463.195,-7444.394999999999,2559.15
1764505725.502115,756.135,11355.705,-36601.245,-16498.71,-26979.255,-17466.075,-7443.764999999999,2558.205
1764505725.502115,765.54,11366.19,-36593.595,-16495.695,-26989.29,-17483.265,-7441.875,2565.09
1764505725.502115,765.63,11368.485,-36591.165,-16499.925,-27006.66,-17505.18,-7445.519999999999,2563.785
1764505725.502115,774.045,11381.13,-36575.19,-16490.655,-26996.895,-17497.125,-7444.215,2566.845
1764505725.502115,768.285,11372.805,-36583.92,-16487.82,-26985.285,-17482.14,-7443.54,2562.075
1764505725.502115,762.39,11360.475,-36600.345,-16497.135,-26993.7,-17484.614999999998,-7443.269999999999,2560.32
1764505725.502115,775.53,11376.135,-36584.46,-16489.934999999998,-26995.68,-17489.475,-7440.48,2568.105
1764505725.502115,776.61,11378.7,-36581.31,-16486.47,-26988.795,-17486.28,-7442.775,2565.63
1764505725.502115,773.28,11375.91,-36583.335,-16487.325,-26985.78,-17480.25,-7444.215,2561.895
1764505725.502115,761.85,11357.145,-36603.72,-16500.329999999998,-26989.83,-17472.375,-7440.57,2558.925
1764505725.502115,758.25,11351.925,-36611.19,-16506.315,-26993.475,-17473.5,-7443.09,2555.37
1764505725.502115,773.055,11371.41,-36589.995,-16490.34,-26985.915,-17476.92,-7441.29,2563.56
1764505725.502115,779.0849999999999,11376.405,-36583.74,-16481.024999999998,-26979.57,-17474.805,-7437.87,2569.05
1764505725.502115,779.31,11376.315,-36585.72,-16487.73,-26988.615,-17483.94,-7440.57,2569.365
1764505725.502115,770.7149999999999,11364.66,-36600.615,-16497.945,-26993.7,-17484.48,-7443.855,2562.795
1764505725.502115,764.28,11357.685,-36607.05,-16500.555,-26990.955,-17475.84,-7446.014999999999,2557.26
1764505725.502115,767.2049999999999,11358.405,-36608.175,-16503.614999999998,-26990.685,-17473.364999999998,-7441.605,2561.535
1764505725.502115,768.1949999999999,11360.925,-36606.6,-16500.87,-26986.455,-17472.69,-7442.955,2560.275
1764505725.502115,765.72,11359.98,-36604.845,-16501.815,-26988.75,-17475.795,-7445.7,2557.53
1764505725.502115,766.62,11362.815,-36599.715,-16500.555,-26991.405,-17477.19,-7447.32,2557.935
1764505725.502115,775.755,11375.415,-36585.675,-16495.695,-26994.105,-17483.489999999998,-7447.005,2563.155
1764505725.502115,780.435,11381.715,-36578.205,-16487.774999999998,-26986.05,-17478.135,-7446.285,2563.74
1764505725.502115,773.01,11370.465,-36589.275,-16489.575,-26977.14,-17463.239999999998,-7445.79,2561.355
1764505725.503644,773.775,11370.06,-36591.975,-16488.18,-26978.49,-17466.614999999998,-7449.12,2561.085
1764505725.5510375,785.16,11388.735,-36567.72,-16473.42,-26976.6,-17472.329999999998,-7447.275,2562.705
1764505725.5510375,780.975,11377.485,-36582.39,-16485.48,-26982.315,-17472.87,-7443.315,2564.415
1764505725.5510375,784.305,11375.955,-36591.255,-16493.489999999998,-26987.67,-17478.54,-7445.16,2569.095
1764505725.5510375,779.175,11377.62,-36582.615,-16488.405,-26986.77,-17480.34,-7453.71,2560.095
1764505725.5510375,777.87,11376.81,-36581.49,-16478.684999999998,-26973.405,-17466.39,-7448.804999999999,2560.32
1764505725.5510375,774.495,11371.905,-36588.645,-16485.885,-26984.835,-17481.69,-7450.559999999999,2559.78
1764505725.5510375,773.28,11367.135,-36595.17,-16499.385,-27002.97,-17499.015,-7448.759999999999,2563.155
1764505725.5510375,770.535,11361.195,-36603.63,-16508.52,-27007.38,-17495.235,-7450.2,2561.13
1764505725.5510375,771.93,11365.92,-36599.715,-16503.84,-27003.87,-17494.559999999998,-7453.755,2558.97
1764505725.5510375,778.905,11374.335,-36590.13,-16493.22,-26994.105,-17486.595,-7449.75,2563.695
1764505725.5510375,778.77,11372.985,-36592.02,-16493.445,-26991.855,-17483.94,-7449.57,2563.38
1764505725.5510375,774.855,11367.18,-36599.31,-16500.87,-26997.795,-17488.305,-7452.36,2560.365
1764505725.5510375,778.77,11369.88,-36596.925,-16495.155,-26985.645,-17474.76,-7450.155,2563.065
1764505725.5510375,778.77,11371.23,-36594.36,-16489.079999999998,-26979.615,-17471.655,-7455.915,2559.87
1764505725.5520515,785.025,11379.69,-36583.605,-16483.364999999998,-26977.41,-17466.66,-7452.63,2562.795
1764505725.5520515,778.68,11370.015,-36592.065,-16487.325,-26973.315,-17457.165,-7450.019999999999,2559.87
1764505725.5520515,772.6949999999999,11361.87,-36603.18,-16500.96,-26992.215,-17478.135,-7456.679999999999,2554.425
1764505725.5520515,778.185,11366.145,-36600.21,-16505.82,-27008.91,-17500.32,-7459.2,2558.565
1764505725.5520515,781.3349999999999,11371.635,-36591.795,-16496.055,-27003.42,-17500.59,-7460.19,2557.62
1764505725.5520515,779.31,11369.16,-36592.695,-16489.755,-26984.565,-17476.695,-7458.974999999999,2556.09
1764505725.5520515,784.755,11374.245,-36587.835,-16485.345,-26974.98,-17463.42,-7456.139999999999,2560.545
1764505725.5520515,780.12,11366.145,-36596.88,-16488.63,-26973.855,-17456.94,-7456.139999999999,2558.34
1764505725.5520515,788.0849999999999,11379.87,-36580.32,-16476.03,-26971.56,-17462.34,-7458.03,2559.825
1764505725.5520515,786.285,11373.93,-36589.815,-16495.245,-26991.135,-17482.905,-7459.29,2562.705
1764505725.5973234,773.1899999999999,11359.98,-36605.61,-16497.0,-26977.905,-17463.195,-7462.44,2551.545
1764505725.5973234,782.055,11368.845,-36597.78,-16492.05,-26973.27,-17459.055,-7463.835,2555.1
1764505725.5973234,788.7149999999999,11377.305,-36586.71,-16480.89,-26958.51,-17445.555,-7467.21,2555.28
1764505725.5973234,772.56,11349.72,-36615.645,-16489.215,-26949.51,-17425.53,-7460.82,2551.455
1764505725.5973234,784.26,11374.65,-36580.86,-16473.059999999998,-26957.97,-17443.755,-7465.455,2551.5
1764505725.5973234,789.435,11379.825,-36577.665,-16485.345,-26986.23,-17482.095,-7465.455,2556.765
1764505725.5973234,779.31,11362.545,-36600.165,-16501.995,-27009.18,-17504.145,-7467.12,2555.235
1764505725.5973234,789.8399999999999,11378.43,-36581.4,-16491.015,-27009.27,-17513.145,-7467.705,2558.61
1764505725.5973234,791.235,11377.44,-36583.02,-16489.26,-26998.335,-17497.44,-7464.78,2560.545
1764505725.5973234,796.185,11381.985,-36580.005,-16483.68,-26987.49,-17487.855,-7466.849999999999,2561.67
1764505725.5973234,793.485,11377.395,-36587.97,-16488.45,-26978.58,-17473.32,-7467.705,2559.555
1764505725.5973234,781.3349999999999,11355.435,-36618.93,-16505.505,-26972.505,-17453.07,-7463.88,2556.63
1764505725.5973234,759.375,11331.675,-36634.815,-16506.27,-26968.59,-17443.035,-7466.894999999999,2543.445
1764505725.5973234,771.66,11353.905,-36608.49,-16500.195,-26980.92,-17454.465,-7470.495,2544.885
1764505725.5973234,785.295,11373.435,-36587.205,-16496.505,-27002.79,-17497.215,-7476.75,2550.33
1764505725.5973234,784.395,11369.115,-36591.12,-16503.93,-27007.245,-17500.59,-7473.644999999999,2552.85
1764505725.5973234,795.1949999999999,11378.7,-36585.315,-16495.785,-27003.15,-17501.04,-7473.24,2560.905
1764505725.5973234,800.28,11389.32,-36571.14,-16483.005,-26993.52,-17492.625,-7471.125,2562.705
1764505725.5973234,788.67,11377.395,-36581.355,-16484.895,-26981.505,-17474.985,-7469.955,2554.245
1764505725.5973234,774.27,11356.605,-36608.22,-16509.87,-26995.815,-17484.614999999998,-7476.48,2547.0
1764505725.5973234,767.5649999999999,11349.54,-36615.51,-16514.235,-26992.62,-17472.465,-7476.57,2541.6
1764505725.5973234,777.285,11360.79,-36603.99,-16504.425,-26995.815,-17484.165,-7478.82,2547.9
1764505725.5973234,784.485,11368.26,-36591.66,-16497.045,-27000.27,-17496.63,-7476.12,2554.02
1764505725.5973234,788.13,11371.005,-36594.27,-16498.305,-26988.48,-17474.67,-7470.495,2555.46
1764505725.6461642,780.03,11368.755,-36596.16,-16491.96,-26968.365,-17449.829999999998,-7472.429999999999,2546.145
1764505725.6461642,758.925,11341.665,-36622.215,-16507.17,-26977.545,-17456.175,-7473.554999999999,2537.28
1764505725.6461642,764.8199999999999,11345.085,-36620.415,-16516.575,-27008.055,-17496.765,-7482.42,2540.79
1764505725.6461642,790.6949999999999,11381.355,-36581.805,-16496.864999999998,-27008.955,-17509.905,-7479.269999999999,2555.235
1764505725.64716,783.9449999999999,11372.535,-36589.185,-16496.235,-26997.3,-17493.614999999998,-7476.525,2551.68
1764505725.64716,779.5799999999999,11367.855,-36593.055,-16502.22,-27003.375,-17500.635,-7480.035,2546.955
1764505725.64716,779.0849999999999,11362.995,-36603.405,-16513.38,-27004.995,-17494.47,-7477.38,2550.06
1764505725.64716,778.905,11363.085,-36604.755,-16514.055,-27000.99,-17487.585,-7480.62,2547.945
1764505725.64716,782.01,11367.765,-36596.34,-16495.605,-26980.65,-17465.985,-7477.38,2550.735
1764505725.64716,772.65,11356.38,-36606.6,-16506.675,-26998.785,-17485.155,-7479.045,2545.785
1764505725.64716,773.1,11357.685,-36606.015,-16509.465,-27005.58,-17494.92,-7477.065,2546.235
1764505725.6481557,777.735,11369.295,-36592.11,-16497.0,-26992.8,-17482.725,-7476.525,2546.055
1764505725.6481557,772.875,11361.825,-36602.64,-16508.43,-26998.74,-17486.145,-7479.405,2543.76
1764505725.6481557,769.86,11356.02,-36608.67,-16507.98,-26989.83,-17473.59,-7475.94,2543.04
1764505725.6481557,772.515,11356.875,-36608.58,-16501.364999999998,-26980.335,-17462.34,-7469.955,2547.675
1764505725.6481557,782.235,11371.365,-36593.37,-16498.665,-26986.32,-17477.055,-7472.34,2553.255
1764505725.6481557,776.16,11364.75,-36599.355,-16496.82,-26972.1,-17457.03,-7473.69,2548.485
1764505725.6481557,775.53,11368.845,-36593.865,-16488.45,-26958.42,-17434.44,-7473.69,2542.275
1764505725.6481557,749.385,11343.33,-36612.495,-16498.17,-26960.715,-17428.905,-7475.219999999999,2524.05
1764505725.6481557,760.635,11357.01,-36602.235,-16499.97,-26989.38,-17476.875,-7481.88,2532.465
1764505725.6481557,799.11,11403.495,-36558.945,-16490.61,-27006.255,-17506.35,-7477.424999999999,2555.685
1764505725.6481557,786.555,11388.825,-36570.6,-16491.825,-26989.695,-17481.239999999998,-7473.059999999999,2549.475
1764505725.6481557,762.12,11346.57,-36619.74,-16515.315,-26984.79,-17461.62,-7469.684999999999,2542.86
1764505725.6481557,783.045,11380.68,-36581.355,-16492.364999999998,-26970.255,-17454.825,-7468.74,2548.305
1764505725.6923034,784.935,11387.115,-36568.665,-16471.215,-26944.965,-17429.625,-7456.005,2552.805
1764505725.6923034,747.81,11328.57,-36635.31,-16514.415,-26974.755,-17443.305,-7463.565,2539.305
1764505725.6923034,779.67,11370.96,-36601.245,-16521.48,-27003.465,-17483.355,-7471.44,2551.95
1764505725.6923034,778.095,11373.66,-36598.59,-16505.28,-26973.855,-17446.184999999998,-7463.969999999999,2547.81
1764505725.6923034,754.8299999999999,11355.525,-36603.315,-16506.36,-26993.205,-17469.765,-7466.804999999999,2535.12
1764505725.6923034,785.16,11390.895,-36567.72,-16500.735,-27025.965,-17528.805,-7472.429999999999,2553.03
1764505725.6923034,778.3199999999999,11378.295,-36580.68,-16500.285,-27005.895,-17502.255,-7459.514999999999,2555.73
1764505725.6923034,771.345,11360.43,-36608.04,-16507.575,-26995.455,-17486.505,-7457.804999999999,2555.55
1764505725.6923034,787.545,11378.88,-36597.105,-16507.62,-26993.025,-17482.5,-7458.389999999999,2562.93
1764505725.6923034,788.22,11383.02,-36587.43,-16493.94,-26976.69,-17462.97,-7457.894999999999,2561.04
1764505725.6923034,775.7099999999999,11374.695,-36580.59,-16477.829999999998,-26956.08,-17435.295,-7451.054999999999,2554.38
1764505725.6923034,771.7049999999999,11373.795,-36578.7,-16494.704999999998,-26986.5,-17474.22,-7454.7,2553.795
1764505725.6923034,760.995,11360.52,-36592.515,-16501.32,-26984.565,-17469.135,-7452.809999999999,2547.135
1764505725.6923034,762.795,11362.68,-36593.01,-16507.665,-27003.195,-17497.125,-7460.28,2548.17
1764505725.6923034,764.685,11367.99,-36588.555,-16501.05,-26997.39,-17493.39,-7461.54,2544.03
1764505725.6923034,767.385,11367.36,-36592.83,-16513.065,-27007.515,-17498.385,-7457.67,2550.915
1764505725.6923034,765.765,11364.48,-36598.905,-16515.945,-27005.22,-17496.315,-7454.79,2551.86
1764505725.6923034,760.185,11360.295,-36599.175,-16511.445,-27000.405,-17491.095,-7457.445,2546.055
1764505725.6923034,763.6949999999999,11364.57,-36592.515,-16506.989999999998,-26997.66,-17485.245,-7453.844999999999,2550.105
1764505725.6923034,767.52,11368.35,-36591.39,-16512.66,-26999.055,-17485.739999999998,-7454.115,2554.065
1764505725.6923034,765.81,11362.32,-36601.965,-16510.77,-26985.33,-17468.46,-7452.764999999999,2555.64
1764505725.6923034,765.765,11372.67,-36584.28,-16490.52,-26973.0,-17459.145,-7455.15,2548.98
1764505725.7377925,768.555,11379.735,-36579.015,-16490.79,-26973.765,-17461.665,-7455.42,2551.455
1764505725.7377925,754.38,11357.505,-36600.48,-16496.325,-26967.285,-17447.489999999998,-7448.715,2545.74
1764505725.7377925,751.9499999999999,11351.16,-36603.495,-16509.42,-26989.47,-17472.51,-7447.275,2548.53
1764505725.7377925,762.885,11367.63,-36586.35,-16504.02,-26989.65,-17474.67,-7451.73,2553.435
1764505725.7377925,767.43,11380.815,-36568.62,-16486.245,-26972.415,-17460.765,-7450.155,2552.31
1764505725.7377925,754.605,11362.545,-36588.105,-16498.35,-26981.19,-17470.26,-7448.49,2547.36
1764505725.7377925,753.165,11358.36,-36593.055,-16499.79,-26987.13,-17479.53,-7449.03,2549.16
1764505725.738299,766.305,11376.18,-36580.23,-16494.03,-26979.165,-17470.755,-7451.235,2552.265
1764505725.738299,768.735,11379.285,-36577.665,-16492.59,-26969.715,-17456.579999999998,-7446.87,2554.74
1764505725.738299,746.37,11354.445,-36601.695,-16507.845,-26975.745,-17454.915,-7452.585,2539.8
1764505725.738299,748.305,11350.8,-36606.825,-16508.79,-26985.735,-17472.465,-7448.849999999999,2548.755
1764505725.738299,763.875,11375.1,-36580.59,-16494.03,-26980.02,-17472.645,-7452.945,2552.085
1764505725.739308,755.64,11366.235,-36586.17,-16495.155,-26980.335,-17474.265,-7448.264999999999,2547.63
1764505725.739308,748.485,11358.9,-36592.425,-16502.445,-26990.73,-17485.29,-7451.639999999999,2544.885
1764505725.740307,764.235,11373.975,-36582.705,-16501.454999999998,-26988.48,-17485.739999999998,-7451.505,2554.56
1764505725.740307,754.38,11362.23,-36592.335,-16504.155,-26972.64,-17458.47,-7445.429999999999,2548.305
1764505725.740307,745.0649999999999,11348.505,-36608.4,-16507.845,-26968.995,-17450.864999999998,-7445.34,2545.38
1764505725.7413082,744.03,11350.98,-36604.755,-16505.415,-26988.615,-17486.82,-7455.554999999999,2543.355
1764505725.7413082,765.4499999999999,11382.57,-36567.135,-16480.079999999998,-26973.09,-17474.625,-7451.28,2552.76
1764505725.7413082,750.1949999999999,11356.92,-36594.99,-16498.62,-26975.25,-17467.245,-7448.085,2548.935
1764505725.7413082,752.805,11359.485,-36593.235,-16499.97,-26983.62,-17476.38,-7447.86,2552.805
1764505725.7423172,762.975,11375.775,-36575.46,-16498.485,-26988.12,-17480.204999999998,-7446.105,2555.505
1764505725.7423172,772.56,11378.07,-36584.28,-16505.145,-26973.765,-17453.34,-7437.465,2566.44
1764505725.7423172,757.305,11360.385,-36600.3,-16494.03,-26956.17,-17438.67,-7435.304999999999,2559.6
1764505725.7860374,737.8199999999999,11351.07,-36593.73,-16493.22,-26984.385,-17484.165,-7445.34,2544.435
1764505725.7860374,765.4499999999999,11385.81,-36557.235,-16492.5,-27005.49,-17521.965,-7446.554999999999,2560.77
1764505725.7860374,752.76,11363.085,-36587.115,-16502.535,-26992.53,-17491.995,-7445.07,2554.605
1764505725.7860374,755.8199999999999,11369.475,-36578.52,-16491.555,-26982.045,-17479.53,-7446.87,2553.975
1764505725.7860374,759.42,11375.505,-36573.48,-16489.665,-26976.87,-17473.77,-7445.205,2556.81
1764505725.7870371,745.92,11355.57,-36596.7,-16508.835,-26985.915,-17475.704999999998,-7444.98,2551.545
1764505725.7870371,746.8199999999999,11355.75,-36599.535,-16508.43,-26984.52,-17469.72,-7445.07,2552.805
1764505725.7870371,747.63,11356.155,-36599.445,-16505.235,-26986.005,-17474.579999999998,-7446.24,2553.48
1764505725.7870371,752.67,11367.18,-36580.68,-16491.78,-26984.97,-17483.67,-7443.809999999999,2556.585
1764505725.7870371,756.63,11370.33,-36579.015,-16492.005,-26981.91,-17482.454999999998,-7443.405,2560.86
1764505725.7870371,746.64,11352.96,-36600.255,-16507.215,-26990.685,-17483.355,-7444.665,2557.17
1764505725.7870371,755.595,11364.255,-36589.23,-16501.23,-26984.43,-17474.715,-7442.415,2561.715
1764505725.7870371,756.18,11360.565,-36597.6,-16503.614999999998,-26978.85,-17468.73,-7438.32,2565.495
1764505725.7870371,752.535,11360.295,-36591.075,-16499.16,-26974.755,-17457.48,-7436.07,2562.075
1764505725.7870371,757.845,11375.235,-36571.275,-16483.905,-26967.105,-17458.245,-7440.705,2562.57
1764505725.7870371,760.275,11373.435,-36577.215,-16489.62,-26975.16,-17470.8,-7438.634999999999,2568.105
1764505725.7870371,756.135,11366.685,-36585.495,-16489.62,-26967.195,-17455.77,-7437.465,2564.505
1764505725.7870371,756.405,11363.265,-36594.18,-16507.98,-26988.21,-17477.37,-7442.73,2565.81
1764505725.7875466,772.29,11384.325,-36574.515,-16506.54,-26968.23,-17439.48,-7436.205,2572.695
1764505725.7875466,754.56,11368.26,-36584.955,-16487.28,-26914.05,-17367.434999999998,-7430.4,2561.04
1764505725.7875466,738.405,11349.63,-36592.155,-16472.88,-26937.63,-17417.25,-7436.205,2555.505
1764505725.7875466,761.85,11378.7,-36563.625,-16461.765,-26970.12,-17476.785,-7434.134999999999,2572.965
1764505725.7875466,805.86,11428.47,-36521.865,-16460.55,-26983.215,-17502.21,-7438.365,2595.33
1764505725.7875466,797.31,11416.545,-36542.835,-16459.155,-26946.315,-17439.975,-7430.4,2588.13
1764505725.8303006,751.005,11352.195,-36601.965,-16477.965,-26940.555,-17410.23,-7420.23,2572.425
1764505725.8308115,769.905,11377.755,-36576.27,-16470.36,-26948.655,-17437.68,-7425.495,2580.255
1764505725.8308115,774.135,11387.7,-36563.94,-16477.245,-26962.245,-17461.934999999998,-7428.375,2580.84
1764505725.8308115,772.38,11386.755,-36560.52,-16481.97,-26978.175,-17479.215,-7432.83,2581.02
1764505725.8308115,765.36,11377.935,-36567.495,-16476.03,-26968.23,-17462.97,-7429.365,2580.345
1764505725.8308115,781.29,11395.08,-36553.77,-16478.64,-26980.695,-17477.954999999998,-7426.53,2590.065
1764505725.8308115,766.17,11372.94,-36579.33,-16493.265,-26979.66,-17466.524999999998,-7424.415,2582.775
1764505725.8308115,772.56,11377.35,-36580.95,-16488.585,-26962.2,-17443.62,-7423.785,2585.43
1764505725.8308115,771.7049999999999,11383.47,-36563.22,-16460.55,-26926.29,-17402.399999999998,-7417.394999999999,2582.37
1764505725.8308115,781.3349999999999,11401.92,-36534.915,-16442.28,-26917.2,-17397.899999999998,-7405.155,2590.605
1764505725.8308115,770.5799999999999,11389.68,-36544.635,-16435.395,-26907.57,-17391.735,-7405.559999999999,2586.825
1764505725.8308115,770.04,11393.595,-36540.09,-16436.835,-26933.13,-17429.76,-7420.815,2581.155
1764505725.8308115,773.055,11391.57,-36553.185,-16472.52,-26986.545,-17489.655,-7432.245,2584.44
1764505725.8308115,778.3199999999999,11393.325,-36560.295,-16483.95,-26987.805,-17482.77,-7429.905,2589.03
1764505725.8318546,770.76,11386.62,-36562.59,-16472.43,-26958.645,-17440.245,-7420.005,2585.7
1764505725.8318546,768.8249999999999,11385.63,-36560.52,-16464.915,-26951.445,-17435.79,-7418.16,2587.095
1764505725.8318546,778.995,11403.585,-36534.645,-16445.16,-26931.06,-17415.09,-7409.565,2591.505
1764505725.8318546,759.285,11377.845,-36558.495,-16456.095,-26922.285,-17393.04,-7404.84,2581.83
1764505725.8318546,764.3249999999999,11387.16,-36550.26,-16446.105,-26925.255,-17405.954999999998,-7407.945,2585.07
1764505725.8318546,775.305,11397.06,-36539.955,-16441.065,-26930.925,-17416.665,-7400.025,2596.995
1764505725.8318546,780.435,11401.785,-36541.125,-16447.454999999998,-26936.415,-17423.19,-7402.545,2599.38
1764505725.8318546,772.56,11391.93,-36554.85,-16463.835,-26949.465,-17433.0,-7409.115,2592.405
1764505725.879686,769.275,11387.34,-36563.67,-16472.204999999998,-26955.72,-17437.454999999998,-7410.644999999999,2591.955
1764505725.879686,766.0799999999999,11385.585,-36566.64,-16473.69,-26956.17,-17441.28,-7413.344999999999,2588.445
1764505725.88069,755.4599999999999,11376.09,-36569.43,-16464.51,-26939.52,-17420.445,-7404.795,2585.475
1764505725.88069,763.56,11386.935,-36557.28,-16457.715,-26938.215,-17416.215,-7402.41,2590.47
1764505725.88069,779.355,11405.97,-36541.305,-16459.695,-26951.895,-17433.809999999998,-7403.264999999999,2598.705
1764505725.88069,769.86,11392.335,-36558.675,-16477.38,-26963.865,-17442.36,-7402.679999999999,2596.77
1764505725.88069,766.98,11392.065,-36555.39,-16470.72,-26946.585,-17418.149999999998,-7395.57,2595.015
1764505725.88069,762.2099999999999,11384.82,-36561.42,-16460.28,-26921.655,-17387.28,-7385.309999999999,2596.59
1764505725.88069,763.425,11386.17,-36554.76,-16451.01,-26922.24,-17397.405,-7379.144999999999,2600.73
1764505725.88069,759.42,11379.87,-36558.09,-16455.015,-26932.095,-17410.32,-7376.985,2602.485
1764505725.88069,776.61,11408.445,-36530.955,-16439.085,-26926.74,-17412.66,-7378.92,2608.74
1764505725.88069,774.4499999999999,11416.275,-36521.64,-16435.395,-26928.405,-17416.395,-7384.139999999999,2603.16
1764505725.88069,770.31,11408.13,-36531.63,-16445.565,-26935.38,-17421.48,-7380.315,2605.23
1764505725.88069,781.605,11414.79,-36535.32,-16454.114999999998,-26925.435,-17395.38,-7369.83,2616.75
1764505725.88069,806.895,11443.23,-36503.55,-16424.91,-26853.75,-17289.989999999998,-7335.045,2636.595
1764505725.88069,732.9599999999999,11356.56,-36567.405,-16409.88,-26787.69,-17197.739999999998,-7315.469999999999,2602.935
1764505725.88069,736.92,11384.325,-36514.035,-16357.32,-26816.67,-17288.055,-7331.175,2594.52
1764505725.88069,782.235,11437.47,-36479.115,-16395.03,-26906.58,-17404.605,-7341.12,2623.05
1764505725.88069,785.115,11429.37,-36507.42,-16418.43,-26923.05,-17427.69,-7348.905,2629.845
1764505725.88069,781.74,11429.46,-36492.84,-16405.425,-26902.26,-17392.59,-7330.86,2631.33
1764505725.88069,772.425,11413.935,-36500.4,-16387.47,-26835.03,-17296.965,-7295.58,2636.28
1764505725.88069,773.4599999999999,11411.46,-36496.755,-16361.775,-26789.76,-17237.97,-7283.25,2640.69
1764505725.88069,784.485,11430.405,-36483.435,-16356.42,-26801.055,-17258.94,-7288.155,2641.635
1764505725.88069,765.045,11420.46,-36507.915,-16400.88,-26867.115,-17347.05,-7328.745,2618.46
1764505725.927214,764.8199999999999,11418.615,-36529.29,-16461.989999999998,-26972.01,-17472.465,-7374.014999999999,2612.745
1764505725.927214,799.92,11460.87,-36491.04,-16456.905,-26995.14,-17506.755,-7374.42,2632.635
1764505725.927214,776.43,11418.48,-36539.325,-16487.82,-26988.615,-17475.75,-7360.83,2627.955
1764505725.927214,764.505,11403.945,-36551.52,-16473.78,-26952.84,-17431.11,-7347.87,2623.005
1764505725.927214,777.9599999999999,11419.11,-36537.795,-16472.385,-26947.53,-17421.165,-7334.55,2635.47
1764505725.927214,758.385,11398.005,-36550.62,-16466.625,-26928.315,-17392.14,-7337.925,2623.23
1764505725.927214,787.095,11455.92,-36476.01,-16401.69,-26888.895,-17370.765,-7342.83,2626.11
1764505725.927214,773.8199999999999,11437.11,-36498.555,-16420.274999999998,-26888.94,-17361.09,-7326.54,2629.26
1764505725.927214,759.285,11398.815,-36548.685,-16452.27,-26914.545,-17387.235,-7323.3,2632.905
1764505725.927214,786.06,11443.41,-36493.515,-16420.905,-26921.295,-17416.665,-7330.23,2642.31
1764505725.927214,780.66,11432.655,-36507.96,-16438.005,-26933.49,-17422.065,-7328.925,2642.445
1764505725.927214,783.5849999999999,11429.91,-36511.335,-16435.934999999998,-26921.565,-17405.325,-7320.554999999999,2650.455
1764505725.927214,793.845,11458.395,-36477.54,-16405.605,-26880.57,-17356.815,-7319.115,2644.785
1764505725.927214,790.8299999999999,11456.685,-36485.82,-16407.27,-26861.4,-17330.85,-7311.105,2642.535
1764505725.927214,748.98,11390.535,-36550.665,-16442.28,-26888.895,-17344.845,-7308.54,2635.155
1764505725.927214,799.74,11457.135,-36479.115,-16399.17,-26891.64,-17373.329999999998,-7316.91,2657.16
1764505725.927214,800.685,11467.98,-36462.87,-16391.43,-26876.655,-17352.945,-7307.684999999999,2655.54
1764505725.9282112,767.385,11426.31,-36507.645,-16430.715,-26896.995,-17361.27,-7304.535,2642.67
1764505725.9282112,774.405,11428.155,-36513.0,-16429.095,-26894.655,-17360.82,-7299.764999999999,2652.48
1764505725.9282112,774.18,11432.385,-36499.68,-16417.62,-26890.335,-17365.184999999998,-7305.929999999999,2648.79
1764505725.9282112,761.805,11415.42,-36517.365,-16423.29,-26887.59,-17356.905,-7309.8,2638.89
1764505725.9282112,774.855,11429.28,-36508.545,-16433.82,-26923.86,-17408.204999999998,-7313.894999999999,2648.115
1764505725.9282112,771.03,11425.455,-36513.315,-16436.25,-26927.64,-17415.945,-7317.134999999999,2646.135
1764505725.9282112,770.76,11427.255,-36514.8,-16448.085,-26945.28,-17439.434999999998,-7328.429999999999,2642.22
1764505725.9720051,765.855,11422.035,-36519.075,-16447.59,-26934.57,-17420.94,-7326.405,2639.655
1764505725.9720051,752.985,11408.715,-36532.98,-16458.345,-26940.15,-17422.92,-7331.445,2631.285
1764505725.9720051,749.385,11405.655,-36537.705,-16462.89,-26940.555,-17423.28,-7333.469999999999,2627.685
1764505725.9720051,742.545,11396.52,-36549.225,-16465.23,-26934.345,-17411.76,-7333.92,2622.87
1764505725.9720051,737.505,11390.085,-36554.85,-16468.739999999998,-26941.59,-17417.07,-7335.945,2620.08
1764505725.9720051,748.89,11410.335,-36525.78,-16456.635,-26946.0,-17428.995,-7337.429999999999,2624.625
1764505725.9720051,743.31,11402.73,-36535.59,-16463.7,-26945.82,-17424.495,-7339.094999999999,2621.385
1764505725.9720051,740.025,11397.555,-36543.555,-16472.97,-26950.815,-17428.59,-7344.405,2617.605
1764505725.9720051,743.5799999999999,11401.785,-36543.285,-16480.035,-26949.87,-17420.265,-7347.33,2616.705
