Timestamp,Channel1,Channel2,Channel3,Channel4,Channel5,Channel6,Channel7,Channel8
1764505489.4904451,19631.16,-17837.64,-9220.185,-17027.37,-29171.115,-49924.035,-25228.395,-26147.925
1764505489.4904451,19628.145,-17841.239999999998,-9223.065,-17029.62,-29173.05,-49926.015,-25230.915,-26150.85
1764505489.4904451,19628.91,-17840.34,-9222.39,-17028.63,-29172.24,-49925.295,-25230.465,-26150.22
1764505489.4904451,19631.745,-17837.505,-9219.6,-17026.649999999998,-29171.115,-49924.62,-25228.575,-26146.62
1764505489.4904451,19631.385,-17837.64,-9219.87,-17026.559999999998,-29170.35,-49923.945,-25228.17,-26147.16
1764505489.4904451,19631.025,-17837.28,-9219.69,-17026.965,-29170.215,-49924.305,-25228.89,-26147.34
1764505489.4904451,19631.7,-17837.954999999998,-9219.42,-17026.335,-29169.855,-49923.585,-25227.945,-26146.53
1764505489.4904451,19631.475,-17838.809999999998,-9219.915,-17026.245,-29169.045,-49922.82,-25227.0,-26147.115
1764505489.4904451,19631.385,-17838.945,-9219.33,-17025.704999999998,-29168.64,-49921.47,-25227.315,-26148.51
1764505489.4914465,19629.99,-17840.88,-9221.94,-17030.07,-29176.2,-49929.75,-25231.14,-26150.355
1764505489.4914465,19630.71,-17839.485,-9220.185,-17027.46,-29172.645,-49925.97,-25228.845,-26149.86
1764505489.4914465,19628.01,-17841.78,-9223.065,-17029.575,-29174.175,-49927.995,-25231.86,-26152.605
1764505489.4914465,19630.62,-17839.62,-9220.86,-17026.965,-29171.565,-49925.43,-25230.33,-26150.58
1764505489.4914465,19629.405,-17840.61,-9221.985,-17028.72,-29173.905,-49926.96,-25231.23,-26151.885
1764505489.4914465,19630.845,-17838.495,-9219.555,-17026.965,-29171.565,-49924.71,-25228.62,-26149.23
1764505489.4914465,19626.48,-17842.77,-9223.515,-17031.149999999998,-29175.345,-49928.04,-25231.77,-26153.28
1764505489.4924457,19628.775,-17841.149999999998,-9221.49,-17029.035,-29173.635,-49925.205,-25230.51,-26151.12
1764505489.4924457,19629.045,-17841.285,-9220.86,-17028.27,-29172.69,-49924.215,-25229.655,-26150.58
1764505489.4924457,19628.91,-17840.655,-9220.455,-17027.505,-29171.16,-49923.9,-25228.215,-26149.995
1764505489.4924457,19627.155,-17842.454999999998,-9222.84,-17030.114999999998,-29174.94,-49928.355,-25231.545,-26152.02
1764505489.5361016,19624.95,-17845.605,-9225.72,-17032.995,-29178.225,-49931.505,-25234.515,-26154.18
1764505489.5361016,19627.965,-17842.5,-9223.02,-17029.395,-29173.815,-49927.59,-25231.095,-26151.255
1764505489.5361016,19628.235,-17842.68,-9222.975,-17029.845,-29173.725,-49927.005,-25231.005,-26151.885
1764505489.5361016,19624.23,-17846.235,-9227.52,-17033.13,-29177.325,-49930.875,-25234.965,-26155.89
1764505489.5361016,19625.04,-17845.29,-9226.17,-17032.005,-29176.515,-49930.695,-25233.93,-26154.765
1764505489.5361016,19628.28,-17841.555,-9221.85,-17027.82,-29171.7,-49925.97,-25229.745,-26151.075
1764505489.5361016,19625.13,-17844.57,-9224.73,-17030.295,-29174.4,-49927.995,-25232.67,-26154.045
1764505489.5361016,19626.75,-17843.985,-9223.965,-17030.655,-29174.265,-49928.175,-25232.13,-26153.19
1764505489.5361016,19631.43,-17839.395,-9219.465,-17026.335,-29170.755,-49924.17,-25227.765,-26148.465
1764505489.5361016,19628.955,-17841.96,-9222.03,-17028.09,-29172.87,-49925.97,-25230.195,-26151.3
1764505489.5361016,19627.11,-17844.704999999998,-9223.425,-17030.52,-29174.535,-49928.175,-25232.715,-26153.37
1764505489.5361016,19630.44,-17841.42,-9220.275,-17027.864999999998,-29172.42,-49925.745,-25230.015,-26150.22
1764505489.5361016,19630.395,-17841.465,-9220.68,-17026.875,-29171.97,-49924.62,-25229.07,-26149.905
1764505489.5361016,19628.505,-17841.87,-9221.49,-17028.135,-29172.33,-49924.8,-25230.42,-26150.94
1764505489.5361016,19625.85,-17843.985,-9223.2,-17030.16,-29173.545,-49927.455,-25232.805,-26153.64
1764505489.5361016,19628.775,-17841.465,-9219.915,-17027.1,-29170.71,-49925.205,-25229.88,-26150.895
1764505489.5361016,19627.83,-17843.445,-9221.04,-17027.774999999998,-29171.07,-49925.385,-25229.16,-26151.93
1764505489.5361016,19625.49,-17844.255,-9221.94,-17029.215,-29172.375,-49925.745,-25229.745,-26153.28
1764505489.5361016,19627.875,-17840.969999999998,-9218.925,-17026.695,-29169.81,-49922.19,-25227.045,-26150.445
1764505489.5361016,19627.56,-17842.86,-9220.86,-17028.945,-29172.645,-49926.645,-25230.375,-26151.93
1764505489.5361016,19626.795,-17844.795,-9222.885,-17031.149999999998,-29174.22,-49928.085,-25232.445,-26153.055
1764505489.5361016,19629.225,-17842.184999999998,-9219.915,-17028.18,-29171.79,-49924.215,-25229.295,-26150.805
1764505489.5376422,19627.02,-17844.255,-9222.525,-17031.015,-29174.895,-49927.275,-25231.59,-26153.235
1764505489.5376422,19626.435,-17844.75,-9223.605,-17030.97,-29174.49,-49926.825,-25231.14,-26154.0
1764505489.5805705,19627.155,-17843.579999999998,-9222.525,-17030.114999999998,-29173.815,-49925.88,-25230.42,-26153.19
1764505489.5805705,19629.27,-17841.195,-9219.78,-17026.739999999998,-29169.54,-49920.705,-25228.08,-26151.48
1764505489.5805705,19630.17,-17840.43,-9218.745,-17025.39,-29168.19,-49918.41,-25228.35,-26150.85
1764505489.5805705,19633.635,-17838.585,-9217.71,-17026.155,-29172.69,-49924.935,-25228.08,-26147.745
1764505489.5805705,19630.8,-17841.375,-9219.645,-17026.02,-29170.215,-49921.38,-25228.395,-26150.445
1764505489.5815902,19625.445,-17846.28,-9225.27,-17031.195,-29174.4,-49926.69,-25233.345,-26155.53
1764505489.5815902,19625.58,-17845.649999999998,-9224.73,-17030.97,-29174.175,-49926.06,-25231.995,-26154.495
1764505489.5815902,19628.46,-17843.085,-9221.76,-17028.72,-29172.375,-49924.125,-25230.015,-26151.66
1764505489.5815902,19626.525,-17845.605,-9223.92,-17030.835,-29173.77,-49926.33,-25232.22,-26154.18
1764505489.5815902,19628.595,-17843.445,-9221.715,-17028.36,-29171.88,-49923.45,-25229.43,-26151.57
1764505489.5815902,19629.945,-17842.68,-9220.41,-17027.82,-29170.53,-49922.19,-25228.89,-26150.895
1764505489.5815902,19625.04,-17846.82,-9223.425,-17029.35,-29170.08,-49920.795,-25230.87,-26154.72
1764505489.5815902,19626.345,-17846.19,-9224.28,-17032.815,-29177.82,-49929.39,-25234.425,-26154.27
1764505489.5815902,19628.955,-17842.68,-9220.23,-17028.27,-29172.375,-49923.09,-25229.385,-26149.455
1764505489.5815902,19629.36,-17842.005,-9219.465,-17027.325,-29170.44,-49921.065,-25228.44,-26149.14
1764505489.5815902,19625.94,-17845.785,-9222.705,-17030.295,-29173.905,-49924.44,-25231.995,-26152.47
1764505489.5815902,19628.775,-17842.41,-9219.87,-17026.965,-29170.935,-49921.695,-25228.71,-26148.915
1764505489.5815902,19628.82,-17842.545,-9220.77,-17028.675,-29172.42,-49923.225,-25229.52,-26150.13
1764505489.5815902,19626.21,-17845.38,-9223.515,-17031.149999999998,-29174.355,-49924.755,-25231.365,-26152.605
1764505489.5826032,19627.335,-17843.805,-9221.67,-17029.17,-29172.825,-49923.495,-25229.565,-26150.895
1764505489.5826032,19624.68,-17846.594999999998,-9224.595,-17031.69,-29175.435,-49926.195,-25232.715,-26153.865
1764505489.5826032,19624.365,-17846.82,-9224.865,-17032.364999999998,-29175.615,-49926.645,-25233.345,-26154.27
1764505489.5826032,19625.445,-17846.37,-9224.595,-17031.735,-29174.985,-49925.07,-25232.22,-26153.28
1764505489.5826032,19629.18,-17843.805,-9221.805,-17028.989999999998,-29171.295,-49922.055,-25228.755,-26149.905
1764505489.6298273,19628.37,-17843.85,-9221.94,-17029.485,-29171.61,-49922.955,-25229.16,-26149.815
1764505489.6298273,19623.33,-17847.899999999998,-9226.08,-17033.715,-29176.02,-49928.355,-25234.155,-26154.945
1764505489.6298273,19622.97,-17847.585,-9225.54,-17033.67,-29175.66,-49928.445,-25233.48,-26155.26
1764505489.63034,19624.32,-17846.37,-9224.235,-17032.815,-29174.67,-49927.275,-25232.13,-26154.18
1764505489.63034,19627.245,-17843.67,-9222.03,-17030.114999999998,-29172.105,-49924.215,-25228.89,-26151.12
1764505489.63034,19626.885,-17843.895,-9222.39,-17030.024999999998,-29171.88,-49923.765,-25229.565,-26151.39
1764505489.63034,19625.94,-17845.155,-9223.02,-17030.43,-29171.79,-49924.575,-25230.375,-26152.2
1764505489.63034,19625.535,-17845.965,-9223.38,-17032.005,-29173.815,-49926.6,-25231.185,-26153.28
1764505489.63034,19625.04,-17846.505,-9224.28,-17033.355,-29174.67,-49926.42,-25230.96,-26152.92
1764505489.63034,19625.355,-17846.46,-9224.28,-17033.13,-29174.355,-49924.89,-25230.69,-26152.515
1764505489.63034,19626.255,-17845.11,-9222.66,-17031.375,-29172.87,-49924.8,-25230.915,-26152.515
1764505489.63034,19623.735,-17847.945,-9225.225,-17034.12,-29174.94,-49927.32,-25232.94,-26155.395
1764505489.63034,19624.455,-17847.405,-9224.865,-17033.579999999998,-29175.255,-49927.68,-25231.41,-26154.585
1764505489.63034,19624.365,-17847.899999999998,-9225.36,-17033.579999999998,-29174.895,-49927.815,-25232.175,-26155.08
1764505489.63034,19624.86,-17847.135,-9224.865,-17033.13,-29174.535,-49927.14,-25232.085,-26154.36
1764505489.63034,19627.065,-17845.469999999998,-9222.345,-17030.385,-29172.33,-49925.295,-25229.88,-26152.38
1764505489.63034,19627.11,-17846.28,-9223.29,-17030.79,-29172.42,-49926.33,-25230.33,-26152.605
1764505489.63034,19626.525,-17846.145,-9223.515,-17032.005,-29173.14,-49926.87,-25230.735,-26153.055
1764505489.63034,19624.455,-17849.07,-9225.99,-17034.885,-29175.885,-49929.795,-25233.48,-26155.44
1764505489.63034,19626.345,-17847.09,-9224.055,-17032.41,-29174.265,-49927.455,-25231.455,-26153.685
1764505489.63034,19628.865,-17843.895,-9220.59,-17028.989999999998,-29170.935,-49923.54,-25227.855,-26151.345
1764505489.63034,19624.005,-17849.565,-9225.54,-17033.94,-29175.84,-49928.22,-25232.895,-26156.52
1764505489.63034,19625.265,-17847.945,-9224.28,-17032.454999999998,-29175.3,-49927.41,-25230.915,-26154.315
1764505489.63034,19628.28,-17844.21,-9220.995,-17029.53,-29172.555,-49924.44,-25227.45,-26150.31
1764505489.678923,19626.075,-17846.954999999998,-9222.615,-17031.195,-29173.23,-49925.835,-25229.745,-26152.83
1764505489.678923,19628.82,-17843.489999999998,-9220.41,-17027.82,-29171.07,-49923.81,-25227.405,-26149.545
1764505489.678923,19627.335,-17843.85,-9220.59,-17028.36,-29171.745,-49923.63,-25228.53,-26150.4
1764505489.678923,19625.535,-17846.055,-9221.94,-17030.16,-29172.915,-49925.025,-25230.195,-26152.065
1764505489.678923,19628.685,-17843.175,-9219.87,-17028.36,-29171.88,-49923.045,-25227.315,-26148.555
1764505489.678923,19626.57,-17844.93,-9221.13,-17028.989999999998,-29171.745,-49923.765,-25228.305,-26150.265
1764505489.678923,19629.045,-17842.59,-9218.205,-17025.48,-29168.55,-49920.345,-25225.785,-26147.61
1764505489.678923,19626.165,-17845.829999999998,-9221.4,-17028.809999999998,-29172.645,-49925.295,-25229.745,-26150.085
1764505489.678923,19627.515,-17843.85,-9219.645,-17027.55,-29171.97,-49923.99,-25228.215,-26148.645
1764505489.678923,19625.535,-17846.73,-9221.85,-17029.934999999998,-29174.13,-49926.24,-25230.42,-26151.255
1764505489.678923,19625.895,-17846.505,-9222.345,-17029.89,-29173.365,-49925.34,-25230.105,-26151.255
1764505489.678923,19626.3,-17846.19,-9222.03,-17029.35,-29172.51,-49924.935,-25229.88,-26152.02
1764505489.678923,19628.145,-17844.66,-9220.77,-17028.135,-29170.44,-49923.36,-25228.395,-26150.445
1764505489.678923,19630.53,-17841.149999999998,-9217.35,-17025.12,-29167.425,-49920.705,-25225.425,-26147.34
1764505489.678923,19628.775,-17843.715,-9219.555,-17026.829999999998,-29169.945,-49923.135,-25227.495,-26149.455
1764505489.678923,19632.33,-17840.34,-9215.955,-17023.23,-29166.39,-49919.22,-25223.49,-26146.215
1764505489.678923,19632.42,-17840.34,-9216.495,-17023.995,-29166.435,-49918.68,-25223.715,-26146.665
1764505489.678923,19628.1,-17844.84,-9220.41,-17027.73,-29170.8,-49921.965,-25227.72,-26150.67
1764505489.678923,19627.92,-17843.895,-9219.42,-17025.66,-29169.315,-49920.975,-25226.91,-26150.22
1764505489.679929,19631.07,-17840.52,-9215.415,-17022.285,-29167.02,-49917.825,-25224.345,-26147.43
1764505489.679929,19633.095,-17839.44,-9215.415,-17022.96,-29167.875,-49918.275,-25223.94,-26145.72
1764505489.679929,19632.51,-17840.25,-9215.415,-17023.68,-29168.82,-49919.13,-25224.705,-26145.27
1764505489.679929,19631.79,-17841.239999999998,-9214.92,-17022.78,-29168.235,-49918.68,-25224.48,-26145.63
1764505489.679929,19632.42,-17839.485,-9214.875,-17020.395,-29166.885,-49917.33,-25223.49,-26144.775
1764505489.7229676,19630.71,-17840.43,-9215.73,-17021.925,-29167.605,-49918.14,-25224.03,-26145.54
1764505489.7229676,19628.82,-17843.715,-9218.115,-17025.48,-29170.62,-49919.94,-25226.325,-26147.97
1764505489.7229676,19632.015,-17840.295,-9214.515,-17021.97,-29167.695,-49916.565,-25223.67,-26145.405
1764505489.7229676,19630.08,-17841.69,-9216.27,-17022.555,-29169.225,-49918.545,-25225.65,-26147.655
1764505489.7229676,19628.145,-17843.85,-9219.33,-17025.39,-29171.52,-49919.715,-25228.08,-26149.455
1764505489.7229676,19630.17,-17841.915,-9217.17,-17023.905,-29169.72,-49918.905,-25226.685,-26148.24
1764505489.7229676,19630.17,-17842.995,-9216.72,-17022.96,-29166.84,-49915.89,-25224.75,-26147.34
1764505489.7229676,19635.345,-17838.675,-9213.615,-17020.934999999998,-29167.605,-49918.815,-25221.69,-26142.03
1764505489.7229676,19634.22,-17839.844999999998,-9214.56,-17021.114999999998,-29166.57,-49917.015,-25221.42,-26143.425
1764505489.7229676,19633.545,-17839.079999999998,-9214.02,-17020.755,-29167.695,-49918.545,-25224.345,-26145.225
1764505489.7239866,19629.99,-17842.995,-9217.755,-17023.905,-29169.99,-49921.065,-25227.81,-26148.69
1764505489.7239866,19631.79,-17840.969999999998,-9216.045,-17022.69,-29168.64,-49919.715,-25224.93,-26146.44
1764505489.7239866,19633.725,-17839.17,-9213.75,-17020.079999999998,-29163.465,-49913.955,-25220.79,-26143.02
1764505489.7239866,19632.555,-17838.63,-9213.93,-17019.045,-29163.24,-49914.495,-25221.465,-26143.965
1764505489.7239866,19632.96,-17838.899999999998,-9215.055,-17021.52,-29168.64,-49920.39,-25222.995,-26144.19
1764505489.7239866,19629.315,-17842.68,-9218.385,-17024.85,-29170.26,-49921.2,-25225.83,-26148.015
1764505489.7239866,19631.655,-17840.25,-9215.955,-17022.42,-29168.325,-49919.22,-25223.265,-26145.405
1764505489.7239866,19630.305,-17841.87,-9216.855,-17022.555,-29168.865,-49920.165,-25225.29,-26147.205
1764505489.7239866,19629.54,-17842.094999999998,-9217.935,-17023.95,-29169.315,-49920.57,-25226.19,-26148.42
1764505489.7239866,19628.865,-17842.545,-9216.945,-17023.23,-29168.055,-49919.085,-25225.245,-26147.52
1764505489.7260568,19630.755,-17840.34,-9214.47,-17020.44,-29165.265,-49916.43,-25222.455,-26144.82
1764505489.7260568,19632.51,-17839.395,-9213.615,-17019.989999999998,-29165.22,-49916.745,-25222.185,-26144.235
1764505489.7260568,19632.465,-17839.485,-9213.705,-17020.079999999998,-29165.04,-49917.06,-25221.87,-26144.865
1764505489.7260568,19628.55,-17843.355,-9218.115,-17023.905,-29169.045,-49921.155,-25225.92,-26148.69
1764505489.7686644,19629.09,-17842.815,-9217.53,-17023.41,-29168.595,-49920.345,-25224.705,-26148.285
1764505489.7686644,19631.655,-17840.61,-9214.92,-17020.44,-29165.895,-49918.05,-25222.59,-26145.765
1764505489.7686644,19628.685,-17844.12,-9216.99,-17023.41,-29168.46,-49919.895,-25225.515,-26149.005
1764505489.7686644,19628.865,-17843.489999999998,-9217.08,-17023.095,-29169.18,-49920.57,-25225.875,-26148.69
1764505489.7686644,19630.98,-17842.32,-9216.045,-17022.87,-29168.91,-49920.75,-25224.12,-26146.665
1764505489.7686644,19632.555,-17839.665,-9213.525,-17019.27,-29165.13,-49916.7,-25221.105,-26144.55
1764505489.7686644,19630.935,-17841.915,-9215.1,-17021.07,-29166.57,-49918.23,-25223.76,-26146.53
1764505489.7686644,19633.995,-17838.719999999998,-9211.59,-17018.19,-29163.375,-49914.99,-25220.475,-26143.515
1764505489.7686644,19633.185,-17839.17,-9213.03,-17017.965,-29164.005,-49915.665,-25220.745,-26143.74
1764505489.7686644,19628.73,-17843.579999999998,-9217.35,-17022.915,-29169.54,-49920.885,-25225.695,-26148.285
1764505489.7686644,19630.71,-17841.96,-9215.235,-17021.7,-29167.605,-49918.95,-25223.67,-26146.89
1764505489.7686644,19629.27,-17844.075,-9216.45,-17023.364999999998,-29168.28,-49919.445,-25225.515,-26148.96
1764505489.7686644,19632.69,-17841.465,-9213.39,-17020.485,-29165.58,-49917.42,-25222.455,-26146.125
1764505489.7686644,19632.645,-17841.375,-9213.075,-17020.755,-29165.895,-49917.645,-25222.23,-26145.405
1764505489.7686644,19629.945,-17843.715,-9215.91,-17023.59,-29169.495,-49921.02,-25224.93,-26148.015
1764505489.7686644,19629.72,-17843.309999999998,-9216.225,-17023.725,-29168.505,-49919.625,-25224.615,-26147.97
1764505489.7696795,19630.8,-17842.05,-9214.695,-17021.745,-29167.11,-49918.005,-25222.905,-26147.025
1764505489.7696795,19633.41,-17839.844999999998,-9212.13,-17019.135,-29164.59,-49915.08,-25221.15,-26144.37
1764505489.7696795,19632.555,-17840.52,-9212.49,-17020.079999999998,-29165.445,-49915.215,-25221.105,-26144.415
1764505489.7696795,19631.43,-17842.274999999998,-9213.255,-17022.195,-29166.39,-49916.565,-25222.275,-26145.765
1764505489.7696795,19628.685,-17844.66,-9215.955,-17024.715,-29169.54,-49919.355,-25224.705,-26148.015
1764505489.7696795,19627.335,-17846.1,-9217.125,-17025.614999999998,-29170.89,-49921.785,-25226.64,-26149.5
1764505489.8159397,19629.09,-17845.02,-9216.18,-17023.095,-29169.135,-49919.58,-25225.785,-26147.97
1764505489.8159397,19632.195,-17841.735,-9213.84,-17019.72,-29166.21,-49915.575,-25222.455,-26144.37
1764505489.8159397,19632.96,-17840.565,-9213.03,-17020.575,-29166.255,-49916.61,-25222.14,-26142.975
1764505489.8159397,19632.78,-17841.645,-9213.39,-17020.62,-29165.715,-49916.16,-25222.68,-26143.245
1764505489.8159397,19629.81,-17845.515,-9217.215,-17023.68,-29169.495,-49918.77,-25225.38,-26146.62
1764505489.8176284,19630.53,-17844.255,-9216.045,-17022.329999999998,-29168.28,-49917.645,-25224.705,-26146.08
1764505489.8176284,19634.625,-17840.295,-9212.58,-17018.82,-29164.905,-49914.81,-25220.745,-26141.67
1764505489.8176284,19633.77,-17841.105,-9213.03,-17019.989999999998,-29166.165,-49915.395,-25221.96,-26142.75
1764505489.8176284,19632.645,-17841.645,-9213.795,-17020.71,-29166.345,-49915.755,-25222.095,-26142.93
1764505489.8176284,19632.87,-17841.059999999998,-9213.975,-17020.485,-29165.94,-49915.17,-25221.87,-26142.84
1764505489.8176284,19632.51,-17841.51,-9213.615,-17020.755,-29166.795,-49915.845,-25222.005,-26143.425
1764505489.8176284,19631.565,-17842.14,-9214.02,-17021.52,-29166.615,-49915.305,-25222.32,-26143.965
1764505489.8176284,19628.595,-17845.245,-9217.395,-17025.39,-29170.08,-49918.005,-25225.605,-26147.115
1764505489.8176284,19629.27,-17845.29,-9217.395,-17024.85,-29169.45,-49917.51,-25225.02,-26146.575
1764505489.8176284,19629.54,-17845.155,-9217.125,-17025.165,-29169.36,-49917.51,-25225.56,-26146.395
1764505489.8176284,19629.72,-17844.21,-9215.955,-17023.815,-29168.505,-49917.105,-25225.02,-26146.71
1764505489.8176284,19631.61,-17843.895,-9214.29,-17021.745,-29167.155,-49914.855,-25223.355,-26145.27
1764505489.8176284,19630.53,-17844.795,-9215.64,-17023.23,-29169.99,-49917.285,-25225.515,-26146.26
1764505489.8176284,19629.81,-17844.795,-9216.495,-17024.265,-29170.53,-49917.87,-25225.92,-26146.71
1764505489.8176284,19628.91,-17846.28,-9216.72,-17024.445,-29169.945,-49916.7,-25225.875,-26146.98
1764505489.8176284,19629.54,-17845.559999999998,-9216.54,-17023.14,-29168.325,-49915.665,-25224.345,-26146.08
1764505489.8176284,19628.235,-17846.19,-9217.395,-17023.995,-29168.775,-49916.925,-25225.605,-26147.925
1764505489.8625011,19626.435,-17848.395,-9219.465,-17026.829999999998,-29171.52,-49919.085,-25227.945,-26150.22
1764505489.8625011,19623.915,-17851.41,-9221.67,-17028.765,-29173.095,-49919.985,-25229.745,-26152.56
1764505489.8625011,19627.695,-17847.0,-9218.205,-17026.785,-29173.635,-49920.885,-25227.045,-26148.555
1764505489.8625011,19626.705,-17847.495,-9217.755,-17025.345,-29171.295,-49918.59,-25226.415,-26149.455
1764505489.8625011,19626.345,-17848.215,-9218.115,-17026.02,-29171.655,-49918.95,-25227.405,-26150.04
1764505489.8625011,19623.42,-17851.23,-9221.76,-17029.89,-29176.245,-49922.595,-25231.14,-26152.605
1764505489.8625011,19626.66,-17848.844999999998,-9218.655,-17026.92,-29173.455,-49920.165,-25228.62,-26149.59
1764505489.8625011,19625.76,-17849.745,-9219.42,-17027.82,-29173.455,-49920.885,-25228.845,-26151.165
1764505489.8625011,19629.27,-17846.954999999998,-9216.495,-17024.895,-29170.35,-49918.185,-25225.695,-26147.88
1764505489.8625011,19626.705,-17849.565,-9218.565,-17026.559999999998,-29172.285,-49920.075,-25227.585,-26149.815
1764505489.8625011,19628.37,-17847.495,-9216.495,-17024.489999999998,-29170.125,-49917.645,-25225.56,-26148.195
1764505489.863662,19626.21,-17849.385,-9218.16,-17026.47,-29172.645,-49920.795,-25228.845,-26151.39
1764505489.863662,19627.47,-17847.63,-9216.63,-17025.165,-29171.385,-49919.13,-25227.45,-26150.13
1764505489.863662,19629.765,-17844.795,-9214.47,-17021.835,-29166.75,-49912.245,-25222.455,-26147.07
1764505489.863662,19630.935,-17845.02,-9214.02,-17022.915,-29169.45,-49917.33,-25222.725,-26145.045
1764505489.863662,19628.325,-17847.719999999998,-9216.54,-17024.715,-29170.575,-49919.04,-25225.065,-26147.385
1764505489.863662,19624.185,-17851.5,-9220.23,-17028.09,-29173.095,-49921.515,-25228.17,-26151.435
1764505489.863662,19624.41,-17851.23,-9220.32,-17027.82,-29172.195,-49920.975,-25227.9,-26151.255
1764505489.863662,19625.715,-17850.329999999998,-9219.6,-17027.19,-29172.015,-49920.39,-25226.865,-26150.22
1764505489.863662,19627.875,-17848.35,-9217.935,-17026.065,-29172.42,-49920.345,-25226.19,-26148.825
1764505489.863662,19629.135,-17847.135,-9216.315,-17023.77,-29170.35,-49918.77,-25224.03,-26146.89
1764505489.863662,19625.31,-17850.42,-9219.69,-17026.559999999998,-29172.69,-49921.02,-25226.73,-26149.725
1764505489.863662,19627.2,-17847.989999999998,-9217.53,-17024.13,-29170.53,-49919.22,-25224.93,-26148.15
1764505489.863662,19626.525,-17849.25,-9218.115,-17025.255,-29172.24,-49920.57,-25225.965,-26148.825
1764505489.9085827,19629.135,-17848.079999999998,-9216.72,-17024.22,-29171.295,-49918.77,-25224.255,-26146.53
1764505489.9085827,19625.22,-17852.219999999998,-9220.23,-17028.36,-29173.995,-49921.695,-25228.125,-26150.67
1764505489.9085827,19628.37,-17849.204999999998,-9217.17,-17025.3,-29170.53,-49918.995,-25225.335,-26147.7
1764505489.9085827,19628.46,-17849.34,-9217.035,-17025.03,-29171.205,-49918.68,-25225.335,-26147.925
1764505489.9085827,19627.56,-17850.42,-9217.845,-17025.57,-29171.925,-49919.355,-25227.0,-26148.87
1764505489.9085827,19626.075,-17851.59,-9219.015,-17026.605,-29172.645,-49920.615,-25227.99,-26149.995
1764505489.9085827,19629.09,-17848.395,-9216.405,-17024.265,-29170.98,-49918.77,-25225.65,-26147.34
1764505489.9085827,19626.39,-17851.364999999998,-9218.295,-17026.245,-29172.735,-49919.805,-25227.045,-26149.68
1764505489.9085827,19629.63,-17847.719999999998,-9215.415,-17022.915,-29169.315,-49917.51,-25223.895,-26146.89
1764505489.9085827,19629.765,-17847.18,-9214.605,-17022.915,-29169.495,-49916.88,-25223.355,-26146.755
1764505489.9085827,19628.595,-17848.934999999998,-9216.0,-17024.265,-29170.8,-49917.465,-25224.57,-26147.88
1764505489.9085827,19626.075,-17851.815,-9219.15,-17026.965,-29174.49,-49920.39,-25227.72,-26150.265
1764505489.9085827,19627.155,-17849.969999999998,-9217.755,-17025.12,-29172.33,-49919.805,-25226.1,-26148.96
1764505489.9085827,19625.535,-17851.094999999998,-9219.6,-17027.37,-29173.77,-49922.055,-25227.54,-26150.805
1764505489.9085827,19628.325,-17848.53,-9216.63,-17024.355,-29170.89,-49918.005,-25224.615,-26148.06
1764505489.9085827,19625.67,-17849.25,-9216.99,-17023.815,-29170.755,-49916.97,-25225.02,-26149.455
1764505489.9085827,19627.74,-17847.405,-9215.55,-17022.555,-29169.18,-49916.475,-25223.22,-26146.98
1764505489.9085827,19624.995,-17850.105,-9218.43,-17024.94,-29172.6,-49919.445,-25226.28,-26149.32
1764505489.9085827,19627.2,-17848.305,-9215.64,-17022.69,-29169.99,-49917.015,-25224.075,-26147.43
1764505489.9085827,19628.82,-17847.0,-9214.065,-17021.52,-29168.505,-49916.07,-25222.68,-26146.755
1764505489.9085827,19628.955,-17847.585,-9214.56,-17022.105,-29169.765,-49916.655,-25223.04,-26147.025
1764505489.9085827,19624.635,-17852.219999999998,-9219.42,-17026.695,-29173.86,-49920.795,-25227.0,-26151.21
1764505489.9085827,19624.095,-17852.13,-9219.645,-17025.84,-29170.755,-49917.42,-25226.19,-26151.165
1764505489.9085827,19628.505,-17846.91,-9215.055,-17022.059999999998,-29170.485,-49918.455,-25223.76,-26146.845
1764505489.958076,19627.02,-17848.89,-9216.18,-17023.68,-29171.97,-49920.3,-25224.795,-26148.6
1764505489.958076,19627.425,-17847.989999999998,-9215.505,-17022.6,-29169.36,-49918.095,-25223.94,-26148.24
1764505489.958076,19630.845,-17845.11,-9213.3,-17020.53,-29167.605,-49916.7,-25221.42,-26145.045
1764505489.958076,19630.035,-17846.055,-9213.57,-17020.89,-29167.74,-49916.43,-25222.77,-26145.27
1764505489.958076,19628.145,-17847.045,-9214.29,-17022.329999999998,-29168.865,-49917.735,-25223.175,-26146.755
1764505489.958076,19631.025,-17843.579999999998,-9211.365,-17019.045,-29165.715,-49914.54,-25219.665,-26143.29
1764505489.958076,19629.99,-17845.38,-9213.255,-17020.62,-29167.605,-49916.7,-25221.06,-26144.505
1764505489.958076,19628.235,-17846.954999999998,-9214.92,-17022.6,-29169.405,-49918.32,-25223.535,-26146.575
1764505489.958076,19625.625,-17849.745,-9217.035,-17025.704999999998,-29171.07,-49920.48,-25226.145,-26149.545
1764505489.958076,19625.22,-17850.78,-9218.115,-17026.245,-29172.105,-49921.2,-25226.775,-26149.635
1764505489.958076,19625.22,-17851.364999999998,-9219.015,-17026.739999999998,-29173.455,-49922.145,-25227.315,-26150.04
1764505489.958076,19626.435,-17850.105,-9217.215,-17024.76,-29171.52,-49920.57,-25225.605,-26148.465
1764505489.958076,19629.63,-17847.045,-9213.705,-17020.934999999998,-29168.82,-49917.69,-25222.815,-26145.405
1764505489.958076,19626.075,-17849.475,-9216.45,-17023.23,-29171.7,-49920.12,-25225.47,-26147.97
1764505489.959093,19628.145,-17847.315,-9214.965,-17021.204999999998,-29169.045,-49918.455,-25223.535,-26146.035
1764505489.959093,19631.52,-17843.309999999998,-9210.78,-17017.515,-29165.085,-49914.315,-25220.115,-26142.3
1764505489.959093,19629.315,-17844.93,-9212.085,-17018.325,-29164.41,-49912.83,-25220.655,-26144.775
1764505489.959093,19628.01,-17846.684999999998,-9214.695,-17021.43,-29169.225,-49918.905,-25223.49,-26146.17
1764505489.959093,19625.22,-17849.655,-9217.755,-17024.085,-29172.42,-49921.47,-25225.92,-26148.87
1764505489.959093,19628.01,-17847.18,-9215.37,-17020.8,-29169.18,-49917.69,-25222.905,-26146.125
1764505489.959093,19627.785,-17848.8,-9215.82,-17020.8,-29169.9,-49918.905,-25223.805,-26147.52
1764505489.959093,19624.905,-17851.77,-9218.205,-17023.815,-29172.375,-49921.965,-25227.18,-26150.04
1764505489.959093,19628.19,-17847.855,-9214.56,-17020.44,-29168.91,-49917.915,-25224.075,-26146.935
1764505489.959093,19628.64,-17847.54,-9213.57,-17019.27,-29167.83,-49916.79,-25223.85,-26146.845
1764505490.0051,19627.11,-17848.44,-9215.505,-17020.71,-29169.27,-49918.32,-25225.56,-26149.095
1764505490.0051,19627.515,-17847.899999999998,-9215.28,-17021.43,-29169.855,-49918.68,-25224.795,-26147.79
1764505490.0051,19632.06,-17843.715,-9211.095,-17016.84,-29164.68,-49912.74,-25219.215,-26142.48
1764505490.0051,19632.285,-17843.489999999998,-9210.825,-17016.165,-29163.735,-49912.92,-25219.845,-26142.615
1764505490.0051,19630.71,-17845.559999999998,-9211.275,-17017.47,-29164.41,-49913.325,-25220.52,-26143.2
1764505490.0051,19629.27,-17846.73,-9212.355,-17018.415,-29165.13,-49913.145,-25221.105,-26145.18
1764505490.0051,19632.015,-17843.94,-9209.79,-17014.815,-29160.36,-49907.52,-25218.405,-26142.885
1764505490.0051,19633.365,-17843.219999999998,-9210.87,-17017.335,-29165.715,-49914.945,-25219.62,-26141.715
1764505490.0051,19629.675,-17846.64,-9213.66,-17020.305,-29168.145,-49917.06,-25222.68,-26145.765
1764505490.0051,19629.63,-17846.594999999998,-9213.75,-17019.945,-29167.515,-49916.88,-25223.175,-26145.54
1764505490.0061026,19630.08,-17846.46,-9213.615,-17019.315,-29167.83,-49916.925,-25222.59,-26144.19
1764505490.0061026,19633.23,-17843.04,-9210.195,-17014.364999999998,-29162.565,-49910.94,-25217.595,-26140.725
1764505490.0061026,19633.23,-17843.399999999998,-9210.24,-17014.545,-29162.835,-49911.84,-25218.135,-26141.985
1764505490.0061026,19628.235,-17848.44,-9213.975,-17019.18,-29167.875,-49915.71,-25223.04,-26147.115
1764505490.0061026,19628.64,-17847.135,-9212.535,-17017.739999999998,-29164.95,-49913.055,-25219.845,-26145.0
1764505490.0061026,19630.8,-17844.12,-9211.455,-17017.739999999998,-29166.84,-49915.71,-25220.835,-26143.155
1764505490.0061026,19631.16,-17844.344999999998,-9209.52,-17016.345,-29165.4,-49913.325,-25219.71,-26142.93
1764505490.0061026,19629.18,-17846.864999999998,-9211.32,-17017.605,-29165.445,-49912.245,-25219.215,-26143.02
1764505490.0061026,19633.455,-17843.265,-9208.665,-17014.725,-29163.33,-49909.815,-25216.065,-26139.33
1764505490.0061026,19632.285,-17843.04,-9208.485,-17014.5,-29163.06,-49910.13,-25216.92,-26140.77
1764505490.0061026,19631.97,-17843.535,-9209.565,-17014.59,-29163.105,-49910.355,-25217.28,-26141.49
1764505490.0061026,19633.23,-17842.995,-9209.205,-17013.69,-29163.105,-49909.95,-25216.74,-26140.365
1764505490.0061026,19633.635,-17843.175,-9209.34,-17013.735,-29163.465,-49909.995,-25216.83,-26140.32
1764505490.0061026,19629.585,-17847.045,-9212.04,-17016.84,-29165.985,-49912.965,-25220.025,-26144.01
1764505490.0504906,19632.78,-17844.255,-9209.115,-17013.329999999998,-29163.15,-49910.13,-25216.92,-26141.13
1764505490.0504906,19633.59,-17843.265,-9207.765,-17012.204999999998,-29161.62,-49909.5,-25216.065,-26140.14
1764505490.0504906,19634.04,-17842.815,-9207.945,-17011.89,-29160.99,-49909.455,-25216.245,-26139.735
1764505490.0504906,19633.455,-17843.76,-9209.565,-17013.645,-29163.06,-49910.67,-25217.055,-26140.59
1764505490.051504,19630.485,-17845.739999999998,-9211.185,-17015.715,-29164.68,-49912.155,-25219.485,-26142.84
1764505490.051504,19633.41,-17842.094999999998,-9206.73,-17012.43,-29161.35,-49908.42,-25215.93,-26139.06
1764505490.051504,19634.085,-17842.14,-9206.19,-17011.665,-29160.495,-49908.33,-25215.795,-26138.97
1764505490.051504,19634.22,-17841.78,-9205.965,-17011.44,-29160.045,-49907.655,-25214.985,-26138.115
1764505490.051504,19633.725,-17842.005,-9206.325,-17011.26,-29160.09,-49906.665,-25214.715,-26138.88
1764505490.051504,19630.62,-17845.11,-9209.745,-17014.454999999998,-29164.32,-49910.445,-25217.73,-26141.265
1764505490.054013,19633.545,-17841.915,-9207.27,-17012.07,-29161.53,-49908.735,-25215.615,-26137.98
1764505490.055029,19630.62,-17845.605,-9210.465,-17014.905,-29163.465,-49910.895,-25218.855,-26141.355
1764505490.055029,19632.24,-17843.895,-9208.44,-17013.555,-29162.115,-49909.68,-25216.875,-26140.365
1764505490.055029,19629.315,-17847.045,-9211.32,-17015.67,-29164.545,-49912.065,-25219.125,-26143.56
1764505490.055029,19630.485,-17846.505,-9210.645,-17015.04,-29164.23,-49911.975,-25218.945,-26143.02
1764505490.055029,19633.095,-17842.995,-9207.675,-17012.204999999998,-29160.765,-49909.275,-25216.11,-26139.555
1764505490.055029,19632.15,-17843.67,-9208.71,-17012.52,-29162.205,-49910.04,-25216.83,-26139.915
1764505490.055029,19630.26,-17846.1,-9210.645,-17014.77,-29164.95,-49911.84,-25219.62,-26142.12
1764505490.055029,19633.455,-17842.59,-9207.495,-17011.665,-29161.17,-49908.465,-25216.29,-26138.88
1764505490.055029,19632.195,-17843.805,-9209.34,-17012.835,-29162.43,-49910.085,-25217.73,-26140.815
1764505490.055029,19631.295,-17845.29,-9210.465,-17013.78,-29163.87,-49911.795,-25218.9,-26142.435
1764505490.055029,19629.36,-17847.495,-9212.895,-17016.48,-29165.895,-49913.595,-25221.015,-26144.505
1764505490.055029,19629.135,-17847.765,-9212.535,-17016.704999999998,-29166.165,-49913.28,-25221.06,-26144.595
1764505490.055029,19627.245,-17848.89,-9212.895,-17017.515,-29166.975,-49914.405,-25221.87,-26145.27
1764505490.099423,19628.46,-17848.079999999998,-9212.4,-17016.975,-29166.705,-49913.865,-25221.69,-26144.73
1764505490.099423,19631.205,-17844.84,-9209.115,-17013.42,-29163.87,-49910.67,-25218.54,-26141.67
1764505490.099423,19629.945,-17846.235,-9209.295,-17013.329999999998,-29161.17,-49907.205,-25217.37,-26142.795
1764505490.099423,19630.845,-17846.145,-9209.34,-17014.32,-29163.33,-49911.255,-25218.54,-26142.615
1764505490.099423,19630.26,-17846.28,-9210.645,-17016.12,-29165.805,-49913.865,-25219.89,-26143.38
1764505490.099423,19625.13,-17850.51,-9214.65,-17019.225,-29167.83,-49914.945,-25222.14,-26147.295
1764505490.1004078,19628.595,-17847.135,-9211.5,-17015.805,-29166.03,-49913.865,-25220.52,-26144.82
1764505490.1004078,19625.04,-17851.184999999998,-9215.46,-17020.62,-29170.62,-49918.185,-25223.985,-26148.24
1764505490.1004078,19626.795,-17849.655,-9213.48,-17018.82,-29167.92,-49914.72,-25221.78,-26145.9
1764505490.1004078,19626.57,-17849.61,-9213.615,-17018.82,-29168.145,-49914.09,-25222.005,-26146.53
1764505490.1004078,19626.525,-17850.105,-9213.12,-17017.785,-29167.29,-49914.27,-25222.455,-26147.43
1764505490.1004078,19625.535,-17850.915,-9214.65,-17018.82,-29168.64,-49915.71,-25222.635,-26147.61
1764505490.1004078,19625.355,-17850.78,-9214.38,-17019.135,-29168.685,-49916.16,-25222.815,-26147.205
1764505490.1004078,19625.76,-17850.059999999998,-9212.76,-17016.975,-29165.535,-49914.0,-25221.015,-26146.62
1764505490.1004078,19626.975,-17848.53,-9211.14,-17016.165,-29164.68,-49913.685,-25219.71,-26144.91
1764505490.1004078,19627.605,-17848.62,-9212.265,-17017.155,-29167.38,-49914.54,-25219.53,-26144.055
1764505490.1004078,19625.67,-17850.015,-9213.57,-17017.739999999998,-29167.155,-49913.82,-25220.52,-26145.405
1764505490.1004078,19620.36,-17854.739999999998,-9216.945,-17021.925,-29169.855,-49916.43,-25225.695,-26151.435
1764505490.1004078,19620.405,-17854.29,-9217.215,-17021.024999999998,-29169.72,-49915.8,-25226.19,-26151.66
1764505490.1004078,19623.285,-17853.255,-9217.215,-17022.96,-29174.895,-49921.92,-25225.335,-26148.96
1764505490.1004078,19625.355,-17850.375,-9213.93,-17018.235,-29169.315,-49915.395,-25220.79,-26145.9
1764505490.1004078,19626.435,-17849.61,-9213.345,-17017.11,-29168.01,-49914.63,-25220.79,-26145.36
1764505490.144127,19626.885,-17849.925,-9213.3,-17016.345,-29168.145,-49914.99,-25220.88,-26145.405
1764505490.144127,19626.795,-17849.565,-9213.345,-17016.57,-29167.605,-49914.675,-25220.565,-26145.765
1764505490.144127,19627.02,-17850.105,-9213.705,-17017.425,-29168.1,-49914.855,-25220.43,-26145.54
1764505490.144127,19624.32,-17852.04,-9214.785,-17018.505,-29168.955,-49915.44,-25222.14,-26147.475
1764505490.144127,19626.93,-17848.62,-9211.59,-17016.03,-29165.715,-49912.245,-25219.305,-26144.415
1764505490.144127,19623.33,-17853.255,-9216.09,-17021.61,-29170.62,-49916.07,-25223.895,-26149.32
1764505490.144127,19624.005,-17853.434999999998,-9215.82,-17021.655,-29173.005,-49919.4,-25223.94,-26148.87
1764505490.144127,19627.02,-17850.285,-9212.4,-17017.92,-29168.73,-49914.585,-25219.845,-26145.045
1764505490.144127,19627.38,-17849.43,-9211.59,-17016.885,-29168.145,-49914.54,-25219.17,-26144.28
1764505490.144127,19623.825,-17853.21,-9215.82,-17019.09,-29170.53,-49916.25,-25221.87,-26147.97
1764505490.144127,19625.85,-17851.005,-9213.57,-17016.704999999998,-29168.505,-49913.505,-25220.295,-26146.08
1764505490.144127,19627.11,-17850.375,-9211.905,-17016.975,-29169.045,-49913.955,-25220.25,-26145.72
1764505490.144127,19625.535,-17851.23,-9212.58,-17017.38,-29168.64,-49913.145,-25220.34,-26146.35
1764505490.144127,19624.095,-17852.85,-9214.605,-17018.55,-29169.45,-49914.585,-25222.545,-26147.52
1764505490.144127,19623.87,-17853.12,-9214.695,-17019.27,-29169.63,-49915.89,-25223.4,-26147.565
1764505490.144127,19622.835,-17854.02,-9215.865,-17020.17,-29170.53,-49916.115,-25224.12,-26148.645
1764505490.144127,19620.54,-17856.09,-9218.295,-17022.465,-29172.78,-49918.095,-25226.19,-26150.805
1764505490.144127,19620.495,-17856.0,-9217.035,-17022.329999999998,-29172.24,-49917.96,-25226.1,-26151.48
1764505490.144127,19621.845,-17854.38,-9215.46,-17020.26,-29170.89,-49916.52,-25224.885,-26150.49
1764505490.144127,19626.615,-17850.555,-9212.04,-17016.434999999998,-29167.155,-49913.145,-25221.015,-26145.72
1764505490.144127,19626.435,-17850.735,-9211.32,-17016.434999999998,-29167.065,-49913.37,-25221.15,-26146.08
1764505490.144127,19627.38,-17850.015,-9210.06,-17016.704999999998,-29168.415,-49914.0,-25221.33,-26144.82
1764505490.1916103,19628.01,-17849.295,-9209.655,-17016.39,-29167.245,-49911.93,-25219.845,-26144.1
1764505490.1916103,19626.57,-17850.42,-9211.05,-17017.065,-29167.605,-49912.2,-25220.79,-26145.135
1764505490.1916103,19625.985,-17850.6,-9211.59,-17017.11,-29167.11,-49912.38,-25221.24,-26145.765
1764505490.1916103,19622.655,-17854.02,-9214.515,-17020.305,-29170.35,-49916.43,-25223.715,-26149.68
1764505490.1916103,19623.69,-17853.165,-9214.38,-17019.855,-29169.99,-49915.845,-25224.12,-26149.095
1764505490.1916103,19626.03,-17852.04,-9211.995,-17018.055,-29168.505,-49913.82,-25221.87,-26147.475
1764505490.1916103,19623.42,-17854.92,-9214.29,-17019.989999999998,-29170.89,-49916.295,-25223.805,-26149.365
1764505490.1916103,19622.295,-17854.695,-9215.055,-17020.53,-29171.205,-49916.88,-25224.615,-26149.23
1764505490.1916103,19622.88,-17853.614999999998,-9214.02,-17019.18,-29170.215,-49916.43,-25223.715,-26148.51
1764505490.192625,19624.86,-17851.454999999998,-9211.32,-17016.255,-29167.02,-49913.28,-25221.24,-26146.125
1764505490.192625,19624.545,-17851.815,-9211.995,-17017.02,-29168.19,-49914.27,-25222.905,-26147.295
1764505490.192625,19621.035,-17856.225,-9216.495,-17022.195,-29174.13,-49919.715,-25227.09,-26151.57
1764505490.192625,19621.53,-17856.585,-9216.09,-17020.845,-29172.78,-49918.14,-25225.785,-26151.165
1764505490.192625,19623.285,-17853.75,-9213.975,-17018.145,-29169.54,-49915.17,-25223.04,-26148.69
1764505490.192625,19620.63,-17856.36,-9216.225,-17020.125,-29172.015,-49918.365,-25224.93,-26150.58
1764505490.192625,19622.52,-17854.739999999998,-9214.425,-17019.27,-29170.53,-49916.88,-25223.58,-26149.005
1764505490.192625,19622.25,-17855.864999999998,-9214.74,-17019.855,-29171.07,-49917.51,-25224.705,-26149.545
1764505490.192625,19618.47,-17859.915,-9218.295,-17023.41,-29174.49,-49920.885,-25228.935,-26154.09
1764505490.192625,19618.875,-17860.05,-9219.015,-17022.329999999998,-29173.005,-49918.5,-25227.765,-26154.27
1764505490.192625,19621.935,-17856.09,-9215.055,-17018.954999999998,-29170.08,-49916.925,-25224.255,-26151.255
1764505490.192625,19622.97,-17855.594999999998,-9214.83,-17020.215,-29171.835,-49919.04,-25224.48,-26150.04
1764505490.192625,19618.605,-17860.094999999998,-9219.24,-17023.68,-29175.48,-49921.74,-25228.26,-26153.73
1764505490.192625,19621.62,-17856.09,-9215.145,-17019.809999999998,-29171.655,-49918.545,-25225.605,-26150.94
1764505490.192625,19621.08,-17856.045,-9214.74,-17020.17,-29170.98,-49918.275,-25225.83,-26151.21
1764505490.2401636,19620.54,-17856.989999999998,-9215.145,-17019.765,-29171.07,-49918.005,-25225.83,-26151.705
1764505490.2401636,19620.495,-17856.225,-9214.515,-17020.17,-29171.655,-49918.59,-25225.83,-26151.48
1764505490.2401636,19618.875,-17858.024999999998,-9216.945,-17022.555,-29174.445,-49920.93,-25226.955,-26152.65
1764505490.2401636,19620.99,-17857.215,-9215.1,-17019.809999999998,-29172.06,-49918.23,-25224.705,-26150.715
1764505490.2401636,19621.26,-17857.17,-9214.92,-17020.575,-29172.69,-49918.68,-25225.2,-26150.535
1764505490.2401636,19618.965,-17858.16,-9216.315,-17021.52,-29173.41,-49919.985,-25226.505,-26152.29
1764505490.2401636,19623.06,-17855.01,-9213.165,-17018.055,-29169.675,-49916.295,-25223.13,-26148.96
1764505490.2401636,19622.835,-17855.145,-9213.705,-17018.235,-29170.305,-49916.34,-25223.625,-26149.95
1764505490.2401636,19621.98,-17855.64,-9213.93,-17017.829999999998,-29170.17,-49915.98,-25223.94,-26151.03
1764505490.2401636,19621.89,-17856.045,-9215.19,-17019.405,-29171.97,-49917.6,-25224.705,-26151.12
1764505490.241186,19621.935,-17855.73,-9214.47,-17018.73,-29171.115,-49916.745,-25224.165,-26150.22
1764505490.241186,19621.305,-17855.37,-9214.065,-17018.954999999998,-29170.665,-49916.385,-25223.895,-26150.04
1764505490.241186,19621.395,-17855.91,-9214.335,-17020.035,-29171.25,-49917.555,-25224.03,-26150.445
1764505490.241186,19619.595,-17856.855,-9214.83,-17020.305,-29171.61,-49917.42,-25224.795,-26152.065
1764505490.241186,19617.3,-17860.545,-9217.89,-17022.915,-29174.49,-49921.335,-25227.855,-26155.575
1764505490.241186,19619.055,-17858.88,-9216.81,-17022.015,-29173.455,-49920.255,-25226.91,-26154.315
1764505490.241186,19622.7,-17855.19,-9212.94,-17019.0,-29169.81,-49916.52,-25223.985,-26150.895
1764505490.2421727,19618.83,-17859.69,-9217.035,-17022.465,-29173.095,-49920.885,-25227.405,-26154.855
1764505490.2421727,19618.47,-17860.635,-9217.935,-17022.825,-29173.41,-49921.695,-25227.315,-26154.99
1764505490.2421727,19618.605,-17860.14,-9217.62,-17022.96,-29174.085,-49921.605,-25227.225,-26155.125
1764505490.2421727,19620.99,-17857.17,-9214.785,-17019.72,-29171.97,-49918.545,-25224.93,-26152.92
1764505490.2421727,19619.37,-17858.295,-9216.81,-17020.755,-29173.725,-49921.02,-25227.36,-26154.54
1764505490.2421727,19622.475,-17856.045,-9213.84,-17017.92,-29170.62,-49918.68,-25223.895,-26151.21
1764505490.2421727,19621.98,-17856.405,-9213.795,-17017.695,-29169.135,-49916.88,-25222.635,-26151.165
1764505490.2847233,19621.485,-17857.8,-9214.605,-17019.315,-29169.9,-49918.095,-25224.075,-26151.57
1764505490.2847233,19619.55,-17859.195,-9216.045,-17020.89,-29172.015,-49919.94,-25226.73,-26153.865
1764505490.2847233,19622.385,-17856.135,-9213.255,-17018.73,-29168.64,-49917.645,-25223.49,-26151.345
1764505490.2847233,19619.055,-17859.96,-9216.405,-17022.149999999998,-29172.33,-49920.66,-25226.505,-26154.315
1764505490.2857273,19619.505,-17859.42,-9215.73,-17021.16,-29171.655,-49918.995,-25225.875,-26153.46
1764505490.2857273,19620.045,-17858.88,-9214.47,-17019.405,-29168.91,-49917.465,-25224.57,-26153.505
1764505490.2857273,19624.14,-17854.829999999998,-9210.87,-17015.985,-29166.435,-49914.99,-25221.6,-26149.815
1764505490.2857273,19621.98,-17857.53,-9214.11,-17019.405,-29170.125,-49918.185,-25224.255,-26151.48
1764505490.2857273,19622.655,-17857.395,-9214.38,-17020.035,-29171.52,-49919.445,-25224.21,-26151.345
1764505490.2857273,19624.095,-17855.55,-9211.905,-17016.795,-29167.425,-49915.98,-25221.69,-26150.4
1764505490.2857273,19622.385,-17856.989999999998,-9214.335,-17018.73,-29169.945,-49918.5,-25224.525,-26152.56
1764505490.2857273,19625.265,-17854.335,-9211.455,-17016.03,-29166.48,-49914.18,-25222.95,-26149.995
1764505490.2857273,19622.97,-17856.18,-9211.635,-17015.13,-29163.42,-49911.3,-25222.23,-26150.67
1764505490.2857273,19622.88,-17857.53,-9214.245,-17019.27,-29170.305,-49919.13,-25224.57,-26151.03
1764505490.2857273,19626.795,-17853.57,-9211.23,-17016.614999999998,-29167.425,-49914.63,-25221.735,-26147.61
1764505490.286719,19624.905,-17854.695,-9211.815,-17016.614999999998,-29167.245,-49913.73,-25222.095,-26149.23
1764505490.286719,19624.365,-17854.92,-9211.725,-17016.795,-29167.515,-49915.035,-25222.725,-26149.815
1764505490.286719,19624.05,-17855.91,-9212.625,-17018.01,-29168.505,-49916.34,-25223.22,-26149.32
1764505490.286719,19621.485,-17858.52,-9214.92,-17019.495,-29169.855,-49916.97,-25224.93,-26150.85
1764505490.286719,19624.23,-17855.64,-9211.635,-17016.84,-29166.84,-49913.955,-25222.275,-26148.51
1764505490.286719,19623.87,-17855.145,-9211.365,-17016.795,-29167.335,-49914.585,-25222.95,-26148.555
1764505490.286719,19623.42,-17855.954999999998,-9212.22,-17016.704999999998,-29167.695,-49914.945,-25223.355,-26149.095
1764505490.286719,19622.97,-17856.495,-9212.67,-17016.975,-29167.02,-49913.955,-25222.995,-26149.68
1764505490.286719,19620.045,-17859.465,-9215.19,-17019.945,-29170.53,-49917.465,-25225.785,-26152.965
1764505490.330845,19623.555,-17856.63,-9212.04,-17017.155,-29168.19,-49915.62,-25223.805,-26149.365
1764505490.330845,19620.27,-17860.14,-9216.045,-17020.665,-29171.79,-49918.77,-25227.09,-26152.02
1764505490.3318615,19621.665,-17859.015,-9214.29,-17019.27,-29170.395,-49917.555,-25226.145,-26151.165
1764505490.3318615,19623.555,-17856.63,-9211.725,-17016.614999999998,-29168.325,-49914.765,-25223.4,-26149.77
1764505490.3318615,19621.53,-17858.969999999998,-9214.245,-17019.72,-29170.845,-49917.105,-25225.47,-26151.75
1764505490.3318615,19625.085,-17855.505,-9210.96,-17016.21,-29167.245,-49913.64,-25222.365,-26147.61
1764505490.3318615,19625.625,-17854.335,-9209.97,-17015.399999999998,-29165.805,-49912.605,-25221.42,-26146.755
1764505490.3318615,19626.615,-17854.29,-9209.745,-17014.68,-29164.68,-49911.705,-25221.195,-26146.215
1764505490.3318615,19625.895,-17855.954999999998,-9211.455,-17016.39,-29166.435,-49912.83,-25221.6,-26146.935
1764505490.3318615,19620.27,-17860.995,-9216.315,-17021.79,-29171.79,-49917.915,-25227.63,-26152.47
1764505490.3318615,19621.62,-17859.87,-9215.28,-17019.945,-29169.54,-49916.79,-25226.28,-26151.165
1764505490.3318615,19623.6,-17857.8,-9213.48,-17018.774999999998,-29168.055,-49914.855,-25224.39,-26148.42
1764505490.3318615,19622.16,-17859.465,-9215.145,-17020.575,-29170.62,-49916.52,-25226.64,-26150.535
1764505490.3318615,19623.195,-17858.024999999998,-9213.525,-17018.415,-29168.415,-49914.27,-25224.48,-26148.825
1764505490.3318615,19619.685,-17862.12,-9217.755,-17021.835,-29171.835,-49918.14,-25227.81,-26153.28
1764505490.3318615,19620.27,-17861.76,-9216.855,-17021.97,-29171.925,-49917.825,-25227.315,-26152.785
1764505490.3318615,19621.305,-17860.005,-9214.02,-17017.965,-29167.02,-49912.065,-25225.02,-26151.255
1764505490.3318615,19622.34,-17858.655,-9214.155,-17019.045,-29170.98,-49916.655,-25226.145,-26149.77
1764505490.3333728,19625.76,-17855.145,-9210.51,-17016.165,-29167.065,-49912.605,-25222.59,-26145.72
1764505490.3333728,19624.455,-17856.495,-9210.51,-17016.255,-29165.94,-49911.75,-25223.4,-26147.25
1764505490.3333728,19625.895,-17855.954999999998,-9209.97,-17015.805,-29165.985,-49911.12,-25222.545,-26146.305
1764505490.3333728,19626.885,-17855.055,-9209.565,-17015.715,-29166.975,-49911.75,-25222.32,-26145.675
1764505490.3333728,19623.825,-17858.88,-9213.12,-17018.46,-29168.82,-49914.405,-25224.93,-26149.14
1764505490.3333728,19624.185,-17858.745,-9211.815,-17017.875,-29167.65,-49913.685,-25223.76,-26148.78
1764505490.3778465,19626.93,-17856.225,-9209.205,-17015.04,-29164.815,-49911.165,-25220.88,-26145.09
1764505490.3778465,19626.615,-17855.954999999998,-9208.845,-17014.545,-29166.12,-49912.29,-25221.69,-26145.135
1764505490.3778465,19625.985,-17856.855,-9210.51,-17015.445,-29166.795,-49912.83,-25222.23,-26146.845
1764505490.3778465,19622.97,-17859.059999999998,-9213.525,-17018.28,-29169.855,-49914.9,-25224.75,-26149.635
1764505490.3778465,19625.355,-17856.675,-9210.69,-17015.67,-29167.515,-49912.2,-25222.14,-26147.34
1764505490.3778465,19621.35,-17860.005,-9213.705,-17018.28,-29169.675,-49914.36,-25225.11,-26149.77
1764505490.3778465,19624.95,-17856.135,-9209.88,-17014.364999999998,-29165.625,-49910.715,-25221.105,-26146.17
1764505490.3778465,19626.255,-17854.875,-9207.99,-17013.42,-29165.355,-49909.995,-25220.115,-26144.865
1764505490.3778465,19625.94,-17855.73,-9209.52,-17014.41,-29166.3,-49910.94,-25220.835,-26145.72
1764505490.3778465,19623.375,-17859.239999999998,-9212.85,-17016.93,-29168.28,-49913.55,-25223.445,-26148.825
1764505490.3778465,19625.265,-17856.855,-9210.15,-17013.825,-29165.355,-49910.535,-25220.745,-26146.17
1764505490.3778465,19623.69,-17859.555,-9212.13,-17015.895,-29167.47,-49911.975,-25222.77,-26149.005
1764505490.3778465,19626.57,-17856.54,-9209.07,-17014.41,-29165.94,-49911.12,-25220.61,-26146.08
1764505490.3778465,19626.345,-17857.079999999998,-9209.115,-17014.545,-29165.4,-49910.94,-25220.34,-26145.675
1764505490.3778465,19629.045,-17854.065,-9206.415,-17011.755,-29162.07,-49907.34,-25218.405,-26142.795
1764505490.3788595,19624.455,-17858.43,-9210.51,-17015.805,-29166.39,-49911.075,-25223.31,-26147.61
1764505490.3788595,19625.58,-17856.765,-9209.385,-17014.364999999998,-29165.895,-49910.58,-25221.78,-26146.485
1764505490.3788595,19628.505,-17854.2,-9205.965,-17010.765,-29162.88,-49907.565,-25219.53,-26143.515
1764505490.3788595,19625.805,-17857.079999999998,-9209.34,-17013.239999999998,-29165.22,-49910.265,-25221.96,-26146.485
1764505490.3788595,19625.94,-17857.44,-9209.655,-17014.545,-29166.57,-49911.39,-25222.14,-26146.665
1764505490.4246962,19625.76,-17857.305,-9209.205,-17014.095,-29166.03,-49910.58,-25221.33,-26146.17
1764505490.4246962,19627.335,-17856.719999999998,-9208.35,-17013.105,-29164.545,-49909.365,-25220.115,-26145.225
1764505490.425699,19629.585,-17854.515,-9206.415,-17011.035,-29161.755,-49907.295,-25217.73,-26142.345
1764505490.425699,19627.245,-17855.505,-9207.855,-17012.745,-29162.97,-49908.24,-25219.125,-26143.605
1764505490.425699,19630.17,-17852.67,-9204.615,-17009.595,-29159.28,-49904.19,-25216.29,-26140.815
1764505490.425699,19626.48,-17856.45,-9207.765,-17013.195,-29162.61,-49908.825,-25220.79,-26144.595
1764505490.425699,19626.3,-17856.945,-9208.35,-17013.329999999998,-29163.645,-49909.41,-25220.745,-26145.135
1764505490.425699,19626.705,-17856.855,-9208.485,-17012.97,-29163.645,-49909.365,-25220.61,-26145.18
1764505490.425699,19628.1,-17854.11,-9206.505,-17011.8,-29162.7,-49907.79,-25219.98,-26143.74
1764505490.4266973,19631.97,-17849.969999999998,-9201.915,-17007.434999999998,-29158.245,-49904.055,-25215.705,-26139.24
1764505490.4266973,19632.15,-17851.545,-9203.22,-17008.065,-29158.965,-49904.865,-25214.715,-26139.015
1764505490.4266973,19630.485,-17853.704999999998,-9204.57,-17009.73,-29159.415,-49904.775,-25215.615,-26139.825
1764505490.4266973,19626.885,-17856.675,-9207.945,-17013.465,-29162.565,-49907.7,-25219.575,-26143.02
1764505490.4266973,19626.66,-17856.719999999998,-9207.945,-17013.555,-29162.655,-49907.475,-25219.665,-26143.83
1764505490.4276922,19628.595,-17855.415,-9205.875,-17011.395,-29161.35,-49906.215,-25217.82,-26142.525
1764505490.4276922,19627.11,-17856.899999999998,-9207.495,-17013.059999999998,-29163.33,-49908.105,-25219.8,-26143.605
1764505490.4276922,19624.41,-17859.78,-9210.555,-17015.489999999998,-29166.255,-49910.625,-25222.41,-26146.215
1764505490.4286947,19623.735,-17860.274999999998,-9210.915,-17015.265,-29165.67,-49909.995,-25222.365,-26146.575
1764505490.4286947,19623.645,-17860.14,-9210.51,-17014.454999999998,-29165.31,-49909.77,-25222.14,-26146.485
1764505490.4286947,19624.905,-17859.239999999998,-9209.655,-17014.23,-29164.32,-49908.78,-25221.465,-26146.035
1764505490.4286947,19625.535,-17858.655,-9209.79,-17014.815,-29164.68,-49909.095,-25221.69,-26145.63
1764505490.4286947,19627.38,-17857.934999999998,-9209.205,-17014.454999999998,-29164.905,-49908.78,-25220.79,-26144.19
1764505490.4286947,19629.27,-17855.55,-9206.28,-17010.809999999998,-29161.44,-49905.495,-25218.045,-26141.895
1764505490.4286947,19629.585,-17855.055,-9206.01,-17009.864999999998,-29161.44,-49904.775,-25218.495,-26141.895
1764505490.472342,19627.785,-17856.405,-9207.135,-17011.665,-29163.24,-49906.44,-25219.35,-26142.84
1764505490.472891,19623.78,-17860.725,-9210.915,-17015.535,-29166.57,-49910.535,-25222.905,-26146.71
1764505490.472891,19626.84,-17858.114999999998,-9208.08,-17011.934999999998,-29163.375,-49908.24,-25219.395,-26143.965
1764505490.472891,19626.12,-17859.015,-9208.98,-17012.97,-29165.265,-49909.77,-25220.205,-26144.055
1764505490.472891,19623.195,-17861.489999999998,-9211.68,-17016.57,-29167.47,-49912.38,-25222.815,-26147.88
1764505490.472891,19624.365,-17860.68,-9210.555,-17015.579999999998,-29166.12,-49911.345,-25221.915,-26146.98
1764505490.472891,19628.55,-17856.765,-9206.64,-17011.755,-29162.565,-49907.745,-25218.045,-26142.75
1764505490.472891,19628.235,-17856.405,-9206.73,-17011.62,-29161.98,-49907.34,-25217.595,-26142.57
1764505490.472891,19627.065,-17858.114999999998,-9208.125,-17013.195,-29163.15,-49908.87,-25218.0,-26143.74
1764505490.472891,19628.505,-17856.495,-9205.74,-17011.755,-29161.62,-49907.34,-25217.37,-26143.29
1764505490.472891,19628.46,-17856.27,-9204.975,-17010.18,-29160.315,-49905.99,-25216.965,-26143.11
1764505490.472891,19628.325,-17856.315,-9205.74,-17011.17,-29161.53,-49907.835,-25217.865,-26143.425
1764505490.472891,19629.675,-17855.055,-9206.1,-17012.34,-29164.365,-49910.085,-25219.17,-26142.615
1764505490.472891,19624.635,-17860.545,-9210.105,-17015.309999999998,-29166.255,-49911.435,-25221.78,-26146.575
1764505490.472891,19623.195,-17860.95,-9210.6,-17014.68,-29163.915,-49909.05,-25221.735,-26147.97
1764505490.472891,19624.095,-17859.465,-9208.98,-17011.934999999998,-29160.855,-49906.035,-25220.745,-26147.385
1764505490.472891,19629.18,-17855.73,-9206.64,-17011.035,-29164.14,-49910.715,-25218.225,-26142.21
1764505490.472891,19626.165,-17858.745,-9209.655,-17013.915,-29165.85,-49911.84,-25219.755,-26145.585
1764505490.472891,19626.975,-17856.945,-9207.855,-17012.204999999998,-29163.735,-49909.95,-25218.585,-26144.19
1764505490.472891,19623.96,-17860.184999999998,-9209.385,-17013.78,-29162.835,-49908.33,-25220.07,-26146.845
1764505490.472891,19628.955,-17855.82,-9204.48,-17009.055,-29160.72,-49906.35,-25216.02,-26142.12
1764505490.472891,19625.715,-17858.79,-9208.305,-17012.88,-29166.615,-49912.335,-25219.755,-26145.0
1764505490.472891,19628.235,-17856.405,-9205.605,-17010.63,-29162.52,-49907.97,-25216.92,-26142.525
1764505490.472891,19628.685,-17857.215,-9205.83,-17010.989999999998,-29162.925,-49907.88,-25217.955,-26143.065
1764505490.5216997,19623.645,-17861.535,-9210.195,-17015.22,-29167.245,-49911.93,-25221.645,-26146.98
1764505490.5216997,19623.645,-17860.41,-9209.385,-17014.59,-29166.48,-49910.76,-25221.6,-26146.89
1764505490.5216997,19627.245,-17857.17,-9205.83,-17011.215,-29164.815,-49908.915,-25218.54,-26143.875
1764505490.5216997,19626.345,-17859.42,-9207.81,-17013.329999999998,-29166.165,-49909.635,-25219.53,-26145.18
1764505490.5216997,19623.105,-17861.76,-9210.915,-17015.985,-29167.74,-49911.435,-25222.41,-26148.6
1764505490.5216997,19626.3,-17857.71,-9207.09,-17011.89,-29164.455,-49907.97,-25218.36,-26144.865
1764505490.5216997,19627.02,-17857.215,-9206.91,-17012.475,-29166.345,-49908.915,-25218.54,-26144.01
1764505490.5216997,19622.295,-17861.579999999998,-9211.095,-17015.265,-29169.855,-49912.02,-25222.815,-26148.42
1764505490.5216997,19626.345,-17857.71,-9207.18,-17011.62,-29165.805,-49908.06,-25218.765,-26144.55
1764505490.5216997,19628.955,-17855.64,-9204.795,-17010.405,-29162.79,-49905.36,-25215.615,-26142.12
1764505490.5216997,19629.495,-17855.28,-9204.48,-17010.36,-29162.835,-49905.315,-25215.255,-26141.895
1764505490.5216997,19628.91,-17856.18,-9205.29,-17010.405,-29164.05,-49906.125,-25216.11,-26142.48
1764505490.5216997,19625.895,-17859.015,-9208.395,-17013.51,-29166.03,-49908.78,-25219.305,-26145.18
1764505490.5216997,19628.28,-17856.045,-9206.145,-17010.045,-29162.88,-49906.305,-25216.74,-26142.795
1764505490.5216997,19627.65,-17857.8,-9206.64,-17010.899999999998,-29163.24,-49906.935,-25217.01,-26144.01
1764505490.5216997,19625.895,-17859.555,-9208.305,-17012.295,-29164.815,-49907.79,-25218.18,-26145.18
1764505490.522697,19627.29,-17856.945,-9205.92,-17009.415,-29161.755,-49904.865,-25215.48,-26143.155
1764505490.522697,19625.76,-17858.655,-9207.09,-17010.315,-29163.465,-49906.98,-25217.64,-26145.495
1764505490.522697,19624.365,-17860.905,-9209.79,-17014.32,-29168.145,-49910.895,-25220.79,-26148.015
1764505490.522697,19623.06,-17862.795,-9210.285,-17015.265,-29168.415,-49910.445,-25220.835,-26148.78
1764505490.522697,19624.095,-17862.075,-9209.52,-17013.825,-29167.29,-49909.23,-25219.125,-26147.88
1764505490.522697,19627.695,-17858.204999999998,-9206.19,-17010.09,-29163.195,-49906.215,-25215.84,-26144.64
1764505490.522697,19627.245,-17858.88,-9206.055,-17010.315,-29163.465,-49906.215,-25216.38,-26144.64
1764505490.522697,19625.13,-17859.735,-9207.405,-17011.89,-29165.49,-49908.465,-25218.18,-26145.72
1764505490.566051,19624.005,-17861.309999999998,-9208.8,-17013.42,-29167.155,-49911.12,-25218.45,-26146.935
1764505490.566051,19623.735,-17861.715,-9208.305,-17013.105,-29165.805,-49909.23,-25217.82,-26146.17
1764505490.566051,19623.87,-17861.489999999998,-9208.125,-17013.059999999998,-29164.995,-49908.195,-25218.18,-26145.99
1764505490.566051,19623.51,-17862.165,-9209.655,-17014.23,-29167.02,-49909.905,-25219.26,-26147.07
1764505490.566051,19623.195,-17862.12,-9208.665,-17014.68,-29166.975,-49909.905,-25218.99,-26147.295
1764505490.566051,19622.745,-17862.614999999998,-9208.89,-17014.68,-29167.38,-49910.22,-25219.305,-26148.285
1764505490.566051,19618.92,-17867.52,-9213.21,-17017.965,-29171.25,-49914.09,-25223.22,-26152.47
1764505490.566584,19618.695,-17867.295,-9213.345,-17017.38,-29170.53,-49913.865,-25222.68,-26152.47
1764505490.566584,19622.16,-17863.38,-9210.33,-17014.14,-29168.1,-49911.12,-25219.575,-26148.42
1764505490.566584,19622.205,-17863.29,-9209.79,-17013.69,-29167.785,-49910.22,-25219.305,-26148.555
1764505490.566584,19620.855,-17865.09,-9211.14,-17015.355,-29168.91,-49911.795,-25221.105,-26150.49
1764505490.566584,19619.505,-17865.945,-9212.22,-17017.02,-29170.17,-49912.47,-25222.545,-26151.39
1764505490.566584,19623.285,-17861.94,-9208.215,-17012.7,-29165.58,-49908.78,-25218.36,-26148.285
1764505490.566584,19622.385,-17863.245,-9209.565,-17014.95,-29167.92,-49910.625,-25220.07,-26149.365
1764505490.566584,19620.0,-17865.719999999998,-9211.995,-17017.425,-29170.71,-49913.19,-25221.69,-26151.39
1764505490.566584,19619.82,-17865.989999999998,-9212.31,-17017.605,-29170.305,-49912.83,-25221.24,-26151.435
1764505490.566584,19621.17,-17864.055,-9210.69,-17016.21,-29168.415,-49910.715,-25218.675,-26149.32
1764505490.566584,19618.605,-17865.719999999998,-9212.67,-17017.695,-29170.44,-49912.605,-25221.33,-26151.57
1764505490.566584,19621.62,-17862.885,-9209.295,-17014.77,-29167.515,-49909.68,-25218.99,-26148.6
1764505490.566584,19622.565,-17863.29,-9209.745,-17015.175,-29167.74,-49909.77,-25218.9,-26148.195
1764505490.566584,19621.485,-17864.864999999998,-9211.095,-17016.795,-29168.46,-49911.3,-25220.925,-26149.455
1764505490.566584,19618.83,-17867.475,-9213.705,-17019.27,-29170.98,-49913.415,-25223.085,-26151.93
1764505490.566584,19620.945,-17865.405,-9211.32,-17017.11,-29168.145,-49911.165,-25220.655,-26149.68
1764505490.566584,19621.035,-17865.27,-9210.555,-17017.02,-29168.19,-49911.255,-25221.06,-26149.005
1764505490.6097093,19620.63,-17865.405,-9211.23,-17016.39,-29168.73,-49911.795,-25221.69,-26149.59
1764505490.6097093,19617.165,-17868.96,-9213.255,-17018.415,-29170.26,-49912.965,-25223.94,-26152.245
1764505490.6097093,19620.54,-17865.585,-9210.375,-17017.02,-29169.18,-49911.705,-25221.87,-26148.69
1764505490.6097093,19617.3,-17868.915,-9213.84,-17021.52,-29173.635,-49916.385,-25225.47,-26152.605
1764505490.6097093,19617.165,-17869.364999999998,-9214.02,-17020.665,-29172.645,-49915.665,-25224.21,-26152.02
1764505490.6097093,19617.48,-17868.915,-9214.11,-17019.989999999998,-29171.97,-49915.08,-25224.705,-26151.66
1764505490.6107287,19621.395,-17864.954999999998,-9209.61,-17016.975,-29167.425,-49910.67,-25220.88,-26148.15
1764505490.6107287,19621.71,-17864.684999999998,-9209.97,-17017.02,-29167.2,-49909.905,-25219.755,-26148.42
1764505490.6107287,19621.935,-17865.09,-9210.915,-17017.695,-29168.505,-49912.425,-25221.015,-26148.69
1764505490.6107287,19622.52,-17865.18,-9210.465,-17017.829999999998,-29169.225,-49912.38,-25221.195,-26148.24
1764505490.6107287,19622.385,-17864.505,-9208.89,-17015.895,-29165.94,-49908.33,-25218.855,-26147.61
1764505490.6107287,19623.87,-17863.965,-9208.17,-17016.03,-29167.245,-49910.355,-25218.045,-26146.215
1764505490.6107287,19624.32,-17863.92,-9207.81,-17015.715,-29166.57,-49909.23,-25218.045,-26145.72
1764505490.6107287,19621.17,-17866.755,-9210.645,-17017.92,-29169.045,-49911.21,-25221.015,-26148.78
1764505490.6107287,19623.51,-17864.145,-9207.855,-17015.22,-29166.12,-49909.41,-25218.54,-26146.485
1764505490.6107287,19624.185,-17863.739999999998,-9207.81,-17014.995,-29165.265,-49909.005,-25217.595,-26145.585
1764505490.6107287,19621.26,-17866.395,-9211.095,-17017.605,-29167.92,-49911.165,-25219.845,-26147.79
1764505490.6107287,19621.89,-17865.36,-9209.88,-17017.38,-29167.065,-49910.04,-25219.305,-26146.62
1764505490.6107287,19626.975,-17860.5,-9204.885,-17012.25,-29162.34,-49905.18,-25214.895,-26142.03
1764505490.6107287,19627.02,-17861.489999999998,-9206.01,-17012.16,-29162.925,-49906.17,-25215.795,-26143.02
1764505490.6107287,19625.4,-17862.975,-9207.585,-17013.329999999998,-29163.555,-49907.565,-25216.92,-26144.28
1764505490.6107287,19624.32,-17863.92,-9207.405,-17014.41,-29164.23,-49907.925,-25217.685,-26145.45
1764505490.6594076,19622.97,-17864.145,-9207.585,-17014.77,-29163.285,-49905.72,-25218.27,-26146.575
1764505490.6594076,19621.08,-17865.0,-9208.08,-17015.309999999998,-29163.15,-49906.035,-25219.44,-26147.655
1764505490.6594076,19619.01,-17866.665,-9211.23,-17018.595,-29169.945,-49913.73,-25221.96,-26149.455
1764505490.6594076,19621.125,-17866.125,-9211.23,-17019.135,-29170.89,-49912.785,-25221.6,-26148.555
1764505490.6594076,19622.25,-17866.215,-9210.105,-17017.649999999998,-29169.72,-49911.12,-25221.33,-26148.06
1764505490.6594076,19622.25,-17866.305,-9208.665,-17016.165,-29168.415,-49910.13,-25220.61,-26147.61
1764505490.6594076,19627.38,-17861.265,-9204.345,-17011.845,-29164.365,-49906.575,-25215.93,-26142.885
1764505490.6594076,19624.68,-17863.469999999998,-9206.775,-17014.005,-29165.265,-49907.385,-25216.74,-26145.045
1764505490.6594076,19620.945,-17867.07,-9210.375,-17017.29,-29168.91,-49910.49,-25220.43,-26148.735
1764505490.6594076,19620.45,-17867.655,-9210.015,-17017.02,-29169.135,-49911.12,-25220.97,-26149.32
1764505490.6594076,19621.26,-17866.26,-9208.8,-17016.21,-29168.28,-49910.535,-25220.205,-26148.78
1764505490.6594076,19624.86,-17863.11,-9205.965,-17013.105,-29165.805,-49907.475,-25217.28,-26146.17
1764505490.6594076,19624.995,-17863.695,-9206.325,-17013.239999999998,-29165.985,-49907.745,-25217.64,-26145.945
1764505490.6594076,19623.87,-17864.594999999998,-9207.405,-17013.87,-29166.3,-49908.15,-25218.72,-26147.43
1764505490.6594076,19622.205,-17865.719999999998,-9209.745,-17015.625,-29168.595,-49910.085,-25221.015,-26148.825
1764505490.6594076,19626.12,-17860.905,-9204.66,-17011.575,-29165.04,-49906.215,-25217.19,-26144.505
1764505490.6594076,19624.68,-17861.67,-9205.38,-17012.61,-29164.725,-49906.53,-25217.19,-26145.225
1764505490.6594076,19619.685,-17867.52,-9210.96,-17018.055,-29169.18,-49911.57,-25221.915,-26150.04
1764505490.6594076,19619.28,-17868.735,-9212.265,-17019.27,-29171.07,-49913.505,-25223.49,-26151.075
1764505490.6594076,19622.52,-17865.045,-9208.215,-17015.085,-29167.965,-49909.635,-25220.475,-26147.655
1764505490.6594076,19618.38,-17868.555,-9211.095,-17017.965,-29170.98,-49911.84,-25223.13,-26151.39
1764505490.6594076,19618.2,-17867.79,-9211.41,-17017.785,-29171.07,-49911.84,-25223.355,-26151.615
1764505490.6594076,19621.395,-17865.27,-9208.98,-17016.48,-29170.125,-49911.615,-25222.005,-26149.455
1764505490.6594076,19618.605,-17869.32,-9212.22,-17020.079999999998,-29172.285,-49913.685,-25223.445,-26151.84
1764505490.704202,19619.01,-17868.69,-9211.59,-17018.145,-29170.215,-49911.795,-25222.14,-26150.49
1764505490.704202,19622.655,-17864.64,-9208.125,-17014.364999999998,-29166.705,-49908.33,-25219.17,-26146.305
1764505490.704202,19622.295,-17865.315,-9207.855,-17014.635,-29167.02,-49908.195,-25218.765,-26146.755
1764505490.704202,19618.02,-17870.579999999998,-9212.58,-17019.36,-29171.385,-49912.605,-25223.58,-26150.94
1764505490.704202,19618.47,-17870.445,-9213.03,-17019.36,-29171.7,-49912.83,-25223.04,-26149.995
1764505490.704202,19620.63,-17868.059999999998,-9210.105,-17016.345,-29168.37,-49910.58,-25222.05,-26148.555
1764505490.704202,19617.705,-17871.3,-9212.715,-17019.045,-29170.845,-49912.83,-25225.11,-26151.84
1764505490.704202,19617.885,-17870.805,-9212.805,-17019.09,-29170.98,-49912.56,-25224.615,-26151.615
1764505490.704202,19620.72,-17867.024999999998,-9209.16,-17015.355,-29167.83,-49910.085,-25220.97,-26148.15
1764505490.704202,19619.46,-17868.465,-9210.915,-17016.93,-29170.395,-49911.03,-25222.365,-26148.96
1764505490.704202,19623.42,-17865.045,-9207.135,-17012.835,-29166.12,-49906.665,-25218.63,-26145.09
1764505490.7062187,19623.69,-17863.065,-9206.01,-17011.62,-29164.5,-49905.405,-25217.145,-26144.055
1764505490.7062187,19622.25,-17864.46,-9206.235,-17012.295,-29164.32,-49905.81,-25218.63,-26145.72
1764505490.7062187,19619.28,-17868.6,-9209.52,-17016.434999999998,-29168.055,-49909.365,-25222.455,-26149.14
1764505490.7062187,19624.185,-17864.73,-9205.965,-17013.78,-29166.615,-49908.42,-25218.9,-26145.405
1764505490.707221,19623.645,-17865.09,-9206.505,-17013.69,-29166.12,-49907.43,-25218.675,-26145.63
1764505490.707221,19620.585,-17867.655,-9208.485,-17016.434999999998,-29168.505,-49910.04,-25221.42,-26148.6
1764505490.707221,19622.88,-17865.45,-9206.145,-17013.69,-29165.67,-49907.97,-25219.08,-26145.855
1764505490.7082148,19622.16,-17866.44,-9207.585,-17014.59,-29166.705,-49908.69,-25219.665,-26146.89
1764505490.7082148,19617.255,-17871.39,-9212.04,-17018.325,-29169.585,-49910.04,-25223.805,-26151.435
1764505490.7082148,19619.73,-17869.14,-9208.8,-17014.454999999998,-29167.155,-49908.645,-25221.915,-26149.14
1764505490.7082148,19620.585,-17868.645,-9209.43,-17015.355,-29169.99,-49912.425,-25222.815,-26148.195
1764505490.7537165,19623.87,-17865.27,-9206.19,-17012.565,-29167.335,-49908.735,-25219.53,-26144.37
1764505490.7537165,19619.955,-17868.42,-9209.115,-17015.309999999998,-29169.675,-49910.895,-25222.14,-26147.655
1764505490.7537165,19621.665,-17866.44,-9206.865,-17012.655,-29166.795,-49907.7,-25219.755,-26145.9
1764505490.7537165,19619.235,-17869.14,-9208.305,-17014.635,-29169.09,-49909.635,-25221.375,-26148.42
1764505490.7537165,19623.645,-17865.54,-9204.84,-17012.204999999998,-29166.795,-49908.015,-25218.315,-26144.865
1764505490.7537165,19622.88,-17866.44,-9205.47,-17012.204999999998,-29167.02,-49908.24,-25218.315,-26145.585
1764505490.7537165,19618.605,-17870.085,-9208.62,-17014.725,-29170.17,-49911.03,-25221.69,-26149.185
1764505490.7537165,19619.73,-17868.915,-9208.305,-17014.995,-29170.845,-49912.29,-25222.455,-26148.24
1764505490.7537165,19620.27,-17869.005,-9207.45,-17013.87,-29167.11,-49908.87,-25221.015,-26146.215
1764505490.7537165,19621.89,-17867.925,-9205.605,-17010.989999999998,-29163.69,-49905.81,-25218.405,-26144.595
1764505490.7537165,19621.935,-17867.745,-9206.145,-17012.16,-29165.805,-49908.105,-25219.26,-26145.495
1764505490.7537165,19617.21,-17872.559999999998,-9211.05,-17017.02,-29170.53,-49912.515,-25223.265,-26150.49
1764505490.7537165,19618.56,-17871.434999999998,-9209.61,-17015.85,-29168.82,-49910.58,-25221.825,-26149.32
1764505490.7537165,19621.845,-17867.34,-9205.11,-17011.845,-29164.995,-49905.99,-25218.495,-26145.675
1764505490.7537165,19621.08,-17868.645,-9205.74,-17012.565,-29165.445,-49906.395,-25218.72,-26145.945
1764505490.7537165,19618.605,-17871.795,-9209.295,-17016.12,-29168.73,-49910.04,-25222.14,-26148.645
1764505490.7537165,19619.01,-17871.84,-9208.89,-17015.76,-29168.55,-49910.265,-25222.95,-26148.195
1764505490.754729,19616.94,-17873.145,-9210.33,-17016.795,-29169.495,-49910.94,-25223.715,-26149.905
1764505490.754729,19617.165,-17873.82,-9210.33,-17016.93,-29169.405,-49911.12,-25223.895,-26149.77
1764505490.754729,19619.91,-17871.12,-9208.845,-17015.489999999998,-29168.415,-49910.04,-25221.42,-26146.215
1764505490.754729,19623.285,-17867.07,-9205.38,-17011.89,-29165.04,-49906.89,-25217.73,-26143.29
1764505490.754729,19619.46,-17869.905,-9207.9,-17015.04,-29167.335,-49909.455,-25220.925,-26147.25
1764505490.754729,19622.25,-17867.79,-9205.74,-17011.98,-29164.995,-49906.53,-25218.63,-26144.64
1764505490.754729,19622.565,-17866.71,-9205.47,-17011.17,-29164.545,-49906.125,-25218.045,-26144.055
1764505490.7981312,19622.205,-17867.07,-9205.47,-17011.215,-29164.14,-49905.495,-25217.73,-26144.685
1764505490.7981312,19619.46,-17870.805,-9209.34,-17015.355,-29169.405,-49910.355,-25221.87,-26147.835
1764505490.7981312,19618.38,-17871.93,-9209.52,-17014.68,-29167.92,-49907.88,-25222.095,-26149.095
1764505490.7981312,19619.595,-17870.579999999998,-9208.71,-17014.454999999998,-29168.145,-49908.33,-25220.925,-26147.7
1764505490.7981312,19622.295,-17868.87,-9207.27,-17014.68,-29169.765,-49911.615,-25220.61,-26145.0
1764505490.7981312,19623.555,-17867.07,-9204.525,-17011.17,-29165.67,-49906.08,-25216.875,-26142.39
1764505490.7981312,19624.635,-17866.17,-9203.67,-17010.045,-29164.14,-49905.045,-25216.29,-26142.615
1764505490.7981312,19622.34,-17867.745,-9205.92,-17011.665,-29166.3,-49907.79,-25219.35,-26145.27
1764505490.7981312,19620.18,-17870.579999999998,-9208.845,-17014.5,-29169.315,-49910.13,-25221.69,-26147.79
1764505490.7981312,19622.385,-17868.015,-9205.92,-17012.16,-29165.76,-49907.25,-25218.225,-26144.415
1764505490.7981312,19621.665,-17868.96,-9205.74,-17013.51,-29166.525,-49907.745,-25218.945,-26145.0
1764505490.7981312,19619.145,-17870.895,-9207.945,-17015.445,-29168.91,-49910.49,-25221.645,-26147.7
1764505490.7981312,19622.61,-17867.024999999998,-9204.48,-17012.114999999998,-29165.625,-49907.835,-25219.35,-26144.325
1764505490.7981312,19620.27,-17869.635,-9207.09,-17014.59,-29168.145,-49909.185,-25220.61,-26145.54
1764505490.7981312,19617.12,-17872.29,-9209.475,-17017.02,-29169.99,-49910.715,-25223.13,-26148.69
1764505490.7981312,19621.53,-17867.969999999998,-9204.84,-17012.61,-29165.49,-49906.845,-25218.945,-26144.73
1764505490.7981312,19622.88,-17866.665,-9203.49,-17010.945,-29164.23,-49905.945,-25217.325,-26143.29
1764505490.7981312,19622.565,-17866.44,-9203.535,-17011.755,-29163.78,-49905.99,-25217.37,-26143.065
1764505490.7981312,19621.62,-17867.745,-9205.11,-17012.97,-29164.635,-49906.62,-25218.495,-26143.875
1764505490.7981312,19616.355,-17873.505,-9209.43,-17015.13,-29165.67,-49907.25,-25221.645,-26149.815
1764505490.7981312,19618.245,-17871.3,-9208.485,-17015.625,-29169.495,-49912.335,-25222.275,-26148.06
1764505490.7981312,19617.84,-17871.344999999998,-9207.675,-17015.94,-29170.305,-49912.2,-25222.905,-26148.465
1764505490.7991662,19619.325,-17870.309999999998,-9205.425,-17014.23,-29167.02,-49908.24,-25220.115,-26146.755
1764505490.7991662,19615.59,-17874.18,-9210.645,-17017.829999999998,-29169.585,-49909.14,-25222.68,-26149.455
1764505490.8462296,19615.005,-17873.864999999998,-9209.835,-17016.48,-29169.765,-49909.275,-25222.5,-26149.77
1764505490.8462296,19617.795,-17870.895,-9206.55,-17014.364999999998,-29170.44,-49912.245,-25221.78,-26147.205
1764505490.8462296,19619.46,-17869.23,-9204.12,-17011.665,-29165.265,-49906.305,-25218.72,-26146.755
1764505490.8462296,19616.625,-17871.795,-9207.405,-17014.815,-29169.315,-49909.815,-25221.825,-26150.355
1764505490.8462296,19618.065,-17871.255,-9207.81,-17015.94,-29170.665,-49911.03,-25222.59,-26149.815
1764505490.8477564,19615.905,-17873.91,-9209.52,-17016.704999999998,-29170.215,-49910.76,-25223.22,-26151.165
1764505490.8477564,19615.77,-17874.18,-9209.115,-17015.985,-29170.53,-49911.075,-25223.805,-26150.94
1764505490.8477564,19617.255,-17873.145,-9207.315,-17014.14,-29168.91,-49909.23,-25222.725,-26149.815
1764505490.8477564,19619.955,-17869.95,-9206.325,-17012.475,-29167.515,-49907.745,-25220.25,-26147.52
1764505490.8477564,19616.805,-17872.649999999998,-9209.88,-17015.85,-29171.07,-49911.615,-25223.265,-26150.445
1764505490.8477564,19618.47,-17871.57,-9207.585,-17013.42,-29169.45,-49909.095,-25221.06,-26148.555
1764505490.8477564,19615.41,-17874.585,-9210.015,-17015.175,-29171.25,-49909.905,-25222.995,-26151.165
1764505490.8477564,19616.445,-17872.245,-9206.91,-17012.114999999998,-29166.165,-49903.425,-25220.295,-26150.22
1764505490.8477564,19616.445,-17873.145,-9209.34,-17016.39,-29173.77,-49913.73,-25222.86,-26150.985
1764505490.8477564,19619.235,-17870.85,-9206.505,-17013.69,-29169.495,-49909.545,-25219.395,-26148.465
1764505490.8477564,19615.77,-17873.73,-9208.44,-17015.895,-29171.565,-49911.525,-25222.725,-26151.39
1764505490.8477564,19615.815,-17873.505,-9208.98,-17015.535,-29170.71,-49911.615,-25222.77,-26151.39
1764505490.8477564,19619.28,-17871.614999999998,-9206.28,-17013.329999999998,-29168.28,-49909.095,-25219.665,-26148.51
1764505490.8477564,19620.0,-17870.265,-9205.11,-17012.43,-29167.335,-49908.195,-25219.305,-26147.205
1764505490.8477564,19619.64,-17869.995,-9205.2,-17012.565,-29167.875,-49908.15,-25220.205,-26147.7
1764505490.8477564,19616.13,-17875.17,-9209.295,-17016.93,-29170.89,-49909.77,-25221.96,-26150.49
1764505490.8477564,19619.37,-17871.3,-9206.19,-17013.87,-29167.605,-49907.295,-25219.44,-26147.655
1764505490.8477564,19620.27,-17869.14,-9204.165,-17012.204999999998,-29166.435,-49907.925,-25219.53,-26146.665
1764505490.8477564,19616.895,-17873.505,-9208.215,-17015.535,-29168.82,-49910.22,-25221.915,-26150.355
1764505490.8922846,19617.885,-17872.92,-9207.765,-17016.03,-29170.395,-49911.165,-25222.14,-26149.455
1764505490.8922846,19614.285,-17876.295,-9209.34,-17016.704999999998,-29168.19,-49907.295,-25222.995,-26152.47
1764505490.8922846,19606.095,-17883.45,-9213.12,-17014.995,-29155.14,-49884.12,-25221.105,-26159.715
1764505490.8922846,19622.745,-17869.815,-9205.11,-17015.625,-29175.21,-49920.84,-25221.375,-26144.37
1764505490.8922846,19620.495,-17872.29,-9206.19,-17016.84,-29174.535,-49918.545,-25222.77,-26146.98
1764505490.8922846,19620.315,-17872.11,-9205.065,-17013.69,-29167.695,-49909.905,-25220.655,-26146.935
1764505490.8922846,19619.19,-17872.785,-9205.425,-17013.915,-29168.01,-49909.725,-25221.105,-26147.79
1764505490.8922846,19619.01,-17873.864999999998,-9206.865,-17015.985,-29170.935,-49912.38,-25223.04,-26149.14
1764505490.8922846,19622.25,-17870.265,-9203.76,-17012.79,-29167.155,-49908.69,-25220.655,-26145.9
1764505490.8922846,19617.21,-17873.64,-9205.11,-17012.295,-29162.7,-49902.165,-25221.015,-26150.13
1764505490.8922846,19619.145,-17872.875,-9206.145,-17015.309999999998,-29169.09,-49909.815,-25221.195,-26147.475
1764505490.8922846,19620.045,-17871.21,-9204.075,-17013.285,-29166.795,-49908.555,-25221.42,-26146.62
1764505490.8922846,19618.02,-17872.695,-9206.415,-17016.975,-29171.655,-49914.27,-25223.625,-26148.195
1764505490.8922846,19617.84,-17873.954999999998,-9206.505,-17014.95,-29168.55,-49910.13,-25222.005,-26148.195
1764505490.8922846,19615.725,-17876.295,-9208.665,-17016.885,-29171.43,-49913.46,-25224.57,-26150.76
1764505490.8922846,19616.535,-17875.215,-9207.72,-17016.03,-29171.07,-49912.92,-25223.715,-26150.175
1764505490.8922846,19618.11,-17873.28,-9206.055,-17014.05,-29168.73,-49910.355,-25221.87,-26148.015
1764505490.8922846,19615.635,-17875.26,-9208.395,-17016.075,-29170.485,-49912.695,-25224.39,-26150.04
1764505490.8922846,19618.245,-17872.965,-9205.785,-17013.285,-29167.2,-49910.04,-25221.51,-26147.475
1764505490.8922846,19617.705,-17873.28,-9206.73,-17013.42,-29168.235,-49911.39,-25222.23,-26147.97
1764505490.893793,19617.255,-17874.989999999998,-9207.72,-17015.355,-29170.755,-49913.37,-25223.94,-26150.22
1764505490.893793,19619.01,-17873.594999999998,-9205.74,-17013.195,-29168.55,-49910.94,-25221.645,-26148.735
1764505490.937985,19615.995,-17876.204999999998,-9208.665,-17015.805,-29169.855,-49912.245,-25222.275,-26150.265
1764505490.937985,19614.285,-17877.42,-9210.555,-17019.0,-29174.985,-49919.445,-25227.405,-26153.28
1764505490.937985,19614.06,-17877.915,-9210.555,-17018.415,-29173.95,-49918.14,-25226.28,-26153.055
1764505490.937985,19613.655,-17878.545,-9210.105,-17017.02,-29171.07,-49914.585,-25223.895,-26151.48
1764505490.937985,19612.17,-17880.12,-9211.095,-17019.27,-29173.725,-49917.915,-25226.955,-26153.37
1764505490.937985,19616.22,-17875.755,-9208.305,-17015.985,-29170.845,-49914.99,-25223.49,-26148.915
1764505490.937985,19615.77,-17876.07,-9207.945,-17015.67,-29170.305,-49913.91,-25223.04,-26148.825
1764505490.937985,19611.36,-17880.12,-9212.22,-17019.72,-29174.4,-49917.735,-25227.225,-26153.19
1764505490.937985,19612.35,-17879.13,-9211.365,-17019.09,-29173.5,-49916.52,-25226.595,-26151.975
1764505490.937985,19616.13,-17876.07,-9208.53,-17015.895,-29170.53,-49913.415,-25222.95,-26149.14
1764505490.937985,19613.97,-17878.5,-9210.96,-17018.46,-29172.78,-49916.34,-25224.93,-26152.065
1764505490.937985,19614.87,-17877.555,-9210.24,-17017.605,-29172.645,-49915.755,-25224.48,-26151.3
1764505490.937985,19611.72,-17881.065,-9213.39,-17021.07,-29174.985,-49918.095,-25226.73,-26153.955
1764505490.9390004,19614.24,-17878.094999999998,-9209.745,-17016.84,-29170.935,-49914.72,-25224.48,-26151.165
1764505490.9390004,19613.475,-17879.13,-9211.365,-17019.045,-29173.59,-49917.51,-25226.775,-26152.065
1764505490.9390004,19613.205,-17879.579999999998,-9211.725,-17019.495,-29173.68,-49916.7,-25227.0,-26152.695
1764505490.9390004,19615.455,-17876.16,-9208.305,-17016.255,-29170.665,-49913.19,-25223.94,-26150.355
1764505490.9390004,19612.575,-17879.67,-9211.635,-17019.36,-29174.355,-49916.79,-25226.73,-26153.055
1764505490.9390004,19611.855,-17880.48,-9212.31,-17019.09,-29174.265,-49917.06,-25226.37,-26153.415
1764505490.9390004,19612.26,-17880.975,-9212.535,-17019.09,-29174.265,-49917.465,-25226.775,-26155.035
1764505490.9390004,19612.26,-17881.29,-9213.165,-17019.899999999998,-29175.705,-49918.77,-25227.675,-26154.495
1764505490.9390004,19611.72,-17881.695,-9212.67,-17018.954999999998,-29172.735,-49915.35,-25227.225,-26154.54
1764505490.985502,19613.43,-17879.625,-9210.285,-17016.39,-29170.665,-49914.495,-25224.93,-26152.335
1764505490.985502,19618.38,-17875.079999999998,-9206.28,-17014.005,-29170.035,-49914.945,-25220.97,-26147.97
1764505490.9860404,19615.68,-17877.555,-9208.89,-17015.715,-29170.53,-49914.63,-25223.265,-26150.58
1764505490.9860404,19618.29,-17875.215,-9206.955,-17012.43,-29167.02,-49911.21,-25220.61,-26147.61
1764505490.9860404,19619.145,-17874.27,-9205.65,-17011.845,-29166.795,-49910.895,-25220.115,-26147.745
1764505490.9860404,19617.21,-17875.71,-9207.36,-17013.555,-29168.505,-49912.695,-25222.005,-26149.41
1764505490.9860404,19613.295,-17879.579999999998,-9210.51,-17016.704999999998,-29170.845,-49914.81,-25225.38,-26152.695
1764505490.9860404,19615.455,-17877.735,-9207.585,-17013.825,-29167.2,-49911.165,-25222.68,-26150.715
1764505490.9860404,19614.06,-17880.48,-9210.15,-17016.345,-29171.295,-49914.81,-25225.29,-26153.46
1764505490.9860404,19614.555,-17880.344999999998,-9210.015,-17017.245,-29172.78,-49915.98,-25225.605,-26153.37
1764505490.9860404,19616.265,-17877.51,-9207.63,-17013.149999999998,-29167.56,-49911.21,-25222.095,-26150.22
1764505490.9860404,19616.76,-17877.015,-9207.405,-17012.295,-29166.975,-49910.13,-25222.005,-26150.445
1764505490.9860404,19616.94,-17877.375,-9207.765,-17013.465,-29170.71,-49914.225,-25223.22,-26150.22
1764505490.9860404,19612.575,-17881.065,-9210.915,-17016.48,-29172.195,-49915.755,-25226.37,-26154.18
1764505490.9860404,19615.185,-17878.05,-9207.81,-17013.329999999998,-29168.1,-49911.93,-25222.95,-26151.345
1764505490.9860404,19614.195,-17878.725,-9209.34,-17015.22,-29170.98,-49914.135,-25225.02,-26152.335
1764505490.9860404,19611.135,-17882.415,-9211.815,-17018.46,-29173.905,-49916.565,-25227.72,-26156.115
1764505490.9860404,19610.55,-17883.405,-9212.31,-17019.045,-29173.59,-49916.835,-25227.81,-26156.97
1764505490.9860404,19611.81,-17881.155,-9211.68,-17018.235,-29172.825,-49916.07,-25226.64,-26154.945
1764505490.9860404,19613.925,-17879.265,-9209.115,-17015.535,-29169.945,-49913.01,-25224.12,-26152.155
1764505490.9860404,19611.36,-17882.37,-9212.22,-17017.605,-29172.06,-49915.845,-25227.045,-26155.215
1764505490.9860404,19611.18,-17882.37,-9212.49,-17018.01,-29172.87,-49917.195,-25227.765,-26156.115
1764505490.9860404,19611.135,-17882.055,-9212.49,-17018.055,-29172.465,-49916.43,-25227.315,-26155.35
1764505490.9860404,19613.43,-17878.995,-9209.475,-17015.805,-29170.26,-49915.17,-25225.92,-26152.965
1764505491.0341208,19616.715,-17876.475,-9206.37,-17012.88,-29167.2,-49911.93,-25222.41,-26150.175
1764505491.0341208,19611.99,-17881.29,-9210.555,-17016.255,-29170.17,-49914.405,-25225.92,-26153.865
1764505491.0341208,19612.44,-17880.57,-9210.24,-17015.85,-29170.035,-49914.27,-25225.155,-26153.595
1764505491.0341208,19613.205,-17881.605,-9211.05,-17016.12,-29170.755,-49914.63,-25225.335,-26153.19
1764505491.0341208,19613.565,-17881.559999999998,-9210.33,-17014.905,-29169.765,-49912.605,-25223.895,-26152.92
1764505491.0341208,19616.31,-17877.915,-9206.865,-17011.44,-29166.84,-49909.905,-25221.555,-26150.13
1764505491.0341208,19616.715,-17877.735,-9207.945,-17012.835,-29168.955,-49912.065,-25221.555,-26149.68
1764505491.0341208,19615.635,-17879.219999999998,-9208.665,-17013.555,-29169.18,-49911.84,-25222.23,-26150.49
1764505491.0341208,19614.78,-17879.579999999998,-9208.98,-17014.68,-29168.82,-49911.57,-25222.365,-26150.805
1764505491.0341208,19615.455,-17878.905,-9208.125,-17013.375,-29167.965,-49910.58,-25221.78,-26150.49
1764505491.0341208,19616.805,-17878.005,-9207.09,-17012.43,-29168.055,-49910.715,-25221.465,-26148.87
1764505491.0341208,19615.545,-17879.535,-9209.16,-17014.77,-29169.765,-49912.38,-25223.085,-26150.4
1764505491.0341208,19615.275,-17880.255,-9208.89,-17015.04,-29169.0,-49911.795,-25222.77,-26151.12
1764505491.0351365,19614.555,-17880.704999999998,-9209.655,-17015.445,-29169.45,-49912.515,-25223.04,-26151.84
1764505491.0351365,19614.51,-17881.38,-9209.475,-17015.309999999998,-29169.405,-49912.38,-25223.76,-26152.155
1764505491.0351365,19613.97,-17882.864999999998,-9211.41,-17016.57,-29170.305,-49912.74,-25224.57,-26153.28
1764505491.0351365,19612.485,-17883.719999999998,-9213.84,-17019.855,-29174.67,-49916.655,-25227.495,-26155.08
1764505491.0351365,19615.23,-17880.48,-9209.385,-17016.3,-29171.385,-49913.37,-25224.435,-26152.38
1764505491.0351365,19613.925,-17882.19,-9209.385,-17014.545,-29168.64,-49909.77,-25221.465,-26151.21
1764505491.0351365,19615.635,-17880.165,-9208.08,-17013.329999999998,-29167.695,-49908.87,-25220.475,-26149.365
1764505491.0351365,19615.905,-17880.255,-9208.26,-17014.184999999998,-29169.135,-49909.455,-25220.565,-26149.5
1764505491.0351365,19611.81,-17883.585,-9211.995,-17018.37,-29172.87,-49912.74,-25224.57,-26153.055
1764505491.0351365,19613.205,-17881.965,-9210.51,-17017.065,-29171.205,-49911.12,-25222.995,-26151.615
1764505491.0366457,19610.055,-17885.024999999998,-9213.84,-17020.125,-29174.355,-49914.225,-25226.325,-26155.17
1764505491.080523,19611.765,-17883.945,-9212.58,-17018.684999999998,-29173.455,-49912.875,-25225.335,-26153.64
1764505491.080523,19615.005,-17880.255,-9208.845,-17015.265,-29169.99,-49909.41,-25222.23,-26150.535
1764505491.0815334,19613.79,-17880.93,-9209.43,-17016.84,-29170.125,-49910.4,-25222.95,-26151.615
1764505491.0815334,19610.505,-17884.485,-9212.49,-17020.26,-29172.915,-49913.415,-25225.875,-26155.35
1764505491.0815334,19611.36,-17883.495,-9211.59,-17019.09,-29172.555,-49913.19,-25224.255,-26154.54
1764505491.0815334,19614.555,-17880.48,-9207.675,-17015.22,-29169.135,-49909.86,-25220.7,-26151.255
1764505491.0815334,19615.23,-17880.48,-9207.315,-17014.68,-29168.595,-49909.68,-25220.61,-26151.21
1764505491.0825343,19612.08,-17883.315,-9210.825,-17018.37,-29173.23,-49914.09,-25224.075,-26154.405
1764505491.0825343,19613.52,-17881.695,-9208.53,-17015.895,-29170.215,-49910.94,-25222.59,-26153.01
1764505491.0825343,19610.595,-17885.295,-9212.04,-17019.45,-29173.86,-49914.405,-25225.29,-26155.035
1764505491.0825343,19613.7,-17883.09,-9209.565,-17017.2,-29172.015,-49912.29,-25223.445,-26151.84
1764505491.0825343,19611.63,-17884.35,-9211.455,-17019.18,-29173.32,-49913.46,-25225.155,-26154.18
1764505491.0825343,19613.655,-17881.829999999998,-9208.845,-17016.57,-29170.62,-49910.58,-25222.68,-26151.615
1764505491.0825343,19611.045,-17883.495,-9208.845,-17016.255,-29169.765,-49908.735,-25222.725,-26153.1
1764505491.084071,19607.895,-17887.41,-9213.345,-17019.45,-29171.88,-49910.535,-25225.965,-26156.7
1764505491.084854,19613.52,-17881.829999999998,-9208.305,-17016.39,-29171.61,-49911.345,-25223.175,-26150.895
1764505491.084854,19614.195,-17881.335,-9208.44,-17016.165,-29171.655,-49911.3,-25222.05,-26149.905
1764505491.084854,19609.785,-17885.88,-9212.76,-17019.63,-29174.49,-49913.235,-25225.335,-26154.855
1764505491.084854,19610.73,-17885.565,-9212.4,-17019.855,-29174.355,-49913.235,-25225.155,-26155.305
1764505491.084854,19610.73,-17884.71,-9211.365,-17018.954999999998,-29173.68,-49912.74,-25224.57,-26153.955
1764505491.084854,19610.82,-17884.215,-9210.195,-17016.704999999998,-29169.945,-49907.745,-25223.04,-26153.955
1764505491.084854,19611.495,-17884.035,-9210.015,-17016.84,-29171.205,-49909.68,-25222.68,-26153.145
1764505491.084854,19612.89,-17882.864999999998,-9209.7,-17018.145,-29174.265,-49913.19,-25222.275,-26151.57
1764505491.084854,19613.88,-17881.02,-9207.99,-17015.489999999998,-29169.99,-49908.96,-25221.105,-26150.805
1764505491.125935,19616.175,-17878.14,-9204.975,-17013.015,-29166.705,-49906.53,-25219.035,-26148.6
1764505491.1265051,19614.375,-17879.489999999998,-9205.785,-17013.825,-29167.47,-49907.43,-25219.62,-26149.725
1764505491.1265051,19617.705,-17876.024999999998,-9202.545,-17010.09,-29164.68,-49903.83,-25216.29,-26146.44
1764505491.1265051,19613.835,-17879.085,-9204.84,-17012.97,-29167.245,-49906.395,-25219.35,-26149.905
1764505491.1265051,19615.185,-17878.454999999998,-9204.165,-17012.52,-29165.625,-49905.54,-25217.64,-26148.465
1764505491.1265051,19612.98,-17880.975,-9207.0,-17014.815,-29167.155,-49906.44,-25219.98,-26151.075
1764505491.1265051,19612.485,-17880.885,-9207.0,-17014.32,-29167.155,-49906.845,-25220.16,-26150.355
1764505491.1265051,19613.88,-17880.03,-9205.965,-17014.41,-29169.855,-49909.77,-25220.7,-26148.825
1764505491.1265051,19615.14,-17879.489999999998,-9205.245,-17013.645,-29169.9,-49908.645,-25220.43,-26148.465
1764505491.1265051,19616.4,-17878.59,-9204.615,-17013.059999999998,-29168.82,-49908.105,-25219.395,-26148.51
1764505491.1265051,19615.23,-17878.905,-9203.985,-17012.25,-29166.705,-49906.17,-25217.685,-26148.105
1764505491.1265051,19618.29,-17875.26,-9201.15,-17008.92,-29164.59,-49903.2,-25214.625,-26144.82
1764505491.1265051,19618.83,-17874.54,-9200.655,-17008.29,-29164.59,-49902.435,-25213.95,-26143.92
1764505491.1265051,19618.155,-17875.89,-9201.555,-17009.684999999998,-29165.715,-49903.695,-25215.615,-26145.855
1764505491.1265051,19617.3,-17876.385,-9201.915,-17010.135,-29166.03,-49904.955,-25217.1,-26146.71
1764505491.1265051,19614.87,-17878.86,-9204.075,-17011.89,-29168.55,-49908.015,-25219.845,-26149.68
1764505491.1265051,19617.525,-17876.88,-9203.355,-17011.125,-29167.74,-49906.44,-25217.145,-26146.44
1764505491.1265051,19615.32,-17878.545,-9204.3,-17011.575,-29166.885,-49906.035,-25217.55,-26147.52
1764505491.1265051,19614.42,-17878.545,-9204.57,-17011.62,-29167.29,-49906.44,-25217.64,-26148.285
1764505491.1265051,19613.88,-17879.399999999998,-9205.29,-17011.62,-29166.93,-49906.44,-25218.18,-26149.14
1764505491.1265051,19612.845,-17880.614999999998,-9206.685,-17013.6,-29169.315,-49909.23,-25219.8,-26150.445
1764505491.1265051,19615.68,-17877.465,-9203.355,-17010.765,-29166.57,-49906.89,-25217.28,-26147.205
1764505491.1265051,19616.58,-17876.88,-9202.545,-17009.82,-29165.76,-49905.54,-25215.84,-26145.765
1764505491.1265051,19612.305,-17882.01,-9207.54,-17013.329999999998,-29169.9,-49909.05,-25219.53,-26150.4
1764505491.175553,19612.71,-17881.649999999998,-9206.28,-17012.475,-29169.0,-49908.015,-25218.855,-26150.175
1764505491.175553,19614.6,-17879.579999999998,-9204.075,-17010.315,-29165.85,-49905.045,-25216.335,-26148.555
1764505491.175553,19611.54,-17882.91,-9207.72,-17013.735,-29169.855,-49908.69,-25219.845,-26151.885
1764505491.175553,19613.07,-17882.1,-9207.27,-17014.14,-29170.62,-49911.075,-25220.295,-26151.165
1764505491.175553,19613.25,-17881.785,-9206.325,-17013.6,-29169.045,-49908.78,-25219.755,-26151.03
1764505491.175553,19614.555,-17880.614999999998,-9204.75,-17011.71,-29166.93,-49905.72,-25217.37,-26149.32
1764505491.175553,19618.02,-17877.059999999998,-9201.015,-17007.39,-29163.42,-49902.165,-25213.455,-26144.955
1764505491.175553,19620.63,-17874.63,-9199.53,-17006.715,-29162.97,-49902.93,-25212.915,-26143.2
1764505491.175553,19620.36,-17876.43,-9200.43,-17007.48,-29164.41,-49903.83,-25213.545,-26144.865
1764505491.175553,19615.86,-17880.975,-9203.22,-17010.495,-29165.4,-49904.73,-25215.48,-26147.88
1764505491.175553,19612.71,-17882.82,-9206.505,-17013.915,-29168.865,-49907.655,-25218.945,-26150.67
1764505491.175553,19613.88,-17879.67,-9203.31,-17010.72,-29166.615,-49904.055,-25216.515,-26147.97
1764505491.175553,19615.005,-17879.175,-9203.49,-17010.899999999998,-29166.885,-49904.37,-25216.605,-26147.7
1764505491.175553,19616.715,-17878.364999999998,-9202.185,-17009.73,-29165.94,-49903.83,-25216.065,-26147.07
1764505491.175553,19615.815,-17880.344999999998,-9203.535,-17010.36,-29165.76,-49903.605,-25215.795,-26147.565
1764505491.175553,19614.24,-17881.965,-9205.47,-17011.665,-29167.29,-49904.505,-25216.47,-26148.42
1764505491.175553,19612.935,-17883.225,-9206.865,-17014.454999999998,-29170.71,-49908.51,-25219.305,-26151.165
1764505491.175553,19617.12,-17878.815,-9201.87,-17009.64,-29164.77,-49903.74,-25215.435,-26147.115
1764505491.175553,19616.58,-17879.535,-9202.905,-17009.82,-29164.995,-49903.695,-25215.165,-26147.34
1764505491.175553,19612.575,-17882.46,-9206.325,-17013.329999999998,-29168.37,-49906.62,-25218.585,-26150.445
1764505491.175553,19614.33,-17880.075,-9203.355,-17010.045,-29165.535,-49902.795,-25215.93,-26147.565
1764505491.175553,19612.53,-17883.54,-9206.415,-17013.69,-29169.675,-49906.755,-25219.35,-26150.49
1764505491.175553,19613.34,-17883.45,-9205.47,-17013.105,-29169.27,-49906.26,-25219.665,-26150.67
1764505491.175553,19616.94,-17879.13,-9200.925,-17008.605,-29164.455,-49901.895,-25215.75,-26146.98
1764505491.2199194,19617.705,-17877.735,-9200.475,-17007.524999999998,-29163.195,-49901.085,-25213.815,-26145.945
1764505491.2199194,19617.12,-17879.355,-9201.78,-17008.695,-29164.86,-49902.75,-25215.39,-26146.62
1764505491.2199194,19613.385,-17883.27,-9205.245,-17012.07,-29167.92,-49905.765,-25218.27,-26149.815
1764505491.2199194,19615.32,-17880.39,-9202.365,-17009.19,-29164.95,-49903.02,-25215.435,-26147.43
1764505491.2199194,19614.33,-17880.434999999998,-9201.6,-17009.82,-29164.995,-49903.065,-25215.48,-26147.25
1764505491.2199194,19614.825,-17881.245,-9202.455,-17011.53,-29167.245,-49905.765,-25216.695,-26147.655
1764505491.2199194,19614.78,-17881.829999999998,-9203.4,-17011.215,-29167.92,-49905.54,-25217.055,-26147.88
1764505491.2199194,19611.855,-17885.07,-9205.695,-17013.555,-29169.855,-49907.97,-25219.71,-26150.265
1764505491.2199194,19615.05,-17882.415,-9203.445,-17011.395,-29167.335,-49905.0,-25216.695,-26148.105
1764505491.2199194,19612.305,-17884.844999999998,-9206.415,-17013.96,-29169.675,-49907.07,-25219.215,-26151.345
1764505491.2199194,19611.36,-17885.204999999998,-9207.045,-17014.454999999998,-29170.71,-49908.195,-25219.845,-26151.84
1764505491.2199194,19612.395,-17884.485,-9206.145,-17014.274999999998,-29171.07,-49908.87,-25219.89,-26151.57
1764505491.2199194,19614.78,-17882.19,-9203.31,-17011.035,-29167.38,-49905.72,-25216.92,-26148.195
1764505491.2209418,19614.375,-17881.92,-9203.355,-17011.215,-29167.155,-49905.54,-25217.325,-26148.33
1764505491.2209418,19614.87,-17882.145,-9202.815,-17010.945,-29167.515,-49906.17,-25217.01,-26147.835
1764505491.2209418,19612.62,-17884.079999999998,-9205.38,-17011.89,-29167.965,-49906.125,-25217.685,-26149.455
1764505491.2209418,19608.57,-17887.77,-9208.215,-17014.59,-29169.09,-49906.035,-25220.295,-26153.64
1764505491.2209418,19610.91,-17885.34,-9207.09,-17014.545,-29172.105,-49909.32,-25220.34,-26151.39
1764505491.2209418,19614.555,-17882.01,-9204.255,-17011.934999999998,-29168.46,-49905.27,-25216.2,-26148.15
1764505491.2209418,19614.735,-17882.1,-9203.58,-17010.54,-29166.75,-49903.965,-25215.615,-26147.88
1764505491.2209418,19612.845,-17883.405,-9203.175,-17010.225,-29164.68,-49901.22,-25216.02,-26149.005
1764505491.2209418,19611.405,-17884.89,-9204.345,-17011.755,-29166.03,-49902.57,-25217.505,-26150.265
1764505491.270161,19610.595,-17885.925,-9206.55,-17015.895,-29172.915,-49911.3,-25221.195,-26151.84
1764505491.270161,19610.82,-17886.105,-9205.92,-17013.96,-29169.72,-49906.98,-25219.89,-26151.075
1764505491.270161,19615.635,-17881.695,-9202.14,-17010.63,-29166.795,-49904.955,-25216.47,-26146.62
1764505491.270161,19612.125,-17884.305,-9204.795,-17012.745,-29167.785,-49906.845,-25218.0,-26149.365
1764505491.270161,19614.15,-17881.875,-9202.635,-17008.965,-29164.5,-49902.255,-25214.67,-26146.665
1764505491.270161,19612.305,-17883.495,-9204.39,-17011.71,-29167.29,-49904.28,-25217.145,-26149.095
1764505491.270161,19610.955,-17885.43,-9204.795,-17012.88,-29168.865,-49905.225,-25218.315,-26150.04
1764505491.270161,19612.98,-17883.63,-9203.22,-17010.809999999998,-29166.93,-49903.695,-25216.245,-26147.79
1764505491.270161,19616.985,-17879.67,-9199.215,-17006.399999999998,-29162.61,-49899.555,-25212.6,-26143.605
1764505491.270161,19616.58,-17880.21,-9199.62,-17006.805,-29161.98,-49899.78,-25213.32,-26143.83
1764505491.270161,19613.835,-17883.18,-9202.41,-17009.55,-29164.59,-49902.165,-25216.245,-26146.845
1764505491.270161,19617.48,-17878.815,-9199.53,-17006.94,-29163.645,-49899.915,-25212.645,-26143.02
1764505491.270161,19617.12,-17878.59,-9198.945,-17005.454999999998,-29162.43,-49898.295,-25211.745,-26143.38
1764505491.270161,19616.58,-17878.77,-9199.08,-17006.579999999998,-29163.42,-49899.465,-25212.24,-26144.64
1764505491.270161,19617.255,-17878.995,-9198.99,-17007.66,-29164.635,-49900.365,-25211.385,-26143.785
1764505491.270161,19615.275,-17880.66,-9199.8,-17008.695,-29165.13,-49901.22,-25213.275,-26145.54
1764505491.270161,19613.7,-17881.965,-9200.745,-17010.315,-29165.49,-49902.345,-25215.345,-26147.79
1764505491.2711718,19615.635,-17879.67,-9198.81,-17006.85,-29163.015,-49898.88,-25212.825,-26145.405
1764505491.2711718,19617.84,-17878.454999999998,-9198.855,-17007.3,-29164.905,-49901.58,-25213.5,-26144.595
1764505491.2711718,19614.645,-17881.965,-9201.645,-17010.405,-29167.38,-49903.695,-25215.795,-26146.395
1764505491.2711718,19613.745,-17883.315,-9201.87,-17010.405,-29167.245,-49902.615,-25215.615,-26146.89
1764505491.2711718,19614.645,-17881.875,-9200.115,-17008.829999999998,-29165.715,-49900.365,-25214.31,-26145.72
1764505491.2711718,19619.145,-17877.239999999998,-9196.02,-17005.995,-29162.745,-49898.295,-25211.79,-26142.165
1764505491.2711718,19619.01,-17878.41,-9197.865,-17007.75,-29164.68,-49900.815,-25212.87,-26142.615
1764505491.315599,19613.88,-17883.809999999998,-9202.86,-17011.17,-29166.795,-49902.03,-25215.66,-26147.07
1764505491.315599,19615.05,-17882.64,-9201.33,-17010.27,-29166.345,-49901.265,-25215.39,-26146.17
1764505491.315599,19618.02,-17878.725,-9197.325,-17006.489999999998,-29163.555,-49897.845,-25211.115,-26142.3
1764505491.315599,19617.075,-17879.535,-9197.73,-17006.85,-29164.005,-49898.88,-25212.015,-26143.38
1764505491.315599,19615.59,-17881.695,-9200.16,-17009.055,-29165.265,-49900.005,-25213.68,-26144.865
1764505491.315599,19612.8,-17884.44,-9203.22,-17010.495,-29164.68,-49899.015,-25214.4,-26147.565
1764505491.315599,19611.18,-17885.969999999998,-9205.605,-17013.555,-29170.395,-49905.945,-25217.775,-26150.22
1764505491.315599,19612.08,-17884.98,-9204.3,-17013.6,-29170.44,-49905.72,-25216.65,-26148.87
1764505491.315599,19615.365,-17881.695,-9200.295,-17009.055,-29165.535,-49899.915,-25212.195,-26145.63
1764505491.315599,19614.15,-17883.27,-9202.14,-17010.899999999998,-29167.65,-49901.265,-25214.67,-26147.07
1764505491.315599,19614.915,-17882.684999999998,-9201.69,-17010.18,-29167.065,-49900.725,-25213.995,-26146.44
1764505491.316612,19615.455,-17881.29,-9200.655,-17008.875,-29166.255,-49899.78,-25212.78,-26145.765
1764505491.316612,19613.79,-17882.864999999998,-9201.24,-17010.405,-29167.65,-49901.58,-25213.815,-26147.34
1764505491.316612,19610.46,-17885.295,-9204.165,-17012.925,-29169.765,-49904.64,-25215.975,-26149.77
1764505491.316612,19613.79,-17883.09,-9201.51,-17010.09,-29166.615,-49901.445,-25213.545,-26146.53
1764505491.316612,19614.42,-17882.91,-9200.745,-17009.235,-29165.85,-49901.04,-25212.825,-26146.62
1764505491.316612,19614.6,-17882.91,-9201.42,-17009.595,-29166.48,-49901.355,-25213.005,-26147.385
1764505491.316612,19615.86,-17881.515,-9200.52,-17009.73,-29166.255,-49901.265,-25212.33,-26145.99
1764505491.316612,19615.185,-17882.64,-9201.15,-17010.09,-29165.715,-49900.455,-25212.375,-26146.755
1764505491.316612,19611.945,-17885.79,-9205.47,-17013.285,-29169.0,-49903.47,-25215.84,-26150.67
1764505491.316612,19609.47,-17888.85,-9208.17,-17015.94,-29172.69,-49907.295,-25219.08,-26153.055
1764505491.316612,19612.035,-17885.52,-9204.705,-17012.745,-29169.36,-49904.64,-25215.93,-26149.725
1764505491.3629477,19608.615,-17888.489999999998,-9207.765,-17014.59,-29171.97,-49906.98,-25218.765,-26152.74
1764505491.3629477,19609.29,-17887.364999999998,-9206.595,-17013.285,-29170.53,-49905.765,-25217.73,-26151.12
1764505491.3629477,19612.35,-17884.844999999998,-9203.67,-17010.989999999998,-29167.425,-49902.93,-25215.03,-26148.33
1764505491.3629477,19613.295,-17884.395,-9203.265,-17010.495,-29167.425,-49902.615,-25214.58,-26147.475
1764505491.3629477,19611.81,-17885.79,-9204.165,-17012.114999999998,-29168.325,-49903.92,-25216.56,-26149.05
1764505491.3629477,19609.875,-17887.23,-9204.885,-17012.385,-29169.45,-49904.685,-25218.72,-26150.895
1764505491.3629477,19611.945,-17885.7,-9204.39,-17011.89,-29169.495,-49904.145,-25217.325,-26150.175
1764505491.3629477,19606.41,-17890.469999999998,-9208.62,-17016.39,-29172.555,-49907.925,-25220.565,-26154.315
1764505491.3629477,19607.13,-17891.19,-9209.16,-17017.2,-29173.05,-49908.69,-25221.645,-26155.26
1764505491.3629477,19609.38,-17889.165,-9208.08,-17015.445,-29172.015,-49907.43,-25220.07,-26153.37
1764505491.3629477,19611.72,-17886.239999999998,-9204.93,-17012.204999999998,-29167.965,-49902.57,-25216.245,-26149.32
1764505491.3629477,19610.91,-17887.184999999998,-9204.57,-17012.295,-29166.255,-49900.095,-25216.29,-26150.58
1764505491.3629477,19612.26,-17886.015,-9204.12,-17013.645,-29170.62,-49905.945,-25217.19,-26149.32
1764505491.3629477,19611.72,-17886.69,-9205.11,-17014.41,-29171.385,-49906.215,-25218.09,-26149.185
1764505491.3629477,19610.28,-17887.815,-9206.1,-17014.905,-29170.89,-49906.17,-25217.865,-26149.815
1764505491.3629477,19607.985,-17890.38,-9207.54,-17016.345,-29171.745,-49906.305,-25219.89,-26152.02
1764505491.3629477,19611.27,-17887.95,-9204.84,-17014.23,-29170.44,-49904.235,-25218.54,-26149.77
1764505491.3629477,19612.08,-17887.005,-9203.805,-17013.105,-29169.27,-49903.92,-25217.64,-26150.22
1764505491.3629477,19611.81,-17887.364999999998,-9204.12,-17012.43,-29168.55,-49902.705,-25217.28,-26150.13
1764505491.3629477,19611.09,-17888.085,-9205.29,-17013.69,-29169.945,-49904.1,-25218.855,-26150.49
1764505491.3629477,19611.405,-17887.5,-9204.705,-17013.555,-29170.305,-49904.28,-25218.54,-26150.31
1764505491.3629477,19611.045,-17887.545,-9204.57,-17013.465,-29170.53,-49903.83,-25217.865,-26149.86
1764505491.3629477,19612.35,-17885.79,-9202.635,-17010.945,-29167.92,-49902.435,-25217.19,-26148.915
1764505491.3629477,19612.035,-17886.78,-9203.265,-17011.44,-29168.235,-49903.245,-25217.28,-26149.635
1764505491.4101102,19608.795,-17889.66,-9206.19,-17013.915,-29171.115,-49905.855,-25218.675,-26152.47
1764505491.4101102,19610.82,-17887.14,-9203.67,-17012.385,-29169.585,-49903.65,-25217.685,-26150.13
1764505491.4101102,19616.265,-17883.135,-9199.755,-17009.325,-29166.39,-49900.5,-25214.22,-26145.63
1764505491.4101102,19615.095,-17885.25,-9201.87,-17009.91,-29166.39,-49900.59,-25215.345,-26147.475
1764505491.4101102,19611.81,-17888.085,-9203.13,-17010.18,-29165.265,-49897.665,-25216.515,-26149.995
1764505491.4101102,19609.47,-17889.93,-9206.37,-17014.635,-29172.24,-49906.08,-25220.07,-26152.155
1764505491.4101102,19609.65,-17889.704999999998,-9205.83,-17014.59,-29172.42,-49906.935,-25219.89,-26151.84
1764505491.4101102,19610.775,-17888.04,-9204.615,-17011.755,-29168.82,-49903.335,-25218.585,-26150.625
1764505491.4101102,19614.645,-17885.07,-9201.105,-17008.829999999998,-29166.12,-49900.05,-25215.075,-26147.205
1764505491.4101102,19612.035,-17888.13,-9204.255,-17012.52,-29170.17,-49903.785,-25217.955,-26149.095
1764505491.4101102,19611.585,-17887.635,-9203.715,-17011.53,-29169.045,-49902.615,-25217.415,-26148.645
1764505491.4101102,19614.6,-17883.765,-9201.105,-17010.405,-29168.505,-49902.255,-25216.515,-26146.305
1764505491.4101102,19617.795,-17881.2,-9198.675,-17007.48,-29164.68,-49898.97,-25213.365,-26143.47
1764505491.4101102,19611.81,-17888.085,-9205.11,-17011.665,-29167.29,-49900.68,-25216.2,-26148.24
1764505491.4101102,19615.005,-17883.27,-9200.34,-17006.94,-29163.015,-49897.08,-25212.465,-26144.73
1764505491.4101102,19616.085,-17881.875,-9198.9,-17006.175,-29163.105,-49897.485,-25212.465,-26144.055
1764505491.4101102,19616.4,-17883.63,-9200.7,-17008.155,-29165.625,-49899.6,-25213.455,-26144.73
1764505491.4101102,19613.295,-17886.87,-9203.625,-17010.945,-29168.37,-49902.795,-25216.65,-26148.555
1764505491.4101102,19613.385,-17886.285,-9202.23,-17009.864999999998,-29166.345,-49900.5,-25215.84,-26147.295
1764505491.4101102,19609.02,-17889.93,-9206.595,-17013.645,-29167.83,-49900.95,-25217.64,-26150.535
1764505491.4114213,19611.81,-17886.329999999998,-9203.76,-17011.845,-29170.53,-49905.315,-25217.91,-26148.87
1764505491.4114213,19612.305,-17885.295,-9201.555,-17009.145,-29166.975,-49901.985,-25217.415,-26148.645
1764505491.455273,19613.295,-17884.26,-9200.79,-17007.255,-29163.285,-49897.44,-25213.77,-26146.395
1764505491.455273,19609.425,-17886.825,-9203.85,-17010.899999999998,-29169.225,-49904.19,-25218.45,-26149.95
1764505491.455273,19611.765,-17884.89,-9201.825,-17010.045,-29169.495,-49905.27,-25218.495,-26149.095
1764505491.455273,19614.69,-17882.415,-9198.9,-17007.57,-29166.525,-49902.255,-25215.39,-26147.115
1764505491.455273,19610.73,-17887.41,-9203.445,-17011.079999999998,-29169.045,-49904.64,-25217.145,-26149.815
1764505491.455273,19609.74,-17888.13,-9204.615,-17011.17,-29168.415,-49904.145,-25217.46,-26149.545
1764505491.455273,19610.595,-17887.05,-9204.03,-17011.215,-29169.45,-49903.965,-25217.28,-26148.555
1764505491.455273,19610.37,-17887.68,-9203.13,-17009.82,-29168.415,-49902.795,-25218.045,-26150.175
1764505491.455273,19609.695,-17888.76,-9203.58,-17010.63,-29169.135,-49903.065,-25218.18,-26151.03
1764505491.455273,19612.755,-17885.655,-9201.645,-17009.145,-29169.18,-49903.245,-25216.065,-26147.25
1764505491.455273,19615.545,-17882.64,-9198.405,-17005.41,-29164.86,-49899.42,-25212.375,-26143.605
1764505491.455273,19613.385,-17885.25,-9200.295,-17006.399999999998,-29165.625,-49898.925,-25213.68,-26145.495
1764505491.455273,19610.235,-17888.715,-9203.04,-17010.09,-29168.37,-49902.12,-25217.775,-26148.96
1764505491.455273,19608.12,-17890.29,-9203.265,-17008.515,-29163.69,-49896.27,-25217.37,-26151.525
1764505491.455273,19613.835,-17885.16,-9199.98,-17006.805,-29166.975,-49901.355,-25215.57,-26146.89
1764505491.455273,19612.395,-17887.184999999998,-9201.87,-17008.605,-29169.405,-49903.83,-25218.63,-26148.465
1764505491.455273,19612.98,-17886.465,-9201.105,-17007.165,-29166.39,-49900.095,-25215.255,-26147.34
1764505491.455273,19611.09,-17888.04,-9202.995,-17009.145,-29167.92,-49900.905,-25216.83,-26149.59
1764505491.455273,19614.015,-17884.665,-9199.53,-17006.265,-29165.31,-49898.205,-25213.455,-26146.26
1764505491.455273,19614.195,-17884.395,-9198.72,-17005.32,-29164.14,-49897.305,-25212.87,-26145.945
1764505491.455273,19612.8,-17885.745,-9200.205,-17005.005,-29161.62,-49893.615,-25212.915,-26147.745
1764505491.455273,19611.81,-17887.094999999998,-9203.265,-17010.54,-29170.665,-49903.92,-25216.47,-26148.78
1764505491.455273,19611.315,-17887.23,-9203.04,-17009.864999999998,-29169.09,-49902.795,-25216.02,-26149.455
1764505491.455273,19613.385,-17884.755,-9200.565,-17007.12,-29165.445,-49899.465,-25213.77,-26147.655
1764505491.5039272,19610.505,-17887.364999999998,-9202.905,-17008.695,-29168.01,-49901.175,-25216.515,-26150.265
1764505491.5039272,19609.425,-17889.21,-9204.03,-17008.829999999998,-29168.64,-49900.455,-25216.47,-26150.04
1764505491.5039272,19611.855,-17887.815,-9203.445,-17009.37,-29169.54,-49901.67,-25215.48,-26147.79
1764505491.5039272,19614.285,-17883.855,-9199.08,-17005.41,-29164.41,-49896.45,-25210.755,-26144.46
1764505491.5039272,19614.015,-17883.719999999998,-9198.315,-17006.175,-29164.545,-49896.495,-25210.62,-26143.92
1764505491.5039272,19613.7,-17884.125,-9198.9,-17006.985,-29166.12,-49898.475,-25211.79,-26144.505
1764505491.5039272,19612.485,-17885.7,-9199.89,-17006.94,-29165.13,-49897.98,-25212.105,-26146.17
1764505491.5039272,19609.2,-17888.535,-9203.175,-17009.1,-29167.425,-49900.77,-25215.03,-26149.365
1764505491.5039272,19612.26,-17885.295,-9201.375,-17007.345,-29166.975,-49900.23,-25213.275,-26146.98
1764505491.5053508,19610.505,-17888.04,-9202.995,-17009.28,-29168.235,-49901.355,-25214.715,-26148.195
1764505491.5053508,19611.99,-17886.465,-9200.925,-17008.065,-29165.22,-49899.465,-25212.285,-26146.305
1764505491.5053508,19608.435,-17888.94,-9203.13,-17010.855,-29167.47,-49901.895,-25214.805,-26149.635
1764505491.5053508,19606.905,-17889.975,-9204.03,-17011.71,-29167.605,-49901.67,-25215.57,-26150.715
1764505491.5053508,19608.705,-17889.57,-9203.805,-17011.44,-29168.235,-49901.895,-25215.885,-26149.77
1764505491.5053508,19609.785,-17888.085,-9201.555,-17009.415,-29166.525,-49900.23,-25214.76,-26148.42
1764505491.5053508,19612.755,-17884.89,-9198.63,-17006.085,-29163.735,-49896.54,-25210.575,-26144.865
1764505491.5053508,19612.665,-17884.98,-9198.135,-17006.579999999998,-29164.32,-49897.62,-25210.62,-26145.135
1764505491.5053508,19608.57,-17889.255,-9202.23,-17011.575,-29169.54,-49902.57,-25215.255,-26149.68
1764505491.5053508,19608.075,-17889.93,-9202.68,-17009.954999999998,-29166.75,-49899.105,-25213.23,-26149.815
1764505491.5053508,19610.775,-17886.69,-9199.125,-17005.77,-29162.205,-49895.055,-25209.765,-26146.26
1764505491.5053508,19608.12,-17887.905,-9200.43,-17007.165,-29164.68,-49896.99,-25212.015,-26147.925
1764505491.5053508,19612.17,-17885.565,-9199.44,-17006.04,-29164.5,-49896.315,-25209.9,-26145.72
1764505491.5053508,19609.155,-17888.67,-9202.32,-17008.245,-29166.345,-49898.565,-25212.24,-26148.915
1764505491.5053508,19609.74,-17887.32,-9201.42,-17007.255,-29166.255,-49898.52,-25212.24,-26149.05
1764505491.5502143,19608.435,-17889.03,-9203.22,-17010.09,-29168.955,-49900.995,-25213.455,-26149.995
1764505491.5502143,19610.19,-17886.375,-9199.62,-17006.04,-29163.915,-49895.82,-25209.27,-26146.755
1764505491.5502143,19610.19,-17887.68,-9201.645,-17007.39,-29164.815,-49897.665,-25210.17,-26148.105
1764505491.5502143,19607.805,-17890.11,-9204.255,-17010.18,-29167.47,-49900.815,-25212.87,-26150.805
1764505491.5502143,19608.75,-17889.12,-9202.59,-17009.01,-29166.255,-49899.69,-25211.745,-26149.59
1764505491.5502143,19608.795,-17888.535,-9202.185,-17008.425,-29164.905,-49898.475,-25211.16,-26148.69
1764505491.5502143,19610.91,-17886.42,-9198.99,-17004.239999999998,-29159.235,-49893.12,-25207.74,-26145.945
1764505491.5502143,19611.135,-17887.23,-9199.215,-17004.915,-29161.125,-49896.99,-25209.225,-26146.665
1764505491.5502143,19609.695,-17888.805,-9202.14,-17009.46,-29167.695,-49902.795,-25212.375,-26148.69
1764505491.5502143,19609.02,-17887.995,-9201.69,-17008.515,-29166.39,-49900.005,-25211.52,-26147.52
1764505491.5502143,19610.505,-17885.565,-9198.72,-17005.815,-29161.755,-49895.1,-25207.38,-26144.415
1764505491.5502143,19609.47,-17886.69,-9200.205,-17006.985,-29163.105,-49897.08,-25207.47,-26144.865
1764505491.5502143,19611.045,-17885.969999999998,-9199.08,-17006.175,-29163.105,-49898.97,-25208.685,-26145.495
1764505491.5502143,19608.705,-17889.795,-9202.59,-17009.01,-29165.805,-49900.59,-25209.945,-26148.06
1764505491.5502143,19610.37,-17888.76,-9201.42,-17008.065,-29165.13,-49899.24,-25209.18,-26147.025
1764505491.5502143,19611.495,-17886.915,-9199.755,-17006.355,-29162.655,-49896.63,-25208.235,-26145.945
1764505491.5502143,19607.085,-17892.045,-9205.065,-17010.675,-29165.58,-49898.115,-25211.655,-26150.76
1764505491.5502143,19610.145,-17887.905,-9201.195,-17007.12,-29165.58,-49900.59,-25211.565,-26148.42
1764505491.5502143,19612.62,-17884.89,-9198.585,-17004.825,-29162.52,-49896.945,-25207.875,-26144.955
1764505491.5502143,19610.955,-17886.78,-9200.025,-17005.815,-29162.79,-49896.99,-25208.505,-26146.215
1764505491.5502143,19607.625,-17890.02,-9203.31,-17008.829999999998,-29165.715,-49900.365,-25212.06,-26149.905
1764505491.551217,19608.66,-17888.489999999998,-9202.05,-17007.614999999998,-29164.68,-49898.745,-25210.215,-26148.33
1764505491.551217,19613.205,-17884.125,-9197.325,-17003.745,-29160.135,-49893.615,-25205.58,-26144.055
1764505491.551217,19612.305,-17885.295,-9198.09,-17004.51,-29161.395,-49894.245,-25206.66,-26145.405
1764505491.5944698,19609.155,-17889.165,-9202.005,-17008.245,-29165.13,-49897.98,-25210.575,-26148.78
1764505491.5944698,19608.66,-17888.985,-9202.23,-17008.425,-29164.86,-49897.665,-25210.485,-26148.285
1764505491.5954869,19610.46,-17886.239999999998,-9200.205,-17006.04,-29162.295,-49894.605,-25208.19,-26146.35
1764505491.5954869,19608.57,-17888.399999999998,-9201.825,-17008.245,-29164.5,-49896.45,-25209.99,-26148.015
1764505491.5954869,19612.755,-17885.25,-9198.585,-17006.399999999998,-29162.43,-49895.415,-25207.785,-26144.82
1764505491.5954869,19610.55,-17887.635,-9201.51,-17008.245,-29164.86,-49897.53,-25209.81,-26147.205
1764505491.5954869,19610.91,-17887.094999999998,-9201.06,-17007.165,-29163.015,-49896.045,-25208.595,-26146.71
1764505491.5954869,19608.66,-17888.94,-9202.14,-17008.965,-29165.085,-49897.8,-25210.665,-26148.645
1764505491.5954869,19611.945,-17886.42,-9199.395,-17006.489999999998,-29162.835,-49895.46,-25207.515,-26145.18
1764505491.5954869,19608.21,-17888.715,-9201.06,-17008.29,-29164.5,-49896.09,-25209.045,-26147.61
1764505491.5954869,19611.27,-17886.329999999998,-9199.98,-17006.715,-29162.7,-49894.47,-25207.29,-26145.63
1764505491.5954869,19611.72,-17886.375,-9200.745,-17007.66,-29163.69,-49895.505,-25208.01,-26146.17
1764505491.5954869,19610.145,-17888.175,-9201.33,-17008.29,-29164.32,-49896.09,-25209.045,-26147.43
1764505491.5954869,19609.11,-17889.03,-9200.565,-17006.94,-29161.035,-49891.365,-25208.37,-26148.105
1764505491.5954869,19610.505,-17887.815,-9200.565,-17008.02,-29164.815,-49896.855,-25209.945,-26146.71
1764505491.5954869,19606.32,-17892.36,-9205.02,-17012.565,-29168.82,-49900.905,-25213.275,-26150.58
1764505491.5954869,19609.965,-17889.614999999998,-9202.68,-17010.54,-29166.795,-49898.745,-25210.44,-26147.34
1764505491.5954869,19610.82,-17888.445,-9201.195,-17009.415,-29165.895,-49897.215,-25208.865,-26146.035
1764505491.5954869,19608.975,-17889.93,-9201.735,-17009.64,-29164.995,-49896.18,-25209.36,-26147.385
1764505491.5959997,19604.205,-17894.969999999998,-9206.19,-17014.23,-29169.315,-49901.04,-25214.13,-26152.335
1764505491.5959997,19604.97,-17894.43,-9206.235,-17013.69,-29169.315,-49901.625,-25213.59,-26152.02
1764505491.5959997,19606.455,-17892.18,-9204.345,-17012.745,-29169.18,-49900.86,-25212.78,-26150.22
1764505491.6428108,19609.785,-17889.48,-9201.015,-17009.1,-29165.58,-49896.855,-25209.495,-26147.07
1764505491.6428108,19610.055,-17889.39,-9201.105,-17008.38,-29165.805,-49896.54,-25209.27,-26146.53
1764505491.6428108,19609.74,-17889.165,-9200.79,-17008.29,-29165.625,-49896.315,-25208.595,-26146.44
1764505491.6428108,19610.595,-17888.805,-9200.25,-17007.39,-29164.725,-49895.1,-25207.605,-26145.99
1764505491.6428108,19611.45,-17888.13,-9200.07,-17007.03,-29164.545,-49895.01,-25207.695,-26145.36
1764505491.6428108,19611.855,-17888.399999999998,-9200.07,-17007.12,-29164.905,-49895.775,-25208.01,-26145.27
1764505491.6428108,19611.18,-17889.12,-9200.07,-17006.985,-29164.365,-49895.955,-25208.82,-26146.305
1764505491.6428108,19608.255,-17891.73,-9201.915,-17008.875,-29166.165,-49897.71,-25211.16,-26148.96
1764505491.6428108,19608.525,-17891.64,-9202.905,-17010.09,-29168.64,-49900.725,-25212.105,-26148.69
1764505491.6428108,19611.81,-17888.489999999998,-9199.125,-17007.614999999998,-29165.94,-49897.485,-25209.045,-26144.865
1764505491.6428108,19610.1,-17892.045,-9201.6,-17008.829999999998,-29165.445,-49896.765,-25209.81,-26146.44
1764505491.6428108,19607.715,-17893.755,-9203.67,-17010.45,-29167.2,-49898.115,-25211.61,-26148.78
1764505491.6447537,19611.765,-17888.76,-9198.765,-17006.04,-29163.285,-49894.245,-25207.875,-26145.09
1764505491.6447537,19611.9,-17888.489999999998,-9198.09,-17006.13,-29162.565,-49893.84,-25207.38,-26144.775
1764505491.6447537,19611.405,-17889.66,-9198.855,-17007.75,-29163.735,-49895.235,-25208.865,-26145.675
1764505491.6447537,19610.955,-17890.965,-9200.79,-17009.864999999998,-29166.3,-49897.26,-25210.62,-26147.52
1764505491.6447537,19612.98,-17888.219999999998,-9197.64,-17006.22,-29162.925,-49893.885,-25206.93,-26144.19
1764505491.6447537,19612.26,-17888.265,-9197.595,-17005.545,-29162.925,-49893.435,-25207.02,-26144.46
1764505491.6447537,19613.16,-17888.04,-9197.19,-17004.915,-29162.835,-49893.705,-25206.795,-26143.695
1764505491.6447537,19612.755,-17888.219999999998,-9197.235,-17004.735,-29163.42,-49894.425,-25207.38,-26143.83
1764505491.6447537,19610.28,-17890.469999999998,-9199.935,-17007.255,-29166.075,-49897.035,-25209.765,-26147.295
1764505491.6447537,19611.405,-17889.344999999998,-9198.855,-17005.815,-29164.905,-49895.82,-25208.46,-26146.62
1764505491.6447537,19609.065,-17891.325,-9201.015,-17008.11,-29166.57,-49896.63,-25210.53,-26148.015
1764505491.6447537,19611.9,-17888.489999999998,-9198.18,-17004.735,-29162.115,-49891.455,-25207.29,-26145.675
1764505491.6877174,19609.605,-17890.155,-9199.845,-17006.04,-29164.005,-49894.155,-25208.415,-26148.06
1764505491.6887405,19612.305,-17888.579999999998,-9198.27,-17004.96,-29164.725,-49895.28,-25206.975,-26146.215
1764505491.6887405,19615.68,-17886.6,-9195.21,-17003.204999999998,-29160.81,-49891.275,-25203.78,-26143.02
1764505491.6887405,19613.61,-17888.04,-9196.605,-17005.274999999998,-29163.465,-49894.245,-25207.29,-26145.09
1764505491.6887405,19615.86,-17884.844999999998,-9193.5,-17001.72,-29161.26,-49891.59,-25204.14,-26142.66
1764505491.6887405,19614.78,-17886.465,-9194.085,-17002.665,-29161.395,-49891.5,-25204.095,-26143.155
1764505491.6887405,19613.655,-17888.445,-9196.605,-17003.655,-29162.295,-49892.85,-25205.49,-26144.91
1764505491.6887405,19611.315,-17891.01,-9198.81,-17006.355,-29164.905,-49895.955,-25208.145,-26146.845
1764505491.6887405,19613.115,-17888.13,-9195.795,-17004.42,-29162.88,-49894.02,-25205.67,-26144.37
1764505491.6887405,19610.73,-17890.38,-9198.81,-17006.489999999998,-29165.58,-49896.72,-25207.83,-26147.52
1764505491.6887405,19613.565,-17887.32,-9196.065,-17003.204999999998,-29162.34,-49892.94,-25204.23,-26144.46
1764505491.6887405,19614.06,-17886.239999999998,-9195.255,-17002.395,-29159.505,-49891.365,-25202.7,-26142.795
1764505491.6887405,19614.06,-17886.015,-9195.165,-17003.88,-29160.405,-49892.895,-25203.645,-26142.705
1764505491.6887405,19609.155,-17890.02,-9198.63,-17007.434999999998,-29164.365,-49896.72,-25207.74,-26146.89
1764505491.6887405,19608.705,-17890.425,-9198.18,-17006.22,-29163.42,-49894.92,-25207.245,-26147.61
1764505491.6887405,19613.25,-17886.105,-9194.445,-17002.845,-29160.63,-49893.165,-25203.69,-26142.93
1764505491.6887405,19613.835,-17886.195,-9194.13,-17003.52,-29160.27,-49892.985,-25202.52,-26142.12
1764505491.6887405,19613.655,-17887.5,-9194.625,-17003.295,-29160.18,-49892.265,-25203.015,-26142.39
1764505491.6887405,19613.745,-17886.465,-9194.58,-17002.98,-29160.135,-49891.77,-25203.195,-26142.705
1764505491.6887405,19613.475,-17887.68,-9194.94,-17003.97,-29160.855,-49892.67,-25204.005,-26143.92
1764505491.6887405,19611.315,-17890.559999999998,-9197.595,-17006.265,-29163.645,-49894.695,-25206.03,-26145.315
1764505491.6887405,19615.185,-17885.565,-9193.365,-17002.395,-29159.91,-49890.06,-25202.25,-26140.995
1764505491.7353024,19614.87,-17885.34,-9193.77,-17001.855,-29159.01,-49889.25,-25201.845,-26140.905
1764505491.7353024,19609.83,-17890.92,-9198.54,-17006.22,-29163.24,-49893.615,-25206.57,-26145.495
1764505491.7353024,19610.145,-17890.29,-9198.135,-17006.445,-29164.005,-49894.38,-25206.525,-26144.865
1764505491.7353024,19610.82,-17890.245,-9197.865,-17006.535,-29164.545,-49895.19,-25206.525,-26145.18
1764505491.7353024,19611.765,-17889.3,-9197.505,-17005.23,-29163.195,-49893.435,-25205.31,-26144.73
1764505491.7353024,19616.04,-17884.35,-9193.23,-16999.965,-29158.47,-49889.43,-25201.125,-26140.5
1764505491.7353024,19616.4,-17884.395,-9192.24,-16999.829999999998,-29156.76,-49887.99,-25200.135,-26140.14
1764505491.7365708,19615.995,-17885.024999999998,-9192.15,-17000.145,-29157.93,-49888.44,-25199.73,-26140.32
1764505491.7365708,19615.23,-17885.16,-9192.78,-16999.559999999998,-29158.695,-49889.25,-25200.405,-26140.185
1764505491.7365708,19615.77,-17884.125,-9192.285,-16999.02,-29158.38,-49889.205,-25199.595,-26138.565
1764505491.7365708,19614.78,-17884.98,-9193.14,-16999.649999999998,-29158.695,-49888.395,-25200.045,-26139.645
1764505491.7365708,19610.325,-17889.524999999998,-9197.145,-17003.565,-29162.16,-49892.22,-25204.365,-26144.145
1764505491.7365708,19610.865,-17889.3,-9196.875,-17003.61,-29161.98,-49892.985,-25204.41,-26143.875
1764505491.7365708,19611.135,-17889.165,-9197.01,-17003.565,-29161.485,-49893.165,-25203.825,-26144.37
1764505491.7365708,19611.72,-17887.815,-9196.065,-17003.43,-29160.63,-49892.22,-25202.7,-26143.92
1764505491.7365708,19614.645,-17885.07,-9192.825,-17000.145,-29157.255,-49888.62,-25199.955,-26140.5
1764505491.7365708,19613.835,-17885.925,-9193.455,-17000.55,-29158.245,-49888.755,-25199.73,-26141.04
1764505491.7365708,19612.755,-17887.14,-9195.03,-17002.575,-29160.135,-49890.195,-25201.035,-26142.165
1764505491.7365708,19611.36,-17888.895,-9196.02,-17003.385,-29160.585,-49890.6,-25202.475,-26143.11
1764505491.7365708,19608.885,-17890.649999999998,-9197.64,-17006.04,-29163.105,-49893.03,-25204.68,-26145.945
1764505491.7365708,19611.36,-17888.265,-9195.3,-17004.015,-29161.17,-49889.88,-25201.98,-26142.795
1764505491.7365708,19607.13,-17892.18,-9198.675,-17007.165,-29165.445,-49893.39,-25205.715,-26146.89
1764505491.7365708,19607.67,-17891.73,-9197.64,-17006.535,-29164.725,-49893.255,-25204.95,-26146.35
1764505491.7365708,19611.585,-17888.175,-9194.175,-17002.44,-29160.495,-49888.8,-25201.575,-26143.245
1764505491.785514,19611.405,-17889.03,-9194.805,-17002.98,-29161.71,-49891.095,-25201.53,-26144.145
1764505491.785514,19608.48,-17892.09,-9197.91,-17005.59,-29164.68,-49894.11,-25203.78,-26146.44
1764505491.785514,19609.65,-17890.739999999998,-9196.695,-17003.745,-29162.295,-49891.275,-25202.43,-26145.0
1764505491.785514,19614.15,-17885.925,-9191.97,-16999.559999999998,-29158.065,-49887.18,-25198.155,-26140.455
1764505491.785514,19614.465,-17885.16,-9191.43,-16999.695,-29158.38,-49887.765,-25198.47,-26140.095
1764505491.785514,19612.08,-17887.005,-9193.41,-17001.045,-29160.315,-49888.44,-25199.82,-26142.66
1764505491.785514,19615.455,-17883.945,-9188.91,-16995.87,-29153.97,-49882.32,-25194.465,-26138.565
1764505491.785514,19615.815,-17884.8,-9190.485,-16998.48,-29157.615,-49885.83,-25196.13,-26137.845
1764505491.785514,19612.53,-17888.219999999998,-9193.815,-17002.62,-29162.52,-49890.69,-25199.64,-26141.445
1764505491.785514,19610.46,-17889.3,-9194.715,-17002.665,-29161.845,-49889.07,-25200.27,-26143.29
1764505491.785514,19609.875,-17889.255,-9194.49,-17000.864999999998,-29158.2,-49884.12,-25199.37,-26144.325
1764505491.785514,19614.555,-17885.114999999998,-9192.195,-17000.325,-29161.44,-49889.205,-25197.795,-26139.69
1764505491.785514,19610.775,-17889.165,-9195.525,-17002.395,-29163.15,-49890.15,-25199.145,-26141.76
1764505491.785514,19611.675,-17887.59,-9193.545,-16999.649999999998,-29159.37,-49886.28,-25197.435,-26140.41
1764505491.785514,19612.62,-17887.23,-9193.005,-16999.92,-29159.19,-49886.73,-25198.155,-26140.635
