Timestamp,Channel1,Channel2,Channel3,Channel4,Channel5,Channel6,Channel7,Channel8
1764505333.2731738,20306.52,-15572.295,-10174.14,-17791.065,-29605.545,-51472.53,-25921.53,-26614.71
1764505333.2731738,20310.48,-15567.57,-10169.64,-17787.285,-29603.79,-51471.135,-25917.57,-26609.76
1764505333.2731738,20307.78,-15569.91,-10171.395,-17786.204999999998,-29601.09,-51467.85,-25917.975,-26611.965
1764505333.2731738,20308.095,-15568.965,-10170.18,-17783.864999999998,-29598.57,-51466.275,-25916.94,-26611.74
1764505333.2731738,20305.08,-15571.935,-10173.735,-17788.094999999998,-29602.89,-51470.505,-25919.505,-26614.08
1764505333.2731738,20308.095,-15568.695,-10171.08,-17786.114999999998,-29600.415,-51467.805,-25916.085,-26610.75
1764505333.2731738,20307.96,-15568.65,-10170.765,-17785.665,-29600.64,-51468.075,-25915.995,-26611.38
1764505333.2731738,20308.455,-15567.705,-10169.28,-17783.864999999998,-29599.29,-51466.59,-25915.455,-26610.795
1764505333.2731738,20306.97,-15569.325,-10170.315,-17784.18,-29599.83,-51467.445,-25915.68,-26611.38
1764505333.2731738,20304.585,-15571.755,-10173.015,-17787.195,-29603.115,-51470.505,-25918.065,-26614.17
1764505333.2741945,20306.835,-15568.38,-10170.585,-17784.63,-29600.325,-51467.94,-25915.005,-26611.47
1764505333.2741945,20306.16,-15568.83,-10170.225,-17785.035,-29600.73,-51468.3,-25914.78,-26611.605
1764505333.2741945,20303.46,-15572.115,-10172.52,-17787.329999999998,-29603.7,-51471.63,-25916.67,-26614.53
1764505333.2741945,20301.795,-15573.915,-10173.555,-17788.68,-29611.17,-51478.065,-25917.885,-26616.285
1764505333.2741945,20305.035,-15571.305,-10171.215,-17786.43,-29615.85,-51480.27,-25915.5,-26613.09
1764505333.2741945,20303.595,-15571.755,-10173.33,-17787.329999999998,-29612.205,-51478.605,-25916.355,-26613.675
1764505333.2741945,20304.36,-15570.18,-10171.17,-17784.495,-29597.13,-51466.905,-25914.87,-26612.73
1764505333.2741945,20302.56,-15572.115,-10173.15,-17786.835,-29595.645,-51464.565,-25915.77,-26613.945
1764505333.2741945,20304.765,-15569.955,-10170.315,-17784.765,-29598.21,-51466.725,-25913.52,-26611.605
1764505333.2741945,20300.895,-15572.655,-10173.195,-17787.645,-29601.27,-51470.145,-25916.175,-26614.71
1764505333.2741945,20302.2,-15571.44,-10171.8,-17786.43,-29599.515,-51468.39,-25914.24,-26613.405
1764505333.3211193,20306.295,-15567.93,-10167.795,-17782.469999999998,-29595.87,-51464.565,-25910.82,-26609.355
1764505333.3211193,20303.01,-15571.44,-10171.575,-17785.844999999998,-29599.38,-51467.94,-25914.51,-26612.325
1764505333.3211193,20304.36,-15569.91,-10170.54,-17783.64,-29597.805,-51466.545,-25912.62,-26610.03
1764505333.3211193,20306.025,-15568.29,-10168.965,-17781.795,-29596.32,-51465.42,-25910.82,-26608.725
1764505333.3211193,20307.105,-15566.58,-10166.895,-17780.355,-29594.655,-51463.44,-25908.84,-26607.015
1764505333.3211193,20304.045,-15570.135,-10170.27,-17783.954999999998,-29597.805,-51466.905,-25912.395,-26610.525
1764505333.3211193,20304.315,-15569.1,-10169.235,-17783.28,-29597.04,-51466.86,-25911.63,-26609.49
1764505333.3211193,20305.935,-15567.57,-10168.605,-17781.84,-29595.96,-51465.915,-25909.83,-26607.6
1764505333.3211193,20309.445,-15564.15,-10165.185,-17778.239999999998,-29592.855,-51462.855,-25906.68,-26604.09
1764505333.3211193,20308.59,-15564.915,-10166.22,-17779.005,-29592.315,-51463.035,-25907.22,-26605.125
1764505333.3211193,20307.87,-15565.095,-10166.94,-17779.094999999998,-29592.855,-51463.395,-25907.67,-26605.8
1764505333.3211193,20303.01,-15569.73,-10170.09,-17783.64,-29597.67,-51467.22,-25911.81,-26609.67
1764505333.3211193,20305.08,-15567.3,-10167.165,-17781.39,-29595.42,-51464.34,-25908.93,-26607.24
1764505333.3211193,20304.945,-15567.48,-10167.12,-17781.255,-29595.33,-51464.385,-25909.065,-26607.42
1764505333.3211193,20305.44,-15566.715,-10165.905,-17780.535,-29594.07,-51464.43,-25907.4,-26605.98
1764505333.3211193,20306.295,-15565.23,-10164.96,-17779.14,-29592.45,-51463.035,-25906.545,-26604.09
1764505333.3221483,20305.305,-15566.085,-10165.905,-17780.175,-29594.115,-51463.98,-25906.95,-26605.395
1764505333.3221483,20302.83,-15568.245,-10168.29,-17782.92,-29597.04,-51466.05,-25908.57,-26607.87
1764505333.3221483,20299.995,-15571.08,-10170.945,-17785.305,-29599.56,-51468.75,-25911.405,-26610.255
1764505333.3221483,20303.685,-15567.12,-10166.805,-17780.985,-29595.33,-51464.88,-25907.715,-26606.07
1764505333.3221483,20303.415,-15565.41,-10164.825,-17780.219999999998,-29594.43,-51463.935,-25906.275,-26605.08
1764505333.3221483,20300.535,-15567.705,-10167.345,-17781.93,-29596.365,-51466.05,-25908.03,-26607.24
1764505333.3221483,20300.76,-15568.155,-10167.795,-17781.795,-29596.59,-51465.69,-25908.165,-26607.555
1764505333.3221483,20299.365,-15569.64,-10169.415,-17783.145,-29598.3,-51467.445,-25910.055,-26608.95
1764505333.3697083,20297.07,-15571.53,-10172.205,-17784.989999999998,-29600.505,-51469.92,-25912.62,-26611.2
1764505333.3697083,20298.555,-15569.505,-10170.135,-17782.739999999998,-29598.39,-51467.94,-25909.965,-26608.725
1764505333.3697083,20298.195,-15570.09,-10169.82,-17782.875,-29597.895,-51467.4,-25909.2,-26608.95
1764505333.3697083,20294.415,-15573.15,-10173.6,-17786.745,-29601.405,-51470.64,-25912.26,-26612.28
1764505333.3697083,20297.16,-15569.865,-10170.99,-17783.73,-29598.48,-51468.075,-25909.83,-26609.49
1764505333.3697083,20297.565,-15569.955,-10170.72,-17783.19,-29597.49,-51466.995,-25909.875,-26609.13
1764505333.370725,20297.295,-15569.82,-10170.945,-17783.055,-29597.355,-51466.68,-25909.065,-26608.635
1764505333.370725,20294.955,-15572.205,-10172.79,-17785.755,-29599.83,-51469.47,-25911.36,-26610.975
1764505333.370725,20291.985,-15575.85,-10175.895,-17789.67,-29603.88,-51473.34,-25914.555,-26614.62
1764505333.370725,20291.94,-15575.715,-10176.03,-17789.219999999998,-29603.61,-51473.52,-25915.05,-26614.8
1764505333.370725,20295.18,-15571.71,-10172.43,-17785.89,-29599.605,-51469.83,-25911.36,-26611.47
1764505333.370725,20295.0,-15572.655,-10172.34,-17785.934999999998,-29599.47,-51470.415,-25911.585,-26611.965
1764505333.370725,20294.145,-15573.825,-10173.555,-17787.015,-29600.955,-51471.765,-25913.025,-26612.865
1764505333.370725,20289.6,-15578.28,-10178.595,-17791.38,-29605.815,-51475.59,-25917.84,-26617.5
1764505333.370725,20290.32,-15577.2,-10177.695,-17790.614999999998,-29605.095,-51475.095,-25917.03,-26616.33
1764505333.370725,20295.045,-15572.88,-10173.24,-17786.88,-29601.18,-51470.73,-25913.025,-26611.605
1764505333.370725,20295.135,-15573.465,-10173.33,-17786.655,-29601.405,-51471.18,-25913.475,-26611.605
1764505333.370725,20290.095,-15578.55,-10178.775,-17791.739999999998,-29606.58,-51476.355,-25919.145,-26616.825
1764505333.370725,20289.555,-15578.955,-10178.91,-17792.505,-29606.715,-51476.49,-25918.92,-26617.005
1764505333.370725,20289.6,-15579.27,-10178.91,-17792.774999999998,-29606.76,-51476.715,-25919.055,-26616.915
1764505333.370725,20290.41,-15578.685,-10177.74,-17792.594999999998,-29606.13,-51475.05,-25918.83,-26616.645
1764505333.370725,20290.05,-15579.0,-10177.965,-17792.594999999998,-29605.77,-51475.365,-25918.965,-26616.51
1764505333.370725,20290.32,-15578.685,-10177.38,-17792.415,-29605.5,-51474.78,-25918.695,-26615.97
1764505333.370725,20291.895,-15577.29,-10176.12,-17790.84,-29603.7,-51473.925,-25917.885,-26614.17
1764505333.417685,20291.895,-15578.235,-10177.425,-17791.605,-29604.555,-51474.645,-25918.605,-26614.71
1764505333.417685,20290.995,-15579.72,-10178.505,-17792.415,-29605.455,-51475.455,-25919.37,-26615.295
1764505333.417685,20290.005,-15579.99,-10178.37,-17793.315,-29605.5,-51476.04,-25919.505,-26616.33
1764505333.417685,20286.9,-15583.545,-10181.97,-17796.87,-29608.965,-51479.37,-25922.79,-26619.48
1764505333.417685,20289.06,-15581.43,-10180.26,-17793.945,-29606.445,-51477.165,-25920.495,-26617.23
1764505333.417685,20288.34,-15582.78,-10181.07,-17794.844999999998,-29607.795,-51477.165,-25921.89,-26618.715
1764505333.417685,20287.935,-15583.905,-10182.105,-17795.475,-29608.785,-51479.19,-25923.42,-26620.74
1764505333.417685,20283.93,-15587.64,-10186.155,-17800.29,-29613.15,-51483.33,-25927.515,-26624.88
1764505333.417685,20286.36,-15585.165,-10183.815,-17797.815,-29610.945,-51480.765,-25925.625,-26622.63
1764505333.417685,20285.82,-15585.39,-10183.59,-17797.5,-29610.675,-51480.54,-25925.76,-26622.63
1764505333.417685,20285.415,-15585.345,-10184.13,-17798.13,-29610.945,-51480.945,-25926.39,-26622.315
1764505333.418705,20284.83,-15585.795,-10184.805,-17799.165,-29610.99,-51481.485,-25926.93,-26623.08
1764505333.418705,20285.01,-15586.29,-10185.03,-17799.344999999998,-29611.395,-51481.98,-25926.84,-26623.08
1764505333.418705,20282.67,-15589.17,-10187.415,-17801.774999999998,-29613.87,-51484.185,-25929.63,-26624.565
1764505333.418705,20281.32,-15591.105,-10188.81,-17803.125,-29615.535,-51485.625,-25930.98,-26626.23
1764505333.418705,20278.755,-15593.445,-10191.42,-17805.195,-29618.64,-51487.965,-25933.455,-26628.57
1764505333.418705,20280.87,-15590.88,-10188.495,-17802.495,-29616.39,-51485.445,-25931.25,-26626.545
1764505333.4196982,20279.61,-15591.375,-10189.17,-17803.98,-29616.66,-51485.85,-25931.88,-26627.445
1764505333.4196982,20276.01,-15594.705,-10192.77,-17806.995,-29620.53,-51488.955,-25935.66,-26630.955
1764505333.4196982,20276.37,-15594.255,-10192.14,-17805.645,-29620.485,-51487.83,-25935.48,-26630.82
1764505333.4196982,20276.82,-15593.805,-10191.78,-17804.969999999998,-29619.675,-51488.37,-25934.895,-26630.775
1764505333.4196982,20280.375,-15589.845,-10187.55,-17801.37,-29615.58,-51484.77,-25930.44,-26627.355
1764505333.464568,20277.36,-15591.6,-10188.63,-17803.17,-29617.425,-51486.795,-25932.42,-26629.74
1764505333.464568,20272.77,-15596.595,-10193.22,-17808.344999999998,-29623.005,-51491.43,-25937.28,-26635.14
1764505333.464568,20274.48,-15595.92,-10192.005,-17807.265,-29621.565,-51490.53,-25935.84,-26634.51
1764505333.464568,20273.4,-15596.73,-10192.86,-17807.805,-29622.42,-51492.375,-25936.695,-26634.96
1764505333.464568,20271.78,-15597.945,-10194.84,-17809.425,-29624.22,-51493.5,-25938.72,-26636.895
1764505333.464568,20268.135,-15601.545,-10198.215,-17812.844999999998,-29627.595,-51496.92,-25942.68,-26640.675
1764505333.464568,20261.88,-15606.405,-10203.165,-17817.255,-29632.725,-51501.69,-25948.26,-26646.48
1764505333.464568,20261.25,-15607.305,-10203.345,-17817.614999999998,-29632.995,-51501.915,-25947.945,-26647.065
1764505333.464568,20263.005,-15605.64,-10201.905,-17816.355,-29631.69,-51500.565,-25947.09,-26645.22
1764505333.464568,20260.305,-15607.665,-10204.38,-17818.875,-29634.3,-51502.995,-25949.7,-26648.055
1764505333.464568,20262.915,-15606.27,-10202.715,-17816.94,-29632.32,-51500.835,-25947.54,-26646.84
1764505333.4660769,20259.135,-15610.32,-10206.765,-17821.215,-29636.64,-51504.705,-25952.22,-26650.665
1764505333.4660769,20262.15,-15607.62,-10203.885,-17818.245,-29633.715,-51502.14,-25949.43,-26647.605
1764505333.4660769,20260.17,-15609.465,-10206.045,-17820.765,-29635.74,-51504.615,-25951.095,-26649.495
1764505333.4660769,20260.26,-15609.78,-10205.865,-17821.26,-29635.92,-51504.705,-25951.365,-26648.82
1764505333.4660769,20261.835,-15608.43,-10205.28,-17820.585,-29634.57,-51503.49,-25951.005,-26647.155
1764505333.4660769,20265.075,-15605.505,-10201.77,-17817.03,-29631.51,-51500.025,-25947.18,-26643.645
1764505333.4660769,20261.97,-15608.565,-10204.38,-17819.82,-29633.985,-51503.355,-25950.42,-26645.67
1764505333.4660769,20261.565,-15609.105,-10204.65,-17820.09,-29633.94,-51503.445,-25950.69,-26644.77
1764505333.4660769,20266.11,-15604.47,-10199.745,-17815.59,-29628.765,-51498.315,-25945.83,-26639.28
1764505333.4660769,20267.55,-15603.615,-10198.395,-17814.825,-29627.145,-51497.73,-25944.615,-26637.3
1764505333.4660769,20266.92,-15604.38,-10199.745,-17816.04,-29628.765,-51498.54,-25945.47,-26638.335
1764505333.4660769,20266.38,-15605.19,-10201.095,-17816.04,-29629.755,-51499.305,-25946.865,-26639.055
1764505333.4660769,20263.77,-15608.835,-10204.29,-17818.515,-29633.04,-51502.365,-25950.51,-26642.43
1764505333.5104046,20264.76,-15607.665,-10203.21,-17817.48,-29631.915,-51500.52,-25949.07,-26641.305
1764505333.5104046,20267.505,-15604.38,-10200.105,-17814.69,-29628.72,-51496.74,-25946.28,-26638.29
1764505333.5104046,20265.21,-15607.305,-10202.49,-17817.704999999998,-29631.69,-51499.395,-25949.16,-26640.675
1764505333.5104046,20266.785,-15605.73,-10200.69,-17815.95,-29629.53,-51497.01,-25947.18,-26639.19
1764505333.5104046,20264.895,-15607.98,-10202.535,-17817.39,-29630.115,-51499.305,-25948.44,-26640.81
1764505333.5104046,20269.305,-15602.49,-10197.81,-17812.71,-29625.075,-51494.715,-25943.49,-26635.905
1764505333.5104046,20269.53,-15602.58,-10196.685,-17812.17,-29625.39,-51493.5,-25943.265,-26635.41
1764505333.5104046,20266.38,-15606.18,-10199.655,-17815.905,-29629.215,-51497.28,-25947.315,-26639.595
1764505333.5104046,20268.315,-15603.75,-10198.215,-17813.655,-29626.515,-51495.165,-25945.47,-26637.795
1764505333.5104046,20263.86,-15607.8,-10202.265,-17817.75,-29631.15,-51498.81,-25948.44,-26641.755
1764505333.5104046,20262.195,-15609.87,-10203.57,-17818.29,-29631.78,-51499.62,-25949.16,-26643.015
1764505333.5104046,20260.845,-15610.905,-10204.65,-17819.055,-29631.915,-51499.665,-25950.285,-26644.05
1764505333.5104046,20261.07,-15610.59,-10203.975,-17819.01,-29632.05,-51499.575,-25950.465,-26644.365
1764505333.5104046,20262.555,-15608.97,-10202.22,-17817.93,-29630.565,-51498.18,-25949.115,-26643.24
1764505333.5104046,20260.44,-15610.95,-10204.605,-17820.315,-29632.95,-51500.745,-25951.095,-26646.345
1764505333.5104046,20263.095,-15606.99,-10200.555,-17816.489999999998,-29629.8,-51496.92,-25947.36,-26642.925
1764505333.5104046,20261.745,-15607.935,-10201.635,-17817.21,-29630.565,-51498.225,-25948.395,-26643.87
1764505333.5113845,20258.1,-15612.48,-10206.18,-17820.945,-29634.255,-51502.14,-25952.895,-26647.83
1764505333.5113845,20259.765,-15611.13,-10204.605,-17819.235,-29632.41,-51500.205,-25950.69,-26646.345
1764505333.5113845,20259.225,-15610.185,-10203.705,-17818.965,-29631.24,-51499.755,-25949.88,-26646.03
1764505333.512383,20256.795,-15612.75,-10206.315,-17821.26,-29633.76,-51502.005,-25952.895,-26649.09
1764505333.512383,20260.485,-15608.97,-10202.76,-17817.57,-29630.52,-51498.225,-25949.25,-26645.31
1764505333.5133853,20260.26,-15609.6,-10202.625,-17818.38,-29630.97,-51498.945,-25949.205,-26645.355
1764505333.5133853,20258.955,-15610.59,-10203.975,-17819.64,-29632.14,-51499.98,-25950.6,-26646.03
1764505333.5586314,20257.245,-15612.93,-10205.955,-17821.53,-29634.03,-51502.005,-25952.13,-26647.74
1764505333.5586314,20260.08,-15609.645,-10202.22,-17817.03,-29630.835,-51498.675,-25948.755,-26643.915
1764505333.5586314,20259.45,-15610.41,-10203.255,-17817.21,-29631.33,-51498.945,-25949.07,-26644.005
1764505333.5586314,20254.995,-15614.775,-10207.305,-17822.024999999998,-29634.885,-51503.715,-25953.075,-26648.19
1764505333.5586314,20254.635,-15614.505,-10207.35,-17822.52,-29634.795,-51503.445,-25952.67,-26648.505
1764505333.5596335,20257.11,-15611.67,-10204.74,-17820.27,-29632.635,-51500.205,-25949.97,-26646.03
1764505333.5596335,20255.715,-15613.425,-10206.36,-17821.62,-29634.795,-51502.545,-25951.41,-26649.045
1764505333.5596335,20258.145,-15610.095,-10203.57,-17818.649999999998,-29632.32,-51499.755,-25948.845,-26645.445
1764505333.5596335,20255.355,-15611.49,-10205.055,-17819.91,-29634.03,-51501.195,-25950.825,-26646.66
1764505333.5596335,20255.67,-15610.095,-10203.39,-17818.11,-29632.815,-51500.16,-25948.71,-26645.175
1764505333.5596335,20258.91,-15606.765,-10199.88,-17814.465,-29629.44,-51496.74,-25944.84,-26641.53
1764505333.5596335,20256.525,-15608.43,-10201.005,-17815.68,-29630.565,-51497.82,-25945.74,-26642.52
1764505333.5596335,20259.585,-15604.47,-10198.17,-17811.54,-29627.415,-51494.175,-25942.455,-26639.505
1764505333.5596335,20259.0,-15604.965,-10198.305,-17811.765,-29627.595,-51494.895,-25942.725,-26640.27
1764505333.5596335,20256.66,-15607.53,-10200.465,-17814.105,-29629.17,-51496.695,-25944.39,-26641.71
1764505333.5596335,20259.135,-15604.2,-10197.675,-17810.864999999998,-29626.38,-51493.995,-25940.205,-26638.83
1764505333.5596335,20258.73,-15604.83,-10197.18,-17811.045,-29625.75,-51493.995,-25940.205,-26638.65
1764505333.5596335,20258.37,-15604.74,-10197.225,-17811.0,-29625.12,-51494.895,-25940.79,-26638.92
1764505333.5596335,20257.47,-15605.19,-10197.855,-17811.63,-29625.93,-51494.535,-25941.195,-26639.55
1764505333.5596335,20257.47,-15605.01,-10196.955,-17811.18,-29626.65,-51494.13,-25940.25,-26639.1
1764505333.5596335,20258.145,-15604.605,-10196.37,-17809.965,-29625.93,-51493.59,-25938.945,-26638.38
1764505333.5611467,20258.1,-15603.75,-10195.155,-17808.84,-29625.03,-51492.24,-25938.0,-26637.57
1764505333.5611467,20258.82,-15601.725,-10193.67,-17807.715,-29623.41,-51490.845,-25936.74,-26635.545
1764505333.5611467,20256.03,-15604.47,-10195.92,-17809.92,-29626.065,-51493.23,-25939.71,-26638.155
1764505333.6036515,20252.52,-15607.845,-10198.755,-17813.61,-29629.485,-51496.74,-25942.095,-26641.53
1764505333.6036515,20253.87,-15605.865,-10196.955,-17812.26,-29627.235,-51495.03,-25939.845,-26638.92
1764505333.6036515,20257.335,-15601.815,-10193.22,-17808.795,-29623.86,-51491.925,-25936.965,-26635.095
1764505333.6036515,20256.525,-15602.355,-10194.255,-17809.605,-29625.345,-51493.5,-25937.37,-26636.67
1764505333.6036515,20252.43,-15605.955,-10197.765,-17812.62,-29628.225,-51496.92,-25940.79,-26639.64
1764505333.6036515,20254.86,-15603.03,-10194.885,-17809.38,-29625.165,-51492.645,-25937.1,-26636.22
1764505333.6036515,20254.635,-15603.39,-10194.75,-17809.559999999998,-29625.345,-51492.6,-25937.01,-26636.535
1764505333.6036515,20255.175,-15602.31,-10193.4,-17808.704999999998,-29624.175,-51492.33,-25936.2,-26636.4
1764505333.6036515,20254.365,-15602.76,-10193.67,-17808.704999999998,-29624.13,-51492.645,-25936.74,-26636.625
1764505333.6036515,20252.655,-15604.785,-10195.065,-17810.505,-29626.155,-51494.445,-25938.045,-26637.975
1764505333.6036515,20249.865,-15607.395,-10197.63,-17814.465,-29635.695,-51501.33,-25940.565,-26640.765
1764505333.6036515,20251.035,-15606.99,-10198.035,-17816.355,-29643.75,-51508.17,-25940.88,-26639.865
1764505333.6036515,20250.225,-15607.305,-10198.62,-17816.489999999998,-29642.355,-51508.035,-25941.69,-26639.91
1764505333.6036515,20248.335,-15608.34,-10198.395,-17812.62,-29625.93,-51493.995,-25940.925,-26641.305
1764505333.6036515,20251.755,-15604.695,-10193.76,-17807.355,-29615.31,-51483.87,-25936.605,-26637.57
1764505333.6046498,20249.91,-15606.0,-10194.525,-17809.605,-29623.32,-51491.43,-25938.18,-26639.01
1764505333.6046498,20253.51,-15602.085,-10191.375,-17807.13,-29621.205,-51489.45,-25935.12,-26635.545
1764505333.6046498,20253.51,-15601.77,-10191.105,-17805.465,-29620.71,-51489.675,-25934.58,-26634.69
1764505333.6046498,20251.53,-15603.435,-10191.735,-17806.5,-29622.06,-51490.755,-25935.48,-26636.715
1764505333.6046498,20249.955,-15605.28,-10193.805,-17808.795,-29624.13,-51492.78,-25937.145,-26639.01
1764505333.6046498,20246.58,-15608.025,-10196.955,-17812.17,-29626.965,-51495.975,-25939.755,-26642.205
1764505333.6046498,20247.975,-15605.505,-10194.885,-17809.92,-29624.76,-51493.815,-25936.875,-26639.505
1764505333.6482775,20246.13,-15607.44,-10197.045,-17811.765,-29626.515,-51496.695,-25939.35,-26641.44
1764505333.6482775,20246.4,-15606.18,-10195.92,-17810.505,-29626.38,-51496.02,-25938.225,-26641.08
1764505333.6482775,20249.82,-15602.625,-10192.32,-17806.815,-29623.365,-51493.365,-25934.49,-26637.93
1764505333.6482775,20249.865,-15602.265,-10190.97,-17806.094999999998,-29622.06,-51492.375,-25933.455,-26637.39
1764505333.6482775,20250.27,-15601.32,-10189.665,-17804.52,-29622.465,-51493.14,-25932.645,-26636.58
1764505333.6482775,20250.495,-15600.645,-10188.72,-17803.89,-29625.795,-51495.12,-25931.88,-26636.22
1764505333.6482775,20249.28,-15601.905,-10189.8,-17804.565,-29627.28,-51496.83,-25932.555,-26637.75
1764505333.6482775,20248.11,-15602.49,-10190.295,-17804.385,-29622.195,-51493.275,-25933.05,-26638.965
1764505333.6482775,20249.595,-15599.655,-10188.315,-17803.395,-29615.94,-51488.37,-25929.9,-26635.635
1764505333.6482775,20246.58,-15602.49,-10190.385,-17805.645,-29619.9,-51492.78,-25931.925,-26638.245
1764505333.6482775,20247.48,-15601.95,-10189.845,-17804.295,-29620.665,-51493.14,-25931.205,-26637.39
1764505333.6482775,20248.965,-15599.565,-10187.325,-17801.37,-29617.605,-51490.395,-25929.225,-26635.68
1764505333.6482775,20252.07,-15596.145,-10183.455,-17798.13,-29614.365,-51487.47,-25925.22,-26632.215
1764505333.6482775,20250.72,-15598.53,-10185.12,-17799.795,-29616.345,-51489.0,-25926.39,-26633.925
1764505333.6482775,20246.22,-15603.39,-10189.665,-17804.07,-29620.71,-51493.59,-25931.655,-26638.38
1764505333.6482775,20246.535,-15602.175,-10189.035,-17802.989999999998,-29619.675,-51492.69,-25931.025,-26637.93
1764505333.6482775,20249.91,-15597.18,-10185.39,-17798.489999999998,-29615.13,-51488.595,-25926.03,-26633.43
1764505333.6482775,20248.065,-15597.54,-10186.245,-17799.48,-29616.705,-51489.72,-25926.435,-26634.51
1764505333.6482775,20247.705,-15598.08,-10186.02,-17799.66,-29617.155,-51490.44,-25926.345,-26635.23
1764505333.6482775,20247.075,-15598.215,-10186.38,-17800.11,-29617.785,-51490.755,-25926.75,-26635.095
1764505333.6493006,20246.04,-15598.35,-10186.785,-17800.2,-29618.505,-51491.205,-25926.795,-26635.41
1764505333.6493006,20242.575,-15600.96,-10189.53,-17802.09,-29621.025,-51494.58,-25929.495,-26638.56
1764505333.692096,20245.23,-15598.08,-10187.415,-17799.614999999998,-29618.64,-51492.465,-25926.435,-26636.22
1764505333.692096,20244.555,-15598.845,-10188.27,-17800.155,-29618.865,-51492.6,-25926.39,-26636.355
1764505333.692096,20243.835,-15599.34,-10188.99,-17800.065,-29619.72,-51492.96,-25925.67,-26636.94
1764505333.692096,20243.925,-15599.295,-10188.855,-17800.2,-29619.9,-51493.14,-25925.58,-26636.805
1764505333.692096,20246.67,-15595.92,-10185.12,-17797.454999999998,-29617.29,-51490.44,-25922.925,-26633.565
1764505333.6931193,20242.71,-15599.745,-10189.125,-17801.28,-29620.89,-51494.265,-25926.435,-26638.065
1764505333.6931193,20242.71,-15598.89,-10188.18,-17800.515,-29619.765,-51493.68,-25925.58,-26637.165
1764505333.6931193,20242.8,-15598.755,-10187.955,-17800.829999999998,-29619.945,-51493.32,-25924.59,-26636.58
1764505333.6931193,20243.07,-15598.845,-10187.19,-17800.695,-29619.54,-51492.465,-25923.69,-26635.995
1764505333.6931193,20246.31,-15594.57,-10183.365,-17796.285,-29616.345,-51488.73,-25919.955,-26632.08
1764505333.6931193,20244.6,-15596.1,-10184.715,-17797.995,-29617.695,-51489.99,-25921.89,-26633.295
1764505333.6931193,20247.615,-15593.49,-10182.915,-17796.105,-29615.715,-51488.145,-25919.595,-26630.865
1764505333.6931193,20244.42,-15596.82,-10186.155,-17799.614999999998,-29619.63,-51491.61,-25922.79,-26634.375
1764505333.6931193,20245.95,-15595.605,-10184.67,-17798.219999999998,-29617.83,-51489.945,-25921.035,-26632.845
1764505333.6931193,20249.145,-15592.365,-10181.43,-17794.305,-29614.5,-51486.795,-25917.885,-26629.56
1764505333.6931193,20246.445,-15596.055,-10184.31,-17798.219999999998,-29617.29,-51490.08,-25920.855,-26632.08
1764505333.6931193,20250.495,-15592.545,-10180.17,-17794.305,-29613.87,-51486.435,-25917.12,-26628.03
1764505333.6931193,20251.485,-15591.105,-10179.54,-17792.684999999998,-29612.97,-51485.895,-25916.13,-26626.365
1764505333.6931193,20250.72,-15592.095,-10180.305,-17793.315,-29613.42,-51486.615,-25916.805,-26626.185
1764505333.6931193,20247.93,-15595.74,-10183.68,-17796.915,-29616.39,-51489.765,-25920.27,-26629.2
1764505333.6931193,20249.46,-15594.975,-10182.915,-17796.78,-29615.895,-51489.495,-25919.325,-26628.48
1764505333.6941175,20250.72,-15593.04,-10181.565,-17795.61,-29613.87,-51487.47,-25917.075,-26626.455
1764505333.6941175,20250.0,-15594.39,-10182.78,-17796.329999999998,-29614.995,-51488.37,-25918.11,-26627.58
1764505333.6941175,20248.155,-15596.64,-10184.715,-17798.489999999998,-29617.065,-51489.81,-25920.09,-26628.3
1764505333.7408028,20251.17,-15593.625,-10181.655,-17795.79,-29614.32,-51487.065,-25917.075,-26624.61
1764505333.7413132,20250.405,-15594.84,-10182.78,-17796.69,-29614.77,-51488.325,-25918.155,-26625.825
1764505333.7413132,20250.045,-15596.37,-10183.95,-17798.67,-29616.165,-51489.495,-25919.55,-26627.265
1764505333.7413132,20245.95,-15600.195,-10187.865,-17802.495,-29619.99,-51493.32,-25923.78,-26631.27
1764505333.7413132,20245.005,-15601.365,-10188.405,-17802.765,-29619.99,-51493.455,-25924.905,-26632.08
1764505333.7413132,20247.3,-15600.105,-10187.415,-17801.28,-29618.19,-51492.015,-25923.6,-26631.09
1764505333.7413132,20245.41,-15603.12,-10189.89,-17804.52,-29621.52,-51494.22,-25927.29,-26633.925
1764505333.7413132,20244.015,-15605.1,-10192.14,-17806.95,-29623.41,-51495.615,-25928.955,-26635.365
1764505333.7413132,20241.27,-15609.465,-10196.46,-17810.73,-29628.36,-51499.665,-25933.455,-26639.865
1764505333.7413132,20242.575,-15609.33,-10195.92,-17810.864999999998,-29627.19,-51498.63,-25933.545,-26638.605
1764505333.7413132,20245.41,-15607.395,-10193.085,-17808.885,-29624.94,-51495.975,-25931.835,-26635.815
1764505333.7413132,20241.045,-15613.065,-10198.215,-17814.78,-29630.385,-51501.33,-25937.505,-26641.17
1764505333.7413132,20240.505,-15615.045,-10200.105,-17815.725,-29631.015,-51502.545,-25939.935,-26641.935
1764505333.7413132,20242.08,-15613.785,-10199.52,-17814.51,-29629.8,-51501.015,-25938.99,-26641.035
1764505333.7413132,20237.715,-15619.005,-10204.83,-17819.64,-29635.29,-51505.065,-25943.94,-26646.345
1764505333.7413132,20237.355,-15619.86,-10204.65,-17820.495,-29636.28,-51505.695,-25945.695,-26646.93
1764505333.7413132,20238.705,-15620.22,-10203.84,-17821.305,-29636.145,-51506.1,-25946.595,-26646.93
1764505333.7413132,20243.25,-15615.855,-10199.745,-17817.075,-29632.77,-51502.545,-25943.085,-26643.42
1764505333.7413132,20243.97,-15615.18,-10200.105,-17816.94,-29631.825,-51501.87,-25942.725,-26644.095
1764505333.7413132,20243.07,-15615.855,-10200.78,-17818.29,-29632.32,-51501.825,-25943.895,-26644.275
1764505333.7413132,20242.62,-15615.9,-10200.24,-17818.245,-29632.5,-51501.825,-25944.03,-26644.455
1764505333.7413132,20238.435,-15620.49,-10205.19,-17822.925,-29636.865,-51506.145,-25949.115,-26650.17
1764505333.7413132,20239.56,-15620.805,-10205.055,-17821.62,-29637.045,-51505.56,-25948.98,-26649.855
1764505333.7413132,20241.99,-15619.32,-10202.895,-17819.415,-29635.425,-51503.895,-25947.54,-26648.37
1764505333.7862992,20238.435,-15622.56,-10205.955,-17823.465,-29638.215,-51507.765,-25951.005,-26652.105
1764505333.7862992,20240.145,-15621.345,-10204.83,-17822.475,-29637.54,-51506.505,-25950.24,-26651.925
1764505333.7862992,20238.57,-15623.82,-10207.755,-17825.67,-29640.24,-51508.845,-25952.85,-26654.805
1764505333.7862992,20237.895,-15624.315,-10208.79,-17827.02,-29640.825,-51509.34,-25954.065,-26655.93
1764505333.7862992,20237.76,-15624.54,-10208.655,-17826.255,-29641.185,-51510.15,-25954.02,-26656.29
1764505333.7862992,20241.495,-15620.265,-10204.29,-17822.07,-29636.955,-51505.965,-25950.195,-26652.78
1764505333.7862992,20241.81,-15620.085,-10204.965,-17822.43,-29637.585,-51505.92,-25950.78,-26653.32
1764505333.7862992,20240.955,-15621.39,-10206.495,-17824.41,-29639.43,-51507.225,-25953.12,-26653.815
1764505333.7873125,20240.505,-15622.695,-10206.99,-17825.625,-29640.465,-51507.765,-25953.84,-26653.725
1764505333.7873125,20236.59,-15626.655,-10210.275,-17828.1,-29643.885,-51510.87,-25956.675,-26656.47
1764505333.7873125,20237.67,-15626.34,-10210.275,-17827.695,-29642.985,-51510.555,-25956.09,-26655.615
1764505333.7873125,20240.595,-15623.37,-10207.8,-17824.32,-29639.745,-51508.125,-25953.48,-26652.465
1764505333.7873125,20238.93,-15625.44,-10209.375,-17826.075,-29641.725,-51509.88,-25955.37,-26653.95
1764505333.7873125,20238.66,-15625.17,-10209.15,-17826.344999999998,-29641.32,-51508.935,-25955.19,-26653.455
1764505333.7873125,20240.28,-15623.64,-10207.08,-17824.454999999998,-29639.07,-51506.73,-25953.48,-26651.475
1764505333.7873125,20239.2,-15626.07,-10209.24,-17826.3,-29640.465,-51508.665,-25955.37,-26652.915
1764505333.7873125,20240.955,-15624.18,-10207.935,-17824.23,-29639.43,-51507.09,-25953.615,-26651.07
1764505333.7873125,20238.12,-15626.16,-10210.23,-17827.02,-29642.265,-51509.97,-25956.72,-26653.95
1764505333.7883253,20241.54,-15622.965,-10207.08,-17824.95,-29639.61,-51506.865,-25953.165,-26650.89
1764505333.7883253,20240.28,-15623.73,-10207.26,-17825.04,-29638.845,-51507.315,-25953.84,-26651.97
1764505333.7883253,20238.795,-15624.9,-10208.52,-17825.265,-29639.97,-51508.8,-25954.65,-26653.32
1764505333.7883253,20238.435,-15626.115,-10209.645,-17826.524999999998,-29641.14,-51508.98,-25955.82,-26653.14
1764505333.832903,20238.03,-15626.655,-10210.32,-17827.245,-29641.77,-51509.475,-25955.64,-26653.905
1764505333.832903,20237.67,-15626.43,-10209.915,-17827.11,-29642.49,-51509.745,-25955.64,-26654.355
1764505333.832903,20234.97,-15628.59,-10211.985,-17830.125,-29644.875,-51511.95,-25957.665,-26657.415
1764505333.832903,20236.545,-15627.33,-10210.32,-17828.145,-29642.67,-51510.51,-25956.045,-26656.02
1764505333.832903,20240.37,-15623.775,-10206.045,-17823.87,-29639.295,-51506.595,-25952.13,-26652.285
1764505333.832903,20238.435,-15624.27,-10207.08,-17825.489999999998,-29640.105,-51507.36,-25953.75,-26653.5
1764505333.832903,20236.455,-15626.61,-10209.78,-17828.145,-29642.76,-51509.25,-25955.82,-26655.93
1764505333.832903,20240.505,-15623.505,-10205.64,-17823.6,-29638.53,-51506.1,-25951.77,-26651.88
1764505333.832903,20240.73,-15622.83,-10205.325,-17822.745,-29638.53,-51506.46,-25951.905,-26651.655
1764505333.832903,20239.74,-15622.965,-10205.28,-17823.375,-29639.115,-51507.63,-25952.49,-26652.06
1764505333.8359,20236.365,-15626.205,-10208.34,-17825.94,-29641.365,-51510.105,-25955.145,-26654.985
1764505333.8359,20238.66,-15623.28,-10206.18,-17823.015,-29637.765,-51506.37,-25952.04,-26652.33
1764505333.8359,20236.86,-15624.99,-10206.765,-17824.59,-29639.79,-51508.215,-25952.985,-26653.32
1764505333.8359,20240.235,-15621.075,-10201.815,-17821.035,-29635.74,-51503.895,-25948.08,-26650.215
1764505333.8359,20239.695,-15620.355,-10202.175,-17820.989999999998,-29635.515,-51503.625,-25947.81,-26649.9
1764505333.8359,20236.23,-15624.09,-10205.595,-17824.14,-29639.025,-51506.955,-25950.465,-26652.915
1764505333.8359,20239.875,-15620.04,-10201.365,-17820.45,-29635.92,-51503.895,-25946.64,-26649.54
1764505333.8359,20237.4,-15622.47,-10203.705,-17822.565,-29637.99,-51505.965,-25949.25,-26652.105
1764505333.8359,20238.21,-15621.57,-10201.905,-17821.125,-29636.64,-51504.795,-25947.495,-26650.53
1764505333.8359,20236.005,-15623.1,-10204.155,-17823.239999999998,-29638.17,-51506.46,-25949.385,-26652.645
1764505333.8359,20238.12,-15620.58,-10202.355,-17821.17,-29636.1,-51504.39,-25946.955,-26650.935
1764505333.8359,20235.465,-15624.09,-10205.235,-17824.094999999998,-29638.755,-51507.09,-25949.475,-26654.805
1764505333.8359,20234.7,-15624.99,-10205.28,-17824.41,-29639.52,-51507.765,-25949.295,-26655.66
1764505333.8359,20235.51,-15623.01,-10203.84,-17823.105,-29638.575,-51506.55,-25947.54,-26653.635
1764505333.8801525,20238.12,-15620.13,-10201.14,-17820.09,-29635.875,-51503.535,-25944.57,-26650.575
1764505333.8801525,20234.7,-15623.235,-10204.29,-17823.105,-29639.025,-51507.0,-25947.945,-26653.635
1764505333.8801525,20234.43,-15623.235,-10204.155,-17822.88,-29639.205,-51506.685,-25948.125,-26653.59
1764505333.8801525,20234.835,-15622.65,-10203.615,-17822.25,-29638.89,-51505.56,-25947.18,-26653.455
1764505333.8801525,20237.625,-15618.915,-10200.06,-17819.37,-29635.425,-51502.455,-25943.67,-26649.72
1764505333.8811543,20235.51,-15620.715,-10201.725,-17820.765,-29637.0,-51504.21,-25945.875,-26651.475
1764505333.8811543,20237.805,-15618.51,-10199.205,-17818.29,-29635.245,-51502.185,-25943.22,-26648.415
1764505333.8811543,20234.295,-15622.695,-10203.12,-17821.53,-29638.08,-51505.29,-25945.83,-26651.52
1764505333.8811543,20234.07,-15622.605,-10202.67,-17821.71,-29637.765,-51505.245,-25945.29,-26651.43
1764505333.8811543,20237.58,-15618.15,-10198.305,-17816.94,-29633.22,-51501.33,-25940.79,-26647.965
1764505333.88223,20237.625,-15617.835,-10196.955,-17816.04,-29631.87,-51500.565,-25940.205,-26647.785
1764505333.88223,20233.35,-15621.84,-10201.005,-17820.225,-29636.325,-51504.885,-25944.075,-26651.79
1764505333.88223,20234.07,-15620.805,-10199.88,-17818.875,-29635.02,-51503.895,-25942.77,-26650.485
1764505333.88223,20237.31,-15616.755,-10196.145,-17814.87,-29630.655,-51500.115,-25939.17,-26646.525
1764505333.8832293,20234.745,-15618.465,-10198.845,-17817.255,-29632.59,-51502.41,-25941.015,-26648.145
1764505333.8832293,20233.62,-15618.69,-10199.16,-17818.065,-29633.265,-51503.175,-25941.195,-26648.685
1764505333.8832293,20233.215,-15618.51,-10198.62,-17817.48,-29633.13,-51502.995,-25941.33,-26648.37
1764505333.8832293,20234.295,-15618.33,-10197.315,-17815.725,-29632.545,-51501.78,-25940.385,-26648.235
1764505333.8842323,20236.86,-15615.9,-10194.795,-17813.34,-29630.115,-51499.17,-25937.055,-26645.58
1764505333.8842323,20234.835,-15617.97,-10197.27,-17815.815,-29631.78,-51501.825,-25938.99,-26646.84
1764505333.8842323,20238.21,-15614.865,-10193.31,-17812.89,-29628.72,-51497.955,-25935.57,-26643.24
1764505333.8842323,20237.67,-15615.36,-10194.345,-17813.34,-29630.025,-51498.315,-25936.425,-26644.095
1764505333.9287095,20236.005,-15616.17,-10195.695,-17814.015,-29631.105,-51499.89,-25936.92,-26645.355
1764505333.9287095,20232.18,-15619.77,-10199.385,-17816.805,-29634.885,-51503.355,-25941.24,-26648.955
1764505333.9297063,20232.72,-15620.805,-10199.52,-17816.985,-29635.065,-51503.355,-25941.24,-26649.18
1764505333.9297063,20233.26,-15619.68,-10197.945,-17816.399999999998,-29633.445,-51502.095,-25940.07,-26648.28
1764505333.9297063,20235.87,-15616.575,-10194.255,-17813.024999999998,-29630.295,-51498.315,-25936.02,-26644.59
1764505333.9297063,20236.185,-15616.485,-10194.03,-17813.07,-29630.16,-51497.82,-25935.75,-26644.77
1764505333.9297063,20235.87,-15617.115,-10195.2,-17814.42,-29630.79,-51499.215,-25937.325,-26645.985
1764505333.9297063,20236.005,-15616.665,-10194.75,-17813.295,-29630.295,-51498.0,-25936.695,-26645.4
1764505333.9297063,20236.41,-15616.08,-10194.165,-17812.844999999998,-29629.395,-51497.415,-25935.57,-26644.635
1764505333.9297063,20234.07,-15618.195,-10195.74,-17814.329999999998,-29630.835,-51500.205,-25937.235,-26646.39
1764505333.9297063,20231.055,-15621.615,-10197.99,-17817.795,-29633.67,-51502.77,-25940.115,-26649.27
1764505333.9297063,20235.06,-15617.34,-10194.57,-17814.195,-29629.935,-51498.495,-25936.29,-26645.445
1764505333.9297063,20234.88,-15617.43,-10195.245,-17814.645,-29630.205,-51499.62,-25936.47,-26645.31
1764505333.9297063,20233.08,-15619.32,-10196.505,-17815.77,-29632.185,-51500.97,-25937.73,-26647.02
1764505333.9297063,20238.21,-15614.955,-10191.915,-17810.864999999998,-29627.595,-51496.02,-25932.465,-26642.295
1764505333.9297063,20239.245,-15613.065,-10190.34,-17809.695,-29626.47,-51494.67,-25931.205,-26640.54
1764505333.9297063,20237.445,-15615.36,-10192.185,-17812.215,-29628.855,-51496.47,-25933.455,-26642.16
1764505333.9297063,20241.405,-15610.14,-10187.64,-17806.59,-29623.815,-51491.97,-25927.875,-26638.155
1764505333.9297063,20242.35,-15608.115,-10186.2,-17804.43,-29621.745,-51490.485,-25925.4,-26636.85
1764505333.9297063,20239.29,-15610.725,-10189.08,-17806.815,-29623.77,-51492.78,-25927.695,-26639.1
1764505333.9297063,20243.16,-15607.485,-10185.48,-17802.945,-29620.17,-51488.73,-25924.005,-26634.6
1764505333.9297063,20244.06,-15606.54,-10184.4,-17801.91,-29618.595,-51487.425,-25921.44,-26633.07
1764505333.9297063,20243.43,-15606.585,-10184.67,-17801.954999999998,-29619.405,-51487.875,-25921.125,-26633.745
1764505333.9297063,20242.53,-15607.665,-10184.895,-17802.945,-29620.215,-51488.64,-25921.665,-26634.195
1764505333.974342,20239.965,-15610.23,-10187.28,-17805.915,-29622.915,-51490.98,-25924.545,-26635.32
1764505333.974342,20241.0,-15608.925,-10185.57,-17804.745,-29622.15,-51490.305,-25923.555,-26634.6
1764505333.974342,20244.51,-15605.73,-10182.375,-17801.46,-29619.36,-51487.47,-25920.18,-26631.945
1764505333.974342,20244.555,-15606.0,-10182.465,-17800.785,-29618.73,-51487.245,-25919.46,-26631.675
1764505333.974342,20243.88,-15606.405,-10183.545,-17800.785,-29619.315,-51487.695,-25920.09,-26631.9
1764505333.9748788,20239.29,-15611.22,-10187.865,-17805.465,-29623.635,-51492.645,-25924.77,-26636.175
1764505333.9748788,20241.585,-15608.34,-10184.715,-17803.215,-29621.115,-51490.125,-25921.98,-26633.745
1764505333.9748788,20238.795,-15611.67,-10187.685,-17806.68,-29624.58,-51493.32,-25924.32,-26636.04
1764505333.9748788,20239.47,-15611.715,-10187.505,-17806.635,-29624.535,-51492.78,-25924.365,-26635.59
1764505333.9748788,20243.205,-15607.755,-10183.905,-17803.215,-29620.845,-51488.91,-25920.72,-26632.08
1764505333.9748788,20242.935,-15607.71,-10184.445,-17803.17,-29620.215,-51488.685,-25920.765,-26632.665
1764505333.9748788,20241.9,-15608.07,-10183.815,-17802.495,-29620.08,-51488.865,-25920.855,-26632.98
1764505333.9748788,20239.695,-15610.995,-10186.47,-17805.645,-29621.97,-51490.98,-25924.095,-26635.635
1764505333.9748788,20243.655,-15606.495,-10182.33,-17800.739999999998,-29617.83,-51486.93,-25919.955,-26631.855
1764505333.9748788,20244.375,-15604.92,-10180.62,-17799.614999999998,-29616.21,-51485.805,-25918.155,-26630.37
1764505333.9748788,20242.53,-15606.405,-10181.79,-17801.64,-29616.48,-51487.155,-25919.1,-26631.945
1764505333.9748788,20245.68,-15602.58,-10179.135,-17797.86,-29612.565,-51484.275,-25915.365,-26628.84
1764505333.9748788,20244.24,-15604.605,-10180.665,-17798.94,-29614.32,-51485.49,-25916.715,-26630.1
1764505333.9748788,20248.515,-15600.24,-10176.3,-17794.844999999998,-29610.405,-51480.765,-25911.945,-26625.825
1764505333.9748788,20248.875,-15599.565,-10175.58,-17794.844999999998,-29609.955,-51481.08,-25911.18,-26625.78
1764505333.9748788,20247.57,-15600.915,-10177.605,-17795.969999999998,-29612.115,-51483.105,-25913.565,-26627.355
1764505333.9748788,20249.505,-15598.98,-10175.31,-17793.315,-29609.82,-51480.585,-25910.73,-26624.79
1764505333.9748788,20247.48,-15600.555,-10177.11,-17795.16,-29612.295,-51482.43,-25911.99,-26626.815
1764505333.9748788,20250.495,-15596.55,-10173.6,-17791.649999999998,-29608.695,-51478.965,-25908.705,-26623.08
1764505334.018784,20251.53,-15594.84,-10171.44,-17789.94,-29606.49,-51477.48,-25907.265,-26621.37
1764505334.018784,20249.505,-15595.74,-10172.655,-17791.515,-29607.03,-51479.055,-25908.03,-26622.09
1764505334.018784,20249.01,-15596.235,-10172.43,-17791.605,-29607.84,-51479.505,-25906.995,-26622.315
1764505334.018784,20247.885,-15597.315,-10173.33,-17792.01,-29609.415,-51480.405,-25908.615,-26623.215
1764505334.0198543,20245.59,-15599.7,-10175.985,-17794.035,-29611.53,-51483.15,-25911.0,-26625.285
1764505334.0198543,20246.4,-15598.755,-10175.13,-17793.405,-29610.54,-51482.25,-25909.245,-26625.06
1764505334.0198543,20247.075,-15596.82,-10173.24,-17791.965,-29609.325,-51480.585,-25907.4,-26623.395
1764505334.0198543,20249.145,-15593.445,-10170.27,-17788.59,-29606.175,-51477.705,-25904.385,-26620.38
1764505334.0198543,20247.39,-15595.47,-10171.305,-17790.434999999998,-29607.57,-51479.595,-25906.905,-26622.36
1764505334.0198543,20250.585,-15592.05,-10168.065,-17787.51,-29604.6,-51476.94,-25903.71,-26619.57
1764505334.0198543,20252.61,-15589.935,-10165.995,-17785.53,-29603.295,-51474.825,-25900.92,-26617.14
1764505334.0198543,20251.08,-15591.465,-10167.255,-17787.285,-29605.095,-51476.49,-25902.09,-26618.715
1764505334.0198543,20249.46,-15593.58,-10169.28,-17789.085,-29606.67,-51478.02,-25903.44,-26619.39
1764505334.0198543,20246.445,-15596.685,-10172.07,-17792.28,-29608.785,-51480.45,-25905.96,-26622.36
1764505334.0198543,20249.82,-15594.12,-10168.92,-17789.04,-29605.815,-51476.895,-25903.17,-26620.155
1764505334.0198543,20247.525,-15595.695,-10170.765,-17790.12,-29607.48,-51478.875,-25904.97,-26622.18
1764505334.0198543,20242.395,-15599.97,-10174.365,-17793.855,-29611.575,-51482.88,-25908.48,-26626.05
1764505334.0198543,20244.015,-15598.44,-10173.24,-17793.135,-29610.315,-51482.025,-25907.04,-26624.97
1764505334.0198543,20244.105,-15597.99,-10173.375,-17792.864999999998,-29610.54,-51481.98,-25907.04,-26625.465
1764505334.0198543,20243.88,-15598.17,-10172.52,-17793.315,-29610.585,-51481.44,-25906.995,-26626.095
1764505334.0198543,20244.735,-15597.9,-10172.52,-17793.045,-29611.395,-51480.945,-25906.77,-26626.095
1764505334.0198543,20239.875,-15601.95,-10176.615,-17796.465,-29615.715,-51485.58,-25911.135,-26630.19
1764505334.0198543,20240.685,-15601.05,-10175.22,-17795.52,-29614.5,-51484.68,-25910.28,-26628.39
1764505334.0198543,20243.655,-15598.62,-10172.43,-17792.505,-29610.945,-51480.765,-25907.4,-26626.14
1764505334.0669842,20243.655,-15598.395,-10172.25,-17792.64,-29610.9,-51480.405,-25907.085,-26626.005
1764505334.0669842,20242.44,-15598.845,-10172.52,-17793.54,-29611.8,-51481.665,-25908.12,-26626.905
1764505334.0669842,20239.605,-15601.275,-10175.58,-17795.745,-29614.635,-51484.23,-25910.55,-26629.56
1764505334.0669842,20239.695,-15601.23,-10175.175,-17795.295,-29614.095,-51483.555,-25909.56,-26630.145
1764505334.0669842,20241.855,-15599.07,-10172.97,-17792.235,-29611.395,-51481.35,-25907.355,-26627.355
1764505334.0669842,20239.83,-15601.185,-10174.86,-17793.54,-29613.015,-51483.42,-25908.93,-26629.47
1764505334.0669842,20242.935,-15596.595,-10170.63,-17789.715,-29609.235,-51479.82,-25904.34,-26626.185
1764505334.0669842,20240.685,-15599.115,-10172.745,-17792.19,-29611.35,-51482.07,-25906.14,-26628.525
1764505334.0669842,20236.545,-15603.705,-10176.93,-17796.69,-29615.4,-51486.21,-25910.37,-26632.62
1764505334.0669842,20235.915,-15603.84,-10177.155,-17797.05,-29615.175,-51486.615,-25910.28,-26632.89
1764505334.0669842,20239.425,-15600.42,-10172.475,-17792.594999999998,-29610.765,-51482.925,-25906.23,-26629.065
1764505334.0669842,20238.795,-15600.285,-10173.195,-17793.989999999998,-29611.89,-51483.42,-25906.59,-26628.93
1764505334.0669842,20236.365,-15602.94,-10175.535,-17795.475,-29614.23,-51485.49,-25909.155,-26631.45
1764505334.0669842,20239.11,-15600.24,-10172.565,-17791.515,-29610.045,-51481.53,-25905.195,-26628.705
1764505334.0669842,20238.795,-15600.015,-10172.745,-17792.145,-29610.405,-51482.115,-25904.565,-26628.165
1764505334.067535,20235.96,-15602.4,-10175.4,-17794.934999999998,-29612.79,-51485.445,-25907.355,-26631.72
1764505334.067535,20240.28,-15597.54,-10171.17,-17790.075,-29607.57,-51480.855,-25903.665,-26627.355
1764505334.067535,20239.47,-15598.89,-10172.25,-17791.29,-29608.74,-51481.17,-25905.105,-26628.66
1764505334.067535,20237.895,-15601.365,-10174.68,-17794.215,-29611.17,-51483.42,-25907.13,-26630.73
1764505334.067535,20239.605,-15598.53,-10171.89,-17791.92,-29608.92,-51480.585,-25904.295,-26628.39
1764505334.067535,20239.83,-15598.62,-10171.08,-17790.975,-29608.695,-51480.315,-25903.485,-26627.625
1764505334.067535,20237.76,-15601.005,-10173.06,-17792.954999999998,-29610.585,-51482.655,-25905.78,-26629.965
1764505334.114576,20234.43,-15604.155,-10176.57,-17796.239999999998,-29613.645,-51486.075,-25908.84,-26633.565
1764505334.114576,20235.105,-15603.39,-10175.31,-17794.755,-29612.655,-51485.265,-25907.715,-26632.98
1764505334.114576,20235.645,-15602.085,-10174.005,-17793.09,-29611.395,-51484.14,-25906.815,-26631.495
1764505334.114576,20239.74,-15599.205,-10171.17,-17789.085,-29607.48,-51479.64,-25902.99,-26627.535
1764505334.114576,20240.28,-15598.35,-10170.405,-17788.635,-29607.57,-51479.1,-25902.315,-26627.13
1764505334.1155975,20235.87,-15602.04,-10173.69,-17792.64,-29611.53,-51483.105,-25905.96,-26630.595
1764505334.1155975,20237.22,-15600.555,-10171.89,-17791.02,-29609.28,-51481.62,-25904.295,-26628.615
1764505334.1155975,20233.755,-15604.695,-10175.49,-17794.35,-29613.195,-51485.445,-25908.255,-26632.98
1764505334.1155975,20232.855,-15605.145,-10176.345,-17795.114999999998,-29614.455,-51486.705,-25908.705,-26634.645
1764505334.1155975,20234.385,-15603.66,-10175.04,-17794.305,-29613.69,-51485.265,-25907.805,-26633.34
1764505334.1155975,20231.73,-15606.09,-10177.965,-17797.184999999998,-29616.39,-51487.65,-25910.55,-26636.22
1764505334.1155975,20234.745,-15603.705,-10174.455,-17794.305,-29613.87,-51485.04,-25907.805,-26634.06
1764505334.1155975,20234.61,-15603.975,-10174.59,-17794.53,-29613.555,-51485.445,-25908.03,-26633.79
1764505334.1155975,20234.385,-15604.425,-10175.625,-17794.71,-29614.185,-51486.255,-25908.705,-26633.97
1764505334.1165934,20234.205,-15605.37,-10176.165,-17795.79,-29615.265,-51487.155,-25910.01,-26634.915
1764505334.1165934,20231.37,-15608.835,-10180.08,-17799.344999999998,-29618.505,-51489.99,-25913.745,-26639.01
1764505334.1165934,20229.03,-15611.22,-10182.915,-17802.405,-29620.98,-51492.24,-25916.49,-26640.675
1764505334.1165934,20230.425,-15609.15,-10181.025,-17800.965,-29619.27,-51490.215,-25914.87,-26637.975
1764505334.1165934,20228.445,-15613.02,-10183.77,-17804.07,-29622.915,-51493.815,-25918.245,-26641.035
1764505334.1165934,20227.725,-15614.46,-10184.94,-17805.059999999998,-29623.95,-51494.535,-25919.82,-26642.25
1764505334.117589,20227.635,-15614.64,-10185.93,-17805.42,-29623.815,-51495.705,-25920.54,-26642.52
1764505334.117589,20229.84,-15612.615,-10183.86,-17803.395,-29621.43,-51493.86,-25918.74,-26640.045
1764505334.117589,20229.48,-15613.65,-10184.625,-17804.88,-29623.32,-51494.265,-25920.045,-26640.765
1764505334.117589,20226.465,-15616.89,-10187.145,-17807.85,-29626.695,-51496.56,-25923.375,-26643.555
1764505334.1625874,20229.21,-15615.765,-10186.065,-17806.23,-29625.03,-51494.805,-25920.765,-26641.62
1764505334.1625874,20226.06,-15620.04,-10190.43,-17810.1,-29629.125,-51498.45,-25925.04,-26645.58
1764505334.1625874,20228.355,-15617.565,-10188.54,-17807.94,-29626.47,-51496.2,-25923.33,-26644.005
1764505334.1625874,20227.905,-15618.51,-10189.17,-17808.614999999998,-29626.965,-51497.64,-25924.5,-26644.995
1764505334.1631155,20225.07,-15622.92,-10192.995,-17812.71,-29630.475,-51500.97,-25928.73,-26648.865
1764505334.1631155,20224.62,-15624.27,-10195.47,-17814.329999999998,-29632.23,-51502.23,-25929.63,-26649.765
1764505334.1631155,20223.855,-15625.26,-10196.595,-17815.454999999998,-29633.49,-51503.04,-25931.25,-26649.945
1764505334.1631155,20223.405,-15625.89,-10196.415,-17816.489999999998,-29633.94,-51503.49,-25932.24,-26650.08
1764505334.1631155,20224.35,-15625.845,-10196.505,-17816.489999999998,-29633.67,-51502.41,-25932.06,-26650.62
1764505334.1631155,20228.67,-15622.11,-10192.41,-17812.8,-29629.305,-51498.27,-25928.37,-26646.975
1764505334.1631155,20228.31,-15622.65,-10192.635,-17814.42,-29629.53,-51498.765,-25929.36,-26646.75
1764505334.1631155,20224.935,-15627.42,-10196.91,-17818.695,-29633.13,-51502.5,-25933.905,-26651.07
1764505334.1631155,20229.345,-15624.18,-10194.165,-17815.77,-29629.89,-51499.08,-25931.43,-26648.19
1764505334.1631155,20228.67,-15625.53,-10195.38,-17816.85,-29631.78,-51500.205,-25933.14,-26649.81
1764505334.1631155,20227.14,-15627.105,-10196.82,-17818.245,-29633.85,-51501.87,-25935.255,-26652.195
1764505334.1631155,20226.96,-15628.005,-10198.035,-17819.19,-29633.94,-51502.905,-25935.84,-26653.455
1764505334.1631155,20223.495,-15632.595,-10202.085,-17823.825,-29638.35,-51507.18,-25940.205,-26657.595
1764505334.1631155,20224.305,-15632.865,-10202.175,-17823.51,-29638.395,-51506.55,-25940.115,-26657.28
1764505334.1631155,20226.69,-15631.29,-10200.915,-17822.565,-29637.45,-51504.705,-25939.53,-26656.02
1764505334.1631155,20229.48,-15628.275,-10198.665,-17820.27,-29634.615,-51501.78,-25938.18,-26654.13
1764505334.1631155,20230.11,-15628.635,-10198.53,-17820.18,-29634.075,-51502.365,-25938.405,-26654.13
1764505334.1631155,20228.13,-15631.605,-10200.6,-17823.465,-29636.64,-51504.525,-25941.33,-26656.92
1764505334.1631155,20228.58,-15633.045,-10202.355,-17824.094999999998,-29637.765,-51504.795,-25941.78,-26658.0
1764505334.1631155,20228.13,-15633.405,-10202.76,-17824.995,-29638.305,-51505.92,-25942.68,-26659.215
1764505334.2074423,20227.275,-15635.115,-10204.425,-17826.704999999998,-29639.88,-51507.99,-25945.11,-26661.015
1764505334.2197962,20225.925,-15637.41,-10206.495,-17829.36,-29642.22,-51510.42,-25947.27,-26663.31
1764505334.2197962,20226.645,-15636.33,-10205.595,-17829.405,-29641.095,-51508.98,-25945.92,-26661.555
1764505334.2197962,20227.005,-15634.665,-10203.165,-17827.245,-29638.665,-51506.145,-25943.985,-26658.81
1764505334.2197962,20224.8,-15636.87,-10204.92,-17829.045,-29641.095,-51508.305,-25946.01,-26661.24
1764505334.2207894,20228.625,-15633.405,-10200.825,-17825.265,-29637.99,-51505.29,-25942.905,-26657.505
1764505334.2207894,20228.13,-15633.855,-10200.06,-17826.39,-29637.855,-51506.595,-25943.445,-26658.54
1764505334.2207894,20224.305,-15637.455,-10204.515,-17829.855,-29640.645,-51509.79,-25946.235,-26662.59
1764505334.2207894,20227.275,-15634.845,-10201.905,-17826.614999999998,-29638.125,-51506.505,-25943.13,-26659.44
1764505334.2207894,20226.915,-15634.305,-10200.87,-17826.12,-29637.315,-51505.29,-25942.815,-26659.395
1764505334.2217925,20225.655,-15635.43,-10201.95,-17826.39,-29638.395,-51507.135,-25944.3,-26660.79
1764505334.2217925,20223.855,-15637.68,-10204.695,-17828.82,-29640.465,-51509.115,-25946.145,-26663.265
1764505334.2224798,20226.825,-15634.845,-10201.455,-17825.355,-29637.9,-51505.695,-25942.545,-26659.8
1764505334.2224798,20223.405,-15637.32,-10203.3,-17827.605,-29641.095,-51507.945,-25944.48,-26662.59
1764505334.2224798,20225.61,-15634.215,-10200.195,-17824.545,-29638.305,-51504.615,-25941.735,-26659.08
1764505334.2224798,20225.79,-15633.18,-10199.97,-17824.005,-29636.73,-51504.075,-25940.7,-26658.765
1764505334.2234938,20225.835,-15632.37,-10199.745,-17823.195,-29635.515,-51503.04,-25939.17,-26658.45
1764505334.2234938,20222.19,-15635.655,-10202.715,-17826.614999999998,-29639.25,-51506.415,-25942.41,-26661.555
1764505334.2234938,20224.53,-15632.955,-10200.33,-17823.825,-29636.64,-51503.805,-25939.98,-26658.99
1764505334.2234938,20222.91,-15634.665,-10201.545,-17825.04,-29637.45,-51505.335,-25941.42,-26660.295
1764505334.2234938,20225.565,-15631.47,-10198.215,-17821.89,-29634.975,-51502.095,-25937.37,-26656.74
1764505334.2234938,20223.405,-15633.405,-10200.555,-17823.6,-29636.64,-51503.58,-25937.955,-26658.81
1764505334.253296,20226.96,-15629.715,-10196.505,-17820.045,-29633.04,-51499.44,-25934.175,-26655.39
1764505334.253296,20226.6,-15628.905,-10196.055,-17819.145,-29632.815,-51498.36,-25933.185,-26654.76
1764505334.253296,20226.285,-15628.68,-10195.875,-17818.605,-29631.96,-51497.82,-25931.655,-26653.59
1764505334.253296,20226.24,-15627.96,-10195.65,-17818.739999999998,-29631.285,-51496.83,-25931.43,-26652.6
1764505334.253296,20227.05,-15627.015,-10194.795,-17817.84,-29629.98,-51496.245,-25930.395,-26652.24
1764505334.253296,20226.105,-15627.645,-10195.065,-17818.245,-29630.205,-51497.415,-25930.98,-26653.545
1764505334.253296,20225.295,-15628.23,-10194.525,-17818.605,-29630.43,-51497.55,-25931.115,-26653.41
1764505334.253296,20223.225,-15630.3,-10196.865,-17820.225,-29631.87,-51498.945,-25932.465,-26654.445
1764505334.2553225,20225.61,-15627.915,-10194.255,-17817.614999999998,-29629.62,-51496.335,-25930.305,-26652.24
1764505334.2553225,20222.055,-15632.055,-10198.395,-17821.079999999998,-29633.58,-51500.34,-25934.22,-26656.515
1764505334.2553225,20223.81,-15630.345,-10196.64,-17819.55,-29632.32,-51498.45,-25932.465,-26654.4
1764505334.2553225,20223.27,-15629.67,-10196.37,-17819.594999999998,-29632.095,-51498.27,-25932.6,-26654.355
1764505334.2553225,20226.915,-15625.89,-10193.085,-17816.489999999998,-29629.575,-51494.985,-25928.595,-26650.665
1764505334.2553225,20225.925,-15626.115,-10193.535,-17817.795,-29629.98,-51495.345,-25928.865,-26651.61
1764505334.256323,20229.705,-15623.19,-10189.845,-17813.969999999998,-29626.11,-51492.24,-25925.13,-26648.73
1764505334.256323,20228.13,-15625.53,-10191.24,-17815.005,-29627.73,-51494.4,-25926.93,-26650.26
1764505334.256323,20227.32,-15625.665,-10191.465,-17815.41,-29628.27,-51494.445,-25927.605,-26650.44
1764505334.256323,20228.535,-15624.63,-10191.24,-17815.14,-29627.82,-51493.365,-25927.29,-26650.125
1764505334.256323,20228.535,-15625.215,-10191.645,-17815.95,-29628.63,-51493.815,-25928.145,-26650.395
1764505334.256323,20226.285,-15627.825,-10193.49,-17818.38,-29630.52,-51495.795,-25930.17,-26652.24
1764505334.256323,20228.4,-15626.385,-10192.23,-17817.165,-29629.035,-51494.895,-25928.955,-26650.98
1764505334.256323,20232.585,-15622.065,-10187.37,-17811.855,-29624.67,-51490.35,-25924.725,-26646.48
1764505334.256323,20233.98,-15621.075,-10186.605,-17810.864999999998,-29623.68,-51489.36,-25923.51,-26645.67
1764505334.256323,20233.8,-15621.255,-10187.19,-17810.73,-29624.355,-51488.37,-25922.655,-26645.4
1764505334.3008664,20234.025,-15622.38,-10186.875,-17810.28,-29624.22,-51488.415,-25922.61,-26645.535
1764505334.3008664,20232.855,-15624.0,-10187.46,-17811.765,-29625.03,-51490.08,-25924.32,-26647.155
1764505334.3021126,20229.39,-15627.015,-10190.835,-17815.41,-29628.045,-51493.23,-25927.29,-26649.99
1764505334.3021126,20230.2,-15626.655,-10190.34,-17815.05,-29627.82,-51492.51,-25926.795,-26649.315
1764505334.3021126,20232.72,-15623.55,-10187.685,-17812.305,-29625.345,-51489.765,-25924.32,-26646.345
1764505334.303126,20229.435,-15626.565,-10190.88,-17815.005,-29627.955,-51492.645,-25926.975,-26649.405
1764505334.303126,20230.695,-15624.99,-10189.665,-17814.329999999998,-29626.785,-51491.61,-25925.715,-26647.83
1764505334.303126,20233.44,-15622.695,-10186.605,-17811.45,-29623.905,-51488.64,-25922.745,-26644.86
1764505334.303126,20237.895,-15617.655,-10182.06,-17806.68,-29619.72,-51484.32,-25918.065,-26640.765
1764505334.303126,20238.255,-15616.17,-10180.395,-17804.88,-29617.83,-51482.52,-25915.995,-26638.965
1764505334.304127,20238.435,-15615.9,-10179.99,-17805.195,-29617.11,-51482.295,-25916.265,-26638.47
1764505334.304127,20235.645,-15619.32,-10183.59,-17809.245,-29621.745,-51486.39,-25919.64,-26642.565
1764505334.304127,20239.56,-15615.81,-10179.855,-17805.6,-29617.875,-51483.42,-25915.815,-26639.415
1764505334.304127,20236.77,-15619.095,-10182.465,-17808.344999999998,-29621.295,-51485.31,-25918.38,-26641.98
1764505334.304127,20238.12,-15617.205,-10181.115,-17806.905,-29620.305,-51484.455,-25916.895,-26640.585
1764505334.3051252,20239.83,-15614.505,-10178.865,-17804.565,-29617.875,-51482.25,-25913.7,-26638.605
1764505334.3051252,20237.13,-15618.105,-10181.34,-17807.399999999998,-29620.53,-51485.445,-25916.67,-26641.755
1764505334.3051252,20237.22,-15618.24,-10181.34,-17808.12,-29620.575,-51486.165,-25916.895,-26641.935
1764505334.3051252,20238.705,-15616.755,-10179.855,-17806.05,-29618.415,-51483.825,-25915.005,-26640.225
1764505334.306127,20239.02,-15615.9,-10179.135,-17805.239999999998,-29617.695,-51483.42,-25914.33,-26639.91
1764505334.306127,20240.46,-15614.595,-10177.965,-17804.43,-29616.705,-51482.295,-25912.98,-26638.92
1764505334.306127,20238.525,-15615.99,-10179.63,-17805.825,-29617.695,-51483.465,-25913.7,-26640.54
1764505334.306127,20240.37,-15614.325,-10177.335,-17803.934999999998,-29615.895,-51482.52,-25911.81,-26638.47
1764505334.306127,20240.775,-15612.84,-10176.57,-17802.495,-29615.13,-51481.035,-25910.595,-26637.48
1764505334.3460786,20241.225,-15613.29,-10176.39,-17802.405,-29615.22,-51480.855,-25910.64,-26637.84
1764505334.3460786,20242.26,-15612.57,-10174.995,-17801.594999999998,-29614.905,-51479.46,-25909.875,-26636.76
1764505334.3460786,20241.81,-15612.57,-10175.49,-17802.18,-29614.905,-51479.505,-25910.235,-26636.67
1764505334.3478053,20241.045,-15613.47,-10176.615,-17802.495,-29615.85,-51480.855,-25910.595,-26638.11
1764505334.3478053,20241.135,-15612.795,-10176.345,-17801.505,-29615.31,-51480.0,-25910.01,-26637.885
1764505334.3478053,20240.055,-15613.11,-10177.02,-17801.684999999998,-29615.22,-51480.135,-25910.055,-26637.3
1764505334.3478053,20238.48,-15614.91,-10178.235,-17803.755,-29617.335,-51482.475,-25911.9,-26639.19
1764505334.3478053,20238.03,-15614.955,-10178.28,-17803.35,-29617.38,-51483.285,-25912.44,-26640.27
1764505334.3478053,20238.12,-15614.37,-10177.92,-17802.27,-29616.57,-51482.43,-25911.81,-26639.37
1764505334.3478053,20238.615,-15614.1,-10177.605,-17801.954999999998,-29616.615,-51481.53,-25910.73,-26638.065
1764505334.3478053,20237.535,-15614.73,-10178.28,-17802.405,-29617.02,-51482.16,-25910.685,-26638.92
1764505334.3478053,20234.7,-15617.565,-10180.62,-17804.88,-29618.595,-51484.545,-25913.43,-26642.205
1764505334.3478053,20238.03,-15613.065,-10176.795,-17801.37,-29614.5,-51480.9,-25910.01,-26637.93
1764505334.349336,20238.12,-15612.93,-10176.39,-17800.875,-29615.22,-51480.9,-25909.335,-26636.94
1764505334.349336,20243.115,-15607.44,-10170.36,-17795.43,-29610.27,-51475.14,-25903.215,-26631.63
1764505334.349336,20243.52,-15605.685,-10169.145,-17793.989999999998,-29608.065,-51473.79,-25901.73,-26630.37
1764505334.349336,20242.935,-15606.315,-10170.045,-17794.755,-29609.145,-51475.275,-25901.73,-26631.495
1764505334.349336,20241.36,-15608.025,-10171.215,-17795.7,-29610.72,-51476.355,-25903.71,-26633.745
1764505334.349336,20237.67,-15611.58,-10174.68,-17798.76,-29614.275,-51480.225,-25906.545,-26637.03
1764505334.349336,20237.67,-15610.365,-10173.825,-17798.399999999998,-29613.6,-51479.55,-25905.24,-26635.41
1764505334.349336,20241.27,-15605.865,-10169.91,-17794.665,-29609.955,-51475.545,-25901.775,-26631.54
1764505334.349336,20241.54,-15606.18,-10169.505,-17793.989999999998,-29609.505,-51474.915,-25901.28,-26631.765
1764505334.3978217,20240.955,-15606.765,-10170.045,-17794.305,-29610.36,-51475.725,-25901.505,-26632.62
1764505334.3978217,20238.525,-15609.33,-10172.385,-17796.239999999998,-29612.61,-51478.605,-25903.44,-26634.96
1764505334.3978217,20242.35,-15605.82,-10168.56,-17792.64,-29609.145,-51475.05,-25899.03,-26630.82
1764505334.3978217,20242.215,-15605.19,-10167.75,-17791.739999999998,-29608.47,-51475.32,-25898.265,-26629.74
1764505334.3978217,20241.63,-15605.55,-10168.38,-17792.684999999998,-29609.415,-51475.815,-25898.58,-26629.875
1764505334.3978217,20239.56,-15608.52,-10170.81,-17795.204999999998,-29611.53,-51478.02,-25901.46,-26632.17
1764505334.3978217,20236.455,-15611.715,-10173.465,-17797.41,-29613.6,-51480.18,-25904.07,-26634.915
1764505334.3978217,20237.67,-15609.915,-10171.665,-17795.835,-29612.61,-51478.56,-25902.855,-26633.07
1764505334.3978217,20236.41,-15611.58,-10173.105,-17797.905,-29614.05,-51480.405,-25905.105,-26634.69
1764505334.3978217,20239.83,-15608.79,-10169.775,-17794.8,-29610.99,-51476.67,-25902.18,-26632.08
1764505334.3978217,20239.425,-15609.42,-10170.72,-17794.8,-29611.755,-51477.39,-25901.91,-26631.99
1764505334.3978217,20239.695,-15609.42,-10170.54,-17795.385,-29611.395,-51477.66,-25901.055,-26631.045
1764505334.3978217,20238.12,-15610.86,-10171.665,-17796.735,-29612.52,-51479.19,-25902.495,-26632.035
1764505334.3978217,20236.455,-15612.615,-10173.465,-17798.715,-29614.455,-51480.54,-25904.43,-26634.015
1764505334.3978217,20240.28,-15609.915,-10170.27,-17795.745,-29611.53,-51476.535,-25901.46,-26630.64
1764505334.3978217,20237.895,-15612.345,-10172.565,-17798.265,-29613.87,-51479.145,-25904.655,-26633.34
1764505334.3978217,20241.09,-15608.43,-10168.695,-17794.62,-29610.18,-51475.725,-25901.145,-26629.695
1764505334.3978217,20240.28,-15610.23,-10169.955,-17795.52,-29611.755,-51476.895,-25901.82,-26630.595
1764505334.3978217,20237.085,-15614.415,-10174.005,-17799.795,-29615.535,-51480.495,-25905.78,-26633.745
1764505334.3978217,20236.41,-15614.955,-10174.455,-17800.335,-29616.03,-51481.08,-25907.085,-26634.285
1764505334.3988445,20236.815,-15614.73,-10173.555,-17799.524999999998,-29615.85,-51481.125,-25906.41,-26633.79
1764505334.3988445,20238.93,-15613.335,-10171.98,-17797.725,-29614.635,-51479.145,-25904.295,-26632.53
1764505334.3988445,20243.16,-15609.375,-10168.47,-17793.945,-29610.315,-51475.32,-25900.74,-26628.795
1764505334.3988445,20245.005,-15607.62,-10166.445,-17792.19,-29608.065,-51473.745,-25899.075,-26626.77
1764505334.4415276,20245.32,-15608.205,-10166.715,-17792.1,-29607.795,-51473.16,-25899.705,-26626.32
1764505334.4415276,20243.61,-15610.14,-10168.425,-17793.855,-29609.28,-51474.96,-25901.055,-26628.255
1764505334.4415276,20242.935,-15610.815,-10168.605,-17794.395,-29610.765,-51475.86,-25901.82,-26628.84
1764505334.4415276,20241.36,-15612.615,-10170.27,-17796.149999999998,-29612.565,-51477.795,-25904.025,-26630.955
1764505334.4415276,20243.385,-15609.555,-10167.975,-17793.809999999998,-29610.09,-51475.455,-25902.135,-26628.795
1764505334.4415276,20241.27,-15611.94,-10169.415,-17795.7,-29611.845,-51476.715,-25903.98,-26631.18
1764505334.4415276,20242.755,-15610.725,-10168.65,-17795.79,-29611.485,-51475.68,-25902.675,-26629.965
1764505334.4415276,20245.32,-15607.845,-10166.58,-17793.045,-29608.605,-51472.89,-25900.92,-26627.13
1764505334.4415276,20242.755,-15610.455,-10169.64,-17795.745,-29610.63,-51475.68,-25903.485,-26629.965
1764505334.4415276,20244.96,-15608.115,-10166.94,-17792.864999999998,-29608.11,-51473.43,-25901.415,-26627.535
1764505334.4415276,20243.7,-15609.51,-10168.155,-17793.855,-29609.91,-51474.69,-25902.855,-26629.11
1764505334.4415276,20238.705,-15613.92,-10172.115,-17797.725,-29614.635,-51478.605,-25907.58,-26633.88
1764505334.4415276,20241.945,-15610.275,-10168.74,-17794.305,-29611.125,-51475.77,-25904.295,-26630.91
1764505334.4415276,20241.63,-15611.04,-10169.595,-17794.53,-29611.755,-51476.22,-25904.385,-26631.36
1764505334.4415276,20242.26,-15610.59,-10169.73,-17793.989999999998,-29611.71,-51476.805,-25903.98,-26630.955
1764505334.4415276,20241.0,-15612.165,-10170.99,-17794.755,-29612.835,-51477.795,-25904.745,-26631.945
1764505334.4415276,20237.985,-15615.18,-10173.87,-17797.95,-29616.12,-51480.54,-25907.49,-26635.095
1764505334.4415276,20237.4,-15615.63,-10173.87,-17798.489999999998,-29616.03,-51481.035,-25908.3,-26636.04
1764505334.4415276,20238.39,-15614.64,-10172.475,-17797.68,-29614.905,-51480.27,-25906.86,-26634.87
1764505334.4415276,20242.755,-15609.645,-10168.425,-17792.82,-29610.495,-51474.96,-25901.955,-26630.775
1764505334.4415276,20242.305,-15610.005,-10168.47,-17793.045,-29610.495,-51475.5,-25901.955,-26630.955
1764505334.4415276,20237.49,-15615.09,-10172.79,-17797.77,-29615.13,-51480.945,-25906.545,-26634.69
1764505334.4415276,20238.66,-15614.19,-10171.8,-17797.59,-29614.635,-51481.305,-25905.375,-26633.475
1764505334.4415276,20240.955,-15611.49,-10169.28,-17795.024999999998,-29611.665,-51478.38,-25902.855,-26631.045
1764505334.491001,20238.705,-15613.47,-10171.98,-17797.32,-29613.465,-51479.775,-25904.34,-26633.115
1764505334.491001,20237.985,-15614.73,-10172.61,-17797.815,-29614.32,-51480.18,-25904.925,-26634.105
1764505334.491001,20239.2,-15613.65,-10171.305,-17796.555,-29613.465,-51479.46,-25903.53,-26633.16
1764505334.491001,20239.335,-15613.245,-10171.395,-17796.015,-29613.285,-51478.65,-25902.72,-26632.44
1764505334.491001,20242.26,-15609.915,-10168.83,-17793.495,-29610.945,-51476.265,-25900.065,-26629.38
1764505334.491001,20243.79,-15608.925,-10167.255,-17792.235,-29609.955,-51476.04,-25899.21,-26628.705
1764505334.491001,20243.97,-15608.295,-10166.805,-17791.515,-29609.73,-51475.275,-25898.625,-26628.03
1764505334.491001,20239.38,-15612.705,-10171.125,-17795.43,-29613.6,-51479.415,-25903.08,-26632.845
1764505334.491001,20241.855,-15610.635,-10168.65,-17792.954999999998,-29611.125,-51477.165,-25900.425,-26630.28
1764505334.491001,20238.48,-15614.19,-10173.06,-17796.87,-29615.355,-51481.125,-25903.575,-26633.475
1764505334.491001,20240.955,-15611.58,-10170.495,-17794.44,-29612.7,-51478.29,-25900.785,-26631.315
1764505334.491001,20238.255,-15613.83,-10173.105,-17796.195,-29614.365,-51479.595,-25903.35,-26633.475
1764505334.491001,20238.12,-15614.325,-10173.105,-17796.465,-29614.95,-51479.19,-25904.07,-26633.43
1764505334.491001,20238.795,-15613.605,-10171.845,-17795.52,-29613.465,-51478.875,-25902.81,-26632.62
1764505334.491001,20242.395,-15609.42,-10167.615,-17791.515,-29609.955,-51475.41,-25898.49,-26629.065
1764505334.491001,20243.475,-15608.205,-10165.86,-17790.165,-29608.245,-51474.105,-25897.095,-26628.255
1764505334.491001,20244.735,-15607.17,-10164.78,-17789.355,-29606.715,-51473.475,-25895.655,-26627.13
1764505334.491001,20242.08,-15610.77,-10167.57,-17791.559999999998,-29610.225,-51476.04,-25898.94,-26630.055
1764505334.491001,20244.825,-15607.8,-10164.6,-17789.489999999998,-29607.975,-51473.655,-25895.745,-26626.995
1764505334.491001,20241.135,-15611.355,-10168.29,-17793.135,-29611.62,-51476.985,-25899.255,-26630.685
1764505334.491001,20240.19,-15612.03,-10169.1,-17794.395,-29611.395,-51477.885,-25900.38,-26631.63
1764505334.491001,20240.055,-15611.895,-10168.515,-17794.53,-29611.305,-51477.705,-25900.695,-26631.45
1764505334.491001,20242.8,-15608.655,-10165.275,-17790.57,-29608.605,-51474.105,-25897.635,-26627.85
1764505334.491001,20241.945,-15609.555,-10165.59,-17791.155,-29608.74,-51474.6,-25898.13,-26628.57
1764505334.5384293,20241.225,-15610.14,-10167.345,-17792.28,-29610.765,-51475.365,-25898.805,-26630.1
1764505334.5384293,20240.37,-15610.68,-10167.93,-17791.605,-29611.17,-51475.14,-25898.76,-26630.415
1764505334.5389426,20241.9,-15609.645,-10165.815,-17790.39,-29609.64,-51474.015,-25897.5,-26629.02
1764505334.5389426,20238.39,-15612.255,-10168.47,-17793.045,-29612.34,-51477.39,-25900.47,-26631.765
1764505334.5389426,20240.91,-15609.15,-10165.95,-17789.895,-29609.595,-51474.555,-25897.14,-26628.66
1764505334.5389426,20238.57,-15612.12,-10167.885,-17793.135,-29612.61,-51477.165,-25899.705,-26631.855
1764505334.5389426,20240.775,-15609.915,-10165.59,-17790.704999999998,-29610.09,-51474.735,-25897.68,-26629.695
1764505334.5389426,20237.895,-15612.795,-10168.11,-17793.54,-29612.115,-51477.21,-25900.74,-26631.945
1764505334.5389426,20238.255,-15611.94,-10167.615,-17792.55,-29610.855,-51476.4,-25900.38,-26631.36
1764505334.5389426,20239.605,-15610.32,-10166.4,-17791.155,-29609.595,-51475.23,-25898.895,-26629.47
1764505334.5389426,20243.07,-15606.225,-10161.675,-17787.149999999998,-29605.815,-51471.315,-25894.845,-26625.6
1764505334.5389426,20242.935,-15606.72,-10161.9,-17787.825,-29605.59,-51471.315,-25894.35,-26625.96
1764505334.5389426,20243.655,-15606.54,-10161.045,-17787.51,-29605.23,-51470.595,-25893.63,-26625.915
1764505334.5389426,20240.775,-15609.42,-10163.745,-17790.03,-29608.38,-51473.565,-25896.69,-26628.615
1764505334.5389426,20237.085,-15612.21,-10166.625,-17792.37,-29610.765,-51477.48,-25899.66,-26631.495
1764505334.5389426,20237.58,-15611.805,-10166.67,-17791.739999999998,-29610.045,-51476.895,-25899.165,-26631.18
1764505334.5389426,20238.705,-15610.545,-10165.455,-17790.795,-29609.055,-51475.86,-25897.815,-26630.01
1764505334.5389426,20240.73,-15607.98,-10162.395,-17788.77,-29606.58,-51473.34,-25895.835,-26627.805
1764505334.5389426,20240.685,-15608.745,-10162.62,-17789.805,-29607.705,-51474.375,-25895.97,-26627.94
1764505334.5389426,20237.76,-15612.03,-10165.77,-17793.09,-29610.45,-51477.345,-25898.535,-26630.865
1764505334.5389426,20239.785,-15610.68,-10164.285,-17791.605,-29608.245,-51475.815,-25896.555,-26629.83
1764505334.5389426,20237.895,-15613.47,-10167.39,-17794.575,-29610.81,-51478.155,-25898.67,-26632.53
1764505334.5389426,20240.19,-15610.995,-10164.42,-17791.739999999998,-29608.29,-51475.365,-25896.33,-26629.965
1764505334.5389426,20238.21,-15612.39,-10165.68,-17792.774999999998,-29610.0,-51477.165,-25898.04,-26632.215
1764505334.5833037,20235.33,-15615.495,-10168.965,-17795.745,-29613.645,-51479.955,-25901.01,-26635.455
1764505334.5833037,20234.655,-15616.305,-10168.965,-17795.969999999998,-29613.465,-51479.64,-25900.605,-26635.095
1764505334.5833037,20235.645,-15615.54,-10167.66,-17795.565,-29612.295,-51479.325,-25899.345,-26634.105
1764505334.5833037,20234.43,-15617.34,-10169.37,-17797.094999999998,-29613.78,-51480.72,-25901.055,-26636.13
1764505334.5833037,20235.105,-15616.575,-10168.515,-17797.094999999998,-29613.375,-51480.36,-25900.29,-26635.59
1764505334.5833037,20237.49,-15614.28,-10166.13,-17794.35,-29610.945,-51478.38,-25897.815,-26633.475
1764505334.5833037,20236.77,-15614.64,-10167.12,-17794.26,-29610.99,-51478.83,-25898.355,-26634.24
1764505334.5833037,20234.565,-15616.62,-10168.92,-17795.34,-29613.33,-51480.405,-25900.47,-26635.995
1764505334.5833037,20237.76,-15613.29,-10165.14,-17791.92,-29609.865,-51476.31,-25897.005,-26632.845
1764505334.5833037,20232.675,-15617.655,-10169.775,-17797.68,-29614.05,-51480.9,-25900.83,-26637.435
1764505334.5833037,20232.585,-15617.655,-10170.135,-17798.445,-29614.41,-51481.395,-25900.605,-26637.66
1764505334.5833037,20233.17,-15616.665,-10169.37,-17797.41,-29614.23,-51480.81,-25899.795,-26636.67
1764505334.5833037,20235.555,-15613.74,-10167.975,-17794.755,-29612.07,-51478.605,-25897.32,-26633.835
1764505334.5833037,20233.71,-15615.36,-10169.145,-17795.835,-29613.24,-51479.73,-25898.625,-26635.365
1764505334.5833037,20230.515,-15618.96,-10171.53,-17798.805,-29616.39,-51482.97,-25900.965,-26638.515
1764505334.5833037,20230.92,-15618.645,-10172.07,-17798.895,-29616.03,-51483.24,-25900.74,-26638.56
1764505334.5833037,20232.405,-15617.115,-10170.045,-17797.5,-29614.68,-51481.53,-25899.48,-26637.165
1764505334.5833037,20236.005,-15614.46,-10166.175,-17794.395,-29611.395,-51478.38,-25896.285,-26633.43
1764505334.5833037,20237.31,-15612.39,-10163.565,-17791.425,-29609.37,-51476.355,-25894.845,-26632.26
1764505334.5843308,20236.41,-15613.515,-10165.005,-17792.19,-29610.72,-51478.02,-25895.88,-26633.655
1764505334.5843308,20235.87,-15614.325,-10166.175,-17792.91,-29611.665,-51478.965,-25896.195,-26634.015
1764505334.5843308,20230.56,-15619.455,-10170.99,-17797.995,-29616.39,-51483.015,-25900.83,-26639.325
1764505334.631263,20230.02,-15620.085,-10171.53,-17798.219999999998,-29617.065,-51483.465,-25901.235,-26639.46
1764505334.631263,20230.875,-15618.78,-10170.315,-17796.96,-29614.725,-51482.475,-25900.47,-26637.795
1764505334.631263,20233.26,-15616.08,-10167.84,-17793.675,-29612.16,-51479.1,-25897.275,-26635.23
1764505334.631263,20231.01,-15618.105,-10170.045,-17795.655,-29614.635,-51481.44,-25899.39,-26638.155
1764505334.631263,20233.08,-15615.855,-10166.985,-17792.864999999998,-29612.115,-51479.055,-25896.78,-26635.59
1764505334.631263,20232.045,-15617.07,-10168.245,-17793.855,-29612.565,-51480.045,-25897.68,-26636.94
1764505334.631263,20236.455,-15612.39,-10164.33,-17789.895,-29608.47,-51475.68,-25892.505,-26632.395
1764505334.631263,20234.295,-15614.685,-10166.445,-17792.594999999998,-29610.765,-51477.93,-25893.765,-26634.69
1764505334.631263,20232.72,-15616.17,-10167.57,-17793.989999999998,-29613.285,-51479.19,-25896.465,-26636.31
1764505334.631263,20236.32,-15612.84,-10164.015,-17790.344999999998,-29610.0,-51475.725,-25893.18,-26632.395
1764505334.631263,20236.365,-15613.515,-10164.24,-17790.84,-29610.405,-51476.49,-25892.73,-26633.115
1764505334.631263,20232.0,-15618.24,-10168.515,-17795.655,-29615.22,-51481.17,-25896.87,-26637.705
1764505334.631263,20232.27,-15618.24,-10168.38,-17795.88,-29614.77,-51481.44,-25897.32,-26636.805
1764505334.631263,20231.595,-15618.555,-10169.28,-17796.329999999998,-29615.22,-51482.07,-25897.68,-26637.48
1764505334.631263,20232.135,-15618.285,-10169.28,-17795.925,-29615.04,-51481.215,-25897.275,-26637.48
1764505334.631263,20235.645,-15615.225,-10165.815,-17792.325,-29611.44,-51478.605,-25894.53,-26635.005
1764505334.6322758,20237.895,-15612.48,-10163.295,-17789.625,-29609.55,-51476.265,-25892.82,-26632.665
1764505334.6322758,20232.495,-15618.105,-10168.92,-17795.204999999998,-29614.77,-51481.71,-25898.04,-26637.795
1764505334.6322758,20232.27,-15618.6,-10168.74,-17796.015,-29615.04,-51481.98,-25897.86,-26637.705
1764505334.6322758,20233.215,-15617.43,-10167.885,-17794.98,-29614.095,-51481.035,-25897.32,-26636.85
1764505334.6322758,20233.89,-15616.575,-10167.165,-17794.17,-29612.43,-51479.145,-25895.61,-26634.915
1764505334.6322758,20235.555,-15614.955,-10165.68,-17792.28,-29610.63,-51477.84,-25893.495,-26633.115
1764505334.6322758,20232.72,-15617.97,-10168.515,-17794.53,-29613.825,-51480.54,-25896.78,-26636.58
1764505334.6322758,20232.72,-15618.105,-10168.335,-17794.035,-29613.555,-51480.405,-25896.87,-26636.58
1764505334.6797054,20236.005,-15614.055,-10163.925,-17789.67,-29609.01,-51476.175,-25892.595,-26633.025
1764505334.6797054,20236.635,-15613.65,-10162.845,-17789.265,-29609.055,-51475.725,-25892.1,-26632.575
1764505334.6797054,20238.21,-15612.705,-10162.665,-17788.905,-29608.47,-51475.635,-25891.92,-26631.72
1764505334.6797054,20234.745,-15617.205,-10166.805,-17793.09,-29611.755,-51479.685,-25895.925,-26635.905
1764505334.6797054,20236.41,-15614.82,-10165.455,-17791.155,-29609.73,-51477.525,-25893.54,-26633.88
1764505334.6797054,20233.755,-15616.71,-10167.57,-17793.315,-29612.205,-51479.55,-25895.925,-26635.545
1764505334.6797054,20235.285,-15614.595,-10165.23,-17791.155,-29610.0,-51477.615,-25893.81,-26633.115
1764505334.6797054,20232.045,-15618.24,-10169.01,-17794.485,-29613.69,-51481.17,-25897.455,-26637.03
1764505334.6797054,20232.72,-15617.565,-10168.155,-17794.035,-29612.34,-51479.955,-25897.275,-26635.905
1764505334.6797054,20234.88,-15614.82,-10165.23,-17792.235,-29609.82,-51478.02,-25895.07,-26633.565
1764505334.6797054,20231.28,-15618.15,-10168.92,-17795.43,-29614.23,-51482.295,-25897.95,-26637.84
1764505334.6797054,20232.315,-15616.845,-10167.75,-17793.405,-29612.835,-51480.045,-25896.6,-26636.67
1764505334.6797054,20237.805,-15611.76,-10162.395,-17787.555,-29607.21,-51474.51,-25891.02,-26630.775
1764505334.6797054,20235.78,-15613.965,-10164.285,-17790.165,-29608.515,-51476.085,-25893.855,-26632.575
1764505334.6797054,20231.28,-15618.195,-10168.11,-17795.07,-29612.835,-51480.765,-25897.815,-26636.805
1764505334.6797054,20230.2,-15619.59,-10168.83,-17796.105,-29614.23,-51481.845,-25898.76,-26637.66
1764505334.6797054,20233.26,-15617.16,-10166.67,-17793.675,-29612.475,-51479.19,-25896.195,-26635.545
1764505334.6797054,20235.24,-15615.18,-10164.915,-17791.695,-29610.315,-51476.94,-25893.585,-26633.745
1764505334.6797054,20232.0,-15618.33,-10167.84,-17795.16,-29613.645,-51480.63,-25896.375,-26636.85
1764505334.6797054,20231.505,-15618.87,-10167.75,-17795.295,-29614.275,-51480.18,-25895.79,-26637.165
1764505334.6797054,20234.655,-15616.215,-10165.41,-17792.37,-29612.205,-51477.795,-25893.315,-26634.645
1764505334.6797054,20232.585,-15618.69,-10167.75,-17794.934999999998,-29614.005,-51480.315,-25895.52,-26636.94
1764505334.6797054,20236.95,-15614.055,-10163.61,-17790.255,-29609.64,-51476.13,-25891.02,-26632.35
1764505334.6797054,20236.635,-15614.955,-10164.51,-17791.245,-29610.315,-51477.705,-25891.695,-26633.205
1764505334.7248292,20236.185,-15615.63,-10164.69,-17791.875,-29611.08,-51477.84,-25892.28,-26633.52
1764505334.7248292,20233.755,-15618.33,-10167.345,-17794.305,-29613.825,-51480.09,-25895.25,-26636.895
1764505334.7248292,20235.465,-15616.665,-10166.265,-17792.37,-29612.16,-51478.065,-25893.54,-26635.05
1764505334.7248292,20232.72,-15620.13,-10168.965,-17794.62,-29614.59,-51480.45,-25896.24,-26637.885
1764505334.7248292,20233.89,-15618.06,-10166.355,-17792.64,-29612.52,-51478.695,-25894.665,-26636.13
1764505334.7248292,20232.81,-15619.005,-10168.155,-17794.035,-29614.095,-51479.73,-25895.43,-26637.21
1764505334.7248292,20236.86,-15615.63,-10164.42,-17790.84,-29610.99,-51475.77,-25892.28,-26634.375
1764505334.7248292,20237.895,-15614.775,-10163.295,-17790.57,-29610.405,-51475.23,-25891.515,-26633.79
1764505334.7248292,20238.705,-15613.245,-10162.305,-17789.579999999998,-29609.055,-51473.97,-25890.21,-26632.44
1764505334.7248292,20236.68,-15616.08,-10164.6,-17792.145,-29611.215,-51476.58,-25892.73,-26635.14
1764505334.7248292,20236.995,-15616.575,-10164.825,-17792.415,-29611.665,-51476.715,-25893.27,-26635.14
1764505334.7248292,20236.275,-15617.25,-10165.275,-17793.225,-29612.205,-51477.345,-25894.305,-26635.365
1764505334.7248292,20234.97,-15617.97,-10166.265,-17794.26,-29613.735,-51478.515,-25895.43,-26636.805
1764505334.7248292,20230.38,-15621.525,-10170.045,-17797.905,-29617.38,-51482.16,-25898.22,-26641.035
1764505334.7248292,20230.425,-15621.84,-10169.955,-17798.04,-29617.47,-51482.52,-25898.49,-26641.395
1764505334.7248292,20230.605,-15622.515,-10170.36,-17799.165,-29617.92,-51482.97,-25898.895,-26641.35
1764505334.7248292,20231.865,-15621.57,-10169.145,-17797.68,-29616.255,-51481.575,-25898.04,-26640.045
1764505334.7248292,20234.835,-15618.645,-10165.32,-17793.585,-29612.79,-51477.885,-25895.115,-26636.715
1764505334.7248292,20236.32,-15617.025,-10163.88,-17792.64,-29611.305,-51476.445,-25893.72,-26634.825
1764505334.7248292,20231.505,-15621.795,-10168.92,-17796.825,-29615.67,-51480.405,-25898.13,-26639.595
1764505334.7248292,20231.28,-15622.29,-10169.37,-17797.23,-29616.93,-51480.855,-25898.175,-26640.495
1764505334.7248292,20230.47,-15623.235,-10170.765,-17798.04,-29617.515,-51482.025,-25899.93,-26641.44
1764505334.7248292,20231.46,-15622.92,-10170.36,-17798.175,-29616.795,-51481.35,-25898.625,-26640.405
1764505334.7248292,20234.565,-15619.59,-10166.58,-17794.844999999998,-29613.78,-51478.11,-25895.565,-26637.48
1764505334.7740293,20232.945,-15621.84,-10168.335,-17796.105,-29616.12,-51480.18,-25897.635,-26639.1
1764505334.7740293,20235.33,-15619.095,-10165.545,-17793.405,-29613.51,-51476.895,-25894.305,-26636.175
1764505334.7740293,20235.645,-15618.87,-10165.545,-17793.225,-29613.42,-51477.615,-25894.755,-26636.265
1764505334.7740293,20233.395,-15620.76,-10168.02,-17795.34,-29615.985,-51480.225,-25897.905,-26638.83
1764505334.7740293,20237.625,-15616.62,-10163.745,-17790.975,-29612.34,-51476.04,-25893.765,-26634.51
1764505334.7740293,20235.825,-15617.835,-10165.32,-17792.864999999998,-29614.185,-51477.57,-25894.98,-26636.22
1764505334.7740293,20236.23,-15618.105,-10165.41,-17792.864999999998,-29613.195,-51477.255,-25894.125,-26635.995
1764505334.7740293,20234.79,-15619.59,-10165.77,-17793.27,-29612.88,-51477.03,-25894.71,-26636.22
1764505334.7740293,20231.73,-15621.255,-10167.12,-17794.17,-29613.735,-51477.93,-25896.015,-26638.245
1764505334.7740293,20233.17,-15620.715,-10167.57,-17794.665,-29613.96,-51478.875,-25896.105,-26636.94
1764505334.7740293,20232.045,-15623.37,-10169.505,-17797.23,-29616.705,-51480.585,-25898.985,-26639.91
1764505334.7740293,20235.645,-15619.41,-10165.905,-17793.495,-29613.915,-51477.75,-25896.105,-26637.12
1764505334.7740293,20235.96,-15619.455,-10165.995,-17792.954999999998,-29613.78,-51477.255,-25896.015,-26637.21
1764505334.7740293,20236.275,-15619.77,-10165.275,-17792.684999999998,-29613.285,-51477.21,-25896.195,-26637.3
1764505334.7740293,20238.885,-15616.665,-10163.43,-17789.535,-29610.54,-51474.465,-25893.315,-26634.42
1764505334.7740293,20236.32,-15618.195,-10165.95,-17791.605,-29612.52,-51476.13,-25895.34,-26636.085
1764505334.7740293,20235.735,-15619.365,-10166.13,-17793.18,-29613.825,-51477.075,-25896.645,-26636.355
1764505334.7740293,20233.935,-15621.795,-10168.245,-17795.34,-29615.985,-51479.73,-25898.85,-26639.28
1764505334.7740293,20236.095,-15620.13,-10166.715,-17793.719999999998,-29613.87,-51478.38,-25897.14,-26637.48
1764505334.7740293,20238.885,-15616.935,-10164.015,-17791.11,-29611.71,-51474.645,-25894.53,-26634.15
1764505334.7740293,20239.65,-15617.295,-10163.115,-17791.155,-29611.215,-51474.015,-25893.945,-26633.97
1764505334.7740293,20238.345,-15617.97,-10163.61,-17792.28,-29611.575,-51474.825,-25894.935,-26635.545
1764505334.8187954,20237.22,-15618.6,-10164.105,-17793.27,-29611.935,-51475.995,-25895.655,-26636.04
1764505334.8187954,20235.195,-15620.94,-10166.625,-17795.925,-29613.96,-51478.695,-25897.995,-26637.57
1764505334.8197763,20240.64,-15616.305,-10162.215,-17790.66,-29608.92,-51473.97,-25893.315,-26631.99
1764505334.8197763,20239.29,-15617.97,-10164.195,-17791.965,-29610.72,-51475.59,-25895.295,-26634.105
1764505334.8197763,20237.535,-15619.59,-10165.59,-17794.26,-29612.07,-51477.615,-25896.285,-26636.04
1764505334.8197763,20235.51,-15621.705,-10167.615,-17796.735,-29614.005,-51479.685,-25898.04,-26638.515
1764505334.8207932,20238.93,-15618.105,-10163.385,-17792.954999999998,-29610.72,-51475.815,-25894.62,-26635.635
1764505334.8207932,20236.77,-15620.355,-10166.49,-17795.07,-29613.465,-51478.065,-25897.005,-26637.165
1764505334.8207932,20237.085,-15620.13,-10166.895,-17794.665,-29612.88,-51478.47,-25896.78,-26636.94
1764505334.8217907,20237.22,-15621.075,-10168.065,-17795.07,-29613.375,-51478.92,-25897.86,-26638.245
1764505334.8217907,20240.055,-15618.51,-10165.455,-17793.27,-29611.665,-51476.265,-25895.88,-26636.625
1764505334.8217907,20237.355,-15621.255,-10167.255,-17795.7,-29613.735,-51478.155,-25897.77,-26639.145
1764505334.8217907,20239.875,-15619.185,-10164.51,-17793.27,-29611.485,-51476.13,-25895.7,-26636.94
1764505334.8217907,20237.265,-15621.615,-10167.57,-17796.239999999998,-29614.095,-51478.605,-25898.355,-26639.55
1764505334.8217907,20239.92,-15618.915,-10164.69,-17793.18,-29611.575,-51476.04,-25895.79,-26636.265
1764505334.8217907,20238.48,-15620.355,-10166.94,-17794.98,-29612.745,-51477.795,-25896.6,-26637.48
1764505334.8217907,20236.365,-15623.37,-10170.18,-17797.77,-29615.445,-51480.585,-25899.705,-26640.63
1764505334.8217907,20239.335,-15620.49,-10166.13,-17794.26,-29612.205,-51477.615,-25897.41,-26638.155
1764505334.8217907,20237.895,-15621.255,-10167.48,-17795.61,-29613.69,-51478.56,-25898.13,-26639.19
1764505334.8217907,20233.98,-15625.215,-10171.755,-17799.704999999998,-29617.47,-51482.565,-25901.595,-26643.33
1764505334.8217907,20237.22,-15623.145,-10168.695,-17796.465,-29614.23,-51479.595,-25899.255,-26640.855
1764505334.822787,20237.58,-15622.965,-10168.56,-17795.655,-29613.195,-51478.875,-25899.12,-26640.315
1764505334.822787,20238.12,-15623.505,-10168.92,-17796.239999999998,-29613.78,-51479.415,-25899.21,-26641.485
1764505334.822787,20234.43,-15628.005,-10172.43,-17799.885,-29617.74,-51483.33,-25902.72,-26644.77
1764505334.863452,20234.745,-15627.42,-10172.385,-17800.29,-29617.2,-51483.465,-25903.215,-26644.095
1764505334.863452,20236.005,-15626.115,-10170.54,-17798.94,-29615.67,-51481.62,-25902.9,-26642.97
1764505334.863452,20232.855,-15629.175,-10173.42,-17801.145,-29618.64,-51484.05,-25905.78,-26646.795
1764505334.863452,20235.195,-15626.88,-10171.62,-17799.39,-29616.75,-51481.89,-25903.08,-26644.005
1764505334.8654706,20232.45,-15629.715,-10174.095,-17801.864999999998,-29619.9,-51485.445,-25906.095,-26646.84
1764505334.8654706,20232.72,-15630.705,-10174.635,-17802.18,-29620.53,-51485.715,-25906.5,-26647.38
1764505334.8654706,20235.465,-15628.59,-10173.105,-17800.155,-29618.19,-51483.555,-25904.565,-26645.04
1764505334.8654706,20235.96,-15627.96,-10172.475,-17800.11,-29618.46,-51482.88,-25903.98,-26644.5
1764505334.8654706,20236.14,-15627.915,-10171.8,-17799.704999999998,-29618.055,-51482.655,-25903.71,-26644.59
1764505334.8654706,20235.015,-15628.275,-10172.88,-17800.065,-29618.64,-51483.42,-25904.745,-26644.59
1764505334.8654706,20235.195,-15628.995,-10173.195,-17800.515,-29619.9,-51484.23,-25905.105,-26645.535
1764505334.8654706,20233.17,-15630.795,-10174.185,-17802.45,-29620.755,-51485.715,-25906.005,-26646.84
1764505334.8654706,20231.91,-15632.55,-10175.805,-17804.655,-29622.06,-51486.345,-25908.165,-26648.46
1764505334.8654706,20234.97,-15629.49,-10173.33,-17801.594999999998,-29619.405,-51483.555,-25905.195,-26645.265
1764505334.8654706,20235.78,-15629.175,-10172.88,-17801.055,-29619.585,-51484.005,-25905.375,-26645.445
1764505334.8654706,20234.07,-15631.29,-10174.905,-17803.665,-29621.385,-51485.895,-25906.995,-26648.775
1764505334.8659878,20233.62,-15631.2,-10175.265,-17803.395,-29621.34,-51485.58,-25906.32,-26648.55
1764505334.8659878,20234.205,-15629.895,-10173.825,-17802.18,-29620.215,-51484.185,-25905.375,-26646.84
1764505334.8659878,20237.94,-15626.61,-10170.72,-17798.76,-29616.48,-51481.44,-25902.765,-26643.87
1764505334.8659878,20237.04,-15627.915,-10171.215,-17799.614999999998,-29617.2,-51482.34,-25903.44,-26644.95
1764505334.8659878,20236.86,-15627.465,-10170.36,-17799.48,-29616.93,-51481.755,-25903.665,-26644.59
1764505334.867501,20236.185,-15628.635,-10170.315,-17799.93,-29617.83,-51482.79,-25903.89,-26645.85
1764505334.912563,20234.655,-15629.4,-10171.305,-17800.02,-29618.055,-51483.915,-25904.61,-26647.38
1764505334.912563,20233.53,-15630.84,-10172.07,-17801.28,-29618.865,-51484.815,-25905.735,-26648.91
1764505334.912563,20233.71,-15630.57,-10172.07,-17801.235,-29618.73,-51484.41,-25904.565,-26648.055
1764505334.912563,20232.9,-15631.155,-10172.835,-17802.405,-29619.315,-51485.13,-25905.69,-26648.955
1764505334.912563,20229.39,-15634.665,-10176.03,-17806.005,-29622.96,-51488.595,-25908.885,-26652.6
1764505334.912563,20229.345,-15633.945,-10175.13,-17805.42,-29623.005,-51488.19,-25908.795,-26652.51
1764505334.912563,20233.26,-15630.075,-10172.25,-17801.594999999998,-29618.73,-51484.14,-25905.015,-26648.865
1764505334.912563,20232.36,-15631.11,-10173.735,-17803.079999999998,-29620.395,-51486.48,-25906.23,-26650.53
1764505334.912563,20228.535,-15633.405,-10176.885,-17805.329999999998,-29623.14,-51488.955,-25909.02,-26652.825
1764505334.912563,20230.335,-15630.705,-10174.59,-17803.395,-29620.71,-51486.255,-25906.23,-26650.08
1764505334.912563,20228.985,-15632.64,-10176.12,-17805.69,-29622.33,-51488.415,-25907.85,-26651.115
1764505334.912563,20230.92,-15629.49,-10173.465,-17802.63,-29620.35,-51486.39,-25905.33,-26648.775
1764505334.912563,20227.905,-15632.055,-10175.805,-17804.07,-29622.915,-51488.82,-25907.22,-26651.745
1764505334.912563,20226.51,-15632.865,-10177.155,-17805.375,-29623.815,-51489.63,-25908.48,-26652.555
1764505334.912563,20226.285,-15632.91,-10177.065,-17805.78,-29624.67,-51489.855,-25907.94,-26651.97
1764505334.912563,20226.645,-15631.785,-10175.49,-17804.295,-29623.41,-51488.865,-25906.59,-26650.98
1764505334.912563,20230.605,-15627.6,-10171.125,-17799.48,-29618.595,-51484.68,-25901.73,-26646.39
1764505334.912563,20227.905,-15629.445,-10172.7,-17801.82,-29620.44,-51486.84,-25902.63,-26648.145
1764505334.912563,20226.87,-15629.94,-10172.52,-17802.27,-29620.98,-51487.155,-25902.855,-26649.63
1764505334.912563,20224.71,-15632.955,-10175.13,-17804.61,-29623.59,-51489.765,-25905.555,-26651.88
1764505334.912563,20227.77,-15629.355,-10171.98,-17800.695,-29620.35,-51486.66,-25902.36,-26647.335
1764505334.912563,20226.24,-15630.345,-10172.88,-17801.28,-29620.98,-51487.515,-25903.53,-26648.73
1764505334.912563,20223.135,-15633.495,-10175.895,-17804.565,-29623.5,-51490.44,-25906.77,-26651.97
1764505334.912563,20225.475,-15630.93,-10173.78,-17801.864999999998,-29621.205,-51487.695,-25904.205,-26649.045
1764505334.95885,20226.105,-15630.345,-10173.24,-17800.695,-29620.755,-51486.84,-25904.205,-26648.055
1764505334.95885,20225.16,-15631.425,-10174.14,-17802.27,-29621.925,-51487.965,-25905.87,-26648.82
1764505334.9598482,20228.445,-15627.555,-10170.54,-17798.579999999998,-29618.64,-51484.275,-25901.955,-26644.86
1764505334.9598482,20228.13,-15628.185,-10170.945,-17798.265,-29619.135,-51484.41,-25901.955,-26645.49
1764505334.9598482,20228.94,-15627.24,-10169.82,-17797.41,-29618.1,-51483.105,-25900.965,-26644.32
1764505334.9598482,20228.13,-15628.005,-10170.27,-17798.04,-29618.64,-51483.555,-25901.46,-26644.86
1764505334.960849,20229.435,-15626.61,-10169.415,-17796.465,-29618.37,-51483.33,-25900.92,-26644.365
1764505334.961364,20228.76,-15627.87,-10171.08,-17798.489999999998,-29619.27,-51484.68,-25902.045,-26645.49
1764505334.96172,20226.06,-15631.02,-10173.78,-17801.325,-29621.43,-51486.93,-25904.88,-26647.785
1764505334.96172,20226.78,-15629.715,-10172.655,-17800.155,-29619.855,-51484.995,-25903.53,-26645.985
1764505334.96172,20224.305,-15633.045,-10174.815,-17802.09,-29622.6,-51487.74,-25905.78,-26648.82
1764505334.96172,20224.62,-15632.28,-10174.545,-17800.829999999998,-29622.105,-51487.83,-25905.42,-26647.92
1764505334.9623823,20227.275,-15629.355,-10171.53,-17798.445,-29618.685,-51484.59,-25902.585,-26645.265
1764505334.9623823,20225.115,-15631.74,-10173.825,-17801.055,-29621.34,-51486.615,-25905.24,-26647.92
1764505334.9623823,20222.82,-15633.99,-10176.03,-17803.17,-29623.68,-51488.685,-25907.535,-26649.99
1764505334.9623823,20226.42,-15630.615,-10172.655,-17799.165,-29619.99,-51484.905,-25903.935,-26646.615
1764505334.9623823,20227.095,-15630.165,-10171.98,-17798.85,-29619.225,-51484.77,-25902.81,-26645.895
1764505334.9623823,20223.855,-15633.63,-10175.625,-17802.585,-29622.69,-51488.595,-25906.005,-26649.27
1764505334.9633806,20224.62,-15633.315,-10175.265,-17802.135,-29622.825,-51487.74,-25905.69,-26649.45
1764505334.9633806,20226.78,-15630.075,-10171.53,-17799.12,-29619.765,-51484.05,-25902.225,-26645.895
1764505334.9633806,20227.095,-15629.13,-10170.45,-17798.489999999998,-29618.91,-51483.42,-25902.36,-26644.905
1764505334.9633806,20225.835,-15630.48,-10172.16,-17799.614999999998,-29620.305,-51484.95,-25904.205,-26647.065
1764505334.9633806,20227.95,-15628.545,-10169.505,-17797.41,-29618.505,-51482.07,-25902.36,-26645.4
1764505334.9633806,20223.36,-15632.955,-10173.555,-17801.594999999998,-29622.24,-51485.94,-25906.14,-26649.72
1764505335.0043435,20226.645,-15630.03,-10170.225,-17798.895,-29619.27,-51483.6,-25903.17,-26646.39
1764505335.0043435,20226.15,-15630.705,-10171.44,-17800.245,-29620.62,-51484.995,-25903.8,-26647.155
1764505335.0043435,20225.79,-15631.425,-10172.61,-17801.28,-29621.295,-51485.13,-25904.745,-26648.055
1764505335.0043435,20223.72,-15634.665,-10174.32,-17803.755,-29622.87,-51488.1,-25907.805,-26650.35
1764505335.0043435,20225.07,-15633.945,-10173.33,-17802.719999999998,-29621.745,-51487.245,-25906.545,-26649.315
1764505335.0043435,20225.475,-15632.19,-10172.295,-17801.864999999998,-29621.655,-51486.03,-25905.825,-26647.83
1764505335.0043435,20222.73,-15635.07,-10174.815,-17805.015,-29624.94,-51488.82,-25908.525,-26651.835
1764505335.0043435,20226.24,-15632.325,-10171.665,-17801.82,-29621.34,-51485.13,-25904.295,-26648.37
1764505335.0043435,20227.725,-15630.75,-10170.18,-17800.065,-29620.17,-51484.23,-25903.395,-26646.345
1764505335.0043435,20225.88,-15632.28,-10171.53,-17800.739999999998,-29620.755,-51485.805,-25904.655,-26647.92
1764505335.0043435,20225.655,-15632.73,-10172.115,-17801.505,-29621.655,-51486.615,-25904.88,-26649.45
1764505335.0043435,20229.795,-15629.175,-10169.145,-17798.445,-29618.28,-51482.79,-25901.145,-26644.86
1764505335.0043435,20230.74,-15628.32,-10169.055,-17797.815,-29617.74,-51481.665,-25900.83,-26643.24
1764505335.0043435,20230.38,-15628.5,-10168.605,-17797.364999999998,-29617.29,-51481.215,-25901.37,-26644.32
1764505335.0043435,20231.145,-15627.555,-10166.94,-17796.015,-29615.67,-51479.82,-25900.02,-26643.42
1764505335.0043435,20231.055,-15627.105,-10166.49,-17795.835,-29615.625,-51479.19,-25898.94,-26642.745
1764505335.0043435,20230.56,-15628.185,-10167.03,-17796.78,-29616.255,-51480.585,-25899.705,-26643.645
1764505335.0043435,20228.85,-15630.03,-10168.92,-17798.445,-29618.415,-51482.745,-25901.73,-26645.67
1764505335.0043435,20232.225,-15627.15,-10166.13,-17795.295,-29615.445,-51479.775,-25898.535,-26642.61
1764505335.0043435,20230.155,-15628.725,-10167.75,-17796.825,-29617.515,-51481.305,-25900.38,-26644.545
1764505335.0043435,20229.57,-15628.86,-10168.425,-17797.41,-29617.92,-51481.575,-25900.155,-26644.545
1764505335.0043435,20226.285,-15631.875,-10171.17,-17800.065,-29620.755,-51484.635,-25902.99,-26647.11
1764505335.0485425,20226.285,-15631.245,-10170.09,-17799.434999999998,-29620.035,-51483.645,-25902.27,-26646.255
1764505335.0485425,20229.255,-15628.455,-10166.895,-17796.105,-29617.245,-51480.045,-25899.39,-26642.835
1764505335.0485425,20228.445,-15629.715,-10169.235,-17797.995,-29619.09,-51481.305,-25900.605,-26644.68
1764505335.0485425,20228.67,-15629.445,-10168.83,-17797.59,-29618.01,-51480.99,-25900.155,-26644.905
1764505335.0485425,20230.965,-15627.15,-10166.31,-17795.16,-29615.58,-51478.695,-25896.69,-26642.295
1764505335.0485425,20229.3,-15629.04,-10168.47,-17797.23,-29618.415,-51480.63,-25899.075,-26643.69
1764505335.0485425,20230.47,-15628.005,-10167.57,-17795.385,-29617.02,-51479.235,-25897.995,-26642.25
1764505335.0485425,20227.545,-15630.57,-10168.965,-17797.454999999998,-29618.505,-51480.99,-25899.435,-26644.23
1764505335.0485425,20227.77,-15631.245,-10168.605,-17798.445,-29618.37,-51481.35,-25900.29,-26645.31
1764505335.0485425,20228.805,-15630.345,-10168.38,-17797.77,-29618.235,-51481.305,-25899.03,-26644.455
1764505335.0485425,20229.12,-15630.795,-10168.65,-17797.905,-29618.73,-51481.665,-25898.58,-26645.265
1764505335.0485425,20225.475,-15634.665,-10171.98,-17801.1,-29621.88,-51485.22,-25902.135,-26648.325
1764505335.0502212,20224.98,-15635.16,-10172.745,-17801.415,-29622.015,-51485.355,-25902.09,-26648.505
1764505335.0502212,20224.71,-15634.89,-10172.97,-17801.415,-29622.195,-51484.995,-25902.45,-26648.955
1764505335.0502212,20224.98,-15634.62,-10172.7,-17801.055,-29621.925,-51485.04,-25902.18,-26648.55
1764505335.0502212,20227.41,-15632.19,-10169.73,-17798.625,-29619.045,-51482.565,-25899.75,-26646.615
1764505335.0502212,20230.965,-15628.545,-10166.4,-17795.52,-29614.815,-51478.965,-25896.465,-26642.745
1764505335.0502212,20226.015,-15633.54,-10171.485,-17799.57,-29620.215,-51483.6,-25900.47,-26647.515
1764505335.0502212,20225.79,-15634.035,-10171.35,-17800.245,-29621.34,-51483.96,-25901.19,-26648.37
1764505335.0502212,20227.635,-15632.28,-10169.415,-17798.489999999998,-29619.18,-51482.205,-25899.39,-26646.705
1764505335.0502212,20229.795,-15629.805,-10167.3,-17795.475,-29616.39,-51480.18,-25897.545,-26644.32
1764505335.0502212,20226.33,-15632.415,-10170.18,-17798.219999999998,-29619.54,-51483.42,-25900.02,-26647.065
1764505335.0502212,20228.31,-15630.705,-10168.47,-17796.645,-29617.785,-51481.53,-25897.23,-26644.815
1764505335.0502212,20225.205,-15633.9,-10172.385,-17800.29,-29621.205,-51484.5,-25901.1,-26647.695
1764505335.0978146,20223.135,-15635.97,-10173.645,-17802.585,-29623.005,-51486.21,-25902.99,-26650.35
1764505335.0978146,20225.07,-15634.755,-10172.61,-17801.28,-29621.88,-51484.905,-25901.145,-26649.135
1764505335.0978146,20225.565,-15634.035,-10171.485,-17800.38,-29621.16,-51484.095,-25900.425,-26648.325
1764505335.0978146,20220.66,-15638.94,-10176.345,-17805.42,-29625.705,-51489.18,-25905.24,-26653.365
1764505335.0978146,20219.805,-15640.29,-10177.605,-17806.094999999998,-29627.28,-51489.99,-25906.77,-26654.445
1764505335.0978146,20220.255,-15640.2,-10176.705,-17805.87,-29626.74,-51489.09,-25906.23,-26654.22
1764505335.0978146,20221.29,-15638.49,-10175.04,-17803.755,-29624.04,-51487.515,-25904.655,-26652.285
1764505335.0978146,20222.955,-15636.105,-10173.015,-17800.965,-29621.43,-51484.77,-25901.955,-26649.72
1764505335.0978146,20220.75,-15638.94,-10175.445,-17803.44,-29624.49,-51487.29,-25904.43,-26652.6
1764505335.0978146,20224.035,-15635.835,-10172.295,-17800.245,-29621.385,-51484.095,-25901.19,-26650.215
1764505335.0978146,20224.98,-15635.565,-10172.115,-17800.245,-29621.16,-51483.465,-25901.01,-26649.72
1764505335.0978146,20222.505,-15638.13,-10174.005,-17803.17,-29623.32,-51486.03,-25903.62,-26651.295
1764505335.0978146,20223.945,-15636.87,-10172.655,-17802.09,-29621.43,-51484.455,-25902.36,-26649.54
1764505335.0978146,20219.67,-15640.92,-10176.525,-17805.329999999998,-29625.075,-51487.965,-25905.555,-26653.32
1764505335.0978146,20221.965,-15637.905,-10173.375,-17802.809999999998,-29622.465,-51485.445,-25902.675,-26650.575
1764505335.0978146,20222.73,-15637.41,-10173.195,-17802.405,-29622.24,-51485.22,-25902.675,-26650.62
1764505335.0978146,20221.11,-15639.84,-10175.67,-17805.329999999998,-29625.03,-51487.785,-25905.69,-26653.32
1764505335.0978146,20223.585,-15637.77,-10173.69,-17802.945,-29623.5,-51486.075,-25904.295,-26651.34
1764505335.0978146,20223.495,-15638.13,-10174.59,-17803.665,-29624.355,-51486.66,-25905.195,-26651.745
1764505335.0978146,20221.92,-15639.525,-10176.39,-17805.915,-29625.975,-51489.495,-25906.275,-26653.005
1764505335.0978146,20218.725,-15643.08,-10178.595,-17808.57,-29628.72,-51491.97,-25908.795,-26655.165
1764505335.0978146,20221.29,-15641.415,-10175.94,-17805.915,-29626.515,-51489.675,-25907.13,-26653.545
1764505335.0988278,20225.34,-15637.32,-10171.98,-17802.09,-29621.745,-51486.075,-25903.62,-26649.36
1764505335.0988278,20222.46,-15640.38,-10175.355,-17805.239999999998,-29624.49,-51489.18,-25906.725,-26652.645
1764505335.14616,20224.845,-15637.68,-10172.655,-17802.765,-29622.06,-51486.615,-25904.52,-26649.945
1764505335.14616,20222.37,-15640.155,-10175.49,-17806.364999999998,-29625.345,-51489.495,-25907.805,-26652.645
1764505335.14616,20222.82,-15640.605,-10175.85,-17805.78,-29625.165,-51488.82,-25907.355,-26652.69
1764505335.14616,20224.35,-15639.525,-10173.735,-17804.565,-29623.86,-51487.515,-25906.455,-26651.07
1764505335.14616,20227.5,-15636.78,-10172.16,-17801.82,-29621.835,-51484.59,-25904.295,-26648.685
1764505335.14616,20225.61,-15639.12,-10173.69,-17803.395,-29624.04,-51486.795,-25905.42,-26650.98
1764505335.14616,20222.64,-15642.405,-10176.165,-17806.05,-29626.695,-51489.945,-25908.165,-26653.86
1764505335.14616,20225.43,-15639.03,-10173.735,-17802.765,-29623.365,-51485.94,-25905.195,-26650.395
1764505335.147675,20226.33,-15638.805,-10173.015,-17802.27,-29622.33,-51485.445,-25904.745,-26649.72
1764505335.147675,20222.55,-15643.485,-10176.84,-17806.68,-29626.02,-51490.845,-25909.965,-26654.49
1764505335.147675,20224.305,-15641.955,-10175.265,-17805.105,-29624.94,-51489.495,-25908.255,-26652.96
1764505335.147675,20224.26,-15642.225,-10175.04,-17805.51,-29625.48,-51489.54,-25908.255,-26652.69
1764505335.147675,20224.08,-15642.99,-10175.22,-17805.645,-29625.705,-51489.72,-25908.48,-26652.69
1764505335.147675,20223.36,-15642.9,-10175.805,-17805.69,-29625.705,-51490.8,-25909.245,-26653.77
1764505335.147675,20221.965,-15643.755,-10176.66,-17807.219999999998,-29627.055,-51492.465,-25910.325,-26654.715
1764505335.147675,20220.795,-15645.24,-10177.47,-17807.67,-29628.63,-51493.14,-25911.495,-26656.2
1764505335.147675,20217.96,-15648.075,-10179.81,-17809.965,-29630.475,-51495.84,-25913.565,-26659.035
1764505335.147675,20222.865,-15642.495,-10174.815,-17805.42,-29625.165,-51490.17,-25908.255,-26654.085
1764505335.147675,20224.71,-15639.75,-10172.79,-17802.495,-29623.095,-51487.29,-25906.05,-26651.565
1764505335.147675,20219.535,-15644.745,-10177.695,-17807.355,-29627.415,-51492.465,-25910.415,-26655.93
1764505335.147675,20219.355,-15645.105,-10178.055,-17808.344999999998,-29628.495,-51492.555,-25909.965,-26655.885
1764505335.147675,20221.38,-15642.9,-10175.58,-17806.32,-29625.615,-51489.99,-25908.12,-26654.085
1764505335.1921,20219.085,-15644.925,-10177.335,-17807.625,-29627.055,-51492.105,-25910.235,-26656.245
1764505335.193113,20219.715,-15644.655,-10177.335,-17807.445,-29626.695,-51492.42,-25910.415,-26655.975
1764505335.193113,20219.49,-15644.79,-10177.605,-17807.895,-29626.92,-51492.24,-25910.325,-26655.795
1764505335.193113,20219.04,-15644.115,-10177.245,-17807.445,-29626.74,-51491.43,-25910.01,-26655.345
1764505335.1941316,20218.95,-15644.745,-10177.515,-17807.94,-29627.505,-51492.06,-25910.415,-26656.38
1764505335.1941316,20220.57,-15642.99,-10176.48,-17806.68,-29626.155,-51490.395,-25908.75,-26654.49
1764505335.1941316,20225.835,-15637.815,-10171.98,-17801.73,-29621.295,-51485.715,-25903.665,-26649.0
1764505335.1941316,20223.855,-15639.795,-10173.915,-17802.54,-29622.78,-51486.885,-25905.465,-26650.08
1764505335.1951334,20224.215,-15639.84,-10173.465,-17802.54,-29623.05,-51486.345,-25905.105,-26650.215
1764505335.1951334,20223.27,-15641.145,-10175.22,-17803.71,-29624.265,-51488.235,-25906.455,-26651.745
1764505335.1951334,20219.85,-15644.25,-10177.965,-17806.905,-29627.46,-51491.52,-25909.47,-26654.58
1764505335.1951334,20220.84,-15643.845,-10176.84,-17806.32,-29627.1,-51490.395,-25908.84,-26653.725
1764505335.1951334,20224.44,-15640.38,-10173.33,-17803.26,-29624.22,-51486.705,-25905.69,-26650.62
1764505335.1961255,20222.415,-15642.495,-10175.67,-17804.79,-29626.155,-51488.19,-25907.535,-26652.24
1764505335.1961255,20224.8,-15640.515,-10173.15,-17801.73,-29623.14,-51486.165,-25905.51,-26650.08
1764505335.1961255,20224.26,-15640.47,-10173.195,-17802.315,-29622.915,-51486.435,-25905.24,-26649.99
1764505335.1961255,20224.98,-15639.93,-10172.295,-17802.27,-29622.285,-51485.445,-25904.565,-26648.73
1764505335.1961255,20224.08,-15641.415,-10173.78,-17803.305,-29624.04,-51486.93,-25906.095,-26650.665
1764505335.1961255,20224.17,-15641.01,-10174.23,-17802.855,-29622.915,-51486.615,-25906.455,-26650.755
1764505335.1961255,20221.605,-15643.71,-10176.66,-17805.329999999998,-29625.345,-51489.135,-25909.425,-26653.005
1764505335.1961255,20221.83,-15643.71,-10177.155,-17805.465,-29625.165,-51488.865,-25908.48,-26652.87
1764505335.1961255,20222.64,-15643.845,-10176.12,-17805.329999999998,-29624.67,-51488.235,-25908.525,-26652.195
1764505335.1961255,20225.205,-15641.685,-10173.78,-17803.17,-29622.33,-51485.805,-25906.005,-26650.08
1764505335.197633,20222.595,-15643.89,-10176.93,-17805.105,-29624.85,-51488.82,-25908.255,-26653.23
1764505335.2377355,20225.475,-15640.245,-10173.96,-17801.37,-29621.79,-51486.165,-25905.375,-26649.315
1764505335.2377355,20226.42,-15639.3,-10172.205,-17801.055,-29620.845,-51484.95,-25904.745,-26648.19
1764505335.2377355,20228.445,-15636.735,-10170.315,-17798.85,-29618.595,-51482.7,-25902.81,-26646.03
1764505335.2377355,20226.735,-15637.815,-10171.44,-17800.245,-29620.845,-51484.455,-25904.52,-26647.47
1764505335.2377355,20228.445,-15637.59,-10170.405,-17800.065,-29620.395,-51483.555,-25903.62,-26647.02
1764505335.2377355,20228.58,-15637.545,-10170.63,-17800.155,-29619.54,-51482.655,-25902.99,-26646.84
1764505335.2377355,20228.31,-15637.995,-10171.305,-17800.515,-29619.675,-51482.88,-25903.44,-26646.615
1764505335.2377355,20227.635,-15638.58,-10172.205,-17801.46,-29619.765,-51483.42,-25904.61,-26648.055
1764505335.2377355,20224.665,-15641.955,-10175.265,-17804.835,-29623.05,-51487.155,-25906.995,-26651.655
1764505335.2377355,20223.72,-15642.855,-10175.49,-17805.285,-29624.13,-51488.46,-25907.535,-26651.88
1764505335.2377355,20224.845,-15641.37,-10174.095,-17803.89,-29623.095,-51485.985,-25906.455,-26650.215
1764505335.2377355,20229.795,-15637.455,-10170.045,-17799.975,-29619.09,-51481.845,-25902.63,-26646.3
1764505335.2390385,20232.585,-15634.89,-10167.39,-17797.23,-29616.345,-51479.685,-25900.155,-26643.735
1764505335.2390385,20231.415,-15636.69,-10169.055,-17798.805,-29617.605,-51480.855,-25902.18,-26645.085
1764505335.2390385,20229.12,-15638.805,-10170.54,-17801.145,-29619.945,-51483.15,-25904.565,-26647.065
1764505335.2390385,20228.94,-15638.4,-10171.035,-17800.515,-29620.17,-51483.42,-25905.015,-26647.425
1764505335.2405615,20229.705,-15637.5,-10170.27,-17799.434999999998,-29619.54,-51481.62,-25904.205,-26646.705
1764505335.2405615,20229.21,-15639.21,-10170.27,-17799.57,-29619.315,-51481.665,-25904.385,-26647.83
1764505335.2405615,20229.48,-15637.995,-10169.235,-17798.715,-29618.505,-51480.63,-25902.765,-26647.11
1764505335.2405615,20232.0,-15635.07,-10166.535,-17796.329999999998,-29615.76,-51478.965,-25900.11,-26644.32
1764505335.2405615,20232.675,-15634.44,-10166.49,-17796.42,-29615.715,-51478.83,-25900.245,-26644.365
1764505335.2405615,20233.575,-15633.585,-10164.87,-17795.204999999998,-29614.59,-51477.3,-25898.22,-26643.285
1764505335.2405615,20234.88,-15632.055,-10163.115,-17793.675,-29612.43,-51475.545,-25896.87,-26641.665
1764505335.2405615,20230.56,-15636.195,-10166.895,-17798.04,-29616.705,-51480.0,-25901.28,-26645.895
1764505335.2845528,20230.605,-15635.745,-10167.165,-17798.625,-29616.975,-51480.135,-25900.785,-26645.985
1764505335.2845528,20231.055,-15635.43,-10166.85,-17798.04,-29616.165,-51479.82,-25900.335,-26645.715
1764505335.2845528,20232.045,-15635.205,-10166.355,-17797.184999999998,-29615.265,-51479.415,-25899.57,-26644.455
1764505335.2845528,20231.685,-15635.565,-10167.03,-17797.5,-29615.76,-51479.865,-25900.245,-26645.04
1764505335.2845528,20231.955,-15635.07,-10166.49,-17797.274999999998,-29614.905,-51479.28,-25899.39,-26644.275
1764505335.2845528,20233.08,-15633.945,-10164.78,-17795.204999999998,-29613.015,-51477.705,-25897.725,-26643.06
1764505335.2845528,20230.47,-15636.105,-10167.21,-17797.545,-29615.58,-51479.28,-25900.065,-26645.67
1764505335.2845528,20233.035,-15632.775,-10164.33,-17794.395,-29612.745,-51476.355,-25896.915,-26642.88
1764505335.2845528,20235.825,-15631.065,-10161.765,-17792.415,-29611.17,-51474.105,-25895.07,-26641.215
1764505335.2845528,20233.935,-15633.135,-10163.52,-17794.395,-29612.655,-51476.13,-25897.14,-26643.285
1764505335.2845528,20231.46,-15636.105,-10166.85,-17797.454999999998,-29615.67,-51478.875,-25899.705,-26645.895
1764505335.2845528,20230.56,-15637.14,-10167.615,-17798.625,-29616.345,-51479.55,-25900.695,-26646.615
1764505335.2845528,20231.37,-15636.78,-10166.85,-17797.725,-29616.345,-51478.74,-25900.29,-26646.39
1764505335.2845528,20232.27,-15635.565,-10165.14,-17797.005,-29615.715,-51477.3,-25899.39,-26645.715
1764505335.2845528,20234.52,-15633.0,-10163.34,-17795.52,-29613.96,-51475.455,-25897.545,-26643.375
1764505335.2845528,20231.37,-15637.05,-10167.795,-17798.715,-29617.83,-51479.28,-25901.1,-26647.2
1764505335.285567,20231.46,-15637.05,-10167.705,-17798.399999999998,-29616.39,-51479.055,-25901.325,-26646.48
1764505335.285567,20235.78,-15632.145,-10162.665,-17793.405,-29611.035,-51474.42,-25896.285,-26640.9
1764505335.285567,20237.58,-15630.57,-10160.82,-17791.559999999998,-29609.415,-51472.98,-25894.17,-26638.785
1764505335.285567,20234.43,-15633.315,-10162.98,-17793.855,-29612.25,-51475.815,-25896.915,-26641.53
1764505335.285567,20232.045,-15635.61,-10165.32,-17797.005,-29614.995,-51478.605,-25899.975,-26643.915
1764505335.285567,20232.855,-15634.62,-10164.465,-17796.69,-29614.095,-51477.255,-25898.805,-26643.51
1764505335.332819,20230.47,-15637.59,-10166.715,-17799.03,-29616.93,-51479.685,-25900.065,-26645.49
1764505335.332819,20232.72,-15635.52,-10164.6,-17796.195,-29614.455,-51477.075,-25897.635,-26643.24
1764505335.332819,20234.385,-15634.44,-10162.845,-17794.844999999998,-29613.195,-51476.04,-25897.365,-26641.935
1764505335.3338206,20233.62,-15634.98,-10163.7,-17795.655,-29613.15,-51476.85,-25898.58,-26642.925
1764505335.3338206,20229.615,-15638.49,-10167.12,-17799.84,-29616.795,-51481.215,-25902.36,-26647.02
1764505335.3338206,20231.055,-15637.365,-10165.59,-17798.355,-29615.895,-51479.55,-25900.605,-26645.31
1764505335.3338206,20236.095,-15631.965,-10160.64,-17793.54,-29611.035,-51474.42,-25895.295,-26640.765
1764505335.3338206,20234.115,-15633.405,-10161.945,-17794.17,-29612.115,-51476.04,-25896.87,-26642.61
1764505335.3338206,20231.145,-15636.555,-10164.735,-17796.915,-29615.265,-51478.83,-25899.57,-26645.355
1764505335.3338206,20232.585,-15634.53,-10162.8,-17795.34,-29614.185,-51476.67,-25897.725,-26643.465
1764505335.3338206,20230.785,-15636.285,-10165.14,-17797.184999999998,-29616.3,-51478.92,-25900.155,-26645.4
1764505335.3338206,20229.75,-15636.375,-10166.04,-17797.545,-29615.76,-51479.055,-25899.975,-26645.85
1764505335.3338206,20233.08,-15633.675,-10162.44,-17794.575,-29611.98,-51475.59,-25896.78,-26642.295
1764505335.3338206,20232.855,-15634.53,-10162.935,-17794.62,-29612.88,-51476.445,-25897.095,-26643.33
1764505335.3338206,20231.145,-15635.97,-10164.42,-17795.204999999998,-29615.04,-51478.605,-25899.075,-26645.13
1764505335.3338206,20233.62,-15632.55,-10161.765,-17791.695,-29611.215,-51475.32,-25895.88,-26641.575
1764505335.3338206,20233.935,-15631.83,-10160.955,-17791.245,-29610.945,-51474.33,-25895.43,-26640.765
1764505335.3338206,20228.895,-15636.87,-10165.725,-17796.195,-29616.795,-51479.19,-25900.74,-26646.03
1764505335.3338206,20231.055,-15635.925,-10164.6,-17795.204999999998,-29615.94,-51477.705,-25899.795,-26644.68
1764505335.3338206,20234.88,-15632.505,-10160.505,-17791.965,-29611.665,-51473.52,-25895.565,-26640.99
1764505335.3338206,20235.15,-15632.505,-10160.73,-17791.92,-29611.98,-51473.835,-25895.97,-26641.08
1764505335.3338206,20234.655,-15634.08,-10161.855,-17792.64,-29612.745,-51474.78,-25897.14,-26642.205
1764505335.3338206,20233.935,-15634.08,-10162.62,-17792.864999999998,-29613.375,-51475.365,-25897.68,-26642.925
1764505335.3338206,20230.56,-15637.725,-10166.265,-17795.295,-29616.165,-51479.01,-25900.785,-26645.535
1764505335.3776238,20230.56,-15638.355,-10166.85,-17795.745,-29616.165,-51479.19,-25901.145,-26645.13
1764505335.3776238,20231.775,-15637.095,-10165.455,-17794.395,-29615.13,-51477.21,-25899.435,-26644.185
1764505335.3776238,20235.96,-15632.37,-10161.135,-17790.3,-29611.215,-51473.385,-25895.295,-26640.27
1764505335.3776238,20232.9,-15635.97,-10164.645,-17794.305,-29614.455,-51476.805,-25898.49,-26643.69
1764505335.3776238,20236.005,-15633.09,-10161.135,-17790.93,-29611.215,-51473.52,-25895.52,-26640.36
1764505335.3776238,20235.555,-15633.315,-10161.585,-17791.29,-29611.53,-51473.745,-25895.295,-26640.63
1764505335.3776238,20236.23,-15632.595,-10160.28,-17790.165,-29610.945,-51472.845,-25894.845,-26638.965
1764505335.3776238,20234.43,-15633.9,-10161.315,-17791.065,-29612.34,-51474.465,-25895.97,-26641.44
1764505335.3776238,20232.495,-15636.33,-10163.565,-17793.809999999998,-29614.86,-51476.895,-25898.895,-26644.095
1764505335.3776238,20234.16,-15634.665,-10162.17,-17792.19,-29613.69,-51475.455,-25896.915,-26642.655
1764505335.3776238,20231.28,-15638.04,-10165.095,-17795.52,-29616.57,-51478.695,-25899.21,-26645.175
1764505335.3776238,20232.855,-15636.915,-10163.565,-17794.44,-29614.995,-51477.57,-25898.67,-26643.78
1764505335.3776238,20237.67,-15631.605,-10158.795,-17789.219999999998,-29609.46,-51472.395,-25893.945,-26638.92
1764505335.3776238,20235.78,-15633.54,-10161.495,-17790.84,-29611.215,-51474.015,-25896.285,-26641.53
1764505335.3776238,20234.16,-15635.205,-10162.98,-17792.19,-29613.06,-51474.825,-25897.095,-26642.925
1764505335.3776238,20233.08,-15636.51,-10164.15,-17793.54,-29613.915,-51476.49,-25897.815,-26644.005
1764505335.3776238,20229.795,-15640.65,-10167.48,-17796.825,-29617.335,-51480.72,-25901.955,-26647.38
1764505335.3776238,20229.795,-15640.065,-10166.49,-17796.105,-29616.48,-51480.495,-25901.415,-26646.84
1764505335.3776238,20233.26,-15635.88,-10162.305,-17792.145,-29612.205,-51476.535,-25897.095,-26642.115
1764505335.3776238,20232.045,-15637.365,-10163.295,-17793.315,-29613.6,-51477.66,-25898.895,-26643.15
1764505335.3776238,20228.49,-15640.695,-10166.895,-17796.915,-29617.515,-51481.215,-25901.82,-26646.795
1764505335.3776238,20231.73,-15636.645,-10162.665,-17793.54,-29614.455,-51477.03,-25897.995,-26642.97
1764505335.3776238,20234.835,-15634.125,-10160.145,-17790.795,-29612.43,-51474.51,-25895.52,-26641.035
1764505335.3776238,20232.585,-15636.87,-10162.44,-17792.864999999998,-29614.185,-51476.94,-25898.085,-26643.105
1764505335.4251175,20230.245,-15639.705,-10165.68,-17795.79,-29616.255,-51478.965,-25900.92,-26645.67
1764505335.4251175,20230.425,-15639.615,-10165.59,-17796.105,-29616.84,-51479.505,-25900.605,-26645.76
1764505335.4251175,20234.745,-15635.61,-10160.865,-17792.055,-29612.745,-51475.77,-25895.88,-26641.215
1764505335.4251175,20235.015,-15635.655,-10161.27,-17791.245,-29612.565,-51475.635,-25895.79,-26641.665
1764505335.4251175,20231.595,-15639.75,-10165.32,-17795.114999999998,-29616.03,-51478.965,-25899.165,-26645.265
1764505335.4251175,20231.235,-15640.245,-10166.04,-17796.239999999998,-29616.795,-51479.145,-25900.965,-26645.94
1764505335.4251175,20233.665,-15638.13,-10164.69,-17794.215,-29614.815,-51477.255,-25899.03,-26643.735
1764505335.4251175,20237.805,-15633.9,-10160.415,-17790.39,-29610.72,-51472.935,-25894.665,-26639.37
1764505335.4251175,20238.21,-15632.73,-10158.165,-17789.04,-29609.415,-51471.81,-25893.495,-26638.74
1764505335.4251175,20236.68,-15634.845,-10160.235,-17791.065,-29611.44,-51474.105,-25895.61,-26641.755
1764505335.4251175,20235.465,-15636.645,-10162.485,-17793.405,-29613.015,-51475.545,-25897.005,-26642.565
1764505335.4251175,20231.325,-15640.56,-10166.49,-17796.51,-29616.255,-51479.145,-25901.1,-26646.075
1764505335.4251175,20231.415,-15640.92,-10166.58,-17796.105,-29616.84,-51479.37,-25901.415,-26646.66
1764505335.4251175,20231.595,-15639.615,-10164.735,-17795.7,-29616.66,-51479.145,-25900.875,-26646.03
1764505335.4251175,20235.735,-15635.88,-10160.55,-17791.829999999998,-29612.745,-51474.51,-25896.69,-26641.89
1764505335.4251175,20234.61,-15636.87,-10162.665,-17792.1,-29612.925,-51475.23,-25896.78,-26642.745
1764505335.4251175,20233.305,-15637.68,-10163.745,-17793.09,-29614.635,-51476.985,-25898.13,-26643.69
1764505335.4251175,20231.145,-15641.145,-10167.075,-17796.285,-29617.155,-51480.225,-25902.09,-26647.065
1764505335.4251175,20234.52,-15638.49,-10163.52,-17793.045,-29614.005,-51477.12,-25898.355,-26643.78
1764505335.4251175,20230.11,-15642.09,-10167.165,-17796.6,-29617.83,-51480.72,-25902.09,-26647.155
1764505335.4251175,20232.585,-15639.255,-10164.915,-17794.53,-29615.445,-51478.83,-25899.48,-26645.04
1764505335.4251175,20230.56,-15641.64,-10167.3,-17797.184999999998,-29617.515,-51480.945,-25901.91,-26648.37
1764505335.4736204,20233.755,-15638.715,-10163.475,-17794.035,-29614.41,-51477.57,-25899.03,-26645.265
1764505335.4736204,20233.305,-15638.94,-10163.565,-17794.125,-29614.905,-51477.93,-25899.795,-26645.265
1764505335.4736204,20230.335,-15642.495,-10167.075,-17798.309999999998,-29618.28,-51481.305,-25902.99,-26649.495
1764505335.4736204,20230.02,-15643.35,-10166.985,-17798.219999999998,-29617.785,-51480.72,-25903.53,-26649.99
1764505335.4746337,20231.505,-15640.29,-10164.915,-17795.969999999998,-29615.67,-51478.965,-25901.415,-26647.11
1764505335.4746337,20235.42,-15636.87,-10160.955,-17792.774999999998,-29612.205,-51474.915,-25897.815,-26642.655
1764505335.4746337,20236.635,-15636.105,-10159.875,-17791.92,-29611.305,-51473.745,-25896.375,-26641.305
1764505335.4746337,20231.685,-15641.37,-10165.365,-17796.015,-29615.67,-51478.56,-25901.505,-26646.57
1764505335.4746337,20233.08,-15640.695,-10164.555,-17795.295,-29615.4,-51478.2,-25901.775,-26645.94
1764505335.4746337,20235.51,-15638.445,-10162.26,-17793.09,-29613.555,-51475.635,-25899.435,-26643.6
1764505335.4746337,20235.51,-15638.445,-10161.36,-17793.045,-29613.06,-51475.5,-25899.12,-26643.06
1764505335.4746337,20235.06,-15638.805,-10161.675,-17793.765,-29613.465,-51475.68,-25899.84,-26643.375
1764505335.4746337,20233.935,-15639.435,-10162.215,-17794.395,-29614.5,-51476.535,-25900.155,-26644.815
1764505335.4746337,20230.335,-15642.45,-10165.815,-17797.815,-29618.01,-51480.045,-25903.62,-26647.92
1764505335.4746337,20231.595,-15641.01,-10164.465,-17797.05,-29617.11,-51478.29,-25902.495,-26646.435
1764505335.4746337,20235.87,-15636.96,-10160.64,-17793.405,-29612.565,-51474.195,-25898.49,-26642.97
1764505335.4746337,20237.985,-15634.935,-10158.345,-17791.065,-29610.09,-51472.89,-25896.195,-26641.215
1764505335.4746337,20236.23,-15636.105,-10159.47,-17792.46,-29611.305,-51474.6,-25897.59,-26642.565
1764505335.4746337,20234.16,-15637.41,-10161.135,-17794.215,-29612.88,-51476.58,-25900.29,-26644.365
1764505335.4746337,20234.43,-15637.995,-10161.27,-17794.53,-29613.555,-51476.58,-25900.65,-26645.22
1764505335.4746337,20236.905,-15636.555,-10159.65,-17792.82,-29612.34,-51474.645,-25898.895,-26644.185
1764505335.4746337,20239.29,-15634.035,-10157.49,-17789.85,-29609.28,-51472.17,-25895.835,-26642.34
1764505335.4746337,20235.735,-15638.175,-10161.27,-17793.809999999998,-29612.52,-51475.545,-25899.165,-26645.625
1764505335.4746337,20236.905,-15637.095,-10160.73,-17792.864999999998,-29611.125,-51474.645,-25898.805,-26644.59
1764505335.5179057,20236.005,-15638.265,-10161.54,-17794.62,-29612.115,-51475.995,-25900.02,-26646.525
1764505335.5179057,20240.55,-15633.405,-10156.365,-17789.219999999998,-29607.48,-51471.405,-25895.07,-26641.395
1764505335.5179057,20242.53,-15631.695,-10154.79,-17787.465,-29605.455,-51469.47,-25893.09,-26639.91
1764505335.5179057,20238.03,-15635.97,-10158.525,-17790.84,-29609.505,-51472.53,-25897.32,-26643.645
1764505335.5179057,20240.235,-15633.54,-10156.23,-17788.274999999998,-29608.02,-51470.415,-25895.43,-26641.17
1764505335.5179057,20237.535,-15635.79,-10158.84,-17791.065,-29610.99,-51473.79,-25897.86,-26643.78
1764505335.5179057,20240.1,-15633.27,-10156.23,-17788.545,-29608.515,-51470.73,-25894.755,-26641.08
1764505335.5179057,20239.245,-15633.945,-10156.77,-17788.995,-29609.055,-51471.495,-25895.43,-26642.115
1764505335.5179057,20238.66,-15634.755,-10157.625,-17789.579999999998,-29608.965,-51472.26,-25896.735,-26643.105
1764505335.5179057,20235.375,-15638.625,-10160.73,-17792.91,-29612.745,-51476.22,-25900.38,-26646.93
1764505335.5179057,20235.645,-15638.22,-10160.1,-17792.55,-29612.115,-51475.59,-25899.795,-26645.805
1764505335.5179057,20238.39,-15635.115,-10156.815,-17789.04,-29608.965,-51471.81,-25896.465,-26642.34
1764505335.5179057,20239.2,-15634.215,-10156.41,-17788.77,-29608.65,-51471.45,-25894.89,-26642.115
1764505335.5179057,20236.32,-15637.005,-10159.38,-17791.605,-29611.755,-51474.645,-25897.86,-26644.815
1764505335.519448,20233.44,-15640.83,-10163.025,-17795.655,-29614.815,-51477.84,-25901.73,-26648.01
1764505335.519448,20233.17,-15640.92,-10162.845,-17795.88,-29614.68,-51477.21,-25902.225,-26647.515
1764505335.519448,20235.555,-15638.715,-10160.775,-17793.18,-29612.34,-51475.23,-25899.39,-26645.895
1764505335.519448,20231.73,-15643.035,-10164.915,-17797.184999999998,-29616.795,-51479.865,-25903.98,-26649.855
1764505335.519448,20230.695,-15642.765,-10165.095,-17798.445,-29617.47,-51479.955,-25904.655,-26650.26
1764505335.519448,20231.415,-15642.135,-10164.015,-17796.735,-29616.3,-51478.155,-25903.755,-26649.405
1764505335.519448,20233.845,-15639.75,-10161.54,-17793.18,-29612.97,-51475.05,-25900.425,-26646.345
1764505335.519448,20232.945,-15640.965,-10162.395,-17794.755,-29613.51,-51477.255,-25900.92,-26647.29
1764505335.519448,20237.31,-15637.14,-10157.895,-17790.12,-29609.235,-51472.935,-25895.88,-26642.97
1764505335.519448,20235.285,-15639.03,-10160.19,-17791.92,-29611.26,-51474.465,-25897.86,-26645.13
1764505335.567788,20234.97,-15638.715,-10159.74,-17792.1,-29611.08,-51474.51,-25897.905,-26645.355
1764505335.578595,20234.205,-15638.895,-10160.235,-17792.954999999998,-29611.62,-51475.095,-25898.67,-26646.3
1764505335.578595,20231.46,-15642.45,-10163.43,-17795.969999999998,-29615.49,-51478.065,-25902.27,-26649.495
1764505335.578595,20233.575,-15640.92,-10161.405,-17794.575,-29613.42,-51476.76,-25900.245,-26647.47
1764505335.578595,20232.18,-15642.09,-10162.53,-17795.969999999998,-29615.13,-51478.47,-25900.965,-26648.865
1764505335.5795994,20233.575,-15640.2,-10160.595,-17793.719999999998,-29613.6,-51476.265,-25899.39,-26647.74
1764505335.5795994,20230.83,-15642.54,-10162.215,-17795.745,-29615.805,-51478.29,-25901.55,-26649.09
1764505335.5795994,20233.845,-15639.075,-10158.615,-17792.1,-29611.755,-51474.33,-25898.22,-26645.49
1764505335.5795994,20234.835,-15638.49,-10157.85,-17791.515,-29610.855,-51474.15,-25897.725,-26644.095
1764505335.5795994,20231.01,-15641.685,-10162.08,-17795.34,-29613.69,-51478.02,-25900.695,-26647.29
1764505335.5795994,20228.76,-15643.53,-10164.285,-17797.59,-29616.165,-51479.82,-25903.035,-26649.855
1764505335.5795994,20231.505,-15640.965,-10160.775,-17794.62,-29612.835,-51476.58,-25900.065,-26647.02
1764505335.5795994,20230.38,-15642.585,-10161.9,-17795.565,-29613.735,-51477.435,-25901.91,-26649.0
1764505335.5795994,20233.035,-15640.02,-10160.055,-17792.594999999998,-29610.27,-51474.51,-25899.795,-26645.625
1764505335.5795994,20232.81,-15640.11,-10159.965,-17792.82,-29610.855,-51474.555,-25899.03,-26644.59
1764505335.5811124,20229.12,-15643.215,-10162.98,-17796.375,-29613.87,-51478.245,-25902.405,-26647.965
1764505335.5811124,20231.505,-15640.83,-10160.46,-17793.945,-29611.98,-51476.715,-25899.615,-26645.67
1764505335.5811124,20231.235,-15641.415,-10160.595,-17794.8,-29612.565,-51477.03,-25901.19,-26646.48
