Timestamp,Channel1,Channel2,Channel3,Channel4,Channel5,Channel6,Channel7,Channel8
1764505177.1952796,-2517.12,7775.82,-40710.78,-25922.07,-34056.675,-24344.415,-11786.265,1836.09
1764505177.1952796,-2516.13,7776.224999999999,-40711.185,-25922.835,-34057.215,-24345.18,-11785.455,1837.8
1764505177.1952796,-2516.58,7774.785,-40711.59,-25923.78,-34057.845,-24345.405,-11785.59,1837.395
1764505177.1952796,-2516.805,7774.019999999999,-40711.23,-25922.79,-34056.54,-24343.965,-11785.545,1837.485
1764505177.1952796,-2520.0,7772.085,-40714.29,-25925.715,-34059.285,-24345.54,-11787.03,1835.1
1764505177.1952796,-2519.01,7773.434999999999,-40712.805,-25923.915,-34057.8,-24344.415,-11786.94,1835.01
1764505177.1952796,-2518.155,7773.525,-40711.77,-25921.89,-34055.1,-24341.445,-11786.355,1836.36
1764505177.1952796,-2517.705,7773.795,-40710.645,-25921.035,-34054.56,-24340.005,-11784.555,1836.675
1764505177.1952796,-2516.805,7775.009999999999,-40710.195,-25921.125,-34056.45,-24342.795,-11784.555,1836.315
1764505177.1952796,-2521.44,7770.059999999999,-40715.145,-25926.03,-34061.67,-24349.095,-11789.28,1831.32
1764505177.1952796,-2520.405,7770.735,-40713.255,-25925.13,-34061.175,-24349.455,-11790.27,1832.085
1764505177.1952796,-2518.155,7774.019999999999,-40710.33,-25922.385,-34057.845,-24344.955,-11787.93,1834.56
1764505177.1958334,-2522.34,7768.53,-40716.495,-25928.055,-34061.625,-24346.62,-11790.405,1829.655
1764505177.1958334,-2519.235,7770.78,-40714.02,-25926.795,-34059.33,-24344.46,-11788.2,1832.535
1764505177.1958334,-2524.005,7766.505,-40718.565,-25929.09,-34060.68,-24344.595,-11789.505,1829.655
1764505177.1958334,-2523.15,7767.719999999999,-40717.035,-25928.865,-34061.13,-24345.99,-11790.045,1830.285
1764505177.1958334,-2520.675,7770.644999999999,-40715.01,-25927.965,-34061.94,-24349.815,-11789.1,1832.445
1764505177.1958334,-2517.84,7772.355,-40712.535,-25925.22,-34058.835,-24346.08,-11786.67,1834.605
1764505177.1958334,-2515.905,7773.525,-40711.32,-25924.005,-34056.54,-24342.795,-11784.87,1836.72
1764505177.1958334,-2521.485,7767.719999999999,-40718.115,-25930.62,-34063.2,-24349.365,-11789.28,1832.22
1764505177.1958334,-2518.38,7771.41,-40714.335,-25926.705,-34059.24,-24346.08,-11787.705,1835.28
1764505177.1958334,-2517.615,7773.075,-40710.465,-25921.89,-34054.29,-24340.095,-11786.535,1833.525
1764505177.1958334,-2518.605,7772.355,-40711.365,-25923.6,-34057.305,-24343.65,-11788.515,1831.815
1764505177.1958334,-2519.595,7771.724999999999,-40712.535,-25926.165,-34060.905,-24348.735,-11791.125,1829.97
1764505177.2396655,-2519.64,7771.32,-40712.715,-25925.355,-34059.465,-24348.015,-11790.54,1830.825
1764505177.2396655,-2520.765,7767.45,-40718.34,-25927.47,-34060.23,-24347.745,-11788.965,1832.895
1764505177.2396655,-2521.08,7767.809999999999,-40717.845,-25930.17,-34065.36,-24352.515,-11791.35,1829.88
1764505177.2396655,-2519.595,7769.384999999999,-40716.72,-25930.08,-34064.325,-24349.545,-11789.415,1831.455
1764505177.2396655,-2516.04,7773.434999999999,-40712.535,-25925.13,-34059.105,-24345.225,-11786.445,1835.235
1764505177.2396655,-2518.11,7771.815,-40712.535,-25925.76,-34061.49,-24349.545,-11788.785,1832.265
1764505177.2396655,-2519.82,7769.745,-40715.505,-25927.2,-34062.48,-24349.14,-11789.73,1831.41
1764505177.241214,-2520.765,7768.485,-40717.485,-25928.73,-34061.04,-24345.675,-11788.38,1831.545
1764505177.241214,-2516.58,7774.065,-40712.67,-25923.915,-34056.765,-24343.245,-11786.265,1834.335
1764505177.241214,-2517.57,7773.705,-40712.805,-25923.6,-34056.72,-24343.83,-11787.525,1832.535
1764505177.241214,-2519.64,7771.545,-40714.695,-25925.04,-34056.99,-24341.94,-11787.48,1831.905
1764505177.241214,-2520.0,7770.96,-40715.28,-25926.975,-34058.43,-24342.705,-11787.21,1832.31
1764505177.241214,-2519.19,7770.644999999999,-40716.45,-25929.99,-34063.92,-24349.095,-11787.345,1833.795
1764505177.241214,-2514.78,7774.019999999999,-40713.165,-25926.705,-34061.04,-24347.205,-11784.69,1837.8
1764505177.241214,-2514.375,7775.594999999999,-40711.05,-25924.005,-34058.025,-24345.27,-11784.105,1837.755
1764505177.241214,-2516.67,7773.389999999999,-40713.39,-25926.345,-34060.32,-24346.98,-11785.68,1835.28
1764505177.241214,-2518.245,7771.23,-40715.37,-25928.145,-34061.895,-24349.095,-11787.615,1833.12
1764505177.241214,-2516.625,7773.615,-40713.975,-25926.435,-34058.655,-24343.65,-11784.42,1836.495
1764505177.241214,-2517.93,7772.355,-40715.595,-25927.605,-34059.869999999995,-24345.945,-11785.005,1835.37
1764505177.241214,-2519.37,7771.139999999999,-40716.09,-25929.0,-34062.21,-24349.095,-11787.795,1832.805
1764505177.241214,-2518.2,7771.769999999999,-40715.19,-25928.235,-34060.23,-24347.205,-11787.435,1834.92
1764505177.241214,-2519.595,7769.969999999999,-40716.585,-25930.35,-34061.895,-24349.005,-11787.03,1833.795
1764505177.241214,-2517.39,7772.174999999999,-40714.02,-25927.245,-34058.115,-24345.18,-11785.68,1835.145
1764505177.241214,-2521.08,7769.61,-40716.27,-25928.73,-34060.545,-24346.8,-11788.74,1830.645
1764505177.2895913,-2518.335,7771.905,-40714.29,-25926.795,-34060.32,-24346.98,-11787.12,1834.245
1764505177.2895913,-2520.495,7770.554999999999,-40715.235,-25929.315,-34063.02,-24349.725,-11788.92,1831.365
1764505177.2895913,-2522.34,7769.384999999999,-40716.315,-25931.07,-34064.145,-24351.3,-11790.765,1829.565
1764505177.2895913,-2521.8,7770.105,-40715.55,-25929.675,-34062.119999999995,-24349.455,-11790.0,1829.835
1764505177.2895913,-2522.43,7768.304999999999,-40716.54,-25928.775,-34061.58,-24348.24,-11789.595,1830.06
1764505177.2895913,-2521.89,7769.25,-40715.415,-25928.19,-34060.41,-24347.295,-11789.415,1830.33
1764505177.2895913,-2518.47,7774.11,-40710.78,-25924.59,-34056.9,-24344.865,-11788.155,1833.435
1764505177.2895913,-2522.205,7768.62,-40716.27,-25930.665,-34062.48,-24349.32,-11790.18,1830.15
1764505177.2895913,-2528.055,7762.95,-40721.445,-25936.02,-34067.34,-24352.065,-11793.915,1825.11
1764505177.2895913,-2521.8,7768.844999999999,-40715.145,-25929.54,-34061.265,-24346.53,-11789.685,1830.825
1764505177.2895913,-2521.44,7768.62,-40715.37,-25929.45,-34061.715,-24347.07,-11789.595,1830.87
1764505177.2895913,-2526.435,7763.309999999999,-40721.355,-25935.165,-34068.195,-24353.64,-11794.005,1826.28
1764505177.29141,-2522.025,7768.259999999999,-40717.35,-25931.79,-34065.045,-24351.57,-11791.305,1830.285
1764505177.29141,-2519.73,7770.87,-40714.155,-25928.505,-34061.805,-24349.77,-11789.415,1831.77
1764505177.29141,-2522.835,7767.945,-40716.495,-25929.99,-34063.29,-24350.895,-11791.44,1829.07
1764505177.29141,-2521.53,7768.62,-40715.865,-25928.73,-34060.86,-24345.045,-11788.29,1831.995
1764505177.29141,-2522.295,7767.945,-40715.73,-25929.405,-34061.895,-24345.765,-11789.055,1831.14
1764505177.29141,-2523.105,7767.945,-40716.36,-25929.315,-34062.345,-24345.99,-11789.865,1829.295
1764505177.29141,-2518.47,7773.03,-40711.77,-25923.465,-34056.36,-24341.355,-11786.715,1832.76
1764505177.29141,-2516.94,7773.525,-40711.095,-25922.745,-34055.145,-24340.86,-11784.78,1834.56
1764505177.29141,-2513.655,7775.955,-40708.035,-25920.495,-34053.795,-24340.545,-11782.755,1838.43
1764505177.29141,-2516.535,7773.12,-40711.185,-25924.14,-34058.25,-24343.065,-11784.69,1836.495
1764505177.3365018,-2516.715,7772.94,-40710.15,-25922.655,-34056.27,-24342.75,-11785.545,1836.045
1764505177.3365018,-2520.765,7769.25,-40714.245,-25926.345,-34059.06,-24344.28,-11787.795,1832.04
1764505177.3365018,-2522.97,7765.92,-40718.88,-25930.575,-34062.21,-24344.415,-11788.515,1830.735
1764505177.3365018,-2519.865,7769.025,-40715.64,-25928.19,-34059.825,-24343.605,-11786.265,1833.885
1764505177.3365018,-2523.69,7765.92,-40718.07,-25930.485,-34063.83,-24348.105,-11789.46,1829.88
1764505177.3365018,-2520.0,7770.105,-40714.065,-25927.515,-34061.49,-24347.97,-11787.57,1832.445
1764505177.3365018,-2518.02,7771.545,-40713.525,-25928.19,-34061.04,-24347.7,-11786.895,1834.65
1764505177.3365018,-2522.52,7766.099999999999,-40719.195,-25933.77,-34065.27,-24349.86,-11788.785,1831.68
1764505177.3365018,-2519.145,7770.285,-40715.19,-25930.53,-34063.11,-24348.87,-11786.805,1834.83
1764505177.3365018,-2519.37,7770.105,-40715.19,-25930.26,-34063.155,-24349.32,-11788.605,1833.885
1764505177.3365018,-2521.125,7767.945,-40716.72,-25930.62,-34063.92,-24349.59,-11789.64,1832.265
1764505177.3365018,-2526.3,7762.139999999999,-40721.535,-25935.48,-34067.925,-24353.865,-11793.105,1827.09
1764505177.3365018,-2526.885,7761.78,-40722.255,-25935.3,-34068.15,-24353.865,-11794.77,1826.37
1764505177.3365018,-2522.205,7767.674999999999,-40716.45,-25930.26,-34063.065,-24347.97,-11790.81,1831.32
1764505177.3365018,-2521.035,7768.799999999999,-40715.415,-25930.35,-34061.67,-24347.43,-11790.63,1831.635
1764505177.3365018,-2522.25,7766.955,-40716.945,-25930.89,-34062.975,-24349.365,-11792.655,1829.16
1764505177.3365018,-2525.67,7764.705,-40719.375,-25933.05,-34065.855,-24352.695,-11794.77,1826.73
1764505177.3365018,-2521.755,7768.394999999999,-40715.64,-25928.145,-34059.69,-24346.485,-11791.665,1831.545
1764505177.3365018,-2523.735,7765.65,-40719.375,-25930.665,-34061.715,-24348.015,-11792.61,1829.745
1764505177.3365018,-2528.055,7761.24,-40725.135,-25936.785,-34068.33,-24354.495,-11796.165,1825.56
1764505177.3365018,-2526.975,7762.679999999999,-40723.065,-25934.625,-34067.34,-24354.45,-11796.345,1825.695
1764505177.3365018,-2523.105,7767.54,-40717.125,-25928.28,-34060.815,-24347.205,-11793.285,1828.53
1764505177.3365018,-2525.04,7764.66,-40719.6,-25932.915,-34065.09,-24351.93,-11794.365,1827.9
1764505177.3365018,-2520.855,7767.719999999999,-40716.27,-25928.46,-34057.575,-24341.76,-11788.335,1832.805
1764505177.3822362,-2521.89,7767.045,-40716.72,-25928.055,-34057.035,-24340.455,-11788.785,1831.77
1764505177.3822362,-2523.375,7766.73,-40716.315,-25928.325,-34060.05,-24344.955,-11791.845,1829.475
1764505177.3822362,-2517.345,7773.57,-40709.745,-25922.205,-34056.675,-24344.235,-11790.09,1832.94
1764505177.3822362,-2520.09,7768.665,-40714.785,-25925.445,-34059.105,-24343.965,-11788.92,1832.355
1764505177.3822362,-2518.92,7768.259999999999,-40715.865,-25926.255,-34059.42,-24342.885,-11787.12,1834.335
1764505177.3822362,-2519.19,7769.07,-40715.235,-25928.055,-34063.065,-24349.5,-11790.765,1831.5
1764505177.3822362,-2519.595,7768.485,-40716.27,-25929.315,-34064.055,-24350.265,-11790.495,1831.5
1764505177.3822362,-2518.47,7768.62,-40716.09,-25930.935,-34064.865,-24350.805,-11789.955,1833.435
1764505177.3822362,-2521.215,7765.605,-40718.34,-25933.77,-34068.06,-24354.27,-11792.655,1831.32
1764505177.3822362,-2522.52,7765.019999999999,-40719.735,-25934.94,-34070.22,-24357.465,-11794.05,1830.33
1764505177.3822362,-2517.39,7770.285,-40715.64,-25930.755,-34065.494999999995,-24353.325,-11790.27,1834.605
1764505177.383235,-2519.505,7768.304999999999,-40716.45,-25931.835,-34066.575,-24353.46,-11791.62,1832.31
1764505177.383235,-2524.68,7765.155,-40719.105,-25934.04,-34068.15,-24354.18,-11794.365,1826.775
1764505177.383235,-2518.695,7769.745,-40714.785,-25930.215,-34064.145,-24351.03,-11789.28,1833.3
1764505177.383235,-2518.02,7769.969999999999,-40715.1,-25930.215,-34065.72,-24352.335,-11788.56,1834.47
1764505177.383235,-2520.99,7766.82,-40718.385,-25934.22,-34068.285,-24352.425,-11790.045,1831.95
1764505177.383235,-2522.115,7766.054999999999,-40719.015,-25934.58,-34067.205,-24352.02,-11791.26,1831.005
1764505177.383235,-2522.88,7765.335,-40718.79,-25933.5,-34067.295,-24352.02,-11792.07,1830.51
1764505177.383235,-2525.13,7763.759999999999,-40720.545,-25935.345,-34069.14,-24354.09,-11793.555,1827.495
1764505177.383235,-2520.315,7768.304999999999,-40715.37,-25929.765,-34063.47,-24349.005,-11790.09,1831.185
1764505177.383235,-2522.745,7766.235,-40717.215,-25931.475,-34065.494999999995,-24351.165,-11791.935,1828.44
1764505177.383235,-2522.745,7766.054999999999,-40718.025,-25932.33,-34066.53,-24351.705,-11791.935,1828.935
1764505177.4276636,-2520.405,7768.844999999999,-40714.83,-25929.225,-34063.29,-24347.835,-11789.91,1831.86
1764505177.4276636,-2522.565,7765.785,-40717.71,-25931.835,-34065.18,-24348.555,-11790.045,1830.33
1764505177.4276636,-2518.65,7768.844999999999,-40714.875,-25928.01,-34062.03,-24346.125,-11787.66,1834.2
1764505177.4276636,-2519.055,7768.844999999999,-40714.245,-25928.235,-34062.615,-24347.43,-11788.065,1834.155
1764505177.4276636,-2520.855,7767.945,-40714.695,-25929.54,-34064.595,-24349.23,-11789.055,1831.86
1764505177.4276636,-2524.14,7764.434999999999,-40718.565,-25933.095,-34068.24,-24351.795,-11791.755,1828.125
1764505177.4276636,-2522.79,7765.92,-40716.45,-25930.935,-34065.72,-24348.87,-11791.89,1829.43
1764505177.4276636,-2522.835,7766.28,-40715.46,-25929.765,-34065.135,-24349.05,-11791.89,1828.89
1764505177.4276636,-2518.92,7770.33,-40711.14,-25925.265,-34060.905,-24345.99,-11789.37,1833.12
1764505177.4276636,-2518.2,7770.105,-40711.32,-25924.77,-34058.655,-24343.155,-11788.02,1833.795
1764505177.4276636,-2521.395,7766.325,-40715.1,-25927.38,-34059.285,-24340.545,-11788.65,1831.185
1764505177.4276636,-2521.89,7765.875,-40715.955,-25928.865,-34061.625,-24343.965,-11789.505,1830.015
1764505177.4276636,-2518.065,7769.519999999999,-40713.12,-25926.615,-34059.555,-24343.515,-11787.48,1833.975
1764505177.4276636,-2522.115,7764.884999999999,-40716.855,-25929.99,-34062.84,-24346.89,-11790.18,1829.88
1764505177.4276636,-2520.945,7766.684999999999,-40714.965,-25927.425,-34060.23,-24344.28,-11789.82,1830.96
1764505177.42866,-2516.04,7773.03,-40708.755,-25920.09,-34052.4,-24336.99,-11785.23,1835.55
1764505177.42866,-2515.365,7774.155,-40707.405,-25918.785,-34051.815,-24336.63,-11785.23,1836.675
1764505177.42866,-2514.78,7773.929999999999,-40707.36,-25919.865,-34054.83,-24340.68,-11786.04,1836.18
1764505177.42866,-2516.13,7772.58,-40709.655,-25922.34,-34057.935,-24344.82,-11787.885,1833.255
1764505177.42866,-2516.355,7771.545,-40711.77,-25922.34,-34056.765,-24340.14,-11786.13,1835.01
1764505177.42866,-2525.22,7760.924999999999,-40723.92,-25934.58,-34066.53,-24344.37,-11789.46,1828.935
1764505177.42866,-2517.255,7769.429999999999,-40714.74,-25929.0,-34064.01,-24345.63,-11786.58,1834.785
1764505177.42866,-2516.085,7770.554999999999,-40713.255,-25927.47,-34063.965,-24346.665,-11786.355,1835.73
1764505177.42866,-2521.8,7765.155,-40718.655,-25932.825,-34069.905,-24353.19,-11791.08,1830.42
1764505177.4762015,-2518.515,7767.945,-40715.955,-25930.17,-34067.565,-24350.535,-11789.505,1832.76
1764505177.4762015,-2516.895,7769.7,-40713.795,-25928.055,-34065.18,-24348.24,-11788.605,1834.785
1764505177.4762015,-2518.245,7768.259999999999,-40715.055,-25929.045,-34065.225,-24348.42,-11789.37,1833.795
1764505177.4762015,-2521.215,7765.38,-40717.71,-25931.43,-34067.205,-24350.49,-11790.99,1830.96
1764505177.4762015,-2520.0,7766.82,-40716.765,-25930.89,-34065.945,-24349.095,-11790.045,1831.68
1764505177.4762015,-2516.625,7770.059999999999,-40713.48,-25926.48,-34061.22,-24344.685,-11787.345,1835.235
1764505177.4762015,-2518.02,7768.304999999999,-40714.92,-25927.335,-34062.57,-24346.71,-11788.83,1833.885
1764505177.4762015,-2517.84,7768.125,-40714.245,-25926.975,-34063.155,-24346.485,-11788.875,1833.435
1764505177.4762015,-2513.07,7772.894999999999,-40709.025,-25921.395,-34057.08,-24340.995,-11785.815,1838.115
1764505177.4762015,-2517.615,7769.115,-40712.94,-25925.04,-34060.77,-24343.74,-11788.29,1833.795
1764505177.4762015,-2518.38,7768.844999999999,-40713.48,-25924.59,-34061.22,-24343.92,-11789.055,1832.13
1764505177.4762015,-2518.92,7768.259999999999,-40714.2,-25925.13,-34062.345,-24345.54,-11789.82,1832.175
1764505177.4772203,-2517.255,7769.295,-40712.22,-25924.095,-34060.77,-24344.28,-11789.325,1833.255
1764505177.4772203,-2519.685,7767.9,-40713.48,-25924.41,-34060.095,-24342.57,-11790.855,1831.41
1764505177.4772203,-2520.765,7766.415,-40715.19,-25925.49,-34059.69,-24339.78,-11790.27,1831.32
1764505177.4772203,-2516.58,7770.014999999999,-40711.95,-25923.51,-34058.07,-24338.925,-11787.84,1835.55
1764505177.4772203,-2513.88,7772.715,-40708.665,-25921.44,-34057.665,-24341.265,-11787.84,1836.585
1764505177.4772203,-2513.88,7771.769999999999,-40710.285,-25923.51,-34058.744999999995,-24342.345,-11785.815,1837.215
1764505177.4772203,-2514.915,7769.25,-40712.265,-25926.615,-34060.32,-24341.76,-11786.355,1836.45
1764505177.4772203,-2515.905,7769.34,-40711.59,-25926.615,-34062.84,-24344.685,-11790.09,1833.345
1764505177.4772203,-2513.52,7771.769999999999,-40709.475,-25923.69,-34059.96,-24341.67,-11787.705,1836.135
1764505177.4772203,-2520.945,7761.375,-40721.31,-25932.42,-34064.91,-24345.18,-11789.145,1832.535
1764505177.4772203,-2521.71,7760.16,-40723.245,-25935.165,-34067.07,-24347.835,-11790.72,1831.545
1764505177.4772203,-2518.29,7767.269999999999,-40714.425,-25928.46,-34064.19,-24346.98,-11790.45,1832.355
1764505177.5203974,-2517.39,7767.719999999999,-40713.21,-25927.245,-34065.72,-24348.51,-11790.27,1833.21
1764505177.5203974,-2515.455,7769.295,-40713.165,-25926.525,-34064.19,-24346.98,-11788.2,1835.82
1764505177.5203974,-2511.765,7773.57,-40708.665,-25922.25,-34059.869999999995,-24341.715,-11784.78,1839.555
1764505177.5203974,-2510.19,7775.099999999999,-40706.235,-25919.46,-34055.955,-24337.62,-11782.845,1841.85
1764505177.5203974,-2509.56,7776.495,-40704.345,-25918.065,-34054.335,-24335.955,-11782.53,1842.885
1764505177.5209055,-2514.24,7771.59,-40709.205,-25924.005,-34060.635,-24343.2,-11786.805,1838.385
1764505177.5209055,-2519.595,7765.559999999999,-40714.785,-25929.495,-34066.53,-24349.635,-11791.755,1832.67
1764505177.5209055,-2517.48,7769.745,-40709.925,-25923.195,-34059.6,-24343.335,-11790.045,1832.985
1764505177.5209055,-2516.895,7770.599999999999,-40710.78,-25923.96,-34058.97,-24340.095,-11787.885,1836.0
1764505177.5209055,-2518.515,7768.71,-40713.345,-25926.84,-34062.39,-24341.715,-11788.47,1835.595
1764505177.5209055,-2514.735,7772.715,-40709.61,-25922.745,-34059.285,-24340.095,-11787.705,1838.16
1764505177.5209055,-2516.715,7771.32,-40710.87,-25924.005,-34059.69,-24340.995,-11788.965,1835.64
1764505177.5209055,-2516.04,7771.139999999999,-40709.43,-25923.33,-34057.35,-24337.485,-11788.2,1836.315
1764505177.5209055,-2514.645,7770.78,-40709.52,-25923.78,-34058.655,-24337.755,-11786.58,1837.44
1764505177.5209055,-2513.475,7772.219999999999,-40710.51,-25924.23,-34059.465,-24339.465,-11785.77,1838.205
1764505177.5209055,-2515.77,7769.565,-40713.75,-25926.705,-34061.94,-24342.975,-11788.875,1836.09
1764505177.5234747,-2518.245,7767.315,-40716.135,-25929.225,-34064.73,-24345.99,-11791.125,1833.75
1764505177.5234747,-2514.195,7771.184999999999,-40711.95,-25924.77,-34061.22,-24342.21,-11788.515,1836.99
1764505177.5234747,-2514.78,7770.87,-40712.445,-25925.355,-34061.67,-24343.155,-11789.145,1835.91
1764505177.5234747,-2514.87,7770.735,-40712.04,-25924.725,-34060.455,-24343.155,-11789.955,1835.01
1764505177.5234747,-2515.68,7770.644999999999,-40712.175,-25924.635,-34060.095,-24342.435,-11789.865,1834.56
1764505177.5234747,-2518.65,7767.315,-40715.64,-25928.82,-34062.885,-24343.92,-11791.08,1833.12
1764505177.5234747,-2520.63,7764.615,-40718.565,-25932.24,-34066.8,-24346.98,-11793.6,1831.5
1764505177.5234747,-2517.48,7768.62,-40714.965,-25929.315,-34066.305,-24348.24,-11791.845,1833.93
1764505177.5692806,-2518.695,7767.99,-40716.585,-25930.71,-34067.43,-24349.545,-11791.98,1834.29
1764505177.5692806,-2519.865,7766.37,-40717.89,-25931.925,-34068.195,-24350.445,-11793.69,1832.445
1764505177.5692806,-2518.875,7767.495,-40715.145,-25930.71,-34067.385,-24351.48,-11794.185,1831.86
1764505177.5692806,-2519.82,7766.73,-40716.27,-25931.835,-34067.925,-24352.11,-11794.545,1830.825
1764505177.5692806,-2520.27,7765.83,-40717.71,-25933.23,-34068.42,-24350.265,-11794.185,1831.095
1764505177.5692806,-2525.04,7760.88,-40722.57,-25937.325,-34072.785,-24352.83,-11797.65,1826.55
1764505177.570401,-2524.59,7761.105,-40722.165,-25936.38,-34071.84,-24352.29,-11798.82,1827.045
1764505177.570401,-2520.585,7765.65,-40717.665,-25932.195,-34067.025,-24346.8,-11794.995,1831.635
1764505177.570401,-2524.725,7761.509999999999,-40720.68,-25934.625,-34067.925,-24347.565,-11795.805,1828.71
1764505177.570401,-2521.395,7764.03,-40717.71,-25931.115,-34064.865,-24345.405,-11794.365,1830.78
1764505177.570401,-2515.095,7770.599999999999,-40711.77,-25926.345,-34061.13,-24343.74,-11790.675,1836.18
1764505177.570401,-2517.165,7769.429999999999,-40712.76,-25927.785,-34064.46,-24346.62,-11791.395,1835.235
1764505177.570401,-2520.27,7766.684999999999,-40715.28,-25930.17,-34066.619999999995,-24347.7,-11793.645,1832.94
1764505177.570401,-2522.655,7763.985,-40719.015,-25932.78,-34068.15,-24347.79,-11794.59,1830.51
1764505177.570401,-2520.045,7766.82,-40715.955,-25929.27,-34063.56,-24342.705,-11792.34,1832.895
1764505177.570401,-2520.9,7766.684999999999,-40714.515,-25928.505,-34063.47,-24344.1,-11792.925,1832.49
1764505177.570401,-2526.39,7760.474999999999,-40721.4,-25934.94,-34069.68,-24350.4,-11796.57,1828.035
1764505177.570401,-2524.905,7761.78,-40720.68,-25934.94,-34070.085,-24351.39,-11795.67,1829.34
1764505177.570401,-2526.57,7760.519999999999,-40721.22,-25935.39,-34071.03,-24352.515,-11796.975,1827.585
1764505177.570401,-2519.235,7767.809999999999,-40714.515,-25927.92,-34064.369999999995,-24344.685,-11791.08,1834.245
1764505177.570401,-2519.82,7767.179999999999,-40714.74,-25928.325,-34064.505,-24345.18,-11790.945,1834.83
1764505177.570401,-2523.825,7762.724999999999,-40719.195,-25933.005,-34069.68,-24350.22,-11794.095,1830.015
1764505177.6153662,-2521.395,7764.974999999999,-40717.845,-25931.295,-34068.195,-24348.105,-11793.24,1832.04
1764505177.6153662,-2521.89,7763.894999999999,-40718.655,-25931.745,-34068.33,-24348.42,-11793.24,1831.23
1764505177.6153662,-2518.335,7767.495,-40714.2,-25926.84,-34062.795,-24344.55,-11791.665,1834.065
1764505177.6153662,-2518.155,7769.205,-40713.21,-25925.805,-34062.39,-24345.675,-11792.79,1834.02
1764505177.6153662,-2520.45,7767.134999999999,-40715.28,-25929.45,-34067.025,-24352.425,-11794.995,1832.085
1764505177.6153662,-2515.77,7770.735,-40712.805,-25927.155,-34065.225,-24350.31,-11791.395,1837.035
1764505177.6153662,-2520.45,7766.505,-40716.765,-25930.17,-34066.665,-24349.23,-11793.105,1832.58
1764505177.6153662,-2520.45,7768.08,-40714.38,-25927.065,-34062.345,-24341.22,-11791.53,1831.68
1764505177.6153662,-2520.765,7767.224999999999,-40715.19,-25927.515,-34061.265,-24339.6,-11790.72,1832.76
1764505177.6153662,-2524.86,7759.304999999999,-40725.405,-25936.02,-34068.24,-24346.08,-11791.125,1832.175
1764505177.6153662,-2521.44,7765.155,-40719.42,-25932.465,-34066.98,-24346.44,-11791.755,1833.255
1764505177.6153662,-2522.205,7764.255,-40719.915,-25933.995,-34068.735,-24348.6,-11792.205,1832.4
1764505177.6153662,-2523.15,7762.815,-40720.59,-25933.095,-34068.33,-24347.25,-11792.7,1832.355
1764505177.6153662,-2521.035,7766.054999999999,-40718.115,-25929.675,-34066.44,-24345.99,-11790.99,1834.065
1764505177.6153662,-2521.395,7766.684999999999,-40715.64,-25930.395,-34069.815,-24352.02,-11792.295,1833.21
1764505177.6153662,-2521.26,7766.91,-40716.315,-25929.495,-34067.655,-24348.42,-11791.845,1834.02
1764505177.6153662,-2518.425,7768.53,-40714.47,-25926.84,-34063.785,-24342.39,-11788.875,1836.99
1764505177.6153662,-2514.285,7773.255,-40709.52,-25922.205,-34061.265,-24342.39,-11787.39,1839.555
1764505177.6153662,-2513.655,7773.66,-40708.98,-25922.79,-34061.355,-24343.065,-11785.905,1840.185
1764505177.6153662,-2518.83,7766.28,-40715.55,-25929.225,-34067.385,-24346.98,-11790.18,1834.74
1764505177.6153662,-2517.795,7767.179999999999,-40715.64,-25928.595,-34066.26,-24345.585,-11790.765,1835.19
1764505177.6153662,-2513.745,7772.219999999999,-40711.32,-25923.555,-34060.725,-24339.465,-11787.12,1839.33
1764505177.6153662,-2513.565,7772.309999999999,-40709.88,-25922.16,-34058.385,-24336.315,-11786.31,1838.835
1764505177.6153662,-2514.24,7770.915,-40711.23,-25923.195,-34060.005,-24338.745,-11786.76,1838.16
1764505177.6638727,-2517.165,7768.934999999999,-40714.605,-25927.515,-34064.55,-24344.055,-11789.595,1836.675
1764505177.6638727,-2513.43,7773.299999999999,-40709.565,-25922.025,-34059.69,-24339.375,-11786.58,1839.96
1764505177.6638727,-2514.645,7772.58,-40709.475,-25922.205,-34061.445,-24342.795,-11787.84,1837.845
1764505177.6638727,-2510.91,7776.809999999999,-40706.64,-25920.135,-34058.115,-24338.205,-11784.645,1842.48
1764505177.6638727,-2513.88,7772.894999999999,-40711.635,-25925.715,-34062.615,-24340.77,-11786.265,1840.41
1764505177.6638727,-2516.94,7769.7,-40714.29,-25929.225,-34066.8,-24346.935,-11790.135,1836.81
1764505177.6638727,-2516.445,7771.455,-40711.095,-25926.795,-34064.82,-24346.17,-11788.965,1836.99
1764505177.6638727,-2516.625,7770.285,-40713.12,-25928.235,-34064.73,-24344.505,-11788.065,1837.935
1764505177.6638727,-2517.39,7768.575,-40715.415,-25929.585,-34065.855,-24345.315,-11789.37,1836.765
1764505177.6638727,-2518.74,7767.54,-40716.99,-25930.71,-34067.295,-24347.565,-11790.18,1834.695
1764505177.6638727,-2518.92,7766.82,-40717.485,-25931.61,-34067.205,-24347.7,-11790.63,1834.695
1764505177.6638727,-2518.515,7768.08,-40716.945,-25929.945,-34066.215,-24346.305,-11790.18,1834.515
1764505177.6638727,-2518.38,7768.035,-40717.44,-25930.62,-34066.98,-24347.07,-11790.72,1834.56
1764505177.6638727,-2515.77,7771.184999999999,-40714.74,-25927.695,-34063.605,-24343.92,-11788.065,1838.115
1764505177.6638727,-2512.17,7774.559999999999,-40711.005,-25922.88,-34058.7,-24339.915,-11784.825,1841.22
1764505177.6638727,-2515.14,7771.59,-40713.12,-25925.85,-34061.31,-24342.345,-11786.715,1836.855
1764505177.6638727,-2512.755,7773.525,-40710.51,-25923.06,-34059.195,-24339.51,-11785.23,1839.33
1764505177.6638727,-2513.52,7772.49,-40711.545,-25924.005,-34060.185,-24340.59,-11785.365,1838.52
1764505177.6638727,-2512.395,7773.434999999999,-40710.24,-25923.15,-34059.825,-24340.32,-11785.905,1839.96
1764505177.6638727,-2513.745,7771.995,-40711.77,-25923.78,-34060.905,-24341.22,-11787.165,1838.88
1764505177.6638727,-2514.825,7770.735,-40713.525,-25925.085,-34062.165,-24342.93,-11788.695,1836.81
1764505177.6638727,-2512.98,7771.724999999999,-40712.58,-25924.095,-34062.705,-24341.895,-11787.12,1838.7
1764505177.6638727,-2512.305,7772.894999999999,-40711.86,-25922.97,-34061.04,-24340.23,-11785.14,1839.375
1764505177.6638727,-2511.18,7773.974999999999,-40710.06,-25921.395,-34058.295,-24337.89,-11784.15,1841.265
1764505177.7073238,-2512.125,7773.165,-40710.915,-25922.52,-34058.79,-24338.88,-11785.14,1840.635
1764505177.7073238,-2516.13,7770.33,-40713.885,-25924.815,-34061.13,-24341.175,-11787.21,1837.17
1764505177.7073238,-2514.105,7772.894999999999,-40710.87,-25921.08,-34057.53,-24337.89,-11784.87,1839.105
1764505177.7073238,-2510.145,7776.269999999999,-40707.81,-25917.84,-34053.615,-24334.335,-11783.43,1842.03
1764505177.7073238,-2514.33,7771.545,-40712.58,-25924.14,-34059.465,-24340.095,-11786.265,1838.745
1764505177.7073238,-2511.225,7773.57,-40710.69,-25922.34,-34058.34,-24339.33,-11783.52,1841.805
1764505177.7073238,-2514.42,7771.455,-40713.48,-25925.175,-34061.085,-24342.885,-11786.04,1838.34
1764505177.7073238,-2513.835,7772.085,-40712.355,-25923.915,-34060.545,-24343.515,-11786.355,1838.07
1764505177.7073238,-2513.52,7772.355,-40712.13,-25923.24,-34059.78,-24340.32,-11785.545,1840.23
1764505177.7073238,-2515.59,7770.105,-40715.145,-25925.805,-34062.165,-24340.095,-11786.04,1838.97
1764505177.7073238,-2515.995,7768.889999999999,-40715.595,-25926.75,-34063.47,-24343.38,-11788.02,1837.62
1764505177.7073238,-2517.615,7767.495,-40717.215,-25929.315,-34065.855,-24347.07,-11790.315,1835.82
1764505177.7073238,-2517.84,7767.585,-40718.115,-25929.315,-34066.89,-24347.79,-11790.45,1835.505
1764505177.7073238,-2517.93,7767.495,-40717.17,-25929.18,-34067.16,-24347.88,-11791.17,1834.335
1764505177.7073238,-2521.125,7763.759999999999,-40720.275,-25932.6,-34070.94,-24351.705,-11793.555,1831.185
1764505177.7073238,-2521.575,7763.625,-40720.905,-25933.23,-34071.39,-24352.065,-11794.095,1830.24
1764505177.7073238,-2519.73,7766.099999999999,-40719.42,-25931.16,-34068.555,-24348.375,-11793.06,1831.455
1764505177.7073238,-2514.69,7770.96,-40714.38,-25926.165,-34063.83,-24343.02,-11789.235,1836.36
1764505177.7073238,-2515.95,7769.88,-40715.865,-25927.47,-34066.125,-24345.765,-11790.405,1834.47
1764505177.7073238,-2511.675,7773.66,-40711.455,-25922.745,-34062.39,-24343.245,-11789.145,1838.52
1764505177.7073238,-2512.935,7771.905,-40713.48,-25925.22,-34063.695,-24343.875,-11789.19,1839.105
1764505177.7073238,-2516.535,7768.575,-40717.44,-25930.215,-34068.42,-24348.6,-11791.845,1835.73
1764505177.7547684,-2520.36,7765.11,-40720.86,-25934.355,-34073.505,-24354.855,-11796.66,1830.555
1764505177.7547684,-2519.1,7766.639999999999,-40718.655,-25932.06,-34071.075,-24352.695,-11796.12,1832.04
1764505177.7547684,-2520.405,7764.884999999999,-40720.14,-25933.59,-34071.57,-24351.885,-11796.255,1830.15
1764505177.7552755,-2515.05,7768.53,-40716.18,-25929.18,-34066.665,-24345.99,-11791.71,1835.325
1764505177.7552755,-2515.455,7768.17,-40715.955,-25928.955,-34066.17,-24346.305,-11791.665,1836.18
1764505177.7552755,-2517.39,7766.73,-40717.71,-25930.755,-34068.06,-24348.825,-11793.645,1834.02
1764505177.7552755,-2513.25,7770.509999999999,-40713.84,-25926.075,-34062.885,-24343.74,-11791.755,1836.945
1764505177.7552755,-2511.72,7772.13,-40711.995,-25924.095,-34060.23,-24341.175,-11789.505,1838.295
1764505177.7552755,-2515.365,7768.98,-40714.47,-25926.345,-34062.705,-24343.56,-11792.34,1834.605
1764505177.7552755,-2519.595,7764.344999999999,-40719.24,-25930.665,-34068.555,-24348.24,-11795.94,1829.205
1764505177.7552755,-2519.505,7764.344999999999,-40718.565,-25931.34,-34069.455,-24348.87,-11795.67,1830.06
1764505177.7552755,-2517.075,7766.37,-40716.315,-25928.865,-34068.105,-24347.655,-11794.005,1832.94
1764505177.7552755,-2510.865,7772.894999999999,-40709.295,-25921.665,-34061.04,-24342.12,-11790.135,1837.26
1764505177.7552755,-2508.435,7774.83,-40707.54,-25919.325,-34058.025,-24339.15,-11788.155,1839.195
1764505177.7552755,-2513.295,7769.384999999999,-40713.93,-25927.02,-34065.81,-24345.045,-11789.865,1836.18
1764505177.7552755,-2515.455,7767.855,-40716.045,-25927.965,-34068.015,-24348.33,-11791.71,1833.705
1764505177.7552755,-2513.655,7769.655,-40714.245,-25925.22,-34063.83,-24340.995,-11789.73,1835.865
1764505177.7552755,-2514.33,7768.755,-40714.965,-25926.57,-34063.74,-24341.175,-11789.235,1836.225
1764505177.7552755,-2510.055,7772.58,-40710.915,-25923.015,-34060.68,-24339.465,-11786.895,1840.23
1764505177.7552755,-2512.44,7770.285,-40713.66,-25924.995,-34062.93,-24341.985,-11788.695,1837.35
1764505177.7552755,-2511.0,7772.49,-40711.77,-25922.115,-34060.23,-24339.6,-11787.705,1838.61
1764505177.7552755,-2511.63,7772.445,-40711.23,-25921.89,-34059.915,-24339.555,-11788.695,1838.115
1764505177.7552755,-2512.89,7772.13,-40711.68,-25923.195,-34060.725,-24340.905,-11789.145,1837.125
1764505177.7552755,-2515.68,7769.384999999999,-40713.885,-25926.165,-34064.369999999995,-24344.685,-11790.54,1834.785
1764505177.803809,-2514.915,7769.745,-40712.985,-25925.76,-34064.55,-24344.055,-11790.09,1835.01
1764505177.803809,-2512.71,7771.365,-40711.815,-25924.545,-34063.155,-24342.165,-11788.065,1836.81
1764505177.803809,-2510.28,7772.58,-40710.285,-25923.375,-34061.58,-24340.635,-11786.355,1839.735
1764505177.803809,-2508.93,7774.605,-40707.675,-25920.855,-34060.095,-24339.645,-11785.185,1841.265
1764505177.803809,-2509.515,7775.415,-40707.855,-25920.315,-34060.545,-24341.49,-11786.265,1840.455
1764505177.803809,-2512.755,7771.545,-40711.32,-25924.095,-34064.91,-24347.43,-11789.145,1836.045
1764505177.803809,-2515.32,7768.394999999999,-40713.57,-25926.93,-34066.665,-24346.755,-11789.91,1834.605
1764505177.8048038,-2516.175,7767.045,-40716.675,-25929.54,-34067.07,-24342.615,-11788.155,1835.01
1764505177.8048038,-2514.06,7769.519999999999,-40714.425,-25927.065,-34065.18,-24342.705,-11787.39,1836.63
1764505177.8048038,-2510.685,7772.759999999999,-40709.97,-25923.33,-34061.355,-24339.285,-11784.69,1840.185
1764505177.8048038,-2511.855,7771.86,-40709.97,-25922.97,-34061.58,-24340.005,-11786.13,1838.745
1764505177.8048038,-2515.095,7769.745,-40712.535,-25924.77,-34063.38,-24342.975,-11788.875,1835.64
1764505177.8048038,-2516.22,7767.9,-40715.1,-25928.145,-34066.619999999995,-24345.99,-11789.28,1834.425
1764505177.8048038,-2510.955,7773.57,-40710.015,-25923.645,-34062.885,-24341.67,-11784.825,1839.825
1764505177.8048038,-2513.655,7771.679999999999,-40711.5,-25923.87,-34061.22,-24338.205,-11785.995,1836.72
1764505177.8048038,-2518.335,7765.469999999999,-40717.98,-25931.295,-34069.545,-24345.9,-11791.17,1832.535
1764505177.8048038,-2515.725,7768.08,-40715.505,-25929.45,-34068.96,-24346.8,-11790.72,1834.92
1764505177.8048038,-2517.075,7767.809999999999,-40715.91,-25928.865,-34068.69,-24346.71,-11791.08,1833.39
1764505177.8048038,-2513.295,7772.58,-40711.5,-25925.355,-34064.64,-24342.57,-11788.515,1837.125
1764505177.8048038,-2512.755,7773.165,-40711.41,-25925.13,-34065.765,-24344.64,-11788.2,1837.845
1764505177.8048038,-2516.895,7768.259999999999,-40717.08,-25930.125,-34071.21,-24349.68,-11790.945,1833.57
1764505177.8048038,-2517.3,7767.674999999999,-40717.215,-25930.08,-34070.625,-24348.105,-11791.305,1833.57
1764505177.8048038,-2514.915,7769.205,-40715.865,-25928.19,-34067.07,-24342.615,-11788.425,1835.775
1764505177.8048038,-2513.745,7770.735,-40714.695,-25926.39,-34066.395,-24342.345,-11787.525,1836.855
1764505177.8480985,-2515.05,7769.88,-40715.91,-25927.29,-34067.385,-24344.01,-11788.47,1835.73
1764505177.8480985,-2518.155,7766.594999999999,-40718.97,-25929.72,-34069.905,-24346.17,-11790.945,1832.265
1764505177.8480985,-2515.23,7769.474999999999,-40716.315,-25926.66,-34067.07,-24343.425,-11789.055,1834.65
1764505177.8499625,-2517.03,7767.0,-40718.565,-25929.765,-34069.815,-24345.675,-11790.09,1833.435
1764505177.8499625,-2516.445,7768.035,-40717.17,-25928.19,-34068.195,-24344.235,-11789.415,1834.065
1764505177.8499625,-2517.795,7767.045,-40718.655,-25928.865,-34068.465,-24345.0,-11789.235,1832.22
1764505177.8499625,-2516.895,7767.809999999999,-40717.62,-25927.695,-34066.665,-24343.605,-11788.695,1833.525
1764505177.8499625,-2515.365,7769.519999999999,-40714.47,-25925.085,-34064.55,-24342.12,-11787.795,1835.415
1764505177.8499625,-2520.585,7764.929999999999,-40718.52,-25930.08,-34069.23,-24347.34,-11791.845,1830.96
1764505177.8499625,-2517.615,7767.405,-40716.945,-25928.01,-34066.89,-24344.685,-11790.045,1833.885
1764505177.8499625,-2514.645,7771.32,-40713.705,-25923.735,-34062.84,-24341.265,-11787.975,1837.395
1764505177.8499625,-2517.255,7769.745,-40715.55,-25925.445,-34065.315,-24343.875,-11790.09,1834.695
1764505177.8499625,-2515.14,7771.094999999999,-40714.47,-25924.59,-34064.775,-24343.11,-11788.74,1836.405
1764505177.8499625,-2512.665,7771.59,-40713.75,-25924.455,-34065.315,-24343.74,-11786.715,1838.475
1764505177.8499625,-2513.52,7770.96,-40713.885,-25925.265,-34065.0,-24341.94,-11786.49,1838.205
1764505177.8499625,-2515.41,7769.07,-40715.325,-25926.21,-34064.46,-24341.04,-11788.02,1836.81
1764505177.8499625,-2518.38,7766.235,-40718.205,-25929.405,-34067.205,-24343.38,-11790.315,1834.02
1764505177.8499625,-2514.78,7768.934999999999,-40714.965,-25927.065,-34065.855,-24343.965,-11789.01,1836.63
1764505177.8499625,-2515.545,7768.755,-40715.37,-25929.045,-34068.96,-24348.33,-11790.54,1836.405
1764505177.8499625,-2514.69,7769.429999999999,-40715.19,-25928.055,-34068.69,-24347.205,-11789.685,1837.935
1764505177.8499625,-2514.87,7768.71,-40715.55,-25927.065,-34069.005,-24346.89,-11789.955,1836.765
1764505177.850975,-2521.395,7762.86,-40721.22,-25933.545,-34073.64,-24351.93,-11794.86,1830.87
1764505177.8979003,-2522.43,7762.275,-40722.165,-25934.13,-34073.82,-24353.055,-11797.155,1828.71
1764505177.8979003,-2516.04,7769.384999999999,-40714.92,-25925.49,-34066.395,-24346.305,-11793.15,1833.66
1764505177.8979003,-2516.13,7768.035,-40715.415,-25925.58,-34065.315,-24341.985,-11791.755,1834.47
1764505177.8979003,-2517.615,7766.684999999999,-40716.72,-25926.75,-34065.18,-24340.95,-11791.395,1833.21
1764505177.898445,-2516.31,7768.485,-40715.19,-25925.535,-34066.485,-24345.585,-11792.7,1833.93
1764505177.898445,-2513.07,7771.455,-40712.265,-25922.745,-34065.045,-24345.99,-11791.44,1836.945
1764505177.898445,-2515.77,7768.394999999999,-40715.595,-25926.48,-34068.015,-24347.34,-11792.34,1835.19
1764505177.898445,-2521.26,7760.79,-40724.595,-25935.345,-34073.91,-24349.275,-11793.78,1830.645
1764505177.898445,-2518.83,7763.804999999999,-40721.31,-25932.69,-34072.244999999995,-24349.005,-11792.61,1832.625
1764505177.898445,-2523.915,7760.519999999999,-40725.09,-25937.37,-34078.635,-24356.97,-11796.84,1828.845
1764505177.898445,-2525.22,7759.575,-40725.945,-25938.54,-34079.85,-24358.59,-11798.325,1828.395
1764505177.898445,-2520.855,7763.58,-40722.255,-25934.49,-34075.71,-24354.045,-11795.04,1831.68
1764505177.898445,-2518.11,7766.46,-40719.285,-25931.25,-34072.155,-24350.31,-11791.98,1834.2
1764505177.898445,-2514.015,7770.87,-40714.29,-25927.155,-34067.88,-24345.765,-11789.145,1837.485
1764505177.898445,-2515.185,7769.969999999999,-40715.325,-25927.56,-34068.33,-24346.08,-11790.225,1836.855
1764505177.898445,-2519.1,7766.46,-40719.015,-25931.205,-34071.255,-24349.365,-11792.205,1833.525
1764505177.898445,-2517.165,7767.63,-40717.89,-25928.955,-34069.32,-24347.115,-11790.63,1835.235
1764505177.898445,-2514.6,7768.934999999999,-40715.37,-25926.075,-34066.35,-24344.46,-11789.37,1837.35
1764505177.898445,-2510.955,7773.03,-40711.23,-25922.835,-34062.345,-24339.825,-11786.355,1840.635
1764505177.898445,-2514.735,7769.745,-40714.965,-25926.705,-34066.485,-24343.335,-11789.91,1836.36
1764505177.898445,-2519.19,7766.009999999999,-40719.915,-25931.61,-34070.985,-24348.465,-11793.825,1832.22
1764505177.898445,-2516.355,7768.259999999999,-40717.62,-25928.64,-34068.465,-24345.54,-11791.98,1835.235
1764505177.898445,-2516.715,7768.035,-40717.215,-25928.46,-34068.69,-24346.215,-11791.53,1835.145
1764505177.898445,-2520.36,7764.884999999999,-40720.545,-25932.15,-34071.525,-24349.59,-11793.645,1831.59
1764505177.9437091,-2519.505,7765.469999999999,-40719.78,-25932.105,-34070.94,-24349.23,-11793.195,1832.67
1764505177.9437091,-2514.24,7770.105,-40714.785,-25927.11,-34066.619999999995,-24345.0,-11790.315,1836.99
1764505177.9437091,-2514.015,7770.195,-40715.64,-25926.84,-34066.395,-24345.0,-11789.865,1837.035
1764505177.9437091,-2514.87,7769.16,-40717.08,-25929.09,-34068.15,-24346.98,-11789.1,1837.035
1764505177.9437091,-2516.625,7767.36,-40718.97,-25930.665,-34069.68,-24348.285,-11790.585,1834.785
1764505177.9437091,-2522.97,7762.32,-40722.345,-25932.96,-34072.38,-24350.85,-11795.265,1827.495
1764505177.9437091,-2522.97,7762.32,-40722.48,-25934.265,-34072.83,-24352.335,-11795.085,1827.945
1764505177.9437091,-2522.385,7762.184999999999,-40722.39,-25934.49,-34072.65,-24352.2,-11794.185,1829.655
1764505177.9437091,-2522.34,7762.634999999999,-40722.12,-25933.815,-34072.965,-24351.705,-11794.5,1829.52
1764505177.9437091,-2521.305,7764.03,-40720.815,-25933.95,-34072.29,-24351.075,-11794.815,1830.285
1764505177.9437091,-2519.955,7765.965,-40717.845,-25932.105,-34070.04,-24349.23,-11794.095,1832.085
1764505177.9437091,-2522.97,7763.4,-40719.69,-25932.96,-34072.02,-24351.66,-11795.22,1829.295
1764505177.9457235,-2521.755,7764.57,-40719.465,-25930.98,-34069.545,-24347.925,-11793.87,1830.105
1764505177.9457235,-2519.595,7765.875,-40718.52,-25930.08,-34068.465,-24345.405,-11791.44,1832.13
1764505177.9457235,-2518.65,7767.719999999999,-40716.765,-25929.135,-34067.88,-24344.37,-11791.62,1833.075
1764505177.9457235,-2522.115,7765.335,-40719.285,-25932.06,-34070.49,-24346.755,-11794.32,1830.78
1764505177.9457235,-2526.39,7760.115,-40723.695,-25936.695,-34075.17,-24351.75,-11797.92,1827.045
1764505177.9457235,-2523.105,7763.085,-40721.13,-25934.49,-34074.36,-24352.245,-11796.255,1829.115
1764505177.9467227,-2526.39,7760.295,-40723.965,-25937.19,-34078.59,-24358.05,-11799.405,1826.505
1764505177.9467227,-2524.095,7762.769999999999,-40721.535,-25933.635,-34075.575,-24355.53,-11797.425,1829.52
1764505177.9467227,-2522.43,7764.57,-40720.545,-25931.97,-34073.505,-24351.885,-11794.005,1831.32
1764505177.9467227,-2517.93,7768.98,-40716.045,-25927.155,-34068.06,-24346.62,-11790.99,1835.325
1764505177.9467227,-2519.37,7767.674999999999,-40716.945,-25928.415,-34067.565,-24346.53,-11791.755,1833.885
1764505177.9467227,-2519.505,7767.315,-40716.315,-25928.37,-34068.42,-24346.665,-11790.675,1833.48
1764505177.9918935,-2517.12,7769.835,-40714.02,-25926.3,-34065.855,-24343.47,-11788.74,1835.73
1764505177.9918935,-2519.955,7765.559999999999,-40719.285,-25930.8,-34068.6,-24342.795,-11789.73,1833.57
1764505177.9918935,-2520.09,7765.2,-40720.005,-25931.52,-34070.265,-24344.865,-11789.91,1833.57
1764505177.9918935,-2519.19,7766.46,-40718.97,-25931.25,-34070.22,-24346.035,-11789.28,1834.56
1764505177.9918935,-2517.39,7767.809999999999,-40717.17,-25929.405,-34068.15,-24344.145,-11788.335,1835.73
1764505177.9918935,-2518.92,7766.73,-40717.395,-25930.44,-34069.545,-24346.755,-11790.0,1834.155
1764505177.9918935,-2519.865,7765.019999999999,-40719.15,-25932.555,-34071.48,-24348.51,-11790.405,1833.3
1764505177.9918935,-2524.455,7759.844999999999,-40724.775,-25937.235,-34077.195,-24354.585,-11794.995,1828.35
1764505177.9918935,-2519.19,7765.335,-40718.745,-25931.295,-34072.244999999995,-24349.545,-11791.935,1832.94
1764505177.9918935,-2515.5,7768.62,-40713.93,-25927.065,-34067.655,-24344.595,-11788.695,1835.28
1764505177.9918935,-2514.06,7769.61,-40713.39,-25925.76,-34066.395,-24343.02,-11787.435,1836.36
1764505177.9918935,-2515.095,7768.844999999999,-40713.795,-25925.85,-34066.305,-24343.29,-11788.155,1835.73
1764505177.9918935,-2514.33,7769.88,-40713.39,-25924.68,-34064.73,-24342.525,-11787.93,1836.72
1764505177.9918935,-2512.575,7771.679999999999,-40711.23,-25922.475,-34062.525,-24341.04,-11787.12,1838.475
1764505177.9918935,-2512.215,7772.174999999999,-40710.69,-25921.845,-34061.85,-24338.52,-11785.32,1839.06
1764505177.9918935,-2516.535,7767.674999999999,-40715.91,-25926.39,-34064.369999999995,-24339.87,-11787.48,1835.415
1764505177.9918935,-2512.71,7771.41,-40711.05,-25922.385,-34060.95,-24338.16,-11785.095,1839.195
1764505177.9918935,-2516.31,7767.764999999999,-40715.505,-25928.145,-34067.07,-24345.81,-11788.38,1835.955
1764505177.9918935,-2517.12,7766.144999999999,-40718.52,-25931.34,-34070.94,-24349.905,-11789.82,1835.505
1764505177.9918935,-2514.96,7768.259999999999,-40716.72,-25929.63,-34069.095,-24348.375,-11788.515,1837.485
1764505177.992909,-2512.665,7770.465,-40713.795,-25927.065,-34067.115,-24346.665,-11786.895,1839.96
1764505177.992909,-2515.32,7768.035,-40716.045,-25929.855,-34070.67,-24349.095,-11789.595,1836.585
1764505177.992909,-2510.595,7772.759999999999,-40711.185,-25924.275,-34065.72,-24344.01,-11786.4,1840.68
1764505177.992909,-2511.675,7770.644999999999,-40713.12,-25925.805,-34066.575,-24345.585,-11786.4,1838.61
1764505178.036929,-2509.065,7773.57,-40710.87,-25921.935,-34062.165,-24340.815,-11784.285,1841.535
1764505178.036929,-2509.965,7772.715,-40711.545,-25922.52,-34062.795,-24340.275,-11785.14,1841.625
1764505178.036929,-2514.69,7767.809999999999,-40716.27,-25927.47,-34067.295,-24344.505,-11787.66,1837.395
1764505178.036929,-2514.78,7767.224999999999,-40714.92,-25926.66,-34066.89,-24343.965,-11787.345,1837.62
1764505178.036929,-2512.395,7769.115,-40712.49,-25925.76,-34065.585,-24343.47,-11786.31,1839.51
1764505178.036929,-2508.03,7773.434999999999,-40707.765,-25921.53,-34062.03,-24338.79,-11783.205,1844.1
1764505178.036929,-2507.04,7774.83,-40707.18,-25920.315,-34061.49,-24338.34,-11783.295,1844.37
1764505178.036929,-2508.345,7774.11,-40709.025,-25921.08,-34062.795,-24340.14,-11784.42,1843.38
1764505178.036929,-2508.165,7775.009999999999,-40708.395,-25920.09,-34061.805,-24339.33,-11783.97,1843.56
1764505178.036929,-2508.75,7775.28,-40708.98,-25920.81,-34061.85,-24339.42,-11784.51,1842.525
1764505178.036929,-2511.36,7771.184999999999,-40712.175,-25924.68,-34065.135,-24343.155,-11786.49,1839.87
1764505178.036929,-2513.43,7769.025,-40712.85,-25926.255,-34066.845,-24345.0,-11787.705,1837.62
1764505178.036929,-2509.515,7773.884999999999,-40708.395,-25922.205,-34062.48,-24339.96,-11785.23,1841.67
1764505178.036929,-2508.84,7773.795,-40707.315,-25920.99,-34060.77,-24338.97,-11784.87,1841.715
1764505178.036929,-2508.93,7773.48,-40707.54,-25920.495,-34059.33,-24338.745,-11785.32,1841.805
1764505178.036929,-2510.865,7772.355,-40709.79,-25921.035,-34059.015,-24337.44,-11785.68,1839.06
1764505178.036929,-2509.02,7775.144999999999,-40707.225,-25918.11,-34055.91,-24332.58,-11782.98,1842.03
1764505178.036929,-2508.435,7775.505,-40706.73,-25917.66,-34056.18,-24333.525,-11784.69,1842.48
1764505178.037928,-2506.05,7777.349999999999,-40704.39,-25917.165,-34056.945,-24336.495,-11784.645,1844.01
1764505178.037928,-2502.18,7781.94,-40700.07,-25913.61,-34056.045,-24338.79,-11782.53,1846.89
1764505178.037928,-2502.27,7783.605,-40697.28,-25910.055,-34053.03,-24335.685,-11782.755,1845.855
1764505178.037928,-2508.48,7773.884999999999,-40708.53,-25921.53,-34060.545,-24336.72,-11783.295,1843.2
1764505178.0858188,-2512.035,7769.429999999999,-40714.065,-25926.93,-34064.82,-24340.635,-11785.95,1838.97
1764505178.0858188,-2509.245,7771.365,-40711.815,-25923.69,-34061.04,-24336.36,-11783.115,1841.265
1764505178.0858188,-2507.895,7773.57,-40709.97,-25922.34,-34061.265,-24336.855,-11781.945,1842.705
1764505178.0858188,-2507.94,7773.75,-40710.645,-25923.78,-34062.975,-24340.185,-11782.395,1841.4
1764505178.0858188,-2505.015,7777.035,-40707.18,-25920.54,-34059.6,-24337.26,-11780.595,1844.595
1764505178.0858188,-2508.03,7773.344999999999,-40709.97,-25922.97,-34062.255,-24338.745,-11782.89,1842.795
1764505178.0858188,-2510.055,7771.049999999999,-40712.04,-25924.905,-34064.865,-24341.13,-11785.14,1840.545
1764505178.0858188,-2509.695,7771.59,-40711.68,-25924.815,-34064.369999999995,-24341.355,-11785.32,1840.635
1764505178.0858188,-2508.12,7773.57,-40709.88,-25922.655,-34062.705,-24339.645,-11783.88,1842.12
1764505178.0858188,-2505.33,7776.585,-40707.315,-25919.685,-34059.33,-24336.855,-11781.405,1845.045
1764505178.0858188,-2504.745,7778.16,-40705.2,-25917.705,-34058.07,-24336.315,-11781.63,1846.08
1764505178.0858188,-2508.21,7775.054999999999,-40708.17,-25920.945,-34060.905,-24339.6,-11784.015,1842.435
1764505178.0858188,-2506.68,7775.82,-40707.945,-25919.1,-34058.295,-24334.605,-11782.17,1844.415
1764505178.0868216,-2508.21,7774.695,-40709.205,-25919.505,-34057.395,-24332.265,-11782.44,1843.02
1764505178.0868216,-2501.595,7781.174999999999,-40703.085,-25912.665,-34050.06,-24325.2,-11778.075,1848.645
1764505178.0868216,-2500.425,7782.075,-40702.68,-25911.945,-34050.33,-24325.965,-11778.39,1848.555
1764505178.0868216,-2504.835,7777.53,-40706.28,-25916.805,-34055.46,-24332.265,-11782.035,1844.415
1764505178.0868216,-2506.815,7775.009999999999,-40708.44,-25920.9,-34060.05,-24337.845,-11783.79,1842.435
1764505178.0868216,-2508.165,7773.795,-40710.42,-25923.465,-34062.39,-24341.265,-11784.915,1840.995
1764505178.0868216,-2508.39,7772.849999999999,-40710.285,-25923.735,-34063.92,-24341.85,-11785.905,1840.5
1764505178.0868216,-2507.76,7773.165,-40709.97,-25923.105,-34063.29,-24340.95,-11786.265,1840.86
1764505178.0868216,-2505.105,7776.045,-40707.27,-25920.405,-34061.175,-24338.205,-11784.15,1843.605
1764505178.0868216,-2504.925,7776.179999999999,-40706.55,-25920.63,-34061.58,-24338.88,-11784.69,1843.245
1764505178.0868216,-2504.835,7776.0,-40707.18,-25921.53,-34062.975,-24340.455,-11784.555,1843.29
1764505178.1310418,-2500.92,7780.23,-40704.435,-25918.65,-34060.59,-24338.385,-11781.495,1848.195
1764505178.1310418,-2504.115,7777.08,-40708.215,-25922.115,-34064.595,-24342.615,-11784.915,1844.685
1764505178.1310418,-2505.555,7775.099999999999,-40709.565,-25923.24,-34065.675,-24344.595,-11786.085,1842.435
1764505178.1310418,-2503.215,7777.304999999999,-40706.28,-25919.37,-34062.21,-24341.805,-11784.51,1844.595
1764505178.1310418,-2500.83,7779.42,-40704.345,-25917.57,-34058.655,-24338.115,-11781.945,1846.755
1764505178.1310418,-2503.395,7775.82,-40707.945,-25922.07,-34062.435,-24341.13,-11783.07,1845.405
1764505178.1310418,-2504.97,7773.705,-40710.195,-25923.69,-34063.155,-24341.445,-11784.24,1844.01
1764505178.1310418,-2504.52,7774.965,-40708.62,-25921.125,-34060.725,-24338.565,-11784.96,1843.605
1764505178.1310418,-2502.765,7777.08,-40706.28,-25917.615,-34057.53,-24334.785,-11783.745,1846.17
1764505178.1310418,-2505.06,7774.875,-40707.9,-25919.595,-34059.195,-24335.685,-11783.52,1844.055
1764505178.1310418,-2499.12,7780.905,-40702.905,-25915.095,-34054.875,-24330.96,-11778.21,1849.68
1764505178.1310418,-2504.655,7774.965,-40709.745,-25922.7,-34062.39,-24338.16,-11782.395,1844.91
1764505178.1310418,-2500.605,7778.16,-40707.54,-25920.045,-34060.86,-24336.54,-11780.415,1847.655
1764505178.1310418,-2500.065,7779.059999999999,-40706.775,-25919.37,-34060.815,-24337.305,-11779.38,1847.25
1764505178.1310418,-2500.605,7777.799999999999,-40707.18,-25920.405,-34061.76,-24337.845,-11779.245,1846.395
1764505178.1310418,-2499.3,7778.429999999999,-40705.56,-25919.145,-34060.95,-24338.655,-11779.65,1848.15
1764505178.1310418,-2503.98,7774.335,-40709.655,-25923.555,-34066.26,-24345.36,-11784.375,1843.245
1764505178.1310418,-2501.055,7778.655,-40705.47,-25919.235,-34062.705,-24343.785,-11784.735,1845.18
1764505178.1310418,-2504.61,7774.245,-40708.44,-25921.53,-34063.515,-24343.605,-11786.4,1842.75
1764505178.132059,-2503.62,7774.335,-40708.395,-25920.72,-34059.915,-24333.84,-11781.72,1846.17
1764505178.132059,-2503.845,7773.929999999999,-40708.98,-25922.07,-34060.41,-24333.93,-11781.765,1845.54
1764505178.132059,-2505.555,7773.21,-40708.98,-25923.195,-34062.84,-24339.465,-11784.96,1843.47
1764505178.132059,-2503.17,7776.134999999999,-40705.335,-25918.92,-34059.15,-24337.305,-11783.07,1845.585
1764505178.132059,-2502.765,7776.855,-40704.705,-25917.075,-34057.71,-24335.28,-11783.07,1845.0
1764505178.1765015,-2509.02,7769.88,-40712.355,-25924.635,-34064.19,-24339.24,-11786.355,1839.87
1764505178.1765015,-2508.57,7769.25,-40713.57,-25924.995,-34063.155,-24336.63,-11785.995,1840.635
1764505178.1765015,-2507.04,7772.085,-40711.635,-25923.33,-34061.805,-24337.98,-11785.095,1841.67
1764505178.1765015,-2507.265,7771.769999999999,-40711.905,-25924.05,-34063.29,-24339.51,-11784.555,1840.77
1764505178.1765015,-2503.35,7775.82,-40707.855,-25920.18,-34060.005,-24335.865,-11782.53,1844.28
1764505178.1765015,-2501.685,7776.945,-40705.245,-25917.75,-34057.53,-24333.39,-11781.315,1845.63
1764505178.1765015,-2501.865,7776.63,-40704.57,-25917.165,-34057.08,-24333.345,-11781.81,1845.945
1764505178.1765015,-2505.42,7772.804999999999,-40708.665,-25921.17,-34060.41,-24337.215,-11784.42,1843.155
1764505178.1765015,-2508.705,7770.33,-40710.915,-25923.735,-34064.01,-24341.175,-11788.02,1838.61
1764505178.1765015,-2511.81,7767.674999999999,-40714.74,-25927.29,-34066.485,-24341.265,-11789.37,1837.305
1764505178.1765015,-2509.11,7770.059999999999,-40711.815,-25924.14,-34063.38,-24338.115,-11787.84,1839.465
1764505178.1765015,-2509.695,7769.924999999999,-40710.87,-25923.105,-34062.705,-24337.89,-11786.805,1838.61
1764505178.1765015,-2509.605,7769.429999999999,-40712.535,-25924.95,-34065.18,-24340.095,-11787.075,1839.645
1764505178.1765015,-2508.705,7769.745,-40713.48,-25927.2,-34067.97,-24341.805,-11787.075,1840.275
1764505178.1765015,-2513.79,7765.695,-40716.54,-25931.34,-34071.345,-24344.46,-11790.855,1834.02
1764505178.1765015,-2511.99,7766.82,-40715.145,-25929.99,-34069.95,-24344.145,-11789.145,1836.405
1764505178.1765015,-2507.895,7770.059999999999,-40711.32,-25926.255,-34065.63,-24340.23,-11786.085,1840.455
1764505178.1765015,-2510.28,7768.215,-40713.66,-25928.28,-34067.61,-24342.03,-11789.055,1836.99
1764505178.1765015,-2509.92,7768.755,-40713.885,-25927.785,-34066.44,-24341.265,-11788.02,1838.25
1764505178.178043,-2506.365,7772.67,-40709.475,-25923.645,-34060.994999999995,-24336.54,-11785.23,1841.85
1764505178.178043,-2505.51,7772.445,-40709.07,-25923.105,-34061.805,-24337.395,-11784.69,1842.255
1764505178.178043,-2505.825,7772.894999999999,-40708.98,-25922.565,-34061.4,-24336.945,-11784.15,1841.805
1764505178.2247474,-2510.1,7769.25,-40713.48,-25926.3,-34065.27,-24341.13,-11787.345,1837.665
1764505178.2247474,-2509.29,7769.835,-40713.48,-25926.39,-34066.125,-24341.94,-11786.265,1838.925
1764505178.2247474,-2509.92,7769.565,-40713.705,-25927.425,-34066.845,-24343.11,-11785.815,1839.87
1764505178.2247474,-2509.47,7770.644999999999,-40712.22,-25926.615,-34065.945,-24341.67,-11785.5,1840.95
1764505178.2247474,-2505.6,7774.019999999999,-40708.845,-25922.34,-34063.02,-24338.79,-11783.205,1844.28
1764505178.2247474,-2507.355,7771.634999999999,-40710.87,-25924.05,-34065.0,-24340.86,-11785.5,1841.895
1764505178.2247474,-2509.785,7769.429999999999,-40712.67,-25925.805,-34066.619999999995,-24341.625,-11786.445,1839.645
1764505178.2247474,-2512.08,7767.179999999999,-40714.02,-25927.695,-34068.42,-24342.795,-11787.795,1837.305
1764505178.2247474,-2511.495,7767.855,-40713.48,-25926.255,-34067.07,-24342.615,-11787.345,1837.44
1764505178.2247474,-2509.74,7770.059999999999,-40711.59,-25924.545,-34066.395,-24344.415,-11788.02,1838.07
1764505178.2247474,-2505.465,7774.2,-40707.945,-25921.89,-34064.595,-24343.605,-11787.435,1840.77
1764505178.2247474,-2504.655,7774.559999999999,-40707.63,-25921.395,-34063.515,-24341.265,-11785.32,1841.355
1764505178.2247474,-2508.075,7769.88,-40712.445,-25925.13,-34065.72,-24340.905,-11785.32,1839.645
1764505178.2247474,-2509.695,7768.215,-40714.29,-25927.065,-34067.115,-24341.31,-11785.185,1838.52
1764505178.2247474,-2507.31,7771.455,-40711.5,-25924.545,-34064.055,-24338.205,-11784.015,1842.48
1764505178.2247474,-2505.195,7773.615,-40709.655,-25922.295,-34062.93,-24338.88,-11783.52,1843.29
1764505178.2247474,-2505.15,7773.12,-40709.565,-25922.79,-34063.875,-24339.78,-11782.665,1843.155
1764505178.2247474,-2505.6,7773.075,-40708.89,-25921.98,-34061.085,-24336.855,-11782.395,1842.255
1764505178.2262554,-2507.175,7772.309999999999,-40709.25,-25921.305,-34060.41,-24337.17,-11783.655,1840.23
1764505178.2262554,-2507.76,7770.87,-40712.04,-25923.69,-34062.345,-24337.53,-11784.33,1840.68
1764505178.2262554,-2504.7,7774.155,-40708.89,-25920.135,-34057.53,-24331.41,-11781.765,1842.795
1764505178.2262554,-2504.7,7774.875,-40708.395,-25919.91,-34057.08,-24330.465,-11779.83,1843.785
1764505178.22727,-2506.815,7771.769999999999,-40710.24,-25921.755,-34058.925,-24334.47,-11781.855,1841.445
1764505178.22727,-2505.87,7772.58,-40708.305,-25920.495,-34057.8,-24333.345,-11779.695,1843.65
1764505178.273249,-2503.125,7775.639999999999,-40706.73,-25919.73,-34056.765,-24330.51,-11777.625,1847.655
1764505178.273249,-2504.43,7774.695,-40708.125,-25920.72,-34057.53,-24331.68,-11779.605,1845.81
1764505178.273249,-2505.555,7773.03,-40709.43,-25922.295,-34059.6,-24333.66,-11781.765,1843.02
1764505178.273249,-2499.48,7779.375,-40703.805,-25916.355,-34055.28,-24328.665,-11776.905,1849.005
1764505178.273249,-2499.795,7779.24,-40704.705,-25916.625,-34055.73,-24329.745,-11776.725,1849.365
1764505178.273249,-2503.305,7776.45,-40706.955,-25919.145,-34058.565,-24332.76,-11778.12,1846.62
1764505178.273249,-2502.18,7777.485,-40704.93,-25916.94,-34056.765,-24331.23,-11778.3,1847.52
1764505178.273249,-2499.39,7780.32,-40701.555,-25912.98,-34053.345,-24328.35,-11777.985,1850.085
1764505178.273249,-2501.37,7778.88,-40703.58,-25914.69,-34053.975,-24329.115,-11778.03,1848.375
1764505178.273249,-2502.855,7777.71,-40705.605,-25916.94,-34056.494999999995,-24331.815,-11777.94,1847.205
1764505178.273249,-2500.245,7779.78,-40703.13,-25915.545,-34055.775,-24330.285,-11776.005,1850.85
1764505178.273249,-2504.835,7774.92,-40707.765,-25920.18,-34060.725,-24335.055,-11778.795,1846.485
1764505178.273249,-2501.505,7777.844999999999,-40704.165,-25916.355,-34056.405,-24330.375,-11776.23,1849.14
1764505178.273249,-2503.17,7775.955,-40706.325,-25916.715,-34057.17,-24330.15,-11776.815,1847.745
1764505178.2743037,-2501.19,7778.115,-40704.84,-25914.825,-34054.695,-24326.55,-11775.69,1849.86
1764505178.2743037,-2502.135,7777.035,-40706.145,-25916.94,-34056.99,-24329.295,-11776.59,1848.285
1764505178.2743037,-2500.56,7778.88,-40704.66,-25916.58,-34057.305,-24329.745,-11775.24,1850.355
1764505178.2743037,-2505.42,7774.469999999999,-40708.62,-25921.89,-34062.3,-24335.055,-11778.39,1846.71
1764505178.2743037,-2504.655,7775.505,-40708.08,-25921.125,-34061.085,-24334.29,-11778.21,1847.61
1764505178.2743037,-2498.985,7780.995,-40703.085,-25916.175,-34056.135,-24329.025,-11773.305,1852.92
1764505178.2743037,-2498.58,7781.085,-40703.805,-25916.355,-34056.45,-24329.385,-11772.405,1854.045
1764505178.2743037,-2501.82,7776.809999999999,-40707.315,-25919.775,-34059.915,-24332.265,-11775.645,1851.03
1764505178.2743037,-2505.33,7775.235,-40708.755,-25921.35,-34060.275,-24333.12,-11778.03,1846.215
1764505178.2743037,-2502.72,7779.195,-40704.705,-25916.85,-34056.72,-24329.34,-11776.05,1848.78
1764505178.3210704,-2503.53,7776.945,-40706.19,-25919.505,-34061.175,-24333.57,-11776.545,1848.105
1764505178.3210704,-2502.18,7779.059999999999,-40703.265,-25916.13,-34058.115,-24329.52,-11774.835,1850.355
1764505178.3210704,-2505.915,7775.235,-40707.9,-25919.82,-34060.41,-24331.68,-11776.545,1847.07
1764505178.3210704,-2502.765,7777.08,-40706.595,-25918.83,-34059.465,-24331.14,-11775.33,1848.735
1764505178.3210704,-2498.535,7781.535,-40701.645,-25914.105,-34055.235,-24326.46,-11772.045,1852.965
1764505178.3210704,-2499.75,7781.13,-40701.825,-25913.565,-34054.065,-24325.11,-11771.64,1852.2
1764505178.3210704,-2496.105,7785.179999999999,-40697.415,-25909.695,-34050.06,-24321.87,-11770.065,1855.26
1764505178.3210704,-2497.23,7784.37,-40698.225,-25910.55,-34051.23,-24325.2,-11772.36,1853.415
1764505178.3210704,-2498.22,7784.144999999999,-40697.505,-25911.045,-34052.715,-24327.765,-11773.08,1852.695
1764505178.3210704,-2503.305,7779.195,-40702.68,-25915.725,-34056.72,-24330.51,-11775.465,1849.005
1764505178.3210704,-2505.645,7775.955,-40707.135,-25919.28,-34058.475,-24329.43,-11775.465,1846.395
1764505178.3210704,-2504.79,7776.945,-40705.425,-25918.245,-34058.16,-24331.68,-11775.645,1846.53
1764505178.3210704,-2500.02,7783.11,-40698.81,-25912.755,-34054.065,-24330.78,-11774.115,1850.58
1764505178.3210704,-2496.735,7785.945,-40696.2,-25908.255,-34049.744999999995,-24323.895,-11769.12,1855.62
1764505178.3210704,-2500.245,7781.445,-40700.655,-25913.025,-34050.69,-24320.34,-11768.895,1853.91
1764505178.3210704,-2498.49,7783.785,-40699.35,-25910.64,-34047.855,-24316.965,-11767.455,1855.575
1764505178.3210704,-2499.795,7783.155,-40700.115,-25910.955,-34048.755,-24318.405,-11768.22,1854.72
1764505178.3210704,-2504.97,7776.9,-40705.965,-25917.795,-34056.81,-24327.045,-11772.72,1850.22
1764505178.3210704,-2501.325,7780.049999999999,-40703.13,-25916.22,-34055.369999999995,-24326.955,-11769.93,1854.315
1764505178.3210704,-2500.605,7782.03,-40701.645,-25914.6,-34053.93,-24325.965,-11769.12,1855.44
1764505178.3210704,-2503.665,7779.014999999999,-40705.245,-25918.245,-34057.215,-24328.98,-11770.965,1852.245
1764505178.3210704,-2500.92,7780.86,-40702.41,-25915.14,-34054.695,-24325.56,-11768.76,1854.54
1764505178.3210704,-2501.865,7780.005,-40702.905,-25915.815,-34056.045,-24326.595,-11770.065,1853.1
1764505178.3210704,-2497.455,7785.045,-40697.955,-25910.73,-34051.23,-24322.77,-11767.095,1857.375
1764505178.3663638,-2497.32,7784.82,-40697.685,-25910.865,-34052.355,-24324.345,-11767.32,1856.835
1764505178.3663638,-2499.165,7782.884999999999,-40698.99,-25912.26,-34054.47,-24325.605,-11768.67,1854.765
1764505178.3663638,-2496.645,7785.9,-40696.11,-25908.93,-34049.655,-24321.735,-11766.33,1858.41
1764505178.3663638,-2500.515,7782.299999999999,-40700.79,-25913.115,-34053.57,-24325.92,-11769.885,1854.225
1764505178.3663638,-2499.165,7783.965,-40699.305,-25911.315,-34051.77,-24323.715,-11769.03,1855.08
1764505178.3663638,-2501.28,7781.985,-40701.105,-25912.44,-34052.76,-24325.065,-11770.605,1852.695
1764505178.3663638,-2499.03,7784.235,-40698.405,-25909.02,-34049.52,-24321.6,-11769.525,1854.72
1764505178.3663638,-2500.605,7782.03,-40700.61,-25911.09,-34051.815,-24323.49,-11771.055,1852.38
1764505178.3668747,-2497.23,7784.639999999999,-40697.505,-25908.705,-34049.925,-24320.745,-11768.49,1856.07
1764505178.3668747,-2497.77,7783.965,-40697.415,-25910.19,-34050.51,-24322.455,-11768.895,1855.44
1764505178.3668747,-2499.615,7782.66,-40700.025,-25912.89,-34053.21,-24325.065,-11769.975,1854.09
1764505178.3668747,-2500.065,7781.4,-40701.195,-25912.755,-34053.48,-24324.165,-11769.885,1853.865
1764505178.3668747,-2497.59,7783.65,-40697.73,-25909.38,-34049.835,-24319.89,-11768.31,1855.485
1764505178.3668747,-2502.63,7779.059999999999,-40702.005,-25913.925,-34055.1,-24324.885,-11772.405,1850.085
1764505178.3668747,-2502.18,7778.205,-40701.645,-25914.78,-34055.91,-24326.82,-11773.08,1850.04
1764505178.3668747,-2501.01,7778.655,-40701.69,-25915.05,-34056.765,-24327.495,-11772.72,1850.985
1764505178.3668747,-2498.715,7782.165,-40700.205,-25912.62,-34054.965,-24325.74,-11770.83,1853.685
1764505178.3668747,-2502.495,7778.835,-40704.12,-25915.995,-34058.16,-24330.33,-11773.62,1850.625
1764505178.3668747,-2502.945,7777.215,-40704.39,-25916.445,-34059.645,-24331.005,-11775.195,1850.31
1764505178.3668747,-2502.72,7776.63,-40704.12,-25916.22,-34059.78,-24331.275,-11775.96,1849.995
1764505178.3668747,-2500.38,7779.014999999999,-40701.735,-25914.24,-34057.26,-24328.53,-11774.025,1852.47
1764505178.3668747,-2499.66,7779.195,-40700.745,-25912.89,-34055.325,-24327.27,-11772.405,1852.83
1764505178.4130406,-2494.035,7785.405,-40694.265,-25906.725,-34048.53,-24320.43,-11768.13,1857.96
1764505178.4130406,-2494.215,7785.045,-40694.355,-25906.77,-34048.305,-24319.89,-11768.67,1857.42
1764505178.4130406,-2495.07,7784.594999999999,-40695.255,-25908.21,-34048.44,-24320.475,-11768.985,1856.43
1764505178.4130406,-2494.395,7785.269999999999,-40695.435,-25907.445,-34047.675,-24320.97,-11769.03,1856.88
1764505178.4130406,-2493.0,7786.53,-40693.68,-25905.555,-34047.855,-24321.645,-11769.615,1857.6
1764505178.4130406,-2494.575,7786.035,-40693.95,-25907.4,-34050.69,-24326.55,-11772.315,1855.845
1764505178.4130406,-2495.43,7785.45,-40695.165,-25909.515,-34053.48,-24330.15,-11773.08,1855.035
1764505178.4130406,-2501.19,7778.16,-40703.265,-25916.85,-34057.98,-24331.41,-11775.6,1850.85
1764505178.4130406,-2501.37,7777.799999999999,-40704.48,-25917.93,-34059.015,-24331.275,-11775.015,1851.255
1764505178.4130406,-2496.42,7782.12,-40700.7,-25914.06,-34054.83,-24325.965,-11770.56,1855.89
1764505178.4130406,-2495.79,7782.66,-40699.935,-25913.34,-34052.94,-24323.895,-11769.795,1857.105
1764505178.4130406,-2497.95,7780.769999999999,-40702.14,-25914.33,-34053.48,-24325.245,-11771.145,1854.405
1764505178.4130406,-2499.345,7781.174999999999,-40700.745,-25913.61,-34053.84,-24326.1,-11772.765,1852.245
1764505178.4130406,-2496.24,7784.28,-40698.54,-25912.395,-34054.244999999995,-24327.72,-11771.145,1855.305
1764505178.4130406,-2496.555,7784.505,-40698.27,-25911.045,-34052.04,-24324.795,-11770.92,1855.08
1764505178.4130406,-2498.175,7782.12,-40700.79,-25912.89,-34052.715,-24322.365,-11770.65,1854.81
1764505178.4130406,-2495.295,7784.325,-40698.72,-25910.37,-34050.6,-24320.61,-11769.525,1858.41
1764505178.4130406,-2493.99,7786.259999999999,-40696.335,-25907.31,-34047.09,-24317.865,-11769.12,1857.96
1764505178.4130406,-2495.205,7786.44,-40696.515,-25907.04,-34047.72,-24317.73,-11770.38,1856.43
1764505178.4140513,-2494.215,7786.304999999999,-40697.055,-25908.255,-34049.52,-24320.205,-11769.435,1857.6
1764505178.415038,-2493.585,7787.16,-40696.335,-25907.22,-34049.205,-24319.035,-11768.445,1857.78
1764505178.415038,-2496.195,7784.82,-40698.18,-25909.245,-34051.455,-24321.69,-11771.01,1854.54
1764505178.415038,-2496.465,7785.36,-40695.84,-25907.04,-34049.79,-24321.24,-11770.335,1854.9
1764505178.415038,-2495.25,7786.53,-40696.29,-25906.86,-34049.655,-24320.565,-11769.66,1856.385
1764505178.4598277,-2497.68,7783.38,-40699.44,-25910.37,-34050.825,-24320.97,-11770.2,1854.9
1764505178.4598277,-2497.995,7783.155,-40699.53,-25909.92,-34050.555,-24321.105,-11770.92,1853.91
1764505178.4598277,-2493.99,7787.835,-40696.065,-25907.04,-34047.945,-24318.855,-11767.995,1857.915
1764505178.4598277,-2496.195,7784.415,-40698.765,-25910.19,-34051.815,-24322.455,-11768.895,1856.88
1764505178.4598277,-2499.57,7781.085,-40700.835,-25912.845,-34053.84,-24324.615,-11772.135,1853.325
1764505178.4598277,-2494.755,7786.755,-40695.345,-25907.175,-34048.44,-24319.8,-11768.94,1857.555
1764505178.4598277,-2493.9,7787.16,-40695.03,-25907.31,-34049.295,-24320.655,-11768.805,1857.915
1764505178.4598277,-2500.2,7780.5,-40700.43,-25913.52,-34056.045,-24327.9,-11773.305,1851.84
1764505178.4598277,-2501.505,7778.88,-40702.32,-25915.005,-34058.475,-24329.34,-11773.755,1850.535
1764505178.4598277,-2497.77,7782.12,-40700.115,-25913.115,-34054.425,-24326.415,-11771.505,1854.135
1764505178.4598277,-2500.83,7779.96,-40702.77,-25915.365,-34056.27,-24329.52,-11773.89,1851.84
1764505178.4598277,-2497.995,7781.625,-40700.745,-25913.475,-34055.145,-24327.09,-11772.27,1853.595
1764505178.4598277,-2494.53,7785.134999999999,-40697.64,-25910.325,-34051.59,-24323.94,-11769.84,1856.97
1764505178.4598277,-2495.295,7785.179999999999,-40696.965,-25909.56,-34051.635,-24324.345,-11770.065,1856.565
1764505178.4598277,-2492.46,7788.375,-40693.185,-25905.555,-34048.08,-24321.465,-11768.94,1858.41
1764505178.4598277,-2494.305,7785.945,-40696.155,-25908.57,-34050.825,-24324.66,-11771.19,1855.485
1764505178.4598277,-2491.965,7786.755,-40695.39,-25908.345,-34050.33,-24323.49,-11769.93,1858.41
1764505178.4598277,-2497.995,7780.32,-40702.365,-25914.555,-34055.28,-24324.84,-11773.215,1853.28
1764505178.4598277,-2494.215,7784.73,-40698.405,-25909.695,-34050.869999999995,-24320.07,-11770.695,1857.015
1764505178.4598277,-2494.215,7785.764999999999,-40697.415,-25908.255,-34049.79,-24319.62,-11770.875,1856.43
1764505178.4598277,-2498.265,7781.58,-40700.97,-25912.305,-34053.93,-24323.04,-11773.935,1853.1
1764505178.4598277,-2497.545,7783.11,-40699.755,-25910.775,-34051.905,-24321.015,-11773.62,1854.09
1764505178.4598277,-2496.33,7784.684999999999,-40697.37,-25908.66,-34049.385,-24320.07,-11772.18,1855.26
1764505178.4598277,-2493.54,7787.519999999999,-40694.22,-25906.725,-34046.82,-24317.595,-11769.345,1857.645
1764505178.504687,-2493.99,7785.855,-40696.515,-25909.335,-34050.555,-24320.88,-11769.84,1856.43
1764505178.504687,-2497.77,7781.985,-40700.655,-25914.33,-34056.045,-24327.315,-11772.81,1852.785
1764505178.504687,-2495.88,7784.144999999999,-40697.64,-25911.315,-34052.94,-24325.785,-11772.315,1854.405
1764505178.504687,-2500.155,7780.184999999999,-40701.42,-25914.555,-34056.675,-24329.655,-11775.465,1850.4
1764505178.504687,-2498.715,7780.679999999999,-40700.34,-25912.845,-34055.235,-24327.63,-11774.925,1850.895
1764505178.504687,-2496.465,7782.434999999999,-40699.17,-25912.395,-34054.065,-24324.525,-11773.89,1853.865
1764505178.504687,-2501.46,7777.844999999999,-40704.615,-25918.065,-34058.565,-24328.485,-11775.87,1850.445
1764505178.504687,-2499.66,7779.195,-40702.995,-25916.895,-34057.89,-24329.655,-11775.33,1850.715
1764505178.504687,-2498.94,7780.049999999999,-40701.465,-25915.095,-34056.27,-24327.0,-11775.015,1851.39
1764505178.504687,-2496.915,7781.985,-40698.27,-25911.315,-34053.075,-24323.355,-11772.765,1853.145
1764505178.504687,-2494.215,7784.144999999999,-40696.875,-25910.055,-34051.455,-24321.465,-11770.065,1856.205
1764505178.504687,-2492.28,7787.205,-40694.22,-25907.13,-34049.475,-24321.33,-11768.67,1857.42
1764505178.505714,-2487.645,7793.37,-40688.235,-25900.965,-34043.445,-24316.29,-11765.655,1861.74
1764505178.505714,-2489.625,7789.455,-40691.925,-25903.89,-34043.94,-24313.455,-11765.43,1860.165
1764505178.505714,-2493.945,7784.594999999999,-40696.335,-25909.875,-34047.945,-24315.48,-11767.365,1858.095
1764505178.505714,-2496.105,7783.11,-40697.685,-25911.225,-34052.22,-24321.33,-11769.75,1854.99
1764505178.505714,-2495.295,7783.74,-40697.37,-25909.785,-34052.805,-24322.815,-11770.38,1855.71
1764505178.505714,-2491.2,7787.655,-40693.5,-25906.59,-34048.53,-24320.34,-11767.995,1859.535
1764505178.5067534,-2492.865,7785.585,-40696.02,-25909.11,-34049.52,-24321.915,-11768.265,1858.23
1764505178.5067534,-2495.115,7784.28,-40696.875,-25909.74,-34050.6,-24321.69,-11769.48,1856.295
1764505178.5067534,-2490.255,7789.005,-40691.88,-25904.52,-34046.73,-24317.865,-11767.545,1859.31
1764505178.5067534,-2492.235,7787.295,-40693.635,-25907.22,-34048.845,-24320.295,-11768.085,1857.78
1764505178.5515106,-2491.02,7788.105,-40693.32,-25906.77,-34046.595,-24316.47,-11766.69,1860.255
1764505178.5515106,-2492.505,7786.304999999999,-40695.255,-25908.03,-34048.08,-24317.82,-11767.545,1859.175
1764505178.5515106,-2494.8,7783.92,-40696.56,-25909.92,-34049.205,-24320.115,-11768.535,1856.025
1764505178.5515106,-2496.465,7784.144999999999,-40694.895,-25908.615,-34047.99,-24319.98,-11770.965,1852.56
1764505178.5515106,-2495.475,7783.469999999999,-40695.93,-25910.55,-34051.905,-24325.695,-11770.83,1854.495
1764505178.5515106,-2493.045,7785.179999999999,-40696.29,-25910.55,-34052.355,-24325.11,-11769.795,1857.33
1764505178.5515106,-2498.13,7781.535,-40699.575,-25913.97,-34055.235,-24325.2,-11772.09,1854.0
1764505178.5515106,-2493.99,7786.035,-40694.895,-25909.74,-34051.23,-24321.915,-11768.67,1857.96
1764505178.5525262,-2493.135,7787.519999999999,-40695.255,-25909.29,-34050.69,-24322.05,-11768.49,1858.635
1764505178.5525262,-2492.865,7787.79,-40694.67,-25908.66,-34049.52,-24321.15,-11768.04,1858.86
1764505178.5535278,-2491.965,7788.644999999999,-40694.13,-25907.94,-34048.35,-24320.655,-11767.32,1858.815
1764505178.5535278,-2493.765,7787.295,-40695.93,-25909.38,-34050.195,-24322.635,-11768.49,1857.195
1764505178.5535278,-2496.735,7784.054999999999,-40698.9,-25912.485,-34053.57,-24325.38,-11771.1,1853.775
1764505178.5535278,-2495.52,7785.495,-40696.74,-25909.875,-34051.77,-24322.725,-11769.57,1855.17
1764505178.554524,-2494.08,7787.61,-40695.48,-25908.57,-34050.33,-24320.7,-11767.59,1857.375
1764505178.554524,-2492.145,7788.915,-40693.635,-25907.04,-34047.315,-24318.54,-11765.475,1860.48
1764505178.554524,-2494.08,7786.934999999999,-40695.57,-25909.74,-34049.52,-24319.755,-11767.23,1857.645
1764505178.554524,-2491.47,7789.455,-40691.655,-25906.59,-34046.369999999995,-24315.75,-11765.79,1860.075
1764505178.5555203,-2494.89,7785.719999999999,-40694.985,-25909.11,-34048.395,-24318.45,-11768.715,1856.43
1764505178.5555203,-2492.64,7788.78,-40692.24,-25905.15,-34044.3,-24315.03,-11766.735,1858.815
1764505178.5555203,-2488.545,7792.74,-40688.64,-25901.64,-34041.33,-24311.25,-11763.63,1863.225
1764505178.5555203,-2495.97,7785.674999999999,-40696.92,-25910.37,-34050.195,-24320.07,-11769.345,1855.755
1764505178.5565195,-2497.455,7784.46,-40698.9,-25912.305,-34052.805,-24323.085,-11771.01,1854.225
1764505178.5565195,-2496.015,7785.585,-40696.2,-25909.695,-34050.69,-24321.825,-11770.065,1855.215
1764505178.5979671,-2495.88,7785.405,-40694.85,-25908.345,-34049.565,-24322.23,-11770.515,1855.035
1764505178.5979671,-2494.215,7787.07,-40693.095,-25906.725,-34048.98,-24322.77,-11768.58,1857.33
1764505178.598981,-2495.7,7785.36,-40696.83,-25910.37,-34052.22,-24325.335,-11769.03,1857.285
1764505178.598981,-2494.035,7784.549999999999,-40698.18,-25911.045,-34051.23,-24320.97,-11767.005,1859.805
1764505178.598981,-2495.79,7783.155,-40699.665,-25913.115,-34053.795,-24324.705,-11768.895,1857.33
1764505178.598981,-2493.63,7786.44,-40697.73,-25910.055,-34052.625,-24324.615,-11767.455,1859.22
1764505178.598981,-2487.735,7793.054999999999,-40691.115,-25903.215,-34046.235,-24320.745,-11763.99,1864.575
1764505178.5999846,-2486.115,7797.33,-40685.22,-25897.455,-34041.285,-24316.965,-11763.945,1863.585
1764505178.5999846,-2490.48,7793.82,-40687.965,-25899.48,-34042.455,-24317.325,-11766.015,1859.085
1764505178.5999846,-2496.645,7784.28,-40698.63,-25909.29,-34047.72,-24314.895,-11765.295,1856.61
1764505178.6009817,-2497.77,7783.019999999999,-40699.35,-25910.19,-34047.54,-24313.23,-11765.34,1856.745
1764505178.6009817,-2494.53,7786.71,-40695.3,-25907.58,-34046.46,-24313.995,-11764.62,1859.445
1764505178.6009817,-2499.03,7782.344999999999,-40699.62,-25911.9,-34051.77,-24319.845,-11767.815,1855.71
1764505178.602023,-2498.13,7783.155,-40697.73,-25910.685,-34050.78,-24319.44,-11767.14,1855.395
1764505178.6030295,-2495.925,7785.585,-40694.985,-25909.155,-34049.07,-24319.305,-11766.42,1858.41
1764505178.6030295,-2497.095,7784.415,-40696.965,-25910.1,-34050.6,-24320.295,-11766.915,1857.87
1764505178.6030295,-2493.765,7788.059999999999,-40693.815,-25906.725,-34047.54,-24316.92,-11763.405,1861.56
1764505178.6030295,-2494.35,7787.429999999999,-40694.895,-25907.445,-34048.98,-24318.315,-11764.215,1861.2
1764505178.6030295,-2494.125,7787.61,-40695.345,-25907.94,-34050.33,-24320.925,-11765.745,1860.12
1764505178.6030295,-2494.08,7788.96,-40694.355,-25907.715,-34049.43,-24320.97,-11765.835,1859.58
1764505178.6030295,-2495.205,7787.745,-40694.49,-25907.265,-34049.16,-24319.845,-11766.015,1859.355
1764505178.6030295,-2498.94,7784.37,-40696.38,-25908.345,-34051.185,-24320.52,-11767.545,1856.655
1764505178.6030295,-2502.54,7781.309999999999,-40699.485,-25911.63,-34054.56,-24325.245,-11770.47,1853.235
1764505178.6030295,-2502.18,7780.769999999999,-40701.915,-25915.005,-34057.53,-24328.845,-11771.595,1853.46
1764505178.6480603,-2502.0,7780.86,-40701.825,-25913.97,-34056.0,-24326.64,-11772.225,1853.325
1764505178.6480603,-2500.29,7781.759999999999,-40700.34,-25912.035,-34052.445,-24321.645,-11771.73,1854.405
1764505178.6480603,-2499.255,7783.245,-40698.675,-25911.72,-34052.49,-24323.31,-11772.45,1854.72
1764505178.6480603,-2501.685,7780.724999999999,-40700.88,-25914.42,-34055.369999999995,-24326.865,-11774.025,1852.02
1764505178.6480603,-2498.13,7783.92,-40697.46,-25910.19,-34050.15,-24320.88,-11770.605,1855.305
1764505178.6480603,-2495.88,7786.349999999999,-40694.625,-25906.68,-34047.27,-24317.37,-11769.165,1856.97
1764505178.6480603,-2498.715,7782.75,-40698.045,-25910.955,-34051.77,-24322.365,-11771.91,1854.45
1764505178.6480603,-2497.725,7783.335,-40698.405,-25911.765,-34051.905,-24322.23,-11770.785,1856.745
1764505178.6480603,-2498.265,7782.84,-40699.305,-25912.98,-34052.265,-24323.13,-11770.155,1856.655
1764505178.6480603,-2501.235,7782.344999999999,-40699.44,-25912.845,-34051.68,-24322.59,-11772.405,1852.965
1764505178.6480603,-2499.39,7782.795,-40700.205,-25912.44,-34053.119999999995,-24324.48,-11770.02,1855.035
1764505178.6480603,-2494.035,7787.745,-40695.21,-25907.58,-34049.655,-24319.755,-11765.115,1860.345
1764505178.6480603,-2489.58,7792.11,-40690.215,-25902.675,-34044.84,-24314.85,-11761.965,1864.395
1764505178.6480603,-2494.71,7787.429999999999,-40695.615,-25908.165,-34049.16,-24319.755,-11765.655,1859.625
1764505178.6480603,-2494.215,7786.98,-40694.94,-25908.255,-34049.61,-24319.665,-11765.88,1858.995
1764505178.6480603,-2493.585,7788.33,-40693.905,-25908.075,-34048.935,-24318.945,-11764.89,1859.895
1764505178.6480603,-2493.315,7789.094999999999,-40693.995,-25906.185,-34048.215,-24318.045,-11764.395,1860.075
1764505178.6480603,-2492.28,7790.04,-40692.375,-25904.565,-34045.92,-24317.145,-11764.215,1861.065
1764505178.6480603,-2492.01,7791.165,-40690.755,-25903.8,-34044.119999999995,-24314.805,-11763.72,1862.28
1764505178.6480603,-2491.515,7791.21,-40691.835,-25903.8,-34045.244999999995,-24314.04,-11763.135,1863.27
1764505178.6480603,-2488.995,7793.505,-40689.72,-25901.685,-34043.04,-24312.33,-11762.28,1865.61
1764505178.6490686,-2488.23,7794.0,-40689.18,-25900.875,-34042.05,-24311.52,-11762.865,1865.34
1764505178.6927283,-2488.14,7794.09,-40688.865,-25900.605,-34041.51,-24310.755,-11762.055,1865.115
1764505178.6927283,-2490.21,7792.019999999999,-40690.485,-25903.125,-34043.31,-24313.095,-11763.54,1863.72
1764505178.6927283,-2493.855,7788.375,-40693.275,-25906.68,-34047.045,-24316.965,-11766.51,1860.21
1764505178.6927283,-2491.605,7790.04,-40691.655,-25905.465,-34045.29,-24315.39,-11765.205,1862.505
1764505178.6927283,-2494.575,7787.835,-40694.715,-25908.255,-34048.845,-24319.665,-11767.68,1860.3
1764505178.6927283,-2498.22,7784.415,-40697.37,-25911.675,-34053.48,-24324.84,-11770.965,1856.61
1764505178.6927283,-2492.865,7789.094999999999,-40691.925,-25906.59,-34048.575,-24320.79,-11768.04,1861.38
1764505178.6927283,-2491.245,7791.389999999999,-40689.54,-25904.25,-34045.74,-24317.775,-11766.42,1863.0
1764505178.6927283,-2493.63,7789.005,-40692.195,-25906.59,-34046.955,-24315.345,-11766.15,1861.38
1764505178.6927283,-2493.045,7789.679999999999,-40692.645,-25906.68,-34047.63,-24316.38,-11766.96,1861.245
1764505178.6927283,-2491.47,7792.155,-40689.855,-25904.295,-34046.505,-24317.55,-11767.275,1861.605
1764505178.6927283,-2495.16,7788.78,-40693.23,-25906.095,-34047.9,-24319.44,-11770.245,1857.735
1764505178.6927283,-2497.725,7784.325,-40697.325,-25908.39,-34047.765,-24314.76,-11770.47,1856.295
1764505178.6927283,-2499.255,7781.759999999999,-40700.295,-25910.955,-34049.34,-24313.32,-11770.11,1855.755
1764505178.6927283,-2499.3,7782.57,-40698.405,-25909.47,-34048.935,-24314.13,-11770.74,1855.845
1764505178.6927283,-2498.895,7782.974999999999,-40697.82,-25909.56,-34048.26,-24314.04,-11769.84,1856.655
1764505178.6927283,-2499.03,7783.065,-40698.315,-25911.135,-34049.16,-24316.29,-11770.2,1856.34
1764505178.6927283,-2497.725,7784.82,-40695.615,-25908.795,-34047.72,-24314.985,-11767.77,1857.645
1764505178.6927283,-2494.71,7787.295,-40693.365,-25907.49,-34046.955,-24314.445,-11766.42,1860.795
1764505178.6927283,-2494.26,7786.304999999999,-40695.39,-25909.02,-34049.655,-24317.01,-11766.96,1860.48
1764505178.6937492,-2491.11,7789.23,-40692.78,-25905.78,-34046.91,-24314.805,-11764.665,1863.72
1764505178.6937492,-2494.395,7786.755,-40694.895,-25908.12,-34049.97,-24317.37,-11767.77,1860.705
1764505178.6953,-2495.205,7787.205,-40695.345,-25909.11,-34050.78,-24318.18,-11768.13,1859.445
1764505178.6953,-2497.995,7783.65,-40698.855,-25911.855,-34053.84,-24321.915,-11770.38,1855.98
1764505178.737543,-2497.725,7783.29,-40698.18,-25910.595,-34052.67,-24320.07,-11769.705,1856.205
1764505178.737543,-2495.79,7786.44,-40694.94,-25907.04,-34048.305,-24315.84,-11769.255,1857.825
1764505178.737543,-2498.4,7784.054999999999,-40696.965,-25909.065,-34049.744999999995,-24316.29,-11771.82,1854.9
1764505178.737543,-2497.86,7785.045,-40695.12,-25906.59,-34047.405,-24315.165,-11770.875,1855.71
1764505178.737543,-2493.945,7789.184999999999,-40690.71,-25903.755,-34045.875,-24313.185,-11767.995,1859.49
1764505178.737543,-2492.955,7789.275,-40692.51,-25906.32,-34049.88,-24317.145,-11768.4,1859.76
1764505178.737543,-2492.415,7790.085,-40692.42,-25906.095,-34049.655,-24317.595,-11767.86,1859.805
1764505178.737543,-2495.745,7787.07,-40695.66,-25908.975,-34051.095,-24317.145,-11768.67,1857.69
1764505178.737543,-2498.715,7783.469999999999,-40700.115,-25912.305,-34053.435,-24318.495,-11769.93,1855.215
1764505178.737543,-2493.27,7789.455,-40694.31,-25906.365,-34049.025,-24315.615,-11766.69,1860.345
1764505178.737543,-2496.24,7787.07,-40696.965,-25910.55,-34052.895,-24319.935,-11768.67,1857.51
1764505178.737543,-2495.565,7787.384999999999,-40696.425,-25909.965,-34051.59,-24317.73,-11767.275,1858.77
1764505178.737543,-2492.01,7790.309999999999,-40693.185,-25907.49,-34048.845,-24315.795,-11764.62,1862.37
1764505178.737543,-2493.09,7790.759999999999,-40691.79,-25906.05,-34047.18,-24314.49,-11765.565,1861.02
1764505178.7385845,-2494.53,7790.04,-40692.33,-25905.375,-34047.315,-24315.03,-11766.465,1859.4
1764505178.7385845,-2491.83,7790.985,-40692.33,-25906.23,-34048.395,-24316.11,-11764.17,1861.56
1764505178.7385845,-2490.75,7792.155,-40690.8,-25904.88,-34047.0,-24314.4,-11764.395,1861.92
1764505178.7385845,-2491.65,7792.019999999999,-40691.025,-25904.565,-34046.955,-24314.58,-11765.295,1861.2
1764505178.7385845,-2490.3,7793.28,-40689.675,-25902.72,-34045.244999999995,-24313.14,-11763.315,1863.72
1764505178.7395842,-2493.09,7790.085,-40692.645,-25905.195,-34045.965,-24313.365,-11763.315,1863.495
1764505178.7395842,-2494.665,7789.86,-40691.52,-25903.305,-34043.58,-24310.935,-11764.89,1860.885
1764505178.7395842,-2496.375,7788.554999999999,-40694.445,-25907.355,-34049.16,-24316.92,-11766.69,1858.455
1764505178.7395842,-2495.97,7788.33,-40696.38,-25910.505,-34053.345,-24321.42,-11767.275,1858.905
1764505178.7395842,-2497.185,7787.205,-40696.515,-25910.865,-34053.03,-24321.195,-11768.58,1858.005
1764505178.787233,-2497.545,7787.115,-40695.615,-25911.09,-34052.4,-24320.655,-11769.39,1857.285
1764505178.787233,-2494.71,7789.995,-40693.455,-25907.94,-34049.43,-24316.425,-11766.285,1860.525
1764505178.787233,-2491.92,7791.57,-40692.15,-25905.285,-34045.695,-24310.44,-11761.695,1863.99
1764505178.787233,-2496.33,7786.98,-40695.795,-25909.695,-34049.97,-24315.57,-11765.88,1858.815
1764505178.7882698,-2493.765,7789.995,-40692.735,-25906.23,-34046.595,-24314.22,-11765.655,1860.975
1764505178.7882698,-2498.175,7786.17,-40696.83,-25910.37,-34051.5,-24319.845,-11769.705,1856.34
1764505178.7882698,-2495.79,7788.96,-40693.95,-25908.84,-34050.105,-24320.205,-11768.895,1858.635
1764505178.7882698,-2493.63,7791.57,-40691.115,-25905.105,-34045.83,-24315.03,-11766.735,1860.795
1764505178.7882698,-2497.005,7788.285,-40693.95,-25906.815,-34047.045,-24314.625,-11767.5,1857.375
1764505178.7882698,-2500.425,7784.054999999999,-40697.82,-25912.125,-34051.185,-24316.74,-11769.705,1855.575
1764505178.7882698,-2501.775,7782.66,-40699.755,-25914.69,-34053.21,-24318.495,-11771.28,1854.72
1764505178.789264,-2498.49,7785.134999999999,-40696.74,-25911.45,-34050.105,-24316.74,-11768.67,1857.87
1764505178.789264,-2495.205,7788.059999999999,-40694.31,-25909.2,-34047.99,-24315.345,-11767.095,1860.345
1764505178.789264,-2497.095,7786.71,-40695.57,-25910.73,-34050.06,-24317.415,-11768.805,1858.545
1764505178.7897775,-2501.37,7782.48,-40700.07,-25914.42,-34054.02,-24319.575,-11771.19,1854.81
1764505178.7897775,-2498.94,7785.809999999999,-40696.92,-25910.145,-34049.16,-24315.75,-11768.895,1856.925
1764505178.7897775,-2496.51,7787.25,-40695.885,-25909.2,-34048.665,-24315.03,-11766.87,1859.76
1764505178.7897775,-2500.245,7783.605,-40699.215,-25913.655,-34052.94,-24319.395,-11769.885,1856.07
1764505178.7897775,-2497.14,7787.655,-40694.985,-25909.425,-34048.71,-24316.38,-11768.58,1858.41
1764505178.7897775,-2492.82,7792.785,-40690.44,-25904.115,-34044.39,-24313.815,-11765.43,1861.83
1764505178.7897775,-2491.38,7794.315,-40688.19,-25902.99,-34042.815,-24313.545,-11764.89,1863.0
1764505178.7897775,-2490.435,7795.394999999999,-40686.57,-25901.64,-34042.095,-24313.14,-11764.395,1864.035
1764505178.8312876,-2491.83,7793.73,-40689.09,-25903.305,-34042.725,-24311.385,-11763.225,1864.35
1764505178.8312876,-2497.365,7788.554999999999,-40694.445,-25909.245,-34047.315,-24314.265,-11766.33,1859.58
1764505178.8312876,-2495.07,7789.545,-40693.815,-25909.38,-34045.92,-24310.845,-11764.71,1862.28
1764505178.8312876,-2493.63,7791.66,-40692.015,-25907.31,-34043.895,-24309.81,-11763.36,1863.585
1764505178.832301,-2494.575,7791.884999999999,-40691.475,-25906.275,-34042.994999999995,-24309.315,-11764.035,1862.955
1764505178.832301,-2497.14,7788.915,-40694.94,-25908.84,-34046.055,-24312.105,-11765.52,1859.13
1764505178.832301,-2495.52,7790.219999999999,-40693.185,-25907.445,-34045.425,-24312.825,-11765.565,1860.03
1764505178.832301,-2490.93,7794.945,-40688.73,-25902.675,-34040.88,-24308.37,-11762.37,1864.485
1764505178.8326013,-2492.55,7793.73,-40690.53,-25902.765,-34039.89,-24307.65,-11762.19,1863.855
1764505178.8326013,-2494.8,7790.445,-40693.815,-25905.42,-34041.96,-24308.595,-11762.46,1862.19
1764505178.8326013,-2490.615,7795.53,-40688.505,-25901.325,-34038.765,-24306.705,-11760.885,1866.33
1764505178.8335042,-2491.47,7794.809999999999,-40689.315,-25902.045,-34040.565,-24309.585,-11763.045,1864.305
1764505178.8335042,-2491.47,7794.719999999999,-40689.18,-25902.18,-34040.79,-24310.935,-11763.945,1863.81
1764505178.8335042,-2491.335,7793.73,-40689.225,-25902.54,-34039.755,-24309.225,-11762.865,1862.955
1764505178.8335042,-2491.38,7793.594999999999,-40689.81,-25902.18,-34037.505,-24303.42,-11760.525,1864.935
1764505178.8335042,-2494.17,7791.795,-40692.6,-25906.005,-34043.04,-24310.575,-11762.955,1863.18
1764505178.8335042,-2491.2,7794.585,-40689.405,-25904.025,-34043.13,-24313.455,-11762.595,1864.98
1764505178.8350143,-2486.835,7800.434999999999,-40683.195,-25896.465,-34035.93,-24307.74,-11761.425,1867.23
1764505178.8350143,-2487.78,7799.58,-40683.645,-25897.095,-34036.875,-24307.785,-11762.82,1865.205
1764505178.8350143,-2489.355,7794.674999999999,-40689.495,-25904.07,-34042.275,-24308.64,-11761.2,1865.835
1764505178.8350143,-2493.09,7790.804999999999,-40693.86,-25908.84,-34047.045,-24311.565,-11762.37,1863.225
1764505178.8350143,-2498.94,7783.875,-40701.285,-25917.255,-34057.395,-24325.02,-11769.66,1856.385
1764505178.8360295,-2498.445,7784.325,-40700.79,-25917.255,-34058.52,-24327.27,-11770.47,1857.33
1764505178.8360295,-2496.6,7785.855,-40698.81,-25914.735,-34055.82,-24323.715,-11768.94,1859.355
1764505178.8775167,-2494.395,7789.545,-40695.705,-25911.63,-34051.095,-24318.99,-11766.555,1862.145
1764505178.8775167,-2497.905,7785.495,-40698.45,-25914.465,-34053.435,-24320.97,-11768.04,1859.085
1764505178.8775167,-2498.13,7784.73,-40698.945,-25914.78,-34054.74,-24321.735,-11767.86,1858.725
1764505178.8775167,-2495.97,7787.205,-40697.235,-25913.25,-34053.39,-24320.25,-11766.465,1860.435
1764505178.8775167,-2494.935,7789.049999999999,-40694.715,-25910.64,-34050.78,-24319.53,-11766.69,1861.11
1764505178.8775167,-2492.82,7791.66,-40691.7,-25908.03,-34048.485,-24317.82,-11765.385,1862.505
1764505178.878515,-2489.94,7794.0,-40689.225,-25904.835,-34045.155,-24313.41,-11763.045,1865.475
1764505178.878515,-2496.06,7787.16,-40696.335,-25911.765,-34050.195,-24317.55,-11767.095,1860.21
1764505178.878515,-2496.33,7787.205,-40697.01,-25912.395,-34051.095,-24319.8,-11768.04,1860.255
1764505178.878515,-2492.595,7791.525,-40692.735,-25907.58,-34046.505,-24316.29,-11765.475,1863.945
1764505178.878515,-2496.87,7786.799999999999,-40697.325,-25910.82,-34048.485,-24314.805,-11767.095,1859.76
1764505178.878515,-2496.06,7786.98,-40697.235,-25910.595,-34045.92,-24310.845,-11766.105,1860.66
1764505178.878515,-2492.64,7791.389999999999,-40691.835,-25906.095,-34041.15,-24306.795,-11764.755,1863.72
1764505178.878515,-2491.74,7792.065,-40689.54,-25903.935,-34039.619999999995,-24305.13,-11763.945,1864.935
1764505178.878515,-2494.395,7789.995,-40691.7,-25905.285,-34041.105,-24305.13,-11763.45,1863.135
1764505178.878515,-2494.17,7790.625,-40691.655,-25905.24,-34041.78,-24306.255,-11763.765,1862.595
1764505178.878515,-2489.805,7795.08,-40688.595,-25902.99,-34040.25,-24306.255,-11761.965,1866.87
1764505178.878515,-2494.035,7791.48,-40692.51,-25907.895,-34045.515,-24311.7,-11763.945,1864.08
1764505178.878515,-2491.785,7794.134999999999,-40689.99,-25906.185,-34044.03,-24309.765,-11762.37,1865.925
1764505178.878515,-2493.045,7792.155,-40691.655,-25907.67,-34045.605,-24312.51,-11763.54,1864.035
1764505178.878515,-2495.115,7789.634999999999,-40694.13,-25910.325,-34048.575,-24317.145,-11765.52,1861.155
1764505178.878515,-2493.45,7791.615,-40691.79,-25908.3,-34047.855,-24317.64,-11765.745,1862.28
1764505178.924796,-2490.615,7794.495,-40689.855,-25904.88,-34044.75,-24314.445,-11763.18,1864.53
1764505178.924796,-2487.33,7797.825,-40687.74,-25901.865,-34039.845,-24307.785,-11758.86,1868.58
1764505178.924796,-2489.31,7794.9,-40691.025,-25904.565,-34040.835,-24307.065,-11759.355,1867.185
1764505178.9257915,-2488.185,7795.98,-40689.54,-25903.485,-34041.195,-24308.055,-11759.49,1868.265
1764505178.9261584,-2487.42,7797.285,-40688.415,-25902.315,-34041.015,-24307.47,-11758.68,1869.705
1764505178.9261584,-2491.065,7795.259999999999,-40688.64,-25902.27,-34041.105,-24307.605,-11761.83,1865.16
1764505178.9261584,-2490.12,7795.665,-40687.605,-25901.82,-34040.565,-24307.38,-11761.425,1865.43
1764505178.9261584,-2487.915,7795.98,-40688.19,-25902.63,-34040.295,-24305.31,-11757.78,1868.985
1764505178.9267888,-2488.095,7797.599999999999,-40686.975,-25901.055,-34038.494999999995,-24303.915,-11758.365,1869.525
1764505178.9267888,-2492.73,7793.46,-40690.935,-25905.33,-34042.725,-24308.91,-11761.605,1864.71
1764505178.9267888,-2492.955,7792.2,-40692.87,-25906.635,-34044.48,-24309.675,-11762.19,1863.765
1764505178.9267888,-2489.94,7794.63,-40689.945,-25903.53,-34040.7,-24307.065,-11760.48,1867.23
1764505178.9267888,-2491.785,7792.74,-40692.285,-25906.14,-34044.165,-24310.89,-11762.19,1864.935
1764505178.9267888,-2486.655,7798.32,-40685.355,-25899.615,-34038.99,-24305.985,-11757.96,1869.66
1764505178.9267888,-2484.63,7800.48,-40683.195,-25896.33,-34035.03,-24300.945,-11754.405,1871.82
1764505178.9267888,-2488.5,7796.384999999999,-40688.235,-25900.245,-34037.28,-24300.27,-11756.295,1869.435
1764505178.9267888,-2488.995,7796.16,-40687.92,-25900.47,-34037.369999999995,-24301.215,-11757.195,1868.715
1764505178.9267888,-2493.225,7792.065,-40691.205,-25904.79,-34042.725,-24307.38,-11761.695,1864.305
1764505178.9267888,-2494.665,7791.21,-40692.78,-25905.555,-34044.03,-24309.045,-11762.955,1863.045
1764505178.9267888,-2498.445,7786.259999999999,-40697.73,-25911.9,-34049.744999999995,-24314.805,-11765.97,1859.58
1764505178.9267888,-2498.445,7785.269999999999,-40698.405,-25912.89,-34050.24,-24314.67,-11766.195,1859.67
1764505178.9267888,-2493.315,7790.58,-40693.14,-25906.815,-34044.3,-24307.605,-11762.19,1864.575
1764505178.9267888,-2492.595,7791.389999999999,-40693.095,-25905.555,-34042.86,-24306.48,-11761.695,1864.62
1764505178.9267888,-2490.255,7792.875,-40690.845,-25904.61,-34043.22,-24308.28,-11760.255,1865.925
1764505178.9722035,-2486.565,7796.745,-40688.28,-25902.315,-34042.32,-24307.47,-11757.105,1870.92
1764505178.9722035,-2491.56,7792.559999999999,-40692.195,-25905.645,-34046.415,-24311.07,-11761.425,1865.43
1764505178.9722035,-2490.48,7794.99,-40689.9,-25902.63,-34041.465,-24305.4,-11760.48,1866.015
1764505178.9722035,-2492.28,7791.929999999999,-40693.365,-25906.455,-34044.48,-24308.055,-11759.985,1866.33
1764505178.9722035,-2496.105,7789.184999999999,-40695.435,-25908.66,-34048.44,-24313.095,-11763.495,1862.82
1764505178.9722035,-2492.145,7793.549999999999,-40690.8,-25905.15,-34044.57,-24308.775,-11761.965,1866.06
1764505178.9722035,-2490.435,7794.63,-40689.27,-25902.99,-34042.14,-24306.48,-11761.29,1867.095
1764505178.9722035,-2491.74,7793.235,-40690.44,-25902.315,-34040.88,-24304.905,-11761.2,1866.285
1764505178.9722035,-2496.015,7789.094999999999,-40694.67,-25906.905,-34045.29,-24308.865,-11763.495,1862.01
1764505178.9722035,-2493.765,7791.255,-40692.69,-25905.375,-34044.39,-24309.315,-11761.695,1864.53
1764505178.9722035,-2487.555,7798.32,-40686.57,-25899.84,-34039.215,-24305.49,-11756.97,1870.02
1764505178.9722035,-2489.355,7796.07,-40688.775,-25902.945,-34043.49,-24309.855,-11759.715,1868.085
1764505178.9722035,-2491.875,7793.009999999999,-40691.565,-25905.825,-34046.235,-24310.89,-11761.155,1865.745
1764505178.9722035,-2496.645,7787.88,-40696.02,-25909.965,-34049.88,-24313.905,-11764.98,1859.715
1764505178.9722035,-2495.88,7789.23,-40694.22,-25907.49,-34047.765,-24313.23,-11765.205,1861.38
1764505178.973223,-2494.17,7790.309999999999,-40692.87,-25905.69,-34046.055,-24311.205,-11763.99,1863.945
1764505178.973223,-2492.415,7792.424999999999,-40690.665,-25905.285,-34046.1,-24310.98,-11762.19,1866.69
1764505178.973223,-2493.45,7791.57,-40691.52,-25907.265,-34048.8,-24315.48,-11763.9,1863.945
1764505178.973223,-2489.895,7795.98,-40686.705,-25901.955,-34044.345,-24312.78,-11762.55,1866.33
1764505178.973223,-2490.525,7796.519999999999,-40685.805,-25901.055,-34042.005,-24311.7,-11763.135,1865.16
1764505178.973223,-2492.595,7792.38,-40690.44,-25905.15,-34042.455,-24307.74,-11762.28,1865.07
1764505178.97422,-2497.725,7785.9,-40696.965,-25911.63,-34048.44,-24310.395,-11765.835,1861.02
1764505179.0146272,-2495.34,7789.455,-40693.725,-25907.985,-34046.64,-24309.045,-11764.395,1863.135
1764505179.0146272,-2495.34,7789.5,-40694.265,-25907.94,-34045.83,-24309.315,-11764.575,1862.82
1764505179.0146272,-2496.825,7788.375,-40695.84,-25909.74,-34047.945,-24311.655,-11766.15,1861.155
1764505179.0146272,-2493.0,7793.235,-40691.295,-25905.105,-34044.435,-24309.315,-11763.9,1864.08
1764505179.0146272,-2494.98,7791.03,-40693.14,-25905.06,-34043.985,-24308.595,-11764.53,1861.83
1764505179.0146272,-2491.47,7793.73,-40689.99,-25900.965,-34038.405,-24302.385,-11761.74,1865.115
1764505179.0146272,-2489.265,7796.16,-40687.83,-25899.345,-34037.01,-24300.855,-11760.57,1867.32
1764505179.0146272,-2490.975,7794.315,-40690.08,-25903.08,-34041.33,-24306.615,-11761.47,1866.33
1764505179.0146272,-2488.815,7797.285,-40687.605,-25901.82,-34039.89,-24304.455,-11759.13,1869.39
1764505179.0146272,-2490.57,7795.08,-40689.45,-25903.35,-34042.095,-24305.67,-11760.93,1867.905
1764505179.0146272,-2492.505,7793.099999999999,-40691.205,-25904.835,-34043.85,-24307.92,-11763.045,1865.7
1764505179.0146272,-2494.89,7790.309999999999,-40693.815,-25908.345,-34047.09,-24312.06,-11763.54,1863.135
1764505179.0146272,-2491.92,7793.594999999999,-40690.125,-25904.745,-34044.119999999995,-24308.28,-11760.93,1866.33
1764505179.0156484,-2493.72,7792.424999999999,-40690.755,-25906.14,-34045.38,-24310.575,-11762.73,1864.17
1764505179.0156484,-2490.795,7795.08,-40688.145,-25903.26,-34042.23,-24309.045,-11762.19,1865.61
1764505179.0156484,-2491.965,7792.92,-40690.62,-25905.105,-34043.49,-24310.305,-11763.54,1864.71
1764505179.0156484,-2494.35,7790.219999999999,-40693.14,-25906.95,-34045.11,-24310.305,-11764.215,1863.36
1764505179.0156484,-2492.145,7793.054999999999,-40691.295,-25905.015,-34043.49,-24308.01,-11762.19,1864.89
1764505179.0156484,-2488.365,7796.835,-40688.64,-25901.775,-34040.385,-24304.185,-11758.14,1868.76
1764505179.0156484,-2490.75,7794.495,-40691.25,-25904.61,-34042.905,-24306.345,-11759.535,1867.86
1764505179.0156484,-2491.47,7793.415,-40691.52,-25905.195,-34044.075,-24308.415,-11760.705,1867.005
1764505179.016646,-2491.605,7794.99,-40688.55,-25902.225,-34039.44,-24304.275,-11760.705,1865.925
1764505179.016646,-2495.52,7790.804999999999,-40692.735,-25906.95,-34045.02,-24309.63,-11763.81,1861.335
1764505179.016646,-2497.365,7788.644999999999,-40695.615,-25910.73,-34049.43,-24314.085,-11764.08,1860.885
1764505179.0668333,-2496.105,7790.219999999999,-40695.12,-25909.74,-34048.755,-24312.96,-11762.37,1862.595
1764505179.0668333,-2495.61,7791.434999999999,-40694.085,-25909.155,-34047.54,-24311.07,-11761.11,1864.395
1764505179.0668333,-2498.355,7789.455,-40694.94,-25908.84,-34046.73,-24309.315,-11763.54,1860.39
1764505179.0668333,-2498.67,7788.644999999999,-40695.12,-25909.02,-34047.315,-24310.845,-11764.44,1860.075
1764505179.0668333,-2493.54,7792.605,-40690.62,-25905.015,-34043.805,-24308.505,-11761.29,1864.035
1764505179.0668333,-2498.175,7788.465,-40693.14,-25907.355,-34046.685,-24311.565,-11766.24,1857.87
1764505179.0668333,-2498.58,7788.96,-40692.33,-25905.96,-34043.985,-24307.92,-11766.555,1858.005
1764505179.0668333,-2498.76,7788.465,-40693.275,-25907.04,-34043.22,-24304.905,-11764.89,1859.13
1764505179.0668333,-2501.505,7785.134999999999,-40697.37,-25911.315,-34048.035,-24310.665,-11767.005,1855.98
1764505179.0668333,-2498.535,7787.655,-40695.03,-25909.965,-34046.595,-24310.575,-11765.16,1858.815
1764505179.0668333,-2498.94,7786.844999999999,-40695.705,-25911.45,-34048.755,-24314.13,-11765.61,1857.96
1764505179.0668333,-2500.785,7784.684999999999,-40698.72,-25914.51,-34051.455,-24317.865,-11767.14,1856.16
1764505179.0668333,-2497.275,7788.059999999999,-40694.355,-25910.145,-34048.215,-24314.535,-11763.765,1860.39
1764505179.0668333,-2495.61,7790.085,-40693.365,-25909.425,-34048.17,-24314.76,-11762.595,1862.055
1764505179.0668333,-2498.22,7786.665,-40696.74,-25913.565,-34052.67,-24319.575,-11765.115,1859.535
1764505179.067849,-2503.35,7783.155,-40699.755,-25916.355,-34056.135,-24325.965,-11770.02,1854.315
1764505179.067849,-2502.495,7784.865,-40698.18,-25914.825,-34054.74,-24325.47,-11771.595,1854.135
1764505179.067849,-2505.465,7781.13,-40702.23,-25917.795,-34055.865,-24321.33,-11771.73,1852.245
1764505179.067849,-2507.13,7778.295,-40704.48,-25919.685,-34056.0,-24317.865,-11771.28,1851.57
1764505179.067849,-2503.215,7783.514999999999,-40699.395,-25915.005,-34052.085,-24315.795,-11769.12,1854.9
1764505179.067849,-2498.49,7788.554999999999,-40694.535,-25909.155,-34046.19,-24310.35,-11766.105,1858.635
1764505179.067849,-2499.03,7787.295,-40695.345,-25909.47,-34045.92,-24310.845,-11766.06,1858.005
1764505179.067849,-2503.08,7783.559999999999,-40699.665,-25915.23,-34051.725,-24316.695,-11768.985,1853.73
1764505179.067849,-2501.955,7784.46,-40698.36,-25914.195,-34051.095,-24315.39,-11767.365,1854.63
1764505179.1117775,-2496.6,7790.174999999999,-40692.645,-25908.48,-34045.2,-24310.305,-11763.63,1860.75
1764505179.1117775,-2496.195,7790.894999999999,-40692.33,-25908.03,-34046.19,-24312.87,-11764.485,1860.66
1764505179.1117775,-2495.475,7791.21,-40692.465,-25906.95,-34046.415,-24313.635,-11764.215,1860.21
1764505179.1117775,-2495.88,7790.174999999999,-40693.545,-25907.715,-34047.135,-24314.13,-11764.62,1859.355
1764505179.1117775,-2499.705,7786.08,-40697.82,-25912.26,-34050.42,-24314.22,-11765.925,1858.545
1764505179.1117775,-2502.45,7784.099999999999,-40699.89,-25915.68,-34053.345,-24316.965,-11767.77,1855.89
1764505179.1117775,-2498.49,7787.835,-40696.02,-25911.945,-34050.465,-24314.715,-11764.665,1859.67
1764505179.1117775,-2494.305,7792.245,-40691.34,-25907.04,-34045.875,-24311.07,-11762.505,1863.855
1764505179.1117775,-2495.655,7791.344999999999,-40691.295,-25906.815,-34046.19,-24312.69,-11764.125,1862.415
1764505179.1117775,-2498.715,7788.33,-40694.22,-25909.2,-34048.619999999995,-24315.12,-11766.195,1858.32
1764505179.1117775,-2497.815,7789.32,-40694.4,-25909.29,-34045.785,-24309.945,-11763.18,1860.255
1764505179.1117775,-2502.9,7783.695,-40700.295,-25914.6,-34049.205,-24313.23,-11766.78,1855.98
1764505179.1117775,-2504.475,7781.804999999999,-40702.5,-25916.715,-34052.265,-24316.335,-11769.66,1853.145
1764505179.1117775,-2498.895,7786.98,-40696.83,-25912.98,-34049.34,-24314.49,-11766.87,1857.78
1764505179.1117775,-2502.27,7783.785,-40700.43,-25917.12,-34053.57,-24319.35,-11768.715,1855.845
1764505179.1117775,-2501.82,7784.594999999999,-40699.215,-25916.805,-34053.075,-24318.54,-11768.58,1856.97
1764505179.1117775,-2503.485,7782.525,-40700.655,-25917.21,-34054.29,-24320.295,-11770.515,1854.36
1764505179.1117775,-2500.785,7785.405,-40697.37,-25913.88,-34051.185,-24316.785,-11768.67,1856.565
1764505179.1117775,-2502.405,7784.955,-40698.09,-25914.51,-34052.355,-24317.55,-11770.02,1854.945
1764505179.1117775,-2505.06,7782.929999999999,-40699.71,-25915.68,-34053.435,-24319.035,-11771.235,1853.235
1764505179.1117775,-2501.37,7786.304999999999,-40696.065,-25911.945,-34049.97,-24315.885,-11768.85,1856.52
1764505179.1117775,-2504.79,7781.894999999999,-40699.665,-25915.77,-34053.93,-24319.89,-11771.46,1852.56
1764505179.1117775,-2502.675,7783.65,-40698.99,-25914.825,-34052.22,-24316.785,-11769.795,1854.945
1764505179.1133091,-2502.405,7783.11,-40700.025,-25915.32,-34053.345,-24316.65,-11770.56,1854.72
1764505179.1601586,-2503.35,7782.344999999999,-40699.98,-25916.085,-34053.975,-24318.045,-11771.145,1853.325
1764505179.1601586,-2499.795,7785.855,-40697.37,-25912.44,-34050.465,-24314.355,-11767.68,1857.33
1764505179.1601586,-2501.595,7782.57,-40700.475,-25915.905,-34053.795,-24318.045,-11768.895,1855.26
1764505179.1601586,-2498.4,7786.755,-40696.29,-25911.855,-34049.52,-24313.005,-11766.465,1857.555
1764505179.1611693,-2500.335,7786.08,-40696.515,-25912.035,-34050.15,-24314.445,-11768.04,1854.855
1764505179.1611693,-2502.09,7784.054999999999,-40699.62,-25916.22,-34054.244999999995,-24320.025,-11768.85,1855.305
1764505179.1616778,-2498.94,7787.519999999999,-40696.065,-25912.395,-34050.285,-24317.055,-11766.825,1858.41
1764505179.1616778,-2502.135,7784.28,-40699.17,-25915.23,-34053.21,-24320.43,-11769.48,1854.18
1764505179.1616778,-2500.11,7786.575,-40697.64,-25913.565,-34050.78,-24317.235,-11769.255,1856.43
1764505179.1616778,-2504.475,7781.58,-40701.735,-25917.165,-34053.615,-24317.64,-11771.235,1853.685
1764505179.1616778,-2506.635,7779.195,-40704.03,-25919.775,-34057.53,-24321.285,-11773.62,1851.345
1764505179.1616778,-2508.84,7777.035,-40706.415,-25923.42,-34061.805,-24327.09,-11776.095,1847.7
1764505179.1626933,-2505.87,7780.86,-40702.68,-25920.135,-34058.475,-24326.37,-11775.51,1848.87
1764505179.1626933,-2500.74,7787.205,-40695.03,-25911.765,-34050.735,-24319.44,-11772.585,1852.56
1764505179.1626933,-2500.65,7785.809999999999,-40697.37,-25913.97,-34052.4,-24319.98,-11771.235,1854.09
1764505179.1626933,-2501.73,7783.245,-40699.89,-25916.445,-34052.49,-24317.955,-11770.29,1854.585
1764505179.1626933,-2502.99,7781.13,-40702.14,-25917.705,-34052.31,-24315.66,-11768.76,1854.27
1764505179.1637087,-2506.365,7778.384999999999,-40705.155,-25920.18,-34055.82,-24319.62,-11771.82,1850.67
1764505179.1637087,-2502.045,7783.11,-40701.33,-25916.445,-34052.67,-24317.82,-11770.065,1853.91
1764505179.1637087,-2501.955,7783.92,-40699.89,-25915.59,-34052.13,-24317.955,-11770.47,1853.91
1764505179.1637087,-2500.245,7785.495,-40697.55,-25913.61,-34050.69,-24316.38,-11769.435,1855.845
1764505179.1637087,-2499.48,7785.764999999999,-40697.505,-25912.845,-34049.52,-24314.94,-11767.905,1856.16
1764505179.1637087,-2503.89,7780.23,-40702.77,-25918.92,-34054.244999999995,-24317.955,-11769.975,1853.01
1764505179.1637087,-2500.965,7783.785,-40698.27,-25913.97,-34049.52,-24313.86,-11768.49,1856.385
1764505179.2043197,-2499.66,7786.08,-40695.795,-25910.775,-34046.369999999995,-24312.195,-11767.005,1856.745
1764505179.2043197,-2500.83,7784.46,-40698.18,-25913.385,-34049.61,-24317.595,-11769.255,1854.54
1764505179.2043197,-2499.12,7786.304999999999,-40696.83,-25912.98,-34050.69,-24318.405,-11769.84,1856.295
1764505179.2043197,-2503.44,7781.58,-40701.465,-25917.705,-34056.675,-24324.885,-11775.6,1851.57
1764505179.2043197,-2507.535,7777.17,-40705.515,-25920.945,-34057.26,-24323.49,-11776.5,1848.645
1764505179.2043197,-2508.03,7775.865,-40706.415,-25921.125,-34054.515,-24317.19,-11774.43,1849.005
1764505179.2043197,-2507.265,7777.53,-40705.02,-25920.045,-34055.1,-24319.845,-11774.115,1848.96
1764505179.2043197,-2505.78,7778.384999999999,-40704.21,-25920.18,-34056.135,-24322.77,-11774.79,1849.995
1764505179.2043197,-2501.46,7782.255,-40700.925,-25917.345,-34053.84,-24320.88,-11771.865,1854.135
1764505179.2043197,-2505.375,7779.059999999999,-40704.48,-25920.36,-34057.305,-24323.895,-11774.7,1850.4
1764505179.2053468,-2504.385,7779.915,-40703.085,-25918.695,-34055.64,-24321.69,-11773.62,1851.345
1764505179.2053468,-2500.065,7783.83,-40700.205,-25915.32,-34052.67,-24318.27,-11769.75,1855.98
1764505179.2053468,-2496.51,7787.295,-40696.83,-25911.9,-34049.205,-24314.04,-11765.835,1859.895
1764505179.2063894,-2497.23,7786.575,-40696.74,-25912.62,-34050.195,-24315.975,-11766.735,1858.185
1764505179.2063894,-2500.11,7784.099999999999,-40699.44,-25915.995,-34053.39,-24319.215,-11769.795,1855.035
1764505179.2063894,-2501.28,7783.92,-40699.08,-25916.355,-34052.445,-24318.72,-11771.415,1854.045
1764505179.2063894,-2502.99,7782.21,-40700.475,-25918.515,-34052.805,-24318.72,-11771.595,1853.46
1764505179.2063894,-2504.745,7780.275,-40702.05,-25919.82,-34054.38,-24319.89,-11773.44,1851.885
1764505179.2063894,-2502.54,7782.21,-40700.745,-25916.985,-34051.725,-24317.19,-11771.595,1854.27
1764505179.2063894,-2503.485,7782.03,-40701.42,-25918.335,-34054.155,-24320.16,-11772.945,1852.92
1764505179.2063894,-2498.58,7787.519999999999,-40695.93,-25912.935,-34051.545,-24317.73,-11770.56,1857.195
1764505179.2063894,-2496.15,7790.085,-40692.645,-25909.02,-34048.619999999995,-24316.065,-11768.445,1859.355
1764505179.2513,-2497.275,7789.679999999999,-40692.915,-25909.695,-34048.619999999995,-24315.795,-11768.4,1858.815
1764505179.2513,-2504.52,7781.625,-40701.195,-25917.57,-34054.74,-24320.97,-11773.575,1852.29
1764505179.2513,-2502.315,7783.065,-40699.395,-25915.095,-34052.04,-24319.395,-11771.955,1853.37
1764505179.2513,-2499.57,7785.809999999999,-40696.29,-25911.855,-34047.72,-24314.13,-11770.245,1855.89
1764505179.2513,-2500.92,7783.65,-40699.35,-25914.78,-34048.98,-24314.535,-11770.74,1855.62
1764505179.2513,-2501.775,7782.255,-40700.205,-25916.175,-34051.14,-24318.675,-11772.27,1853.91
1764505179.2513,-2500.065,7784.19,-40697.865,-25914.555,-34051.68,-24320.88,-11771.775,1854.315
1764505179.2513,-2501.82,7783.695,-40699.395,-25916.715,-34053.3,-24322.365,-11772.225,1852.875
1764505179.2513,-2508.165,7776.179999999999,-40706.685,-25922.79,-34057.845,-24324.03,-11776.23,1848.015
1764505179.2513,-2507.985,7775.415,-40707.315,-25922.655,-34056.54,-24321.915,-11775.105,1850.085
1764505179.2513,-2502.09,7781.985,-40699.845,-25915.5,-34049.205,-24315.21,-11771.28,1855.485
1764505179.2513,-2503.35,7780.815,-40700.43,-25915.77,-34050.645,-24317.37,-11772.585,1851.525
1764505179.2518346,-2504.07,7781.445,-40699.755,-25916.04,-34051.365,-24319.305,-11773.53,1850.67
1764505179.2518346,-2500.02,7784.19,-40697.46,-25914.42,-34050.465,-24317.64,-11769.48,1856.745
1764505179.2518346,-2496.15,7787.429999999999,-40694.355,-25910.64,-34047.045,-24314.355,-11766.375,1860.345
1764505179.2518346,-2496.105,7787.969999999999,-40694.04,-25910.73,-34046.325,-24315.93,-11766.96,1859.31
1764505179.252857,-2495.61,7789.139999999999,-40693.275,-25909.965,-34046.145,-24314.805,-11765.385,1860.975
1764505179.252857,-2493.45,7790.309999999999,-40692.24,-25909.425,-34045.425,-24312.42,-11763.45,1864.35
1764505179.252857,-2496.51,7787.25,-40696.29,-25912.395,-34047.765,-24311.565,-11764.89,1860.93
1764505179.252857,-2490.525,7793.144999999999,-40690.26,-25905.15,-34040.7,-24304.77,-11760.48,1866.285
1764505179.252857,-2490.21,7793.775,-40688.64,-25903.17,-34038.99,-24304.185,-11759.535,1866.06
1764505179.252857,-2495.43,7788.96,-40692.555,-25908.435,-34044.165,-24309.405,-11763.27,1861.38
1764505179.252857,-2491.245,7793.594999999999,-40689.18,-25904.295,-34040.475,-24306.12,-11760.48,1865.43
1764505179.252857,-2489.31,7795.889999999999,-40688.01,-25902.72,-34039.17,-24304.86,-11758.365,1867.275
1764505179.2958128,-2491.425,7794.134999999999,-40689.765,-25904.52,-34040.97,-24307.245,-11760.39,1865.16
1764505179.2958128,-2495.79,7789.545,-40693.815,-25909.02,-34045.74,-24312.015,-11763.765,1861.47
1764505179.2968416,-2493.63,7791.884999999999,-40691.025,-25906.86,-34043.76,-24310.08,-11761.605,1864.305
1764505179.2968416,-2493.72,7791.75,-40691.475,-25907.085,-34044.57,-24310.26,-11761.74,1864.125
1764505179.2968416,-2496.87,7789.86,-40694.13,-25909.92,-34046.64,-24312.735,-11764.665,1861.47
1764505179.2968416,-2493.495,7794.224999999999,-40690.53,-25905.465,-34042.14,-24309.405,-11761.92,1864.44
1764505179.2968416,-2487.915,7799.264999999999,-40685.4,-25900.965,-34038.45,-24306.57,-11758.095,1869.12
1764505179.2968416,-2490.66,7795.755,-40687.56,-25903.17,-34039.98,-24306.03,-11758.905,1866.78
1764505179.2968416,-2492.595,7793.505,-40689.18,-25904.07,-34039.665,-24303.195,-11759.22,1864.845
1764505179.2968416,-2493.81,7792.514999999999,-40690.89,-25905.105,-34041.96,-24307.02,-11760.705,1864.125
1764505179.2968416,-2497.5,7788.644999999999,-40694.265,-25909.74,-34045.56,-24310.575,-11763.63,1860.66
1764505179.2968416,-2498.49,7786.62,-40696.155,-25911.945,-34047.09,-24311.97,-11764.44,1860.12
1764505179.2968416,-2494.215,7790.445,-40692.6,-25906.77,-34042.815,-24308.37,-11762.37,1863.495
1764505179.2968416,-2493.945,7791.75,-40690.395,-25904.745,-34040.295,-24306.93,-11762.64,1863.495
1764505179.2968416,-2498.04,7787.519999999999,-40694.58,-25909.695,-34046.01,-24313.77,-11766.015,1860.21
1764505179.2968416,-2496.735,7788.735,-40694.31,-25909.38,-34047.09,-24316.155,-11764.98,1861.245
1764505179.2968416,-2491.29,7794.405,-40687.92,-25902.945,-34040.88,-24310.89,-11762.055,1864.71
1764505179.2968416,-2497.905,7788.285,-40695.165,-25909.965,-34045.425,-24311.79,-11764.125,1859.625
1764505179.2968416,-2496.195,7790.264999999999,-40693.59,-25907.94,-34042.905,-24308.235,-11761.965,1861.38
1764505179.2968416,-2497.5,7787.745,-40696.02,-25909.695,-34043.625,-24308.865,-11761.695,1860.21
1764505179.297853,-2493.945,7790.894999999999,-40693.41,-25906.23,-34041.24,-24306.93,-11759.805,1863.855
1764505179.297853,-2490.705,7793.955,-40689.18,-25902.765,-34038.765,-24306.705,-11757.96,1866.06
1764505179.3447828,-2492.865,7792.38,-40690.755,-25905.105,-34041.24,-24310.395,-11759.895,1864.26
1764505179.3447828,-2490.165,7795.259999999999,-40688.55,-25902.405,-34039.665,-24307.38,-11757.465,1867.95
1764505179.3447828,-2492.415,7792.605,-40691.565,-25904.79,-34039.89,-24305.715,-11757.915,1866.375
1764505179.3447828,-2491.065,7792.92,-40690.44,-25904.565,-34039.305,-24305.445,-11756.475,1867.365
1764505179.3468585,-2491.11,7793.099999999999,-40691.16,-25905.915,-34040.565,-24306.615,-11756.34,1867.41
1764505179.3468585,-2495.16,7789.455,-40694.805,-25910.055,-34044.345,-24310.98,-11759.94,1863.45
1764505179.3468585,-2493.09,7791.929999999999,-40692.33,-25906.68,-34041.15,-24307.065,-11758.815,1866.105
1764505179.3468585,-2492.73,7792.785,-40691.34,-25905.78,-34040.52,-24306.975,-11758.365,1866.015
1764505179.3468585,-2496.06,7789.41,-40694.985,-25909.38,-34044.84,-24311.25,-11761.065,1862.91
1764505179.3468585,-2495.88,7789.634999999999,-40695.75,-25909.695,-34045.155,-24311.52,-11760.93,1863.855
1764505179.3468585,-2492.775,7792.785,-40692.33,-25906.005,-34041.33,-24308.37,-11758.995,1865.385
1764505179.3468585,-2493.765,7791.84,-40692.195,-25905.825,-34040.744999999995,-24307.92,-11758.815,1863.675
1764505179.3468585,-2493.99,7792.514999999999,-40692.06,-25905.015,-34039.485,-24306.435,-11758.905,1863.315
1764505179.3468585,-2493.225,7793.235,-40691.025,-25903.98,-34039.08,-24306.255,-11758.95,1864.395
1764505179.3468585,-2490.3,7795.665,-40687.605,-25902.315,-34038.81,-24304.545,-11757.015,1867.185
1764505179.3468585,-2494.8,7791.165,-40691.655,-25906.815,-34042.815,-24309.675,-11760.165,1863.18
1764505179.3468585,-2493.0,7792.92,-40690.71,-25905.195,-34041.869999999995,-24308.73,-11758.995,1865.43
1764505179.3468585,-2488.995,7796.205,-40687.29,-25901.73,-34036.92,-24302.79,-11754.36,1869.48
1764505179.3468585,-2487.78,7797.96,-40685.175,-25899.93,-34035.525,-24301.17,-11753.055,1870.29
1764505179.3468585,-2488.095,7797.87,-40684.995,-25899.435,-34035.255,-24301.395,-11754.135,1871.01
1764505179.3468585,-2488.32,7797.105,-40685.94,-25899.975,-34035.03,-24301.71,-11754.765,1869.93
1764505179.3468585,-2488.41,7797.105,-40685.355,-25899.255,-34034.265,-24300.495,-11753.865,1869.39
1764505179.3468585,-2487.15,7798.184999999999,-40683.915,-25898.49,-34033.994999999995,-24299.19,-11753.28,1870.74
1764505179.3468585,-2485.485,7800.299999999999,-40682.52,-25897.005,-34032.69,-24298.02,-11751.48,1872.54
1764505179.3959436,-2487.33,7798.455,-40684.365,-25898.175,-34033.005,-24297.885,-11752.02,1870.245
1764505179.3959436,-2491.515,7793.054999999999,-40689.63,-25903.485,-34039.53,-24305.04,-11756.475,1866.195
1764505179.3959436,-2493.81,7790.715,-40692.375,-25907.4,-34044.93,-24312.105,-11759.355,1863.45
1764505179.3959436,-2491.29,7794.045,-40690.17,-25904.655,-34042.275,-24309.45,-11757.285,1866.15
1764505179.3959436,-2487.24,7798.455,-40686.795,-25901.055,-34038.54,-24304.41,-11754.405,1870.65
1764505179.3959436,-2488.32,7797.42,-40688.235,-25901.595,-34038.9,-24305.22,-11755.755,1869.435
1764505179.3959436,-2490.165,7796.025,-40688.73,-25902.09,-34039.125,-24305.895,-11756.07,1868.715
1764505179.3959436,-2493.0,7792.695,-40691.835,-25905.42,-34041.825,-24308.865,-11757.96,1864.755
1764505179.3959436,-2492.82,7791.84,-40692.42,-25905.78,-34041.645,-24308.37,-11758.77,1863.855
1764505179.3959436,-2490.975,7793.82,-40689.72,-25903.215,-34039.575,-24306.615,-11757.96,1865.385
1764505179.3959436,-2487.33,7798.23,-40685.13,-25898.535,-34034.94,-24301.44,-11755.17,1869.21
1764505179.3959436,-2488.59,7797.014999999999,-40685.13,-25898.22,-34034.355,-24301.17,-11756.745,1866.87
1764505179.3959436,-2484.18,7800.795,-40682.295,-25896.33,-34032.465,-24299.64,-11754.495,1870.785
1764505179.3959436,-2485.62,7798.905,-40686.165,-25900.785,-34037.19,-24304.68,-11755.62,1869.885
1764505179.3959436,-2488.32,7796.655,-40687.74,-25903.215,-34040.115,-24309.54,-11758.59,1867.275
1764505179.3959436,-2487.735,7797.105,-40687.02,-25902.09,-34038.585,-24308.235,-11757.69,1867.275
1764505179.3959436,-2489.175,7795.349999999999,-40688.73,-25902.27,-34036.605,-24302.88,-11757.195,1866.42
1764505179.3959436,-2488.05,7796.384999999999,-40687.29,-25900.92,-34034.13,-24299.37,-11755.53,1868.13
1764505179.3959436,-2484.18,7800.48,-40683.06,-25897.23,-34030.845,-24298.065,-11753.145,1871.37
1764505179.3959436,-2481.3,7803.495,-40679.865,-25895.61,-34030.89,-24300.225,-11752.695,1873.17
1764505179.3959436,-2478.465,7806.644999999999,-40676.805,-25892.28,-34029.675,-24301.305,-11752.47,1874.97
1764505179.396933,-2480.805,7803.674999999999,-40679.82,-25894.71,-34031.25,-24300.63,-11752.83,1873.755
1764505179.396933,-2484.99,7797.599999999999,-40686.39,-25900.47,-34034.175,-24299.1,-11753.505,1871.145
1764505179.396933,-2490.615,7791.615,-40693.005,-25906.77,-34039.17,-24302.7,-11756.565,1866.915
1764505179.4364345,-2491.2,7791.884999999999,-40693.41,-25907.94,-34040.655,-24306.03,-11757.87,1866.015
1764505179.4364345,-2492.37,7791.344999999999,-40694.58,-25909.965,-34043.49,-24310.17,-11759.895,1865.25
1764505179.4364345,-2491.02,7791.389999999999,-40693.77,-25908.39,-34043.04,-24309.405,-11758.905,1866.69
1764505179.4364345,-2487.42,7794.36,-40691.655,-25905.78,-34040.61,-24307.245,-11756.115,1870.83
1764505179.4364345,-2486.07,7797.285,-40687.38,-25901.865,-34036.785,-24303.645,-11755.17,1871.685
1764505179.4364345,-2486.97,7796.61,-40687.29,-25902.225,-34036.875,-24303.96,-11756.025,1870.02
1764505179.4364345,-2487.015,7795.934999999999,-40689.0,-25904.34,-34038.45,-24305.895,-11756.43,1869.705
1764505179.4364345,-2489.76,7794.585,-40690.125,-25904.925,-34039.845,-24307.02,-11757.69,1867.185
1764505179.4364345,-2492.73,7791.03,-40692.285,-25906.995,-34042.725,-24309.045,-11759.175,1865.025
1764505179.4364345,-2492.01,7792.335,-40691.295,-25906.275,-34041.465,-24307.515,-11758.32,1866.06
1764505179.4364345,-2490.705,7794.179999999999,-40690.395,-25904.52,-34039.485,-24305.67,-11757.96,1866.735
1764505179.4364345,-2486.745,7798.86,-40685.445,-25899.48,-34034.31,-24300.405,-11754.495,1870.92
1764505179.4364345,-2487.42,7798.139999999999,-40685.49,-25898.67,-34034.49,-24301.53,-11755.98,1868.985
1764505179.4364345,-2486.025,7800.165,-40683.465,-25896.87,-34033.59,-24301.53,-11755.62,1870.56
1764505179.4364345,-2491.245,7795.53,-40688.82,-25902.63,-34039.26,-24306.66,-11758.095,1867.005
1764505179.4364345,-2488.545,7796.384999999999,-40687.875,-25901.37,-34035.84,-24300.18,-11754.54,1870.695
1764505179.4364345,-2488.59,7796.025,-40687.875,-25901.415,-34036.605,-24299.82,-11754.045,1870.92
1764505179.4364345,-2491.155,7793.28,-40690.44,-25904.025,-34039.53,-24303.915,-11756.745,1867.59
1764505179.4374666,-2487.915,7796.474999999999,-40687.425,-25901.73,-34036.83,-24300.99,-11755.665,1869.975
1764505179.4374666,-2488.545,7796.565,-40687.695,-25902.045,-34037.28,-24302.025,-11754.72,1870.11
1764505179.4374666,-2492.145,7792.605,-40691.835,-25906.5,-34042.23,-24306.93,-11758.05,1866.915
1764505179.4374666,-2490.255,7794.719999999999,-40690.08,-25903.8,-34039.395,-24305.265,-11756.88,1868.49
1764505179.4860756,-2492.415,7792.695,-40692.06,-25905.87,-34040.79,-24307.695,-11758.545,1866.78
1764505179.4860756,-2488.77,7796.16,-40688.19,-25902.27,-34036.695,-24302.97,-11756.385,1869.66
1764505179.4860756,-2486.925,7798.23,-40685.76,-25899.795,-34034.355,-24300.09,-11754.315,1870.83
1764505179.4860756,-2484.405,7802.28,-40684.14,-25896.06,-34031.07,-24296.355,-11751.57,1873.575
1764505179.4860756,-2486.205,7800.12,-40685.895,-25898.31,-34032.375,-24298.02,-11752.29,1872.72
1764505179.4860756,-2491.875,7794.764999999999,-40690.485,-25903.26,-34037.415,-24302.205,-11756.655,1867.86
1764505179.4860756,-2488.365,7797.96,-40688.19,-25901.235,-34036.515,-24300.495,-11754.72,1871.235
1764505179.4860756,-2487.87,7798.275,-40688.01,-25900.83,-34035.795,-24300.315,-11753.955,1871.145
1764505179.4860756,-2491.605,7793.009999999999,-40692.78,-25905.33,-34039.035,-24304.455,-11756.88,1866.105
1764505179.4860756,-2492.415,7791.66,-40693.455,-25905.555,-34038.585,-24305.22,-11757.69,1866.105
1764505179.4860756,-2491.74,7792.424999999999,-40692.69,-25905.195,-34038.72,-24305.355,-11757.6,1866.645
1764505179.4860756,-2491.56,7794.36,-40689.675,-25902.63,-34036.965,-24302.925,-11756.97,1865.925
1764505179.487075,-2491.56,7795.215,-40689.9,-25903.62,-34038.494999999995,-24304.14,-11756.79,1866.51
1764505179.487075,-2489.04,7796.429999999999,-40689.27,-25903.35,-34038.18,-24304.14,-11754.675,1870.065
1764505179.487075,-2486.745,7799.355,-40686.03,-25899.615,-34034.445,-24301.215,-11752.47,1872.27
1764505179.487075,-2491.155,7794.764999999999,-40690.035,-25904.52,-34038.765,-24305.445,-11755.575,1868.04
1764505179.487075,-2487.915,7797.42,-40687.695,-25901.955,-34036.155,-24302.25,-11753.685,1870.605
1764505179.487075,-2488.95,7796.61,-40688.865,-25902.315,-34036.47,-24303.105,-11754.63,1868.985
1764505179.487075,-2493.18,7792.424999999999,-40692.06,-25905.555,-34039.755,-24306.84,-11757.285,1865.43
1764505179.487075,-2492.595,7793.054999999999,-40691.925,-25905.87,-34039.98,-24307.065,-11758.185,1865.43
1764505179.487075,-2488.59,7797.375,-40687.92,-25901.775,-34036.56,-24303.87,-11755.935,1868.94
1764505179.487075,-2490.03,7795.755,-40688.73,-25901.91,-34036.02,-24303.24,-11756.07,1868.445
1764505179.487075,-2490.165,7795.755,-40687.605,-25900.83,-34033.095,-24300.765,-11755.575,1868.355
1764505179.487075,-2489.715,7796.474999999999,-40687.155,-25900.605,-34034.13,-24302.43,-11755.485,1867.725
1764505179.534719,-2487.24,7798.634999999999,-40684.635,-25899.39,-34034.445,-24304.275,-11755.575,1869.435
1764505179.534719,-2494.62,7791.255,-40692.915,-25907.13,-34041.15,-24308.955,-11760.165,1862.19
1764505179.534719,-2496.735,7789.365,-40695.435,-25909.2,-34042.23,-24307.11,-11760.345,1861.155
1764505179.534719,-2491.425,7795.035,-40689.27,-25904.205,-34038.18,-24305.58,-11758.32,1865.835
1764505179.534719,-2490.48,7796.88,-40687.56,-25902.855,-34037.055,-24307.695,-11758.59,1865.25
1764505179.534719,-2490.21,7797.375,-40687.785,-25902.36,-34035.21,-24303.6,-11755.935,1866.51
1764505179.534719,-2490.165,7795.62,-40689.54,-25903.755,-34033.77,-24298.515,-11753.955,1868.175
1764505179.534719,-2491.47,7793.865,-40691.115,-25905.42,-34035.57,-24301.08,-11756.07,1866.78
1764505179.534719,-2493.9,7791.165,-40694.22,-25908.165,-34039.08,-24304.05,-11758.23,1864.125
1764505179.5352378,-2488.68,7796.384999999999,-40689.405,-25903.08,-34034.715,-24300.18,-11754.18,1868.895
1764505179.5352378,-2488.41,7796.16,-40689.81,-25904.205,-34035.255,-24301.35,-11753.775,1869.75
1764505179.5352378,-2492.37,7792.29,-40693.185,-25907.22,-34039.8,-24306.75,-11757.195,1866.105
1764505179.5352378,-2490.345,7795.035,-40691.025,-25905.69,-34038.09,-24306.615,-11755.71,1869.165
1764505179.5352378,-2491.605,7793.28,-40692.69,-25907.265,-34041.42,-24309.495,-11757.195,1866.96
1764505179.5352378,-2490.615,7793.955,-40692.285,-25906.32,-34041.555,-24308.775,-11757.24,1867.095
1764505179.5352378,-2487.78,7796.655,-40688.865,-25903.71,-34037.415,-24304.275,-11754.135,1869.93
1764505179.5352378,-2490.615,7793.594999999999,-40690.98,-25905.915,-34038.135,-24306.165,-11755.44,1867.635
1764505179.5352378,-2487.375,7797.599999999999,-40687.56,-25901.82,-34035.39,-24303.69,-11753.55,1871.145
