Timestamp,Channel1,Channel2,Channel3,Channel4,Channel5,Channel6,Channel7,Channel8
1764505021.018109,20848.455,-12383.145,-12921.21,-19961.82,-31113.945,-55524.375,-27160.965,-28006.515
1764505021.018109,20852.1,-12379.545,-12915.945,-19957.275,-31108.365,-55519.515,-27156.555,-28003.41
1764505021.018109,20850.795,-12380.58,-12918.105,-19959.84,-31110.48,-55520.955,-27157.14,-28004.4
1764505021.018109,20856.015,-12375.27,-12914.64,-19956.915,-31108.455,-55518.48,-27154.125,-27998.955
1764505021.018109,20854.8,-12377.34,-12915.72,-19958.04,-31110.03,-55521.09,-27155.88,-28000.755
1764505021.018109,20851.47,-12381.03,-12920.895,-19962.45,-31113.72,-55524.87,-27159.39,-28003.905
1764505021.018109,20852.685,-12377.79,-12918.105,-19960.695,-31112.37,-55523.655,-27158.355,-28002.465
1764505021.018109,20852.055,-12377.385,-12915.36,-19958.04,-31111.245,-55521.81,-27158.355,-28002.78
1764505021.018109,20852.82,-12377.115,-12912.705,-19955.07,-31108.545,-55518.84,-27157.095,-28001.79
1764505021.018109,20856.87,-12372.525,-12908.61,-19950.615,-31103.505,-55514.205,-27153.18,-27997.245
1764505021.018109,20857.995,-12371.76,-12909.105,-19950.48,-31103.595,-55514.205,-27152.955,-27997.515
1764505021.0202496,20855.025,-12374.91,-12911.535,-19951.515,-31105.26,-55515.555,-27154.98,-27999.63
1764505021.0202496,20854.89,-12375.45,-12910.635,-19950.255,-31102.515,-55512.765,-27153.09,-27998.28
1764505021.0202496,20857.32,-12373.74,-12908.79,-19949.31,-31100.4,-55511.19,-27151.605,-27996.39
1764505021.0202496,20857.725,-12373.2,-12908.565,-19950.66,-31102.695,-55513.035,-27152.64,-27996.615
1764505021.0202496,20858.985,-12370.77,-12907.62,-19950.255,-31104.945,-55515.6,-27153.225,-27996.12
1764505021.0202496,20856.42,-12374.19,-12911.625,-19952.595,-31106.79,-55517.13,-27155.745,-27999.09
1764505021.0202496,20858.985,-12370.995,-12908.115,-19948.68,-31102.74,-55512.54,-27151.74,-27996.12
1764505021.0202496,20858.76,-12370.545,-12908.745,-19948.185,-31102.65,-55512.495,-27152.55,-27996.795
1764505021.0202496,20856.735,-12372.93,-12911.85,-19950.615,-31104.72,-55514.88,-27154.08,-27998.415
1764505021.0202496,20852.1,-12377.655,-12914.955,-19954.98,-31109.805,-55519.29,-27158.04,-28003.14
1764505021.0202496,20851.785,-12376.845,-12912.39,-19953.945,-31108.77,-55518.705,-27157.275,-28003.23
1764505021.0202496,20854.53,-12374.37,-12910.05,-19951.11,-31105.305,-55514.61,-27153.63,-28000.035
1764505021.068712,20854.98,-12374.82,-12910.32,-19951.02,-31104.855,-55513.845,-27153.45,-27999.135
1764505021.068712,20850.66,-12380.04,-12915.135,-19954.935,-31107.6,-55516.14,-27156.285,-28003.185
1764505021.068712,20849.715,-12380.67,-12915.54,-19954.17,-31107.285,-55516.725,-27156.15,-28003.23
1764505021.068712,20850.885,-12378.42,-12914.73,-19953.495,-31107.465,-55517.265,-27155.655,-28003.14
1764505021.068712,20853.81,-12375.45,-12911.805,-19950.975,-31106.34,-55514.475,-27153.225,-28000.665
1764505021.068712,20852.73,-12376.44,-12912.84,-19951.875,-31107.69,-55515.33,-27153.765,-28001.295
1764505021.068712,20850.57,-12378.645,-12915.18,-19954.395,-31111.695,-55519.335,-27157.185,-28004.49
1764505021.068712,20851.92,-12376.08,-12911.94,-19951.515,-31108.995,-55517.265,-27154.665,-28003.14
1764505021.068712,20854.71,-12373.47,-12910.14,-19949.58,-31105.035,-55514.655,-27151.155,-27999.945
1764505021.068712,20854.935,-12373.515,-12911.04,-19950.795,-31104.495,-55514.34,-27150.12,-27998.73
1764505021.0697124,20855.88,-12373.02,-12910.545,-19950.435,-31105.08,-55515.015,-27150.12,-27998.505
1764505021.0697124,20854.665,-12374.595,-12912.12,-19952.325,-31107.96,-55517.445,-27150.975,-27999.855
1764505021.0697124,20853.045,-12375.18,-12911.67,-19953.585,-31109.49,-55519.56,-27152.1,-28002.015
1764505021.0697124,20850.705,-12376.755,-12912.345,-19953.18,-31109.13,-55519.605,-27152.505,-28003.455
1764505021.0697124,20850.345,-12377.25,-12912.48,-19952.955,-31108.77,-55519.74,-27152.37,-28003.77
1764505021.0697124,20850.705,-12378.105,-12912.975,-19953.54,-31109.31,-55520.37,-27153.945,-28004.265
1764505021.0697124,20853.675,-12376.17,-12911.895,-19952.28,-31107.15,-55517.805,-27150.39,-28001.565
1764505021.0697124,20850.885,-12378.6,-12914.595,-19954.98,-31109.94,-55520.775,-27153.675,-28003.77
1764505021.0697124,20851.29,-12378.51,-12914.235,-19954.845,-31110.165,-55520.37,-27154.08,-28003.095
1764505021.0697124,20854.17,-12376.845,-12911.13,-19952.145,-31107.78,-55518.12,-27150.705,-27999.72
1764505021.0697124,20855.43,-12375.945,-12909.87,-19950.48,-31105.575,-55516.77,-27149.355,-27997.875
1764505021.0697124,20853.63,-12377.97,-12913.29,-19953.045,-31107.42,-55518.705,-27151.38,-27999.81
1764505021.1157453,20851.965,-12379.365,-12915.855,-19955.565,-31110.48,-55522.575,-27154.62,-28002.42
1764505021.1157453,20854.08,-12377.25,-12913.965,-19953.0,-31108.545,-55520.73,-27152.145,-27999.765
1764505021.1157453,20853.945,-12376.305,-12913.695,-19953.99,-31109.4,-55521.54,-27152.82,-28000.215
1764505021.1157453,20850.885,-12378.645,-12914.73,-19954.845,-31110.12,-55522.305,-27154.395,-28002.465
1764505021.1157453,20851.245,-12379.185,-12915.495,-19955.925,-31110.84,-55522.53,-27154.485,-28001.88
1764505021.1157453,20852.145,-12378.015,-12913.065,-19954.665,-31111.155,-55522.17,-27153.54,-28001.295
1764505021.1157453,20853.495,-12376.035,-12907.53,-19947.33,-31104.765,-55517.265,-27150.345,-27999.63
1764505021.1157453,20850.93,-12377.925,-12910.59,-19950.03,-31106.745,-55519.02,-27152.64,-28002.24
1764505021.1157453,20853.99,-12374.64,-12907.845,-19947.42,-31103.505,-55516.14,-27149.58,-27998.685
1764505021.1157453,20851.515,-12377.115,-12911.085,-19950.39,-31106.79,-55520.64,-27152.19,-28001.565
1764505021.1157453,20847.915,-12380.805,-12914.775,-19953.99,-31110.93,-55525.455,-27156.555,-28005.885
1764505021.1157453,20845.575,-12382.965,-12917.52,-19956.465,-31112.505,-55526.895,-27157.905,-28007.955
1764505021.1157453,20845.53,-12382.335,-12916.935,-19956.24,-31112.415,-55526.265,-27157.545,-28008.54
1764505021.1157453,20845.98,-12381.93,-12916.8,-19956.24,-31112.505,-55526.04,-27157.455,-28007.73
1764505021.1157453,20849.85,-12378.555,-12914.55,-19953.9,-31109.22,-55522.26,-27153.27,-28002.915
1764505021.1157453,20846.97,-12382.065,-12918.33,-19956.735,-31111.155,-55524.78,-27155.295,-28005.885
1764505021.1157453,20841.615,-12388.365,-12922.65,-19961.145,-31115.34,-55529.91,-27159.39,-28011.51
1764505021.1157453,20842.605,-12387.42,-12919.5,-19958.895,-31115.43,-55530.45,-27159.615,-28011.465
1764505021.1157453,20847.105,-12383.19,-12914.235,-19953.72,-31111.56,-55527.345,-27156.645,-28006.29
1764505021.116749,20842.695,-12387.375,-12919.365,-19958.445,-31115.745,-55531.26,-27160.605,-28010.52
1764505021.116749,20845.755,-12385.44,-12918.105,-19957.815,-31113.9,-55528.74,-27156.78,-28007.235
1764505021.116749,20844.585,-12387.375,-12921.615,-19961.19,-31116.51,-55531.53,-27158.175,-28008.63
1764505021.116749,20841.795,-12388.86,-12924.495,-19963.395,-31119.885,-55535.715,-27163.17,-28012.14
1764505021.116749,20843.46,-12386.745,-12922.11,-19961.145,-31117.05,-55532.61,-27160.74,-28010.61
1764505021.1598208,20844.18,-12386.34,-12920.49,-19959.885,-31114.755,-55531.215,-27160.02,-28010.34
1764505021.1598208,20842.92,-12386.835,-12919.365,-19958.985,-31114.305,-55530.63,-27160.605,-28010.475
1764505021.1598208,20841.885,-12387.78,-12920.13,-19959.03,-31114.215,-55529.46,-27161.055,-28011.24
1764505021.1598208,20838.87,-12389.805,-12922.29,-19960.425,-31114.665,-55530.0,-27161.955,-28013.04
1764505021.1598208,20843.28,-12385.44,-12918.24,-19956.69,-31110.795,-55525.41,-27157.455,-28008.72
1764505021.1613593,20842.11,-12385.755,-12919.32,-19957.905,-31113.495,-55527.795,-27159.255,-28009.575
1764505021.1613593,20843.82,-12386.34,-12921.48,-19959.84,-31114.845,-55528.74,-27159.75,-28008.855
1764505021.1613593,20842.56,-12388.815,-12923.91,-19963.62,-31120.02,-55533.015,-27162.54,-28011.24
1764505021.1613593,20844.855,-12385.755,-12920.94,-19961.82,-31118.76,-55532.475,-27161.46,-28009.215
1764505021.1613593,20846.295,-12383.145,-12917.025,-19957.995,-31113.495,-55527.39,-27158.67,-28006.605
1764505021.1613593,20842.2,-12387.465,-12921.795,-19961.955,-31117.545,-55531.035,-27161.64,-28011.51
1764505021.1613593,20843.595,-12387.195,-12921.12,-19961.235,-31117.185,-55530.09,-27160.965,-28011.375
1764505021.1613593,20846.565,-12383.685,-12916.62,-19957.41,-31112.595,-55525.86,-27158.175,-28008.405
1764505021.1613593,20844.405,-12385.665,-12918.015,-19958.625,-31114.665,-55526.94,-27160.47,-28009.89
1764505021.1613593,20847.78,-12381.795,-12915.09,-19955.07,-31111.29,-55522.845,-27156.78,-28007.19
1764505021.1613593,20846.295,-12383.1,-12915.405,-19955.43,-31110.93,-55523.295,-27157.455,-28008.9
1764505021.1613593,20846.205,-12383.1,-12915.315,-19954.845,-31110.435,-55522.215,-27156.465,-28007.37
1764505021.1613593,20845.665,-12384.045,-12915.54,-19954.395,-31109.895,-55521.45,-27156.195,-28007.595
1764505021.1613593,20845.935,-12385.485,-12916.935,-19954.89,-31110.705,-55521.405,-27156.6,-28008.405
1764505021.1613593,20843.235,-12389.04,-12922.335,-19960.065,-31115.205,-55525.635,-27159.165,-28011.105
1764505021.1613593,20843.82,-12387.915,-12919.5,-19958.76,-31114.935,-55525.77,-27159.345,-28010.16
1764505021.1613593,20842.11,-12388.5,-12918.015,-19956.915,-31113.99,-55523.34,-27159.345,-28010.34
1764505021.1613593,20846.385,-12384.81,-12915.09,-19954.485,-31111.02,-55520.595,-27155.295,-28006.38
1764505021.1613593,20847.555,-12383.1,-12914.145,-19953.9,-31109.805,-55520.37,-27154.62,-28005.795
1764505021.2053318,20845.53,-12384.945,-12916.395,-19955.61,-31110.795,-55520.73,-27156.42,-28007.46
1764505021.2059338,20840.31,-12389.58,-12921.615,-19960.155,-31115.61,-55525.41,-27161.145,-28011.96
1764505021.206474,20844.675,-12386.07,-12917.115,-19955.7,-31111.245,-55521.54,-27157.095,-28007.82
1764505021.206474,20844.675,-12385.08,-12916.17,-19955.475,-31110.705,-55521.225,-27157.14,-28007.955
1764505021.206474,20842.56,-12387.15,-12916.98,-19955.835,-31111.155,-55521.675,-27157.185,-28009.44
1764505021.206474,20837.97,-12390.795,-12919.68,-19958.805,-31114.665,-55525.455,-27161.55,-28013.22
1764505021.206474,20841.075,-12387.465,-12917.43,-19956.87,-31112.73,-55524.33,-27159.705,-28010.835
1764505021.206474,20840.04,-12388.995,-12919.05,-19959.075,-31114.035,-55525.905,-27160.74,-28011.51
1764505021.206474,20837.07,-12392.775,-12921.12,-19960.74,-31116.015,-55527.93,-27162.99,-28014.66
1764505021.206474,20840.67,-12389.22,-12917.655,-19956.735,-31111.29,-55522.755,-27158.175,-28010.385
1764505021.207507,20841.21,-12388.455,-12918.285,-19957.365,-31113.045,-55523.925,-27157.185,-28009.215
1764505021.207507,20836.305,-12395.43,-12925.98,-19963.62,-31119.255,-55530.45,-27163.08,-28014.66
1764505021.2084873,20837.88,-12394.17,-12924.99,-19962.495,-31117.59,-55528.74,-27161.64,-28013.265
1764505021.2084873,20840.805,-12389.22,-12919.95,-19958.445,-31115.52,-55526.175,-27158.94,-28010.565
1764505021.2084873,20837.16,-12391.83,-12920.22,-19960.56,-31118.67,-55530.135,-27161.865,-28014.795
1764505021.2084873,20836.485,-12392.505,-12921.255,-19961.865,-31120.02,-55532.16,-27164.115,-28016.37
1764505021.2084873,20836.8,-12392.505,-12921.57,-19960.965,-31118.04,-55530.72,-27162.495,-28015.29
1764505021.2084873,20838.51,-12390.165,-12919.725,-19958.445,-31115.88,-55528.29,-27160.29,-28013.805
1764505021.2084873,20838.24,-12389.94,-12919.59,-19958.67,-31115.07,-55527.885,-27160.515,-28014.66
1764505021.2084873,20836.035,-12392.82,-12921.57,-19960.515,-31116.105,-55529.37,-27162.045,-28016.73
1764505021.2084873,20839.725,-12389.805,-12917.565,-19956.195,-31112.415,-55525.365,-27158.49,-28013.13
1764505021.2084873,20837.52,-12390.3,-12917.565,-19956.555,-31112.46,-55525.365,-27158.895,-28013.265
1764505021.2084873,20838.69,-12390.3,-12918.42,-19957.23,-31113.045,-55526.04,-27159.075,-28012.68
1764505021.2084873,20837.79,-12392.685,-12921.3,-19959.975,-31115.43,-55528.65,-27161.28,-28014.93
1764505021.2523768,20841.795,-12387.78,-12917.34,-19956.69,-31112.145,-55524.735,-27157.275,-28011.285
1764505021.2523768,20840.85,-12388.59,-12918.6,-19957.365,-31112.235,-55525.59,-27157.59,-28011.465
1764505021.2523768,20838.285,-12391.155,-12921.03,-19959.66,-31114.665,-55529.235,-27161.055,-28014.12
1764505021.2523768,20838.465,-12390.975,-12921.705,-19960.605,-31115.655,-55529.46,-27161.865,-28014.255
1764505021.2533944,20841.435,-12387.78,-12917.565,-19957.725,-31113.495,-55526.49,-27159.75,-28011.24
1764505021.2533944,20839.995,-12389.31,-12917.565,-19957.365,-31114.665,-55527.345,-27161.325,-28012.545
1764505021.2533944,20842.605,-12386.88,-12915.99,-19954.26,-31110.93,-55523.475,-27157.815,-28008.9
1764505021.2533944,20837.52,-12391.695,-12921.165,-19959.39,-31115.295,-55528.695,-27162.81,-28013.67
1764505021.2533944,20840.805,-12387.24,-12916.305,-19955.7,-31111.515,-55525.32,-27159.705,-28011.285
1764505021.2533944,20840.895,-12386.655,-12915.54,-19955.43,-31111.29,-55524.69,-27159.705,-28011.06
1764505021.2533944,20836.935,-12389.94,-12918.96,-19957.995,-31112.955,-55526.265,-27161.73,-28014.12
1764505021.2533944,20837.205,-12389.04,-12917.925,-19955.205,-31109.445,-55522.62,-27159.075,-28013.04
1764505021.2543955,20838.645,-12388.68,-12917.43,-19954.8,-31109.265,-55522.575,-27158.4,-28012.23
1764505021.2543955,20838.06,-12389.445,-12918.195,-19955.7,-31110.84,-55523.7,-27158.805,-28012.86
1764505021.2543955,20838.825,-12389.355,-12918.285,-19956.42,-31110.705,-55524.195,-27157.725,-28011.78
1764505021.2543955,20839.455,-12389.535,-12918.825,-19957.77,-31111.425,-55525.095,-27158.4,-28011.69
1764505021.2543955,20839.815,-12389.715,-12918.87,-19956.915,-31111.38,-55524.87,-27158.445,-28012.095
1764505021.2543955,20837.385,-12392.73,-12921.84,-19959.03,-31114.215,-55527.345,-27161.865,-28014.84
1764505021.2543955,20834.865,-12394.8,-12924.945,-19962.27,-31117.095,-55530.495,-27164.295,-28017.72
1764505021.2543955,20837.115,-12391.02,-12921.75,-19960.065,-31115.295,-55528.695,-27162.09,-28015.605
1764505021.2543955,20836.845,-12390.39,-12919.995,-19959.345,-31115.61,-55527.12,-27162.315,-28015.695
1764505021.2543955,20835.855,-12392.595,-12923.55,-19962.945,-31118.805,-55529.505,-27163.62,-28016.505
1764505021.2997274,20838.735,-12389.805,-12923.19,-19964.295,-31120.695,-55531.8,-27163.935,-28014.48
1764505021.2997274,20838.33,-12389.805,-12921.66,-19963.215,-31120.38,-55532.115,-27163.89,-28014.57
1764505021.2997274,20840.49,-12387.24,-12915.54,-19955.385,-31113.09,-55525.32,-27159.435,-28011.24
1764505021.2997274,20839.95,-12388.14,-12916.17,-19955.115,-31111.515,-55523.43,-27158.265,-28011.195
1764505021.2997274,20839.815,-12389.58,-12917.43,-19956.555,-31112.325,-55523.7,-27158.04,-28011.51
1764505021.2997274,20835.855,-12393.945,-12921.615,-19960.785,-31116.735,-55527.84,-27163.305,-28015.605
1764505021.2997274,20838.42,-12390.84,-12919.14,-19957.77,-31113.45,-55524.555,-27159.705,-28012.14
1764505021.2997274,20836.575,-12392.415,-12922.38,-19960.65,-31116.465,-55527.795,-27161.505,-28014.255
1764505021.2997274,20838.645,-12390.84,-12920.445,-19959.39,-31115.205,-55526.805,-27159.795,-28012.23
1764505021.2997274,20835.18,-12394.17,-12923.46,-19962.225,-31117.77,-55529.55,-27163.08,-28016.505
1764505021.302273,20837.385,-12392.415,-12921.615,-19960.425,-31115.43,-55526.22,-27160.965,-28013.805
1764505021.302273,20834.055,-12396.06,-12925.53,-19963.665,-31118.94,-55528.92,-27164.25,-28016.865
1764505021.302273,20833.785,-12395.25,-12923.145,-19962.675,-31118.805,-55529.145,-27164.25,-28016.1
1764505021.302273,20837.115,-12392.64,-12918.42,-19958.13,-31116.42,-55526.445,-27160.695,-28013.265
1764505021.302273,20841.66,-12388.77,-12916.665,-19955.43,-31113.09,-55523.205,-27156.87,-28009.44
1764505021.302273,20837.385,-12393.54,-12922.47,-19961.64,-31118.535,-55528.515,-27162.405,-28014.12
1764505021.302273,20841.75,-12389.445,-12919.365,-19959.525,-31116.78,-55526.355,-27159.255,-28009.98
1764505021.302273,20842.11,-12388.635,-12915.855,-19956.06,-31114.08,-55522.98,-27156.915,-28009.215
1764505021.302273,20840.22,-12389.67,-12915.45,-19954.755,-31113.27,-55522.395,-27157.095,-28010.79
1764505021.3032744,20836.305,-12393.045,-12919.365,-19957.725,-31116.195,-55525.365,-27160.65,-28014.705
1764505021.3032744,20839.455,-12390.48,-12916.485,-19955.745,-31113.765,-55522.665,-27156.825,-28010.835
1764505021.3032744,20837.745,-12392.19,-12917.7,-19957.59,-31114.755,-55524.69,-27158.625,-28012.77
1764505021.3032744,20838.195,-12392.1,-12916.98,-19956.6,-31113.765,-55524.105,-27158.94,-28012.68
1764505021.3032744,20841.615,-12389.22,-12915.09,-19953.855,-31110.48,-55519.83,-27155.43,-28008.63
1764505021.349507,20843.325,-12387.645,-12914.055,-19952.82,-31109.805,-55518.075,-27153.675,-28006.695
1764505021.349507,20840.94,-12389.355,-12915.45,-19954.845,-31112.325,-55520.595,-27156.915,-28009.89
1764505021.349507,20838.555,-12391.695,-12917.07,-19956.33,-31115.025,-55523.43,-27160.11,-28013.13
1764505021.349507,20839.725,-12390.84,-12915.54,-19954.395,-31112.64,-55521.405,-27158.265,-28011.6
1764505021.349507,20839.59,-12391.335,-12915.945,-19954.845,-31112.28,-55520.775,-27157.77,-28011.33
1764505021.349507,20838.51,-12393.27,-12916.98,-19955.97,-31113.63,-55521.945,-27158.76,-28012.005
1764505021.349507,20837.655,-12394.935,-12918.555,-19957.095,-31114.89,-55524.015,-27160.02,-28013.4
1764505021.349507,20832.975,-12400.155,-12923.235,-19961.055,-31118.895,-55528.2,-27164.025,-28017.495
1764505021.349507,20834.055,-12398.49,-12922.515,-19959.57,-31116.645,-55526.445,-27162.225,-28014.93
1764505021.349507,20833.11,-12398.94,-12922.92,-19960.65,-31118.175,-55528.2,-27163.755,-28016.055
1764505021.349507,20838.15,-12393.27,-12917.88,-19957.455,-31113.99,-55524.69,-27160.515,-28011.555
1764505021.349507,20835.45,-12395.295,-12919.86,-19959.075,-31116.375,-55526.895,-27163.215,-28014.39
1764505021.349507,20836.98,-12393.135,-12917.34,-19956.6,-31113.36,-55524.645,-27161.37,-28013.265
1764505021.349507,20839.095,-12389.49,-12912.48,-19950.885,-31108.725,-55520.595,-27158.04,-28010.88
1764505021.349507,20836.08,-12392.28,-12915.18,-19953.18,-31110.165,-55522.215,-27159.795,-28013.4
1764505021.349507,20839.185,-12390.165,-12912.93,-19950.345,-31106.205,-55518.345,-27156.42,-28010.88
1764505021.349507,20837.79,-12391.965,-12915.675,-19951.785,-31107.15,-55517.715,-27156.15,-28011.195
1764505021.349507,20835.72,-12395.25,-12919.995,-19954.89,-31109.625,-55519.335,-27157.635,-28012.59
1764505021.349507,20835.27,-12395.43,-12921.165,-19958.895,-31115.52,-55526.265,-27160.74,-28013.895
1764505021.349507,20840.445,-12388.725,-12913.02,-19954.485,-31114.53,-55525.905,-27158.445,-28010.745
1764505021.349507,20838.645,-12389.67,-12912.705,-19952.55,-31111.74,-55523.52,-27157.32,-28010.97
1764505021.350513,20835.09,-12392.505,-12917.79,-19957.545,-31116.15,-55527.885,-27160.83,-28013.85
1764505021.350513,20838.285,-12390.03,-12914.64,-19954.125,-31113.945,-55525.545,-27157.365,-28009.755
1764505021.350513,20835.315,-12393.54,-12916.44,-19955.34,-31115.655,-55527.39,-27160.965,-28012.275
1764505021.3939197,20833.02,-12396.195,-12920.04,-19958.355,-31118.445,-55530.09,-27163.17,-28014.525
1764505021.3944566,20832.885,-12395.43,-12919.995,-19958.31,-31119.795,-55531.755,-27163.71,-28014.84
1764505021.3944566,20834.055,-12393.855,-12918.825,-19956.87,-31118.4,-55531.44,-27162.09,-28014.03
1764505021.3944566,20836.485,-12392.64,-12915.72,-19953.72,-31113.855,-55526.94,-27158.985,-28011.78
1764505021.3944566,20835.72,-12393.495,-12916.26,-19955.475,-31114.215,-55527.57,-27159.075,-28012.14
1764505021.3944566,20834.82,-12394.17,-12917.745,-19957.365,-31115.61,-55528.785,-27160.245,-28013.22
1764505021.3944566,20835.135,-12393.945,-12918.285,-19957.005,-31115.115,-55528.47,-27160.245,-28013.895
1764505021.3944566,20831.985,-12397.32,-12922.11,-19959.48,-31117.815,-55530.45,-27163.53,-28016.19
1764505021.3944566,20829.555,-12399.75,-12924.18,-19962.27,-31120.425,-55533.15,-27165.96,-28018.08
1764505021.3944566,20833.11,-12394.17,-12916.665,-19957.14,-31117.5,-55530.135,-27162.135,-28014.66
1764505021.3944566,20833.335,-12393.855,-12914.505,-19955.43,-31115.88,-55528.74,-27160.425,-28014.03
1764505021.3944566,20833.155,-12395.16,-12915.855,-19955.79,-31115.295,-55527.615,-27159.84,-28014.345
1764505021.3944566,20831.805,-12396.645,-12917.61,-19956.6,-31115.52,-55528.02,-27160.245,-28015.155
1764505021.3944566,20829.15,-12399.795,-12922.155,-19960.83,-31119.39,-55531.395,-27162.99,-28017.675
1764505021.3949952,20830.185,-12399.165,-12922.335,-19961.235,-31119.705,-55532.655,-27163.53,-28016.73
1764505021.3949952,20831.4,-12398.355,-12921.255,-19959.615,-31118.715,-55531.215,-27163.26,-28016.19
1764505021.3949952,20836.305,-12393.405,-12916.89,-19954.53,-31113.99,-55526.265,-27157.995,-28011.78
1764505021.3949952,20835.135,-12394.53,-12917.565,-19955.655,-31114.845,-55527.615,-27158.715,-28012.95
1764505021.3949952,20835.09,-12393.63,-12917.025,-19955.7,-31115.745,-55527.615,-27158.04,-28012.41
1764505021.3949952,20835.99,-12392.19,-12915.81,-19954.755,-31114.755,-55527.255,-27157.59,-28012.005
1764505021.3949952,20835.45,-12392.235,-12916.035,-19954.62,-31115.07,-55526.805,-27157.905,-28013.175
1764505021.3949952,20831.985,-12395.115,-12918.33,-19956.465,-31117.68,-55529.055,-27161.055,-28016.37
1764505021.4392502,20831.985,-12394.755,-12918.24,-19956.195,-31115.34,-55527.525,-27159.3,-28014.93
1764505021.4392502,20834.055,-12391.155,-12914.595,-19953.0,-31110.93,-55523.97,-27156.24,-28012.545
1764505021.4392502,20834.055,-12392.82,-12916.575,-19953.99,-31111.92,-55524.375,-27155.835,-28012.32
1764505021.4392502,20832.165,-12396.195,-12919.365,-19955.475,-31114.395,-55526.715,-27158.04,-28013.805
1764505021.4392502,20834.91,-12392.685,-12915.27,-19952.055,-31112.55,-55525.095,-27156.465,-28010.88
1764505021.4392502,20832.93,-12394.755,-12917.565,-19954.08,-31114.575,-55526.715,-27158.265,-28013.265
1764505021.4392502,20835.72,-12392.685,-12915.315,-19950.705,-31110.84,-55522.395,-27154.665,-28010.295
1764505021.4392502,20831.31,-12397.185,-12918.42,-19953.405,-31113.855,-55524.825,-27157.455,-28014.255
1764505021.4392502,20830.725,-12397.455,-12919.68,-19954.125,-31114.53,-55525.635,-27158.085,-28013.985
1764505021.4392502,20830.455,-12396.915,-12919.905,-19955.34,-31115.475,-55526.715,-27158.715,-28014.57
1764505021.4392502,20832.255,-12394.035,-12917.655,-19954.485,-31114.08,-55525.365,-27156.69,-28013.22
1764505021.4392502,20834.73,-12391.515,-12915.315,-19952.505,-31111.47,-55522.08,-27154.035,-28010.205
1764505021.4392502,20834.055,-12393.09,-12916.485,-19953.99,-31114.575,-55525.455,-27155.88,-28011.24
1764505021.4392502,20831.085,-12395.97,-12919.14,-19956.015,-31116.915,-55528.47,-27157.905,-28014.345
1764505021.4392502,20833.02,-12393.9,-12916.26,-19953.765,-31114.215,-55525.455,-27156.465,-28012.185
1764505021.4392502,20827.71,-12399.165,-12921.255,-19958.58,-31119.57,-55531.125,-27162.495,-28018.215
1764505021.4392502,20826.81,-12399.705,-12922.92,-19958.94,-31119.03,-55531.125,-27163.125,-28018.44
1764505021.4392502,20827.53,-12399.255,-12922.65,-19957.905,-31117.59,-55529.64,-27161.505,-28017.495
1764505021.4392502,20830.275,-12396.915,-12920.22,-19954.62,-31114.44,-55526.715,-27158.13,-28014.435
1764505021.4392502,20827.35,-12399.975,-12923.145,-19959.66,-31119.075,-55530.855,-27161.775,-28017.63
1764505021.4392502,20830.23,-12397.455,-12921.75,-19959.165,-31119.165,-55530.135,-27160.74,-28015.29
1764505021.4392502,20833.695,-12392.595,-12914.82,-19953.135,-31114.44,-55526.22,-27156.87,-28011.195
1764505021.4392502,20834.145,-12392.64,-12914.595,-19952.64,-31114.305,-55526.085,-27156.195,-28011.33
1764505021.4392502,20831.58,-12395.655,-12918.06,-19954.305,-31114.575,-55526.265,-27157.365,-28013.625
1764505021.4875753,20835.495,-12391.2,-12915.045,-19951.47,-31111.875,-55523.025,-27153.945,-28009.44
1764505021.4875753,20834.28,-12392.46,-12916.62,-19954.17,-31115.295,-55527.705,-27157.095,-28011.555
1764505021.4875753,20836.89,-12389.715,-12913.29,-19951.92,-31113.135,-55525.725,-27154.98,-28009.35
1764505021.4875753,20833.2,-12393.63,-12915.81,-19953.99,-31113.765,-55526.58,-27157.185,-28012.815
1764505021.4875753,20835.135,-12391.965,-12914.505,-19952.1,-31111.155,-55523.295,-27154.035,-28009.845
1764505021.4875753,20832.39,-12394.395,-12918.15,-19953.855,-31113.855,-55526.085,-27156.69,-28012.68
1764505021.4875753,20833.11,-12393.54,-12915.495,-19951.695,-31112.145,-55525.23,-27155.79,-28011.69
1764505021.4875753,20836.08,-12390.12,-12910.14,-19946.565,-31107.78,-55520.91,-27151.29,-28007.955
1764505021.4875753,20836.395,-12389.265,-12910.32,-19947.645,-31107.555,-55521.045,-27151.83,-28007.505
1764505021.4885738,20834.82,-12392.055,-12912.93,-19950.705,-31111.11,-55524.24,-27155.745,-28009.53
1764505021.4885738,20838.105,-12388.545,-12909.555,-19947.015,-31108.365,-55521.225,-27152.73,-28006.605
1764505021.4885738,20835.045,-12391.74,-12911.94,-19949.895,-31111.155,-55523.79,-27156.69,-28009.935
1764505021.4885738,20831.895,-12394.215,-12916.35,-19953.72,-31113.765,-55526.31,-27159.885,-28013.355
1764505021.4885738,20831.94,-12394.125,-12915.765,-19953.135,-31112.82,-55525.41,-27158.58,-28013.805
1764505021.4885738,20832.165,-12394.26,-12915.45,-19952.595,-31112.325,-55524.96,-27157.365,-28012.77
1764505021.4885738,20833.245,-12392.865,-12913.29,-19951.2,-31110.165,-55522.8,-27155.97,-28010.655
1764505021.4885738,20835.585,-12390.57,-12909.645,-19947.645,-31106.25,-55519.605,-27152.775,-28007.28
1764505021.4885738,20834.1,-12392.145,-12911.625,-19949.625,-31109.67,-55522.98,-27155.745,-28008.945
1764505021.4885738,20837.655,-12390.705,-12910.05,-19948.05,-31107.375,-55520.1,-27152.865,-28005.795
1764505021.4885738,20836.755,-12391.2,-12911.895,-19949.58,-31108.14,-55520.775,-27153.405,-28007.46
1764505021.4885738,20838.96,-12388.59,-12909.015,-19945.755,-31104.99,-55517.13,-27150.615,-28005.075
1764505021.4885738,20835.315,-12393.72,-12912.48,-19949.445,-31108.275,-55520.19,-27152.82,-28009.17
1764505021.4885738,20834.01,-12395.88,-12914.64,-19952.64,-31112.1,-55523.97,-27155.565,-28010.295
1764505021.4885738,20836.89,-12392.91,-12912.03,-19949.265,-31109.94,-55522.17,-27153.405,-28007.46
1764505021.5322185,20833.875,-12394.8,-12914.73,-19950.615,-31112.145,-55523.97,-27155.205,-28010.295
1764505021.5322185,20835.36,-12393.225,-12913.155,-19949.04,-31109.58,-55520.82,-27153.405,-28008.54
1764505021.5322185,20833.785,-12394.71,-12914.865,-19952.1,-31111.965,-55523.16,-27155.79,-28010.97
1764505021.5322185,20835.72,-12391.92,-12912.795,-19950.795,-31110.255,-55521.72,-27154.305,-28009.98
1764505021.5322185,20836.035,-12391.29,-12912.165,-19950.615,-31110.57,-55521.945,-27153.9,-28009.215
1764505021.5322185,20834.055,-12393.63,-12914.82,-19951.11,-31111.11,-55522.53,-27154.665,-28010.43
1764505021.5322185,20833.56,-12394.08,-12914.685,-19950.03,-31110.975,-55521.63,-27154.395,-28010.565
1764505021.5322185,20829.915,-12396.465,-12915.72,-19952.01,-31112.865,-55524.105,-27156.915,-28013.895
1764505021.5322185,20827.035,-12399.84,-12919.14,-19955.88,-31116.105,-55527.705,-27160.02,-28017.36
1764505021.5322185,20828.205,-12399.3,-12919.32,-19956.015,-31115.385,-55525.995,-27158.445,-28015.965
1764505021.5336046,20832.255,-12395.925,-12915.405,-19951.92,-31111.425,-55522.08,-27154.17,-28011.87
1764505021.5336046,20829.735,-12397.365,-12915.855,-19952.28,-31112.82,-55523.655,-27156.24,-28014.255
1764505021.5336046,20831.445,-12395.295,-12914.1,-19950.255,-31110.345,-55522.035,-27153.765,-28012.365
1764505021.5336046,20826.72,-12399.66,-12918.42,-19954.89,-31115.115,-55527.345,-27159.93,-28017.225
1764505021.5336046,20826.36,-12400.965,-12920.13,-19956.78,-31116.33,-55527.705,-27160.02,-28017.18
1764505021.5336046,20826.855,-12400.965,-12919.5,-19956.24,-31114.755,-55526.175,-27158.58,-28016.46
1764505021.5336046,20831.445,-12395.79,-12915.99,-19953.99,-31112.55,-55524.33,-27154.935,-28011.78
1764505021.5336046,20830.32,-12397.23,-12917.295,-19955.16,-31114.845,-55525.815,-27156.51,-28013.625
1764505021.5336046,20828.295,-12398.625,-12918.195,-19955.475,-31115.52,-55526.445,-27157.455,-28015.155
1764505021.5336046,20823.93,-12402.765,-12922.29,-19960.74,-31120.29,-55531.845,-27161.955,-28019.88
1764505021.5336046,20826.225,-12400.965,-12919.41,-19957.995,-31119.255,-55530.765,-27160.515,-28018.575
1764505021.5336046,20829.375,-12397.68,-12915.18,-19952.145,-31113.495,-55524.915,-27154.845,-28014.66
1764505021.5790613,20826.45,-12400.47,-12918.6,-19954.89,-31115.07,-55526.94,-27157.455,-28017.405
1764505021.5790613,20828.07,-12398.265,-12916.53,-19953.495,-31113.63,-55525.32,-27155.97,-28015.965
1764505021.5796,20824.155,-12401.73,-12920.13,-19957.905,-31117.455,-55528.83,-27159.12,-28019.205
1764505021.5796,20823.885,-12403.215,-12921.39,-19957.05,-31116.825,-55527.705,-27158.445,-28018.935
1764505021.5796,20827.17,-12400.29,-12920.13,-19954.89,-31114.08,-55524.735,-27155.745,-28016.505
1764505021.5796,20823.525,-12403.89,-12924.63,-19959.75,-31119.255,-55530.63,-27160.02,-28021.32
1764505021.5796,20823.165,-12401.73,-12921.03,-19958.535,-31118.715,-55529.685,-27159.66,-28021.41
1764505021.5796,20825.325,-12398.895,-12917.475,-19955.43,-31114.395,-55525.59,-27155.565,-28017.405
1764505021.5796,20824.785,-12400.515,-12918.87,-19956.06,-31114.935,-55525.455,-27155.79,-28017.72
1764505021.5796,20823.165,-12402.675,-12920.67,-19957.545,-31116.375,-55526.76,-27157.815,-28018.485
1764505021.5796,20828.295,-12397.455,-12916.485,-19953.765,-31114.755,-55524.87,-27154.26,-28013.985
1764505021.5796,20826.405,-12399.165,-12917.43,-19955.565,-31116.42,-55526.4,-27155.79,-28015.695
1764505021.5796,20826.495,-12398.76,-12917.205,-19954.215,-31115.07,-55524.825,-27154.53,-28014.66
1764505021.581614,20828.295,-12396.105,-12914.955,-19952.46,-31112.73,-55522.44,-27153.09,-28013.265
1764505021.5826118,20831.175,-12392.73,-12911.31,-19949.715,-31109.49,-55519.29,-27149.895,-28011.42
1764505021.5826118,20825.955,-12398.355,-12916.89,-19954.26,-31113.855,-55523.925,-27154.485,-28015.47
1764505021.5826118,20828.88,-12396.33,-12914.145,-19951.65,-31110.03,-55520.415,-27150.48,-28011.465
1764505021.5826118,20829.465,-12396.555,-12914.145,-19952.01,-31110.03,-55520.145,-27150.12,-28010.88
1764505021.5826118,20827.98,-12398.805,-12916.395,-19953.72,-31112.865,-55522.845,-27152.505,-28012.32
1764505021.5826118,20831.67,-12394.53,-12912.075,-19950.165,-31109.58,-55520.415,-27150.39,-28009.215
1764505021.5826118,20831.22,-12394.44,-12911.22,-19950.435,-31110.03,-55520.415,-27150.615,-28009.575
1764505021.5826118,20828.655,-12397.635,-12915.09,-19954.125,-31113.765,-55522.44,-27153.18,-28012.41
1764505021.5826118,20829.78,-12396.825,-12915.09,-19953.99,-31113.495,-55522.17,-27152.145,-28011.915
1764505021.584123,20833.245,-12392.595,-12911.265,-19948.905,-31108.5,-55517.94,-27148.905,-28009.215
1764505021.6288471,20833.155,-12392.64,-12910.68,-19948.455,-31107.375,-55516.635,-27148.32,-28008.945
1764505021.6288471,20828.205,-12398.355,-12915.54,-19953.81,-31111.74,-55521.36,-27153.36,-28014.255
1764505021.6288471,20829.285,-12398.445,-12915.81,-19952.91,-31111.335,-55521.27,-27152.685,-28013.985
1764505021.6288471,20829.105,-12398.58,-12915.54,-19953.36,-31111.29,-55521.495,-27153.18,-28013.58
1764505021.6288471,20830.32,-12397.32,-12913.74,-19951.83,-31109.355,-55519.74,-27151.83,-28012.095
1764505021.6288471,20831.49,-12395.52,-12912.165,-19950.12,-31108.005,-55517.94,-27150.12,-28009.755
1764505021.6288471,20829.15,-12397.77,-12915.09,-19953.09,-31110.345,-55520.82,-27152.505,-28011.555
1764505021.6288471,20828.385,-12398.445,-12915.765,-19953.99,-31111.155,-55521.54,-27152.505,-28012.32
1764505021.6288471,20829.555,-12396.735,-12914.775,-19952.19,-31109.94,-55520.19,-27151.155,-28011.915
1764505021.6288471,20833.245,-12393.405,-12911.535,-19948.095,-31106.025,-55515.69,-27147.645,-28008.18
1764505021.6288471,20834.19,-12392.64,-12909.42,-19946.88,-31105.53,-55514.88,-27146.565,-28006.92
1764505021.6288471,20833.92,-12393.495,-12909.33,-19948.41,-31107.15,-55516.815,-27148.095,-28008.36
1764505021.6298423,20833.29,-12392.82,-12909.42,-19948.185,-31107.42,-55517.22,-27149.49,-28009.17
1764505021.6298423,20831.58,-12393.405,-12909.69,-19948.635,-31107.645,-55518.21,-27150.975,-28011.15
1764505021.6298423,20831.445,-12394.305,-12910.41,-19948.77,-31107.33,-55517.94,-27150.84,-28011.42
1764505021.6298423,20828.97,-12397.59,-12913.965,-19951.335,-31108.14,-55518.48,-27151.29,-28012.275
1764505021.6298423,20828.565,-12398.58,-12915.09,-19953.765,-31109.445,-55519.47,-27151.605,-28012.95
1764505021.6308472,20826.27,-12402.225,-12917.88,-19955.7,-31111.29,-55522.125,-27154.44,-28015.965
1764505021.6308472,20831.67,-12397.14,-12914.28,-19952.91,-31109.49,-55519.875,-27150.885,-28011.6
1764505021.6308472,20829.24,-12398.13,-12915.405,-19955.25,-31112.19,-55522.98,-27153.045,-28012.77
1764505021.6308472,20830.005,-12396.33,-12912.03,-19951.47,-31108.23,-55520.01,-27150.57,-28011.195
1764505021.6308472,20826.9,-12399.795,-12914.415,-19954.62,-31111.605,-55522.665,-27154.665,-28014.93
1764505021.6753905,20822.4,-12404.07,-12916.8,-19955.07,-31112.55,-55524.195,-27157.725,-28018.665
1764505021.6760716,20824.245,-12402.855,-12915.63,-19953.72,-31110.345,-55522.395,-27155.565,-28017.495
1764505021.6760716,20821.635,-12405.645,-12919.23,-19956.78,-31112.91,-55524.69,-27158.04,-28020.735
1764505021.6760716,20820.105,-12406.95,-12922.83,-19959.66,-31114.305,-55526.265,-27158.49,-28020.87
1764505021.6760716,20823.57,-12404.115,-12921.345,-19958.445,-31114.44,-55526.22,-27157.77,-28017.81
1764505021.6760716,20828.385,-12398.625,-12912.48,-19951.74,-31109.94,-55521.99,-27153.54,-28013.67
1764505021.6760716,20829.195,-12397.59,-12910.59,-19950.48,-31108.32,-55520.37,-27152.37,-28012.77
1764505021.6760716,20829.33,-12397.365,-12911.67,-19951.02,-31108.545,-55519.47,-27151.65,-28013.04
1764505021.6760716,20828.79,-12397.995,-12912.435,-19952.055,-31109.175,-55520.37,-27151.785,-28013.04
1764505021.6760716,20827.17,-12400.155,-12913.92,-19953.99,-31111.74,-55522.89,-27153.27,-28014.84
1764505021.6760716,20826.675,-12401.19,-12914.73,-19954.53,-31112.73,-55523.745,-27154.17,-28015.335
1764505021.6760716,20824.695,-12403.08,-12917.52,-19957.275,-31114.71,-55525.77,-27155.34,-28017.405
1764505021.6760716,20820.555,-12406.68,-12921.84,-19961.64,-31118.94,-55530.315,-27159.39,-28021.815
1764505021.6760716,20819.07,-12408.165,-12922.29,-19961.955,-31119.84,-55531.035,-27160.74,-28023.66
1764505021.6760716,20820.555,-12406.095,-12921.165,-19961.955,-31119.255,-55530.855,-27160.29,-28021.77
1764505021.6760716,20823.885,-12402.765,-12917.79,-19958.85,-31115.52,-55527.795,-27156.78,-28018.665
1764505021.6760716,20822.94,-12403.845,-12917.565,-19958.085,-31114.44,-55526.625,-27156.465,-28019.655
1764505021.6760716,20820.6,-12406.14,-12920.4,-19960.47,-31117.545,-55529.28,-27158.67,-28021.23
1764505021.6760716,20826.72,-12400.74,-12915.405,-19955.745,-31112.955,-55524.375,-27152.64,-28014.885
1764505021.6760716,20826.72,-12401.325,-12914.685,-19954.53,-31112.235,-55523.7,-27152.28,-28014.39
1764505021.6760716,20824.875,-12403.305,-12916.8,-19956.015,-31114.08,-55525.59,-27153.45,-28015.83
1764505021.6760716,20828.205,-12400.47,-12914.28,-19953.765,-31110.48,-55523.025,-27150.345,-28012.5
1764505021.6760716,20826.855,-12401.19,-12914.865,-19954.305,-31111.425,-55523.115,-27151.38,-28013.49
1764505021.6760716,20827.26,-12400.425,-12915.18,-19954.305,-31111.605,-55522.665,-27151.605,-28013.895
1764505021.7210202,20826.495,-12401.505,-12916.17,-19955.205,-31113.45,-55523.88,-27153.45,-28014.795
1764505021.7210202,20824.965,-12403.755,-12918.015,-19957.455,-31114.845,-55525.59,-27155.34,-28016.82
1764505021.7210202,20825.865,-12402.855,-12916.665,-19956.015,-31113.63,-55524.375,-27154.305,-28015.74
1764505021.7210202,20829.645,-12398.355,-12911.58,-19951.29,-31108.77,-55520.415,-27150.39,-28011.645
1764505021.7210202,20830.14,-12397.86,-12910.5,-19949.85,-31108.23,-55520.28,-27149.85,-28011.015
1764505021.7210202,20827.215,-12400.92,-12913.47,-19952.415,-31110.48,-55522.62,-27152.73,-28014.345
1764505021.7210202,20827.26,-12399.975,-12913.515,-19952.505,-31110.345,-55521.99,-27152.415,-28014.345
1764505021.7210202,20827.35,-12400.02,-12913.38,-19952.82,-31110.795,-55521.63,-27153.27,-28014.03
1764505021.7210202,20828.565,-12399.345,-12913.29,-19952.64,-31110.03,-55520.46,-27151.56,-28012.5
1764505021.7210202,20831.355,-12396.33,-12909.915,-19948.23,-31106.43,-55516.635,-27147.42,-28008.585
1764505021.7210202,20831.265,-12397.14,-12910.545,-19949.04,-31107.555,-55517.985,-27148.95,-28009.17
1764505021.7210202,20830.41,-12398.31,-12912.84,-19951.56,-31110.165,-55520.955,-27150.57,-28010.745
1764505021.7210202,20835.405,-12394.215,-12908.88,-19947.87,-31105.71,-55517.265,-27146.25,-28005.84
1764505021.7210202,20833.83,-12395.52,-12909.69,-19948.77,-31106.52,-55518.21,-27147.465,-28008.045
1764505021.7210202,20835.99,-12393.09,-12906.99,-19945.845,-31103.82,-55515.645,-27145.845,-28006.785
1764505021.7210202,20832.48,-12396.24,-12910.995,-19949.625,-31107.87,-55519.29,-27149.04,-28009.755
1764505021.7210202,20831.49,-12398.04,-12911.445,-19949.67,-31107.42,-55519.2,-27150.03,-28011.195
1764505021.7210202,20831.22,-12398.04,-12911.265,-19949.445,-31105.62,-55517.715,-27149.715,-28011.24
1764505021.7210202,20831.895,-12397.32,-12910.23,-19949.04,-31104.99,-55517.715,-27149.445,-28010.475
1764505021.7210202,20833.785,-12395.745,-12906.495,-19947.645,-31104.99,-55517.58,-27148.365,-28008.675
1764505021.7210202,20831.355,-12399.075,-12910.095,-19951.065,-31108.455,-55521.81,-27152.055,-28012.095
1764505021.7210202,20831.49,-12398.805,-12911.13,-19951.47,-31108.77,-55521.855,-27150.93,-28011.42
1764505021.7210202,20831.985,-12397.905,-12909.825,-19950.435,-31108.23,-55520.73,-27149.895,-28010.79
1764505021.7210202,20835.36,-12394.485,-12905.145,-19945.845,-31104.18,-55516.77,-27145.89,-28007.415
1764505021.76458,20835.54,-12393.54,-12904.515,-19945.35,-31104.99,-55516.095,-27146.52,-28007.595
1764505021.7656002,20831.76,-12397.005,-12909.375,-19948.59,-31107.375,-55519.02,-27150.57,-28012.005
1764505021.7656002,20830.41,-12398.625,-12910.635,-19948.455,-31106.745,-55518.12,-27150.435,-28012.005
1764505021.7656002,20831.13,-12399.255,-12910.68,-19948.59,-31105.665,-55517.31,-27148.545,-28011.015
1764505021.7666,20830.275,-12400.065,-12909.96,-19948.365,-31106.34,-55518.21,-27149.085,-28010.97
1764505021.7666,20832.21,-12398.67,-12907.935,-19947.33,-31105.755,-55517.445,-27148.77,-28008.675
1764505021.7666,20836.215,-12393.9,-12903.525,-19943.55,-31101.345,-55513.845,-27145.62,-28004.895
1764505021.7666,20833.02,-12395.88,-12906.09,-19945.53,-31104.63,-55517.895,-27148.905,-28008.27
1764505021.7666,20831.625,-12398.13,-12908.25,-19946.565,-31105.665,-55518.705,-27150.795,-28010.565
1764505021.7666,20836.08,-12393.675,-12904.245,-19942.65,-31102.335,-55513.755,-27145.98,-28005.57
1764505021.7666,20834.64,-12395.52,-12905.19,-19943.46,-31102.38,-55513.935,-27148.5,-28007.64
1764505021.7666,20832.93,-12397.14,-12907.035,-19946.205,-31104.09,-55515.825,-27149.535,-28010.205
1764505021.768115,20831.67,-12397.815,-12908.43,-19948.545,-31105.665,-55517.94,-27150.795,-28011.645
1764505021.768115,20828.385,-12400.695,-12912.39,-19952.325,-31111.065,-55522.71,-27154.665,-28014.75
1764505021.768115,20828.88,-12400.56,-12911.805,-19951.92,-31110.525,-55521.855,-27154.395,-28014.03
1764505021.768115,20831.22,-12398.715,-12908.88,-19948.815,-31106.88,-55519.065,-27151.965,-28011.6
1764505021.768115,20830.59,-12399.66,-12910.14,-19950.615,-31108.995,-55520.505,-27152.82,-28012.005
1764505021.768115,20828.565,-12402.63,-12912.165,-19951.92,-31109.85,-55521.0,-27153.225,-28013.265
1764505021.768115,20825.955,-12405.195,-12913.65,-19953.945,-31111.515,-55522.35,-27155.205,-28015.695
1764505021.768115,20827.755,-12404.52,-12912.75,-19953.63,-31111.38,-55521.72,-27154.08,-28015.065
1764505021.768115,20830.77,-12402.45,-12911.13,-19952.145,-31109.715,-55520.055,-27151.245,-28012.23
1764505021.7688994,20825.685,-12405.915,-12915.18,-19956.015,-31114.26,-55524.375,-27155.79,-28017.63
1764505021.7688994,20827.035,-12403.89,-12914.415,-19955.205,-31112.955,-55523.295,-27154.35,-28016.685
1764505021.7688994,20826.315,-12403.665,-12914.865,-19955.655,-31114.125,-55524.33,-27154.71,-28017.585
1764505021.8134384,20822.49,-12407.76,-12917.655,-19958.085,-31116.69,-55527.165,-27157.68,-28021.455
1764505021.8134384,20821.95,-12408.165,-12916.665,-19956.735,-31114.53,-55525.005,-27157.23,-28021.005
1764505021.8134384,20821.455,-12408.615,-12917.61,-19956.555,-31113.72,-55523.88,-27157.23,-28021.365
1764505021.8134384,20822.22,-12408.39,-12917.655,-19955.7,-31113.405,-55523.295,-27155.52,-28020.645
1764505021.8134384,20825.91,-12405.555,-12916.17,-19954.71,-31112.415,-55521.81,-27153.27,-28016.865
1764505021.8134384,20828.835,-12403.125,-12913.29,-19953.0,-31110.84,-55520.505,-27151.38,-28013.58
1764505021.8134384,20831.715,-12400.2,-12910.275,-19950.21,-31107.735,-55517.175,-27149.085,-28010.925
1764505021.8134384,20829.555,-12402.765,-12913.155,-19951.74,-31109.31,-55518.795,-27150.615,-28013.04
1764505021.8134384,20827.395,-12405.015,-12914.955,-19953.99,-31111.605,-55521.72,-27152.64,-28015.155
1764505021.8134384,20829.6,-12401.1,-12911.265,-19950.84,-31108.68,-55517.67,-27148.86,-28012.995
1764505021.8134384,20826.27,-12404.025,-12914.505,-19954.17,-31112.46,-55521.405,-27152.595,-28016.64
1764505021.8134384,20826.315,-12403.17,-12913.92,-19954.485,-31112.145,-55520.82,-27152.46,-28015.515
1764505021.8134384,20830.41,-12399.48,-12909.465,-19950.03,-31108.5,-55515.825,-27148.545,-28011.555
1764505021.8134384,20828.52,-12402.36,-12913.065,-19951.965,-31109.58,-55518.345,-27150.795,-28014.39
1764505021.8134384,20829.15,-12402.585,-12913.65,-19951.785,-31109.625,-55518.48,-27151.2,-28014.705
1764505021.8134384,20832.705,-12397.68,-12910.59,-19948.635,-31106.25,-55514.835,-27146.7,-28010.115
1764505021.8134384,20831.76,-12396.78,-12905.82,-19945.17,-31102.92,-55513.035,-27145.665,-28010.34
1764505021.8149524,20828.61,-12398.715,-12907.035,-19946.655,-31105.08,-55515.69,-27149.4,-28013.895
1764505021.8149524,20832.075,-12395.7,-12905.145,-19944.63,-31102.875,-55513.575,-27147.06,-28011.195
1764505021.8149524,20828.61,-12399.345,-12907.98,-19947.735,-31106.025,-55515.825,-27149.67,-28013.445
1764505021.8149524,20828.925,-12399.84,-12909.06,-19948.77,-31106.79,-55516.005,-27149.58,-28013.04
1764505021.8149524,20829.735,-12399.345,-12908.79,-19948.32,-31106.475,-55515.465,-27147.915,-28012.185
1764505021.859167,20831.58,-12398.22,-12906.36,-19945.665,-31105.215,-55514.025,-27146.52,-28009.98
1764505021.859167,20828.925,-12401.37,-12908.25,-19947.645,-31107.33,-55516.23,-27148.68,-28011.735
1764505021.859167,20831.76,-12397.41,-12906.0,-19943.37,-31103.685,-55512.585,-27145.53,-28008.585
1764505021.859167,20832.435,-12396.555,-12906.585,-19944.72,-31103.64,-55512.63,-27145.26,-28008.495
1764505021.859167,20833.56,-12394.575,-12902.58,-19942.29,-31101.345,-55511.235,-27143.145,-28006.29
1764505021.859167,20829.24,-12399.255,-12905.28,-19944.585,-31104.45,-55515.285,-27148.68,-28010.295
1764505021.859167,20832.705,-12395.475,-12903.165,-19940.895,-31100.4,-55511.28,-27145.08,-28007.01
1764505021.8607135,20832.12,-12395.115,-12903.93,-19942.11,-31101.03,-55512.09,-27145.53,-28007.955
1764505021.8607135,20835.09,-12392.775,-12902.04,-19939.59,-31099.14,-55510.155,-27142.74,-28005.435
1764505021.8607135,20832.93,-12396.105,-12905.595,-19943.55,-31102.785,-55513.575,-27144.765,-28007.415
1764505021.8607135,20833.02,-12395.385,-12905.55,-19943.82,-31103.055,-55513.62,-27145.305,-28006.965
1764505021.8607135,20833.02,-12394.395,-12904.38,-19942.785,-31103.19,-55514.34,-27145.08,-28006.38
1764505021.8607135,20835.81,-12392.1,-12902.13,-19940.445,-31101.21,-55512.54,-27142.875,-28005.03
1764505021.8607135,20838.33,-12389.04,-12899.565,-19937.52,-31097.655,-55507.995,-27139.005,-28001.79
1764505021.8607135,20838.33,-12388.86,-12899.34,-19937.88,-31097.88,-55508.31,-27139.905,-28002.195
1764505021.8607135,20835.54,-12389.985,-12899.655,-19938.195,-31099.545,-55510.47,-27142.515,-28005.3
1764505021.8607135,20833.785,-12391.65,-12901.365,-19940.67,-31102.245,-55513.53,-27144.315,-28006.695
1764505021.8607135,20836.305,-12390.48,-12901.59,-19941.03,-31100.76,-55511.19,-27141.12,-28003.365
1764505021.8607135,20832.885,-12394.62,-12905.55,-19943.91,-31103.73,-55513.845,-27144.765,-28006.74
1764505021.8607135,20832.21,-12395.115,-12905.685,-19943.82,-31103.37,-55513.935,-27145.17,-28007.37
1764505021.8607135,20835.36,-12392.055,-12901.59,-19939.68,-31100.13,-55511.01,-27141.93,-28003.545
1764505021.8607135,20832.525,-12395.7,-12904.335,-19942.02,-31102.47,-55513.305,-27144.63,-28005.93
1764505021.909175,20828.835,-12398.22,-12906.585,-19944.045,-31104.945,-55515.69,-27147.645,-28009.125
1764505021.909175,20832.03,-12394.215,-12902.265,-19940.49,-31101.705,-55512.135,-27144.405,-28006.155
1764505021.909175,20834.145,-12392.28,-12901.455,-19940.715,-31101.075,-55511.91,-27144.18,-28005.075
1764505021.909175,20828.385,-12398.67,-12906.54,-19945.17,-31106.34,-55516.815,-27149.355,-28010.745
1764505021.9101772,20826.81,-12400.92,-12907.395,-19944.27,-31104.405,-55514.43,-27148.455,-28011.105
1764505021.9101772,20826.585,-12400.965,-12909.285,-19946.295,-31106.565,-55515.42,-27148.725,-28011.195
1764505021.9101772,20828.61,-12399.075,-12908.79,-19945.845,-31106.205,-55515.015,-27147.87,-28009.98
1764505021.9101772,20830.185,-12397.995,-12907.44,-19945.17,-31104.495,-55513.755,-27146.52,-28008.495
1764505021.9101772,20832.84,-12395.07,-12903.615,-19941.93,-31101.165,-55510.065,-27142.92,-28005.39
1764505021.9101772,20829.06,-12398.445,-12907.17,-19944.09,-31103.865,-55513.08,-27146.34,-28008.945
1764505021.9101772,20831.625,-12396.195,-12905.01,-19942.335,-31101.93,-55510.785,-27144.045,-28005.975
1764505021.9101772,20829.24,-12398.715,-12908.295,-19945.17,-31105.08,-55513.62,-27146.79,-28007.73
1764505021.9101772,20833.38,-12395.43,-12904.65,-19942.335,-31102.38,-55510.38,-27142.965,-28003.905
1764505021.9101772,20833.2,-12395.43,-12905.055,-19943.415,-31103.415,-55511.505,-27144.36,-28004.67
1764505021.9101772,20832.435,-12396.285,-12907.17,-19945.845,-31106.115,-55514.25,-27146.97,-28006.47
1764505021.9101772,20835.81,-12393.045,-12904.2,-19942.155,-31102.74,-55511.505,-27143.955,-28003.635
1764505021.9101772,20834.01,-12394.44,-12903.885,-19940.94,-31100.85,-55509.795,-27143.19,-28004.94
1764505021.9101772,20829.69,-12397.005,-12903.48,-19941.48,-31102.29,-55511.595,-27145.98,-28008.315
1764505021.9101772,20832.66,-12394.53,-12900.78,-19938.915,-31099.635,-55508.625,-27142.425,-28005.57
1764505021.9101772,20830.275,-12397.68,-12904.2,-19941.885,-31101.39,-55509.615,-27144.27,-28007.73
1764505021.9101772,20833.47,-12394.215,-12901.275,-19938.42,-31098.87,-55506.87,-27141.12,-28004.49
1764505021.9101772,20835.855,-12392.055,-12899.52,-19937.295,-31098.015,-55506.24,-27139.77,-28002.465
1764505021.9101772,20837.025,-12391.2,-12898.755,-19936.8,-31097.115,-55506.24,-27139.995,-28002.105
1764505021.9101772,20830.59,-12396.915,-12904.2,-19942.56,-31102.29,-55510.92,-27145.26,-28007.865
1764505021.9539628,20828.79,-12398.22,-12904.785,-19943.685,-31103.775,-55512.315,-27147.51,-28009.035
1764505021.9539628,20830.185,-12397.815,-12904.335,-19943.28,-31103.505,-55512.585,-27147.69,-28008.81
1764505021.9539628,20832.12,-12396.195,-12902.355,-19940.805,-31100.985,-55509.615,-27145.17,-28007.1
1764505021.9539628,20834.01,-12394.755,-12900.105,-19937.34,-31097.385,-55505.88,-27142.425,-28004.535
1764505021.9539628,20833.02,-12396.015,-12900.78,-19937.565,-31097.295,-55505.835,-27142.515,-28006.02
1764505021.9539628,20829.42,-12399.525,-12904.92,-19942.02,-31101.075,-55509.3,-27146.61,-28010.07
1764505021.9539628,20833.02,-12395.61,-12902.13,-19939.365,-31097.295,-55506.195,-27143.19,-28006.74
1764505021.9539628,20833.785,-12394.305,-12900.105,-19937.52,-31095.765,-55504.44,-27142.02,-28005.795
1764505021.9539628,20833.155,-12395.79,-12900.06,-19937.205,-31095.72,-55504.26,-27142.605,-28006.47
1764505021.9539628,20830.365,-12399.165,-12904.515,-19942.245,-31100.4,-55508.085,-27146.205,-28010.07
1764505021.9539628,20835.045,-12394.125,-12900.645,-19938.645,-31098.375,-55504.71,-27142.92,-28005.57
1764505021.9539628,20835.045,-12392.325,-12897.225,-19936.035,-31096.485,-55503.09,-27142.155,-28005.345
1764505021.9539628,20833.065,-12393.765,-12896.19,-19934.955,-31096.125,-55503.18,-27143.415,-28007.28
1764505021.9549854,20830.86,-12396.465,-12899.88,-19937.385,-31098.15,-55504.89,-27145.395,-28009.125
1764505021.9549854,20834.505,-12393.81,-12898.395,-19936.035,-31096.8,-55502.91,-27142.74,-28006.02
1764505021.9549854,20832.21,-12396.375,-12901.905,-19939.095,-31099.545,-55506.195,-27144.63,-28008.27
1764505021.9549854,20835.855,-12393.315,-12898.89,-19936.8,-31095.315,-55502.91,-27140.895,-28004.265
1764505021.9549854,20836.62,-12393.18,-12898.125,-19936.935,-31094.955,-55502.505,-27139.995,-28003.68
1764505021.9549854,20837.16,-12393.09,-12898.44,-19937.835,-31097.205,-55504.665,-27140.4,-28003.365
1764505021.9549854,20834.64,-12395.79,-12901.095,-19940.445,-31099.995,-55507.815,-27144.225,-28006.065
1764505021.9549854,20830.68,-12399.12,-12904.065,-19943.595,-31102.11,-55510.65,-27148.005,-28009.35
1764505021.9549854,20830.32,-12399.255,-12903.705,-19942.65,-31102.155,-55509.975,-27148.5,-28008.855
1764505021.955499,20833.335,-12395.295,-12899.745,-19938.51,-31098.195,-55505.7,-27145.215,-28005.39
1764505021.955499,20830.995,-12397.725,-12901.365,-19940.985,-31100.58,-55508.805,-27147.24,-28008.675
1764505022.0021276,20833.92,-12395.205,-12899.43,-19939.14,-31097.34,-55506.195,-27144.36,-28005.75
1764505022.0021276,20831.58,-12398.355,-12903.84,-19942.38,-31100.31,-55508.715,-27147.06,-28009.215
1764505022.0021276,20834.73,-12394.89,-12900.96,-19939.905,-31098.69,-55507.095,-27144.495,-28006.605
1764505022.0021276,20833.56,-12395.97,-12901.77,-19940.94,-31099.59,-55508.04,-27145.62,-28007.235
1764505022.003142,20837.565,-12393.0,-12899.16,-19938.15,-31096.215,-55504.62,-27142.245,-28003.5
1764505022.003142,20833.92,-12395.43,-12902.58,-19941.885,-31100.76,-55509.525,-27145.98,-28007.19
1764505022.003142,20837.205,-12391.515,-12898.98,-19938.555,-31096.305,-55505.43,-27142.29,-28003.23
1764505022.003142,20836.53,-12393.27,-12899.07,-19938.42,-31095.63,-55504.35,-27141.795,-28003.815
1764505022.003142,20834.415,-12396.15,-12900.195,-19939.185,-31096.935,-55505.745,-27144.135,-28005.705
1764505022.003142,20830.23,-12401.055,-12903.93,-19942.65,-31101.39,-55510.335,-27148.725,-28010.205
1764505022.003142,20830.095,-12400.56,-12904.29,-19942.785,-31100.985,-55510.605,-27148.095,-28010.52
1764505022.003142,20830.455,-12399.615,-12904.155,-19941.885,-31100.04,-55509.39,-27147.33,-28010.07
1764505022.003142,20835.135,-12395.655,-12900.24,-19938.24,-31096.08,-55505.25,-27142.965,-28005.255
1764505022.003142,20836.53,-12393.405,-12898.71,-19937.565,-31095.225,-55506.015,-27142.65,-28004.85
1764505022.003142,20836.845,-12392.28,-12898.305,-19937.655,-31095.81,-55506.105,-27143.19,-28004.49
1764505022.003142,20834.055,-12394.935,-12900.555,-19938.6,-31097.205,-55506.96,-27144.135,-28006.605
1764505022.003142,20833.335,-12395.97,-12903.255,-19940.85,-31098.825,-55508.895,-27145.395,-28007.145
1764505022.003142,20827.935,-12401.145,-12907.44,-19944.135,-31102.74,-55513.53,-27149.94,-28011.735
1764505022.003142,20828.295,-12400.65,-12904.155,-19941.66,-31100.355,-55511.505,-27147.87,-28010.79
1764505022.003142,20829.645,-12398.22,-12900.465,-19938.69,-31098.78,-55509.93,-27145.845,-28008.63
1764505022.003142,20834.37,-12394.08,-12897.045,-19934.64,-31094.64,-55505.655,-27141.93,-28004.805
1764505022.003142,20834.145,-12395.115,-12898.53,-19937.475,-31096.305,-55506.96,-27143.28,-28005.66
1764505022.003142,20832.21,-12396.24,-12900.015,-19939.68,-31098.825,-55509.795,-27146.025,-28007.505
1764505022.003142,20835.63,-12392.145,-12896.37,-19936.17,-31095.855,-55507.455,-27142.92,-28004.4
1764505022.0487263,20835.36,-12392.28,-12897.765,-19937.52,-31096.215,-55507.365,-27142.74,-28004.58
1764505022.0487263,20832.48,-12395.925,-12901.095,-19940.49,-31098.69,-55509.39,-27145.44,-28007.685
1764505022.0487263,20831.535,-12397.455,-12901.185,-19941.345,-31100.355,-55510.965,-27147.105,-28008.855
1764505022.0487263,20826.27,-12404.205,-12905.64,-19943.37,-31102.11,-55513.17,-27149.805,-28012.815
1764505022.0487263,20827.98,-12402.99,-12906.045,-19943.145,-31100.715,-55510.965,-27147.87,-28011.285
1764505022.0487263,20828.61,-12402.135,-12907.755,-19945.575,-31102.38,-55512.495,-27149.67,-28010.52
1764505022.0487263,20830.095,-12400.965,-12907.845,-19945.08,-31102.47,-55512.36,-27148.995,-28008.585
1764505022.0487263,20832.615,-12398.085,-12903.93,-19941.435,-31099.68,-55509.57,-27145.98,-28006.335
1764505022.0487263,20829.42,-12401.82,-12905.685,-19942.425,-31101.48,-55511.055,-27148.365,-28009.44
1764505022.0487263,20831.13,-12400.245,-12902.13,-19939.77,-31099.5,-55509.615,-27146.925,-28008.36
1764505022.0487263,20836.755,-12395.295,-12897.405,-19935.63,-31095.045,-55504.845,-27142.29,-28002.6
1764505022.0487263,20835.18,-12396.87,-12900.105,-19937.385,-31096.845,-55505.43,-27144.0,-28003.725
1764505022.0487263,20834.64,-12396.87,-12900.96,-19939.14,-31098.915,-55507.86,-27144.585,-28004.58
1764505022.0487263,20831.58,-12399.615,-12903.795,-19943.865,-31103.595,-55513.665,-27148.455,-28007.955
1764505022.0487263,20834.055,-12397.23,-12901.275,-19940.22,-31099.14,-55510.02,-27146.115,-28005.93
1764505022.0487263,20833.02,-12397.77,-12901.905,-19940.13,-31098.735,-55509.795,-27146.385,-28007.235
1764505022.0487263,20834.73,-12395.385,-12899.295,-19937.025,-31095.945,-55506.915,-27143.64,-28004.985
1764505022.04924,20830.68,-12398.94,-12901.59,-19939.095,-31098.33,-55509.21,-27146.61,-28009.395
1764505022.04924,20830.725,-12398.895,-12901.545,-19940.085,-31098.555,-55509.165,-27146.385,-28009.395
1764505022.04924,20832.525,-12398.535,-12902.175,-19940.445,-31097.52,-55508.085,-27144.945,-28008.315
1764505022.04924,20835.225,-12396.87,-12900.87,-19940.445,-31095.495,-55505.07,-27141.03,-28004.4
1764505022.04924,20830.86,-12402.09,-12905.46,-19945.71,-31101.93,-55512.0,-27146.97,-28009.62
1764505022.04924,20835.045,-12397.545,-12901.86,-19941.93,-31099.005,-55509.165,-27144.495,-28005.84
1764505022.04924,20835.09,-12397.32,-12901.545,-19940.535,-31096.755,-55505.97,-27142.065,-28004.67
1764505022.0928192,20834.325,-12397.545,-12901.68,-19939.95,-31096.17,-55506.015,-27143.685,-28005.165
1764505022.0928192,20833.29,-12398.85,-12903.255,-19941.48,-31097.925,-55507.995,-27145.665,-28006.74
1764505022.0928192,20831.76,-12401.415,-12905.82,-19944.495,-31100.49,-55510.02,-27147.195,-28010.205
1764505022.0928192,20834.46,-12398.22,-12902.94,-19942.065,-31097.025,-55506.375,-27144.36,-28007.595
1764505022.0928192,20831.895,-12400.965,-12905.46,-19944.315,-31099.5,-55509.03,-27147.105,-28010.025
1764505022.0928192,20831.985,-12400.29,-12903.93,-19942.56,-31098.735,-55508.355,-27146.295,-28008.855
1764505022.0928192,20835.63,-12396.375,-12899.205,-19939.05,-31095.045,-55504.17,-27141.93,-28004.49
1764505022.0933497,20832.615,-12400.695,-12902.58,-19942.155,-31097.565,-55506.42,-27144.855,-28008.27
1764505022.0933497,20837.07,-12397.23,-12899.43,-19938.195,-31093.83,-55502.73,-27141.075,-28003.905
1764505022.0958836,20838.33,-12396.33,-12899.205,-19937.61,-31093.425,-55502.955,-27140.895,-28002.285
1764505022.0958836,20836.17,-12398.445,-12901.455,-19940.67,-31097.16,-55506.195,-27143.955,-28004.85
1764505022.0958836,20835.405,-12399.12,-12901.815,-19941.435,-31098.105,-55506.78,-27145.53,-28006.155
1764505022.0958836,20837.34,-12396.87,-12900.015,-19939.23,-31095.135,-55504.305,-27143.55,-28004.31
1764505022.0958836,20835.27,-12399.165,-12902.895,-19942.515,-31098.015,-55507.365,-27146.475,-28007.46
1764505022.0958836,20838.06,-12395.52,-12899.565,-19940.535,-31095.9,-55504.575,-27143.37,-28004.67
1764505022.0958836,20837.385,-12396.24,-12897.18,-19937.115,-31093.155,-55501.965,-27141.795,-28003.815
1764505022.0958836,20836.62,-12398.04,-12899.655,-19938.96,-31094.595,-55502.865,-27143.37,-28005.03
1764505022.0958836,20832.12,-12401.73,-12903.795,-19945.035,-31100.67,-55509.57,-27149.265,-28009.08
1764505022.0958836,20835.72,-12396.105,-12897.405,-19939.725,-31095.495,-55504.71,-27144.81,-28005.705
1764505022.0958836,20835.405,-12397.905,-12898.215,-19939.815,-31095.36,-55503.63,-27144.0,-28006.47
1764505022.0958836,20833.335,-12401.595,-12902.22,-19942.335,-31097.7,-55506.015,-27145.62,-28008.36
1764505022.0958836,20835.675,-12399.48,-12900.6,-19940.535,-31096.665,-55504.035,-27144.225,-28005.93
1764505022.139072,20837.115,-12397.815,-12899.79,-19939.95,-31096.98,-55503.9,-27143.73,-28004.31
1764505022.139072,20836.395,-12398.895,-12900.465,-19940.76,-31097.115,-55503.945,-27144.135,-28004.85
1764505022.139072,20836.485,-12399.615,-12901.005,-19940.535,-31097.115,-55504.665,-27144.09,-28005.48
1764505022.1395822,20835.18,-12400.065,-12901.455,-19941.255,-31097.205,-55505.205,-27144.315,-28007.055
1764505022.1395822,20835.09,-12399.84,-12901.59,-19941.525,-31096.89,-55504.8,-27144.945,-28006.695
1764505022.1395822,20830.905,-12404.07,-12905.28,-19944.63,-31100.13,-55509.48,-27149.445,-28011.6
1764505022.1395822,20831.76,-12403.215,-12903.84,-19943.19,-31097.745,-55507.725,-27147.105,-28010.61
1764505022.1395822,20833.83,-12400.875,-12902.13,-19940.535,-31095.675,-55505.115,-27144.27,-28008.495
1764505022.1395822,20832.75,-12402.045,-12904.605,-19941.93,-31097.52,-55506.42,-27144.72,-28009.17
1764505022.1395822,20829.87,-12405.015,-12908.745,-19945.98,-31101.48,-55509.03,-27147.375,-28012.095
1764505022.1395822,20833.425,-12402.09,-12906.99,-19944.045,-31099.815,-55507.995,-27145.395,-28008.585
1764505022.1395822,20829.375,-12405.06,-12910.995,-19948.905,-31103.505,-55512.18,-27149.445,-28012.365
1764505022.1395822,20828.16,-12405.96,-12908.925,-19948.815,-31104.99,-55513.08,-27151.2,-28014.03
1764505022.1395822,20830.86,-12403.17,-12905.145,-19944.63,-31102.065,-55510.2,-27148.59,-28011.78
1764505022.1395822,20836.035,-12398.265,-12900.69,-19940.895,-31097.79,-55506.78,-27143.55,-28007.505
1764505022.1400907,20833.425,-12401.46,-12903.84,-19945.035,-31102.605,-55510.335,-27147.555,-28010.835
1764505022.1400907,20831.13,-12403.395,-12906.495,-19947.42,-31105.575,-55513.755,-27150.705,-28013.445
1764505022.1400907,20829.51,-12404.52,-12907.53,-19947.15,-31104.99,-55513.755,-27150.48,-28014.165
1764505022.1400907,20828.16,-12405.96,-12907.575,-19946.97,-31105.035,-55513.53,-27150.66,-28014.39
1764505022.1400907,20827.395,-12407.535,-12909.735,-19947.51,-31104.27,-55513.08,-27150.12,-28013.625
1764505022.1400907,20830.14,-12405.06,-12906.855,-19945.62,-31101.84,-55510.695,-27147.375,-28011.33
1764505022.1411078,20826.9,-12406.68,-12908.97,-19947.645,-31103.775,-55513.485,-27150.75,-28015.47
1764505022.1411078,20829.87,-12404.655,-12906.405,-19943.325,-31098.735,-55508.22,-27146.925,-28012.725
1764505022.1411078,20831.49,-12403.845,-12906.405,-19944.315,-31099.59,-55508.985,-27146.295,-28012.05
1764505022.1889567,20831.985,-12402.495,-12906.495,-19944.585,-31098.645,-55508.715,-27144.405,-28010.205
1764505022.1889567,20829.735,-12404.655,-12908.565,-19947.105,-31100.58,-55510.02,-27146.34,-28011.915
1764505022.1889567,20827.17,-12407.445,-12911.625,-19949.715,-31104.405,-55512.99,-27149.76,-28014.93
1764505022.1889567,20829.105,-12404.745,-12909.555,-19948.275,-31104.765,-55512.675,-27149.04,-28013.805
1764505022.1889567,20832.12,-12401.46,-12904.695,-19943.955,-31100.895,-55509.12,-27145.44,-28010.88
1764505022.1889567,20828.34,-12405.06,-12908.655,-19947.015,-31104.0,-55512.72,-27148.815,-28013.355
1764505022.1889567,20831.22,-12401.955,-12906.765,-19946.34,-31102.695,-55510.965,-27146.34,-28010.475
1764505022.1889567,20827.26,-12406.455,-12910.05,-19949.67,-31105.98,-55514.295,-27149.76,-28013.94
1764505022.1889567,20828.205,-12406.05,-12907.755,-19946.115,-31102.695,-55511.37,-27148.14,-28013.175
1764505022.1889567,20832.66,-12401.82,-12903.57,-19941.66,-31098.555,-55507.275,-27144.405,-28009.17
1764505022.1889567,20832.66,-12401.055,-12901.5,-19940.76,-31098.465,-55506.69,-27144.45,-28009.17
1764505022.1889567,20831.085,-12401.955,-12903.345,-19942.74,-31099.725,-55507.77,-27146.52,-28010.385
1764505022.1889567,20831.085,-12401.055,-12903.165,-19942.965,-31100.895,-55507.905,-27145.665,-28009.98
1764505022.1889567,20828.475,-12403.98,-12905.415,-19944.63,-31102.29,-55509.345,-27147.825,-28012.86
1764505022.1899562,20831.625,-12400.83,-12901.86,-19940.22,-31097.88,-55504.98,-27144.36,-28010.07
1764505022.1899562,20832.885,-12399.435,-12900.465,-19939.05,-31096.215,-55503.405,-27142.785,-28008.9
1764505022.1899562,20832.3,-12399.3,-12899.43,-19938.645,-31095.18,-55502.01,-27142.605,-28008.495
1764505022.1899562,20831.76,-12399.93,-12900.465,-19939.005,-31095.045,-55502.19,-27142.92,-28008.63
1764505022.1899562,20829.825,-12401.955,-12903.84,-19941.255,-31097.43,-55504.53,-27144.72,-28010.52
1764505022.1899562,20833.245,-12396.69,-12899.295,-19938.33,-31094.46,-55501.47,-27141.255,-28007.19
1764505022.1899562,20834.325,-12394.53,-12896.145,-19936.53,-31093.425,-55501.515,-27140.085,-28006.29
1764505022.1899562,20832.345,-12397.41,-12899.115,-19939.005,-31095.0,-55503.045,-27142.785,-28008.315
1764505022.232871,20832.12,-12397.905,-12901.095,-19940.085,-31095.495,-55503.405,-27142.65,-28007.865
1764505022.232871,20828.115,-12402.585,-12905.37,-19944.855,-31099.545,-55507.365,-27147.195,-28011.78
1764505022.232871,20830.14,-12401.865,-12904.065,-19943.955,-31098.825,-55507.05,-27146.475,-28010.565
1764505022.232871,20834.73,-12397.725,-12900.51,-19940.49,-31096.26,-55503.54,-27142.245,-28005.345
1764505022.232871,20833.245,-12399.165,-12902.67,-19941.93,-31098.015,-55505.52,-27144.81,-28006.605
1764505022.232871,20833.56,-12398.94,-12901.59,-19941.12,-31097.34,-55504.17,-27144.765,-28006.425
1764505022.232871,20833.875,-12398.715,-12901.095,-19939.59,-31097.205,-55503.045,-27143.55,-28006.245
1764505022.232871,20834.55,-12398.895,-12901.77,-19938.915,-31096.26,-55501.56,-27143.055,-28005.975
1764505022.232871,20837.52,-12395.25,-12897.54,-19936.665,-31094.145,-55499.355,-27139.86,-28003.23
1764505022.232871,20832.435,-12399.3,-12899.43,-19939.68,-31098.78,-55503.585,-27144.63,-28008.36
1764505022.232871,20836.215,-12396.42,-12897.045,-19936.305,-31094.01,-55499.13,-27141.21,-28005.615
1764505022.2341473,20835.18,-12396.33,-12896.37,-19935.405,-31094.37,-55498.995,-27141.255,-28005.615
1764505022.2341473,20831.58,-12399.39,-12898.305,-19936.89,-31096.98,-55501.785,-27144.495,-28008.99
1764505022.2341473,20832.12,-12398.715,-12898.305,-19936.71,-31095.855,-55500.84,-27143.37,-28008.405
1764505022.2341473,20835.585,-12397.005,-12896.46,-19934.46,-31091.85,-55497.24,-27139.545,-28004.67
1764505022.2341473,20834.055,-12398.49,-12898.71,-19936.575,-31093.065,-55498.68,-27140.94,-28005.84
1764505022.2341473,20838.105,-12393.9,-12894.345,-19932.48,-31089.51,-55494.675,-27136.62,-28001.475
1764505022.2341473,20838.825,-12392.955,-12893.58,-19931.625,-31088.97,-55494.0,-27135.585,-27999.855
1764505022.2341473,20836.395,-12395.16,-12896.145,-19934.19,-31091.67,-55497.735,-27138.645,-28002.69
1764505022.2341473,20829.87,-12402.09,-12903.345,-19941.84,-31099.005,-55504.89,-27146.025,-28009.44
1764505022.2341473,20832.795,-12399.705,-12899.88,-19939.32,-31095.855,-55501.785,-27142.245,-28005.93
1764505022.2341473,20834.1,-12398.085,-12897.18,-19935.99,-31092.885,-55499.13,-27139.905,-28003.59
1764505022.2341473,20836.53,-12394.8,-12896.19,-19935.225,-31092.57,-55499.715,-27139.14,-28002.195
1764505022.2341473,20834.055,-12397.23,-12898.665,-19938.105,-31094.64,-55501.425,-27140.715,-28004.04
1764505022.2825644,20830.59,-12400.965,-12901.905,-19940.805,-31098.915,-55506.015,-27144.315,-28007.235
1764505022.2825644,20830.995,-12400.92,-12902.13,-19940.535,-31098.465,-55505.34,-27143.55,-28006.965
1764505022.2825644,20829.87,-12403.125,-12904.155,-19942.92,-31100.445,-55506.465,-27144.495,-28009.125
1764505022.2825644,20832.12,-12400.515,-12902.58,-19942.065,-31097.88,-55505.205,-27143.865,-28006.695
1764505022.2825644,20836.17,-12395.205,-12896.73,-19938.645,-31095.45,-55502.415,-27141.48,-28003.005
1764505022.2825644,20830.095,-12400.92,-12899.565,-19940.715,-31098.78,-55505.52,-27145.89,-28009.215
1764505022.2825644,20828.835,-12400.83,-12898.98,-19939.5,-31096.665,-55504.35,-27145.575,-28008.72
1764505022.2825644,20830.5,-12399.615,-12897.72,-19937.835,-31094.865,-55503.135,-27143.055,-28007.28
1764505022.2825644,20833.65,-12396.915,-12894.615,-19934.37,-31091.22,-55498.905,-27139.59,-28004.535
1764505022.2825644,20830.815,-12399.75,-12897.36,-19936.215,-31093.155,-55500.93,-27141.165,-28006.74
1764505022.2825644,20826.855,-12403.26,-12901.455,-19939.68,-31097.61,-55504.89,-27144.495,-28009.53
1764505022.2825644,20829.51,-12400.02,-12898.89,-19936.71,-31094.775,-55501.515,-27142.38,-28006.605
1764505022.2825644,20829.33,-12400.515,-12899.88,-19936.89,-31094.37,-55501.47,-27142.245,-28007.37
1764505022.2825644,20826.72,-12403.53,-12903.66,-19940.4,-31097.25,-55504.62,-27144.585,-28010.295
1764505022.2825644,20830.77,-12400.245,-12900.555,-19938.285,-31095.63,-55502.01,-27141.48,-28006.38
1764505022.2825644,20828.79,-12402.72,-12904.11,-19942.65,-31100.94,-55506.825,-27145.395,-28008.9
1764505022.2825644,20832.525,-12399.57,-12899.79,-19939.32,-31097.43,-55503.36,-27141.525,-28004.76
1764505022.2825644,20832.57,-12399.795,-12900.645,-19940.175,-31098.51,-55504.845,-27142.47,-28005.795
1764505022.2825644,20830.95,-12400.47,-12900.465,-19939.905,-31098.78,-55505.745,-27143.64,-28007.28
1764505022.2825644,20828.61,-12402.54,-12902.265,-19941.21,-31099.86,-55506.96,-27144.855,-28009.44
1764505022.2825644,20831.985,-12398.67,-12898.035,-19936.89,-31095.63,-55502.82,-27140.805,-28006.155
1764505022.2825644,20829.69,-12400.29,-12898.62,-19937.385,-31096.575,-55503.63,-27142.38,-28008.09
1764505022.2825644,20825.82,-12403.755,-12901.815,-19939.005,-31098.33,-55505.385,-27145.035,-28011.915
1764505022.2825644,20829.33,-12399.435,-12897.36,-19934.145,-31093.02,-55499.805,-27141.075,-28008.135
1764505022.3282793,20829.195,-12399.795,-12897.315,-19933.965,-31092.345,-55498.455,-27139.59,-28007.73
1764505022.3282793,20825.82,-12404.07,-12901.995,-19938.015,-31095.405,-55500.75,-27141.93,-28010.565
1764505022.3282793,20828.115,-12402.63,-12901.005,-19936.71,-31093.155,-55498.32,-27138.42,-28007.235
1764505022.3282793,20826.45,-12404.835,-12904.245,-19940.265,-31097.79,-55503.045,-27140.895,-28008.765
1764505022.3282793,20830.23,-12400.335,-12901.455,-19939.41,-31100.355,-55505.565,-27141.165,-28006.92
1764505022.3282793,20832.525,-12397.77,-12899.79,-19938.375,-31100.265,-55505.835,-27140.58,-28005.525
1764505022.329277,20836.035,-12395.34,-12897.09,-19936.26,-31096.665,-55503.09,-27137.61,-28002.24
1764505022.329277,20832.57,-12398.4,-12899.655,-19938.465,-31098.51,-55505.295,-27139.815,-28004.94
1764505022.329277,20833.875,-12395.43,-12896.595,-19936.17,-31095.675,-55502.145,-27137.565,-28002.555
1764505022.329277,20832.705,-12396.42,-12896.46,-19935.315,-31095.765,-55501.47,-27138.015,-28003.68
1764505022.329277,20832.345,-12397.275,-12899.07,-19937.205,-31096.215,-55501.515,-27137.565,-28004.4
1764505022.329277,20831.04,-12398.58,-12898.305,-19937.25,-31096.665,-55502.505,-27139.185,-28006.155
1764505022.329277,20829.285,-12399.705,-12896.37,-19935.18,-31096.62,-55503.18,-27140.85,-28007.775
1764505022.329277,20824.965,-12403.71,-12899.115,-19938.24,-31099.095,-55505.88,-27144.585,-28012.185
1764505022.329277,20824.92,-12403.98,-12900.015,-19938.33,-31097.88,-55504.125,-27143.64,-28011.915
1764505022.329277,20825.64,-12404.97,-12901.59,-19939.14,-31098.645,-55504.17,-27143.415,-28011.24
1764505022.329277,20827.08,-12404.25,-12901.23,-19939.995,-31098.735,-55504.26,-27142.74,-28009.755
1764505022.329277,20829.78,-12402.675,-12900.42,-19939.59,-31098.465,-55503.495,-27142.83,-28007.415
1764505022.329277,20829.24,-12403.575,-12903.12,-19943.235,-31102.155,-55507.095,-27145.035,-28009.485
1764505022.329277,20832.345,-12399.345,-12899.88,-19939.68,-31099.32,-55504.17,-27142.38,-28006.29
1764505022.329277,20836.44,-12395.205,-12894.615,-19933.695,-31093.695,-55498.815,-27137.79,-28001.385
1764505022.329277,20833.335,-12398.58,-12897.18,-19935.855,-31094.73,-55499.58,-27139.59,-28003.905
1764505022.3728402,20829.78,-12402.135,-12901.41,-19939.32,-31097.925,-55502.64,-27142.425,-28006.695
1764505022.3728402,20829.24,-12402.135,-12900.915,-19939.365,-31099.095,-55503.09,-27143.01,-28007.415
1764505022.3728402,20829.285,-12401.28,-12897.72,-19937.385,-31097.34,-55501.74,-27142.965,-28007.1
1764505022.3728402,20830.86,-12400.11,-12896.46,-19935.99,-31095.36,-55499.67,-27142.065,-28005.885
1764505022.3728402,20834.235,-12396.375,-12893.31,-19932.12,-31092.435,-55495.62,-27138.015,-28002.78
1764505022.3728402,20831.445,-12399.12,-12895.74,-19933.695,-31094.235,-55497.69,-27139.635,-28005.93
1764505022.374377,20833.92,-12396.105,-12893.58,-19930.905,-31091.04,-55494.405,-27136.98,-28002.195
1764505022.374377,20835.405,-12394.35,-12891.645,-19929.465,-31089.42,-55492.605,-27135.54,-28000.575
1764505022.374377,20836.305,-12394.035,-12890.475,-19928.97,-31089.105,-55491.705,-27135.09,-27999.99
1764505022.374377,20833.155,-12397.725,-12894.795,-19933.83,-31093.02,-55496.115,-27139.59,-28003.77
1764505022.374377,20837.61,-12393.54,-12892.32,-19930.68,-31089.96,-55493.91,-27135.225,-27999.27
1764505022.374377,20838.105,-12393.045,-12891.6,-19931.085,-31090.635,-55494.675,-27135.495,-27999.09
1764505022.374377,20838.69,-12392.865,-12889.305,-19930.365,-31090.815,-55494.09,-27136.305,-27999.765
1764505022.374377,20837.205,-12393.945,-12889.98,-19929.465,-31090.725,-55493.64,-27136.98,-28001.295
1764505022.374377,20833.245,-12398.67,-12894.66,-19933.605,-31094.055,-55497.645,-27141.39,-28004.445
1764505022.374377,20832.435,-12399.66,-12894.525,-19932.57,-31092.39,-55495.935,-27141.48,-28004.445
1764505022.374377,20833.875,-12398.445,-12893.4,-19931.625,-31091.67,-55495.53,-27140.58,-28003.41
1764505022.374377,20835.675,-12396.105,-12891.465,-19929.87,-31090.23,-55493.865,-27139.545,-28001.655
1764505022.374377,20837.97,-12392.73,-12888.945,-19926.855,-31086.81,-55490.445,-27136.215,-27999.135
1764505022.374377,20832.12,-12399.03,-12895.695,-19933.515,-31092.39,-55495.485,-27140.715,-28005.12
1764505022.374909,20832.66,-12398.355,-12895.155,-19933.29,-31092.03,-55494.18,-27139.005,-28003.815
1764505022.374909,20835.855,-12396.33,-12892.77,-19930.815,-31090.005,-55492.965,-27137.34,-28001.16
1764505022.374909,20834.73,-12397.545,-12894.03,-19931.94,-31092.48,-55496.655,-27139.77,-28002.6
1764505022.374909,20839.14,-12393.18,-12889.755,-19927.845,-31088.25,-55492.83,-27135.63,-27997.92
1764505022.4220254,20840.625,-12391.965,-12887.955,-19926.18,-31086.09,-55490.31,-27134.28,-27996.75
1764505022.4220254,20840.445,-12392.46,-12888.765,-19928.16,-31087.53,-55492.38,-27135.27,-27998.145
1764505022.423041,20839.68,-12392.235,-12888.09,-19928.475,-31089.465,-55494.495,-27136.215,-27999.0
1764505022.423041,20835.585,-12395.295,-12890.52,-19929.555,-31091.265,-55496.07,-27138.555,-28002.195
1764505022.423041,20837.43,-12392.685,-12887.46,-19925.28,-31086.63,-55491.795,-27135.135,-27999.9
1764505022.423041,20834.235,-12395.925,-12890.385,-19927.845,-31088.79,-55493.865,-27138.24,-28002.915
1764505022.423041,20837.52,-12392.73,-12887.82,-19925.055,-31085.64,-55490.445,-27134.865,-27999.45
1764505022.423041,20835.09,-12395.25,-12890.79,-19928.295,-31088.07,-55492.92,-27136.215,-28001.25
1764505022.4240396,20838.195,-12392.235,-12889.035,-19926.27,-31086.09,-55490.22,-27133.155,-27998.19
1764505022.4240396,20838.915,-12392.595,-12888.63,-19926.27,-31086.585,-55491.165,-27133.92,-27998.325
1764505022.4240396,20840.445,-12391.155,-12888.09,-19926.9,-31088.655,-55493.73,-27134.865,-27998.19
1764505022.4240396,20839.275,-12391.605,-12888.09,-19928.34,-31090.05,-55496.295,-27136.485,-27999.27
1764505022.4240396,20843.37,-12389.31,-12885.795,-19924.74,-31085.235,-55490.76,-27132.12,-27994.455
1764505022.4240396,20843.28,-12388.77,-12886.245,-19925.235,-31084.605,-55489.23,-27130.275,-27993.33
1764505022.4240396,20842.695,-12388.545,-12885.435,-19925.415,-31085.28,-55490.13,-27129.96,-27994.455
1764505022.4240396,20839.095,-12392.28,-12887.19,-19926.27,-31087.215,-55492.83,-27132.84,-27998.145
1764505022.4240396,20837.43,-12393.63,-12888.945,-19928.745,-31091.4,-55496.97,-27135.45,-28000.17
1764505022.4240396,20837.97,-12393.27,-12890.61,-19929.015,-31090.995,-55497.015,-27135.495,-27999.495
1764505022.4240396,20841.075,-12390.57,-12887.775,-19925.73,-31086.765,-55492.515,-27133.11,-27996.75
1764505022.4250402,20838.96,-12392.415,-12888.36,-19927.35,-31088.16,-55493.865,-27135.18,-27999.855
1764505022.4250402,20840.76,-12390.12,-12882.555,-19922.94,-31085.37,-55490.31,-27131.805,-27998.145
1764505022.4250402,20837.745,-12393.99,-12886.605,-19926.495,-31088.34,-55493.055,-27134.46,-28000.08
1764505022.4250402,20840.085,-12391.92,-12886.605,-19925.64,-31087.8,-55493.145,-27134.055,-27998.82
1764505022.4250402,20845.89,-12385.8,-12882.375,-19921.41,-31084.515,-55489.77,-27129.51,-27994.23
1764505022.4673812,20845.305,-12386.61,-12883.545,-19922.715,-31085.1,-55490.13,-27130.545,-27995.085
1764505022.467896,20840.58,-12391.74,-12888.09,-19926.63,-31087.62,-55493.01,-27134.505,-27999.495
1764505022.467896,20837.97,-12394.62,-12890.655,-19928.79,-31089.42,-55494.54,-27136.755,-28001.565
1764505022.467896,20837.745,-12394.845,-12891.825,-19928.835,-31089.915,-55495.62,-27137.34,-28002.06
1764505022.467896,20838.285,-12393.405,-12889.305,-19928.16,-31089.33,-55494.72,-27137.115,-28001.475
1764505022.467896,20838.735,-12391.83,-12886.065,-19925.28,-31086.765,-55492.245,-27135.225,-28000.8
1764505022.467896,20835.63,-12394.665,-12889.755,-19928.115,-31089.825,-55494.945,-27137.295,-28003.545
1764505022.467896,20837.745,-12391.875,-12888.135,-19927.305,-31088.16,-55493.01,-27135.72,-28001.745
1764505022.467896,20836.035,-12394.125,-12890.115,-19929.69,-31091.535,-55495.08,-27137.88,-28004.265
1764505022.467896,20837.115,-12393.765,-12886.56,-19926.09,-31088.88,-55493.19,-27137.115,-28003.77
1764505022.467896,20839.59,-12391.29,-12884.58,-19923.255,-31085.955,-55490.895,-27135.045,-28001.385
1764505022.467896,20836.35,-12395.205,-12888.765,-19926.945,-31088.295,-55492.29,-27137.295,-28003.68
1764505022.467896,20833.47,-12398.76,-12892.275,-19929.87,-31091.355,-55494.855,-27139.95,-28006.605
1764505022.467896,20836.98,-12395.745,-12889.89,-19929.195,-31089.87,-55493.145,-27137.61,-28003.725
1764505022.467896,20833.56,-12398.67,-12891.33,-19930.5,-31090.68,-55494.27,-27139.545,-28006.425
1764505022.467896,20832.435,-12399.795,-12891.465,-19930.68,-31091.67,-55494.855,-27140.535,-28007.505
1764505022.467896,20833.335,-12399.57,-12892.86,-19932.48,-31092.93,-55495.125,-27140.445,-28007.415
1764505022.467896,20833.875,-12399.255,-12893.805,-19933.29,-31092.795,-55495.575,-27140.355,-28006.47
1764505022.4689128,20836.98,-12396.465,-12891.87,-19933.065,-31094.055,-55496.34,-27139.095,-28003.995
1764505022.4689128,20840.31,-12392.46,-12887.1,-19928.25,-31090.5,-55492.785,-27135.855,-28000.53
1764505022.4689128,20839.095,-12393.225,-12887.1,-19926.495,-31089.015,-55490.76,-27135.945,-28000.89
1764505022.4689128,20836.26,-12395.565,-12889.17,-19928.115,-31090.41,-55491.705,-27138.465,-28002.825
1764505022.4689128,20835.36,-12395.79,-12889.53,-19927.845,-31090.23,-55491.93,-27139.59,-28004.4
1764505022.4689128,20832.93,-12398.265,-12890.475,-19930.14,-31090.86,-55493.055,-27140.445,-28006.83
1764505022.517664,20836.395,-12395.385,-12887.37,-19927.08,-31087.035,-55488.735,-27136.845,-28003.455
1764505022.5186615,20835.72,-12395.655,-12887.37,-19926.27,-31086.81,-55488.24,-27137.115,-28003.905
1764505022.5186615,20832.795,-12399.21,-12891.555,-19930.68,-31091.49,-55492.11,-27140.67,-28007.19
1764505022.5186615,20834.145,-12398.355,-12891.6,-19930.995,-31090.545,-55491.03,-27139.59,-28005.705
1764505022.5186615,20838.195,-12395.07,-12889.755,-19928.745,-31087.44,-55487.97,-27136.125,-28002.06
1764505022.5186615,20837.745,-12395.295,-12890.115,-19930.995,-31091.13,-55490.805,-27137.565,-28002.78
1764505022.5186615,20841.12,-12392.055,-12886.605,-19927.665,-31088.565,-55488.645,-27135.0,-27999.45
1764505022.5186615,20841.48,-12391.065,-12884.94,-19926.99,-31088.655,-55488.96,-27134.865,-27998.73
1764505022.5186615,20840.67,-12391.38,-12884.445,-19926.27,-31088.07,-55488.825,-27135.18,-27999.45
1764505022.5186615,20838.555,-12393.18,-12885.03,-19926.09,-31088.565,-55488.915,-27136.08,-28000.665
1764505022.5186615,20836.71,-12394.755,-12886.65,-19926.99,-31089.42,-55489.59,-27137.43,-28002.015
1764505022.5186615,20834.91,-12397.095,-12889.125,-19929.015,-31090.815,-55491.435,-27139.14,-28004.355
1764505022.5186615,20836.035,-12397.14,-12889.845,-19929.105,-31089.915,-55489.77,-27137.295,-28002.6
1764505022.5186615,20836.575,-12396.015,-12889.62,-19928.34,-31089.915,-55488.915,-27136.98,-28002.015
1764505022.5186615,20839.905,-12392.325,-12885.435,-19925.055,-31087.395,-55486.53,-27134.325,-27998.955
1764505022.5186615,20838.015,-12393.315,-12886.965,-19926.765,-31089.375,-55488.42,-27136.08,-28000.44
1764505022.5186615,20841.255,-12389.715,-12884.58,-19924.47,-31086.0,-55485.27,-27132.615,-27997.92
1764505022.5186615,20840.76,-12391.065,-12886.02,-19926.045,-31086.945,-55486.215,-27133.245,-27997.965
1764505022.5186615,20838.915,-12393.18,-12886.425,-19925.325,-31086.45,-55485.765,-27133.65,-27999.54
1764505022.5186615,20835.9,-12395.655,-12885.12,-19924.605,-31086.675,-55486.98,-27136.08,-28001.97
1764505022.5186615,20840.22,-12392.1,-12882.645,-19922.355,-31083.525,-55483.695,-27132.795,-27998.415
1764505022.5186615,20839.185,-12393.18,-12884.31,-19924.155,-31084.56,-55484.28,-27133.695,-27999.54
1764505022.5629754,20837.34,-12396.24,-12887.865,-19928.16,-31087.17,-55487.34,-27136.665,-28001.115
1764505022.5629754,20841.3,-12391.38,-12882.51,-19924.065,-31084.425,-55484.055,-27132.885,-27997.2
1764505022.5629754,20839.23,-12392.685,-12883.14,-19924.515,-31086.495,-55485.495,-27134.415,-27998.775
1764505022.5629754,20843.415,-12388.725,-12879.99,-19921.005,-31083.705,-55482.39,-27130.725,-27994.635
1764505022.5629754,20844.81,-12388.095,-12879.405,-19919.97,-31082.535,-55480.995,-27129.24,-27993.555
1764505022.5629754,20840.22,-12393.09,-12883.95,-19923.93,-31086.27,-55485.09,-27133.2,-27997.875
1764505022.5629754,20840.805,-12392.37,-12882.915,-19922.49,-31085.145,-55483.29,-27132.12,-27997.56
1764505022.5629754,20842.425,-12390.12,-12880.62,-19920.105,-31081.905,-55480.815,-27129.915,-27996.03
1764505022.563978,20845.935,-12386.385,-12876.255,-19916.055,-31077.495,-55476.945,-27125.325,-27992.07
1764505022.563978,20845.485,-12386.745,-12876.795,-19916.505,-31077.81,-55476.765,-27125.955,-27992.655
1764505022.563978,20843.325,-12389.04,-12879.18,-19919.115,-31080.465,-55477.935,-27128.205,-27994.41
1764505022.563978,20841.12,-12391.695,-12881.7,-19920.375,-31082.85,-55480.275,-27130.545,-27996.93
1764505022.563978,20844.585,-12388.59,-12878.325,-19917.54,-31079.835,-55477.98,-27127.53,-27993.78
1764505022.563978,20846.52,-12387.015,-12877.875,-19917.765,-31079.205,-55477.395,-27126.63,-27993.33
1764505022.563978,20848.005,-12385.62,-12876.93,-19918.26,-31079.565,-55477.665,-27126.585,-27992.115
1764505022.563978,20845.08,-12388.005,-12876.615,-19917.045,-31079.295,-55478.295,-27127.98,-27994.365
1764505022.563978,20840.22,-12391.695,-12879.765,-19920.06,-31081.005,-55480.5,-27130.86,-27997.83
1764505022.563978,20840.535,-12392.595,-12881.43,-19920.105,-31080.105,-55479.33,-27130.77,-27997.74
1764505022.563978,20844.09,-12387.87,-12877.155,-19915.92,-31076.055,-55475.19,-27126.09,-27993.78
1764505022.563978,20844.18,-12386.88,-12874.635,-19914.345,-31074.255,-55472.94,-27124.695,-27993.24
1764505022.563978,20844.99,-12386.34,-12873.51,-19912.725,-31071.825,-55471.635,-27123.255,-27992.43
1764505022.563978,20846.835,-12386.43,-12874.77,-19913.49,-31072.77,-55472.4,-27122.49,-27991.44
1764505022.563978,20847.105,-12386.97,-12877.515,-19917.855,-31077.81,-55476.72,-27124.605,-27991.395
1764505022.563978,20847.42,-12385.755,-12877.695,-19919.925,-31081.68,-55480.95,-27127.08,-27991.89
1764505022.6121256,20848.275,-12384.63,-12875.49,-19918.44,-31080.735,-55480.185,-27126.675,-27991.62
1764505022.6121256,20848.005,-12384.54,-12874.86,-19917.9,-31079.925,-55479.51,-27125.64,-27991.26
1764505022.6121256,20846.835,-12385.26,-12875.04,-19917.135,-31079.565,-55479.555,-27126.36,-27992.385
1764505022.6121256,20844.945,-12386.88,-12875.715,-19917.405,-31079.7,-55479.555,-27126.945,-27993.825
1764505022.6121256,20841.12,-12390.3,-12878.415,-19919.655,-31081.59,-55481.94,-27130.68,-27998.37
1764505022.6131215,20841.12,-12390.3,-12877.74,-19918.17,-31080.105,-55480.41,-27130.23,-27998.37
1764505022.6131215,20844.27,-12387.42,-12874.455,-19913.805,-31075.56,-55475.64,-27126.45,-27994.635
1764505022.6131215,20843.235,-12388.14,-12875.355,-19913.985,-31075.695,-55475.955,-27126.54,-27995.76
1764505022.6131215,20840.535,-12391.065,-12878.19,-19917.765,-31079.115,-55479.42,-27129.69,-27998.865
1764505022.6131215,20845.395,-12386.7,-12874.185,-19914.525,-31076.37,-55476.9,-27126.495,-27994.14
1764505022.6131215,20847.915,-12385.035,-12873.33,-19914.39,-31076.28,-55475.19,-27123.795,-27991.62
1764505022.6131215,20848.545,-12385.485,-12875.13,-19915.605,-31077.765,-55475.55,-27123.975,-27990.09
1764505022.6131215,20850.39,-12382.92,-12873.375,-19913.67,-31076.28,-55475.28,-27122.94,-27987.525
1764505022.6141186,20849.445,-12383.82,-12877.38,-19916.865,-31077.18,-55477.485,-27123.93,-27988.83
1764505022.6141186,20847.195,-12385.89,-12879.72,-19918.44,-31079.25,-55478.61,-27125.505,-27990.405
1764505022.6141186,20848.995,-12382.245,-12874.32,-19913.355,-31076.19,-55475.37,-27122.625,-27988.83
1764505022.6141186,20845.71,-12385.98,-12873.51,-19914.165,-31077.315,-55475.73,-27124.155,-27991.62
1764505022.6141186,20847.915,-12383.865,-12870.27,-19911.51,-31074.795,-55472.985,-27121.77,-27988.875
1764505022.6141186,20846.745,-12384.495,-12871.53,-19912.545,-31075.155,-55473.255,-27122.805,-27989.64
1764505022.6141186,20844.27,-12387.15,-12875.04,-19915.695,-31076.73,-55475.145,-27125.01,-27992.295
1764505022.6141186,20846.7,-12384.765,-12873.33,-19914.12,-31075.245,-55473.39,-27123.21,-27989.955
1764505022.6141186,20843.955,-12386.43,-12875.76,-19917.99,-31080.015,-55478.97,-27127.17,-27993.555
1764505022.6141186,20843.46,-12386.34,-12875.445,-19917.9,-31080.96,-55479.465,-27128.43,-27995.355
1764505022.6141186,20841.93,-12387.195,-12875.76,-19917.675,-31080.015,-55479.06,-27129.105,-27996.21
1764505022.6568985,20840.85,-12388.23,-12875.85,-19917.36,-31079.205,-55478.205,-27128.385,-27996.705
1764505022.6568985,20842.695,-12386.745,-12874.635,-19917.18,-31077.27,-55475.775,-27125.91,-27994.995
1764505022.6568985,20838.915,-12391.605,-12880.305,-19923.075,-31082.04,-55479.735,-27129.555,-27998.19
1764505022.6568985,20841.3,-12390.84,-12880.125,-19922.805,-31083.615,-55480.365,-27128.655,-27996.075
1764505022.6568985,20844.585,-12388.95,-12877.65,-19920.105,-31081.77,-55478.88,-27126.405,-27993.195
1764505022.6568985,20842.875,-12390.615,-12878.1,-19919.52,-31080.825,-55478.925,-27126.9,-27994.14
1764505022.6568985,20847.825,-12385.08,-12871.935,-19912.14,-31073.94,-55472.805,-27120.87,-27989.595
1764505022.657913,20846.52,-12385.755,-12873.375,-19914.075,-31075.965,-55474.47,-27121.77,-27991.125
1764505022.657913,20842.56,-12389.13,-12876.84,-19918.215,-31080.735,-55478.34,-27126.765,-27994.725
1764505022.657913,20842.695,-12389.175,-12876.705,-19918.17,-31080.69,-55477.575,-27126.495,-27994.14
1764505022.657913,20845.305,-12386.205,-12874.59,-19916.055,-31078.305,-55475.865,-27123.57,-27992.07
1764505022.657913,20847.555,-12383.1,-12871.485,-19912.815,-31075.605,-55472.67,-27120.96,-27989.64
1764505022.657913,20846.475,-12384.045,-12871.98,-19913.49,-31076.955,-55473.93,-27122.49,-27990.765
1764505022.657913,20846.16,-12384.99,-12872.52,-19913.445,-31076.82,-55474.02,-27123.48,-27991.35
1764505022.657913,20844.36,-12387.51,-12875.175,-19916.28,-31078.035,-55475.145,-27124.11,-27992.79
1764505022.657913,20847.51,-12383.82,-12871.35,-19912.77,-31075.065,-55472.355,-27120.78,-27989.37
1764505022.657913,20847.06,-12384.135,-12871.935,-19913.67,-31075.245,-55472.625,-27120.555,-27989.82
1764505022.657913,20845.53,-12386.7,-12874.05,-19915.29,-31075.875,-55472.94,-27122.13,-27991.665
1764505022.657913,20845.44,-12387.465,-12874.95,-19916.145,-31077.0,-55473.975,-27121.77,-27991.935
1764505022.657913,20841.435,-12391.695,-12879.18,-19920.69,-31082.22,-55479.015,-27126.045,-27995.85
1764505022.657913,20842.515,-12390.57,-12878.19,-19920.87,-31082.31,-55480.005,-27127.17,-27995.94
1764505022.657913,20845.575,-12386.745,-12874.455,-19917.27,-31078.305,-55475.235,-27124.02,-27992.565
1764505022.701715,20845.035,-12387.69,-12875.4,-19918.17,-31079.025,-55475.1,-27124.2,-27992.43
1764505022.701715,20840.94,-12391.38,-12878.145,-19920.87,-31082.265,-55478.835,-27127.62,-27995.895
1764505022.701715,20843.37,-12387.51,-12874.005,-19917.18,-31078.845,-55475.01,-27124.29,-27993.375
1764505022.701715,20841.48,-12389.535,-12875.13,-19919.295,-31080.15,-55475.64,-27126.405,-27995.805
1764505022.701715,20843.55,-12388.005,-12872.835,-19916.865,-31076.82,-55472.58,-27124.38,-27993.87
1764505022.701715,20837.43,-12393.81,-12877.515,-19921.14,-31080.915,-55476.765,-27129.465,-27999.675
1764505022.701715,20839.905,-12390.165,-12873.465,-19917.315,-31078.08,-55473.12,-27126.63,-27996.75
1764505022.701715,20838.51,-12391.965,-12875.355,-19919.34,-31079.025,-55473.93,-27127.53,-27997.74
1764505022.701715,20841.975,-12389.04,-12874.68,-19917.18,-31074.93,-55469.52,-27122.895,-27993.69
1764505022.701715,20842.155,-12389.49,-12876.12,-19917.99,-31075.83,-55470.375,-27123.705,-27992.97
1764505022.701715,20843.37,-12389.535,-12876.615,-19919.07,-31077.63,-55471.32,-27122.715,-27992.52
1764505022.7027545,20844.63,-12388.95,-12875.715,-19919.205,-31079.07,-55473.255,-27123.435,-27991.53
1764505022.7027545,20845.395,-12386.925,-12873.87,-19918.935,-31080.015,-55474.83,-27124.965,-27991.44
1764505022.7027545,20842.965,-12388.77,-12875.58,-19919.115,-31079.7,-55474.56,-27125.955,-27993.465
1764505022.7027545,20841.885,-12390.075,-12877.38,-19921.095,-31080.195,-55474.695,-27126.54,-27994.455
1764505022.7027545,20836.485,-12394.98,-12879.9,-19924.83,-31084.875,-55479.015,-27131.535,-27999.855
1764505022.7027545,20836.26,-12394.89,-12877.695,-19921.905,-31084.47,-55479.105,-27131.58,-28000.53
1764505022.7027545,20835.72,-12393.63,-12878.28,-19921.23,-31083.075,-55477.53,-27131.355,-28000.17
1764505022.7027545,20839.725,-12390.84,-12875.58,-19917.675,-31079.25,-55473.39,-27128.25,-27996.57
1764505022.7027545,20839.995,-12391.56,-12874.815,-19917.135,-31078.485,-55472.715,-27127.62,-27996.12
1764505022.7027545,20840.085,-12391.785,-12875.13,-19916.865,-31077.585,-55471.365,-27126.9,-27995.85
1764505022.7027545,20840.535,-12391.47,-12875.445,-19918.17,-31079.07,-55472.58,-27127.71,-27996.12
1764505022.7027545,20839.635,-12392.595,-12876.03,-19918.845,-31079.475,-55473.255,-27127.44,-27996.84
1764505022.7027545,20839.77,-12391.74,-12875.805,-19918.395,-31078.755,-55472.445,-27127.08,-27995.715
1764505022.750496,20840.895,-12391.065,-12876.03,-19918.89,-31080.6,-55473.93,-27127.98,-27995.4
1764505022.7510216,20836.08,-12396.87,-12881.475,-19924.425,-31085.865,-55479.555,-27133.47,-28000.62
1764505022.7510216,20840.535,-12392.37,-12877.56,-19920.24,-31081.59,-55475.055,-27128.52,-27996.03
1764505022.7510216,20842.245,-12390.57,-12876.615,-19919.43,-31081.545,-55474.02,-27127.35,-27994.77
1764505022.7510216,20841.345,-12390.57,-12877.965,-19921.05,-31083.615,-55475.28,-27128.205,-27995.805
1764505022.7510216,20839.32,-12391.965,-12877.335,-19920.42,-31082.58,-55475.955,-27129.105,-27997.47
1764505022.7510216,20837.115,-12394.575,-12879.81,-19923.12,-31084.245,-55478.475,-27131.4,-28000.845
1764505022.7510216,20837.43,-12394.125,-12878.775,-19920.96,-31082.445,-55476.495,-27130.14,-27999.945
1764505022.7510216,20834.325,-12397.77,-12881.475,-19924.155,-31085.73,-55479.375,-27133.515,-28002.69
1764505022.7510216,20836.485,-12395.97,-12879.54,-19923.12,-31084.695,-55478.115,-27131.67,-27999.765
1764505022.7510216,20839.995,-12391.785,-12876.705,-19919.79,-31080.825,-55474.065,-27127.215,-27996.39
1764505022.7510216,20834.64,-12396.105,-12881.07,-19922.94,-31084.65,-55477.35,-27132.48,-28002.015
1764505022.7510216,20836.53,-12394.125,-12878.82,-19921.365,-31082.805,-55475.505,-27130.59,-27999.99
1764505022.7510216,20834.505,-12396.42,-12880.665,-19923.66,-31084.875,-55478.34,-27132.615,-28002.105
1764505022.7510216,20836.35,-12394.485,-12878.46,-19921.455,-31082.67,-55476.27,-27130.23,-27999.81
1764505022.7510216,20834.01,-12397.005,-12881.43,-19924.155,-31084.83,-55478.07,-27132.57,-28001.88
1764505022.7510216,20836.755,-12394.71,-12877.785,-19921.05,-31081.725,-55474.065,-27129.69,-27998.82
1764505022.7510216,20835.36,-12397.545,-12879.81,-19922.175,-31082.85,-55474.83,-27130.95,-28000.035
1764505022.7510216,20835.045,-12398.895,-12881.34,-19923.255,-31083.84,-55475.37,-27131.49,-28001.295
1764505022.7510216,20833.695,-12399.21,-12882.915,-19926.225,-31085.73,-55477.665,-27133.065,-28002.645
1764505022.7510216,20836.935,-12394.755,-12878.955,-19922.805,-31083.165,-55475.505,-27130.365,-27998.415
1764505022.7510216,20832.03,-12399.39,-12883.23,-19927.845,-31089.6,-55482.075,-27135.72,-28003.05
1764505022.7510216,20831.535,-12399.03,-12881.52,-19925.82,-31087.755,-55480.32,-27135.135,-28003.32
1764505022.7510216,20834.685,-12395.565,-12877.56,-19921.815,-31083.93,-55475.595,-27131.445,-27999.45
1764505022.7944353,20835.18,-12396.06,-12877.92,-19921.86,-31082.67,-55474.335,-27130.005,-27998.64
1764505022.7944353,20834.46,-12398.49,-12880.53,-19924.02,-31082.715,-55475.01,-27130.68,-27999.99
1764505022.7944353,20834.595,-12397.95,-12880.305,-19923.93,-31083.165,-55475.28,-27130.5,-28001.115
1764505022.7944353,20833.02,-12399.48,-12882.015,-19926.0,-31084.65,-55476.99,-27131.625,-28002.87
1764505022.7944353,20830.23,-12401.775,-12884.805,-19928.565,-31087.17,-55479.105,-27133.335,-28004.985
1764505022.7944353,20833.785,-12398.13,-12880.575,-19923.39,-31083.66,-55475.505,-27129.06,-28001.25
1764505022.7944353,20833.875,-12397.5,-12879.765,-19920.735,-31080.42,-55472.49,-27126.99,-28000.26
1764505022.7944353,20832.435,-12399.975,-12882.825,-19924.29,-31082.895,-55475.055,-27129.915,-28002.69
1764505022.7949452,20831.49,-12400.155,-12881.205,-19924.02,-31082.805,-55475.37,-27131.445,-28003.725
1764505022.7949452,20829.69,-12401.28,-12880.755,-19924.11,-31084.38,-55476.99,-27132.525,-28004.895
1764505022.7949452,20826.855,-12404.205,-12884.58,-19927.71,-31088.25,-55480.635,-27134.955,-28007.415
1764505022.7949452,20827.755,-12404.16,-12885.165,-19929.735,-31089.87,-55482.075,-27135.27,-28006.155
1764505022.7949452,20828.925,-12402.99,-12884.265,-19929.06,-31089.645,-55482.12,-27134.37,-28005.255
1764505022.7949452,20828.61,-12402.405,-12884.715,-19929.015,-31090.095,-55482.66,-27134.1,-28006.02
1764505022.7949452,20829.78,-12400.875,-12883.095,-19927.62,-31088.295,-55481.13,-27133.065,-28004.265
1764505022.7949452,20832.435,-12397.815,-12879.315,-19923.165,-31083.12,-55476.27,-27129.915,-28000.845
1764505022.7949452,20831.805,-12398.895,-12880.395,-19923.165,-31082.625,-55475.595,-27129.96,-28001.16
1764505022.7949452,20827.08,-12404.205,-12885.48,-19928.745,-31086.585,-55480.23,-27133.695,-28005.345
1764505022.7949452,20830.545,-12401.415,-12883.365,-19927.17,-31084.92,-55477.755,-27129.78,-28002.555
1764505022.7949452,20828.88,-12403.71,-12885.345,-19930.14,-31088.745,-55481.58,-27133.155,-28005.03
1764505022.7959585,20830.23,-12402.72,-12884.22,-19929.555,-31088.295,-55481.85,-27133.425,-28004.265
1764505022.796472,20832.03,-12399.615,-12881.34,-19926.9,-31085.595,-55479.24,-27131.13,-28002.24
1764505022.8432205,20830.59,-12400.38,-12882.78,-19928.115,-31086.81,-55480.86,-27132.705,-28003.68
1764505022.8432205,20834.01,-12396.465,-12879.18,-19924.29,-31083.66,-55477.44,-27129.555,-28000.17
1764505022.8432205,20832.345,-12398.355,-12879.495,-19923.03,-31082.04,-55476.27,-27129.6,-28001.295
1764505022.8432205,20832.21,-12398.625,-12880.35,-19924.29,-31082.49,-55477.17,-27129.915,-28002.42
1764505022.8432205,20830.905,-12399.525,-12879.225,-19922.76,-31081.77,-55475.91,-27129.15,-28003.455
1764505022.8432205,20826.855,-12404.115,-12881.79,-19924.47,-31083.66,-55477.89,-27132.57,-28007.73
1764505022.8432205,20825.01,-12407.355,-12886.02,-19929.51,-31087.845,-55480.635,-27135.99,-28009.845
1764505022.8432205,20827.62,-12405.195,-12884.49,-19928.07,-31086.135,-55478.565,-27133.515,-28007.46
1764505022.8432205,20826.495,-12406.455,-12886.425,-19930.455,-31088.295,-55481.58,-27135.63,-28009.08
1764505022.8432205,20830.59,-12402.27,-12883.455,-19928.97,-31088.025,-55481.895,-27133.92,-28004.76
1764505022.8432205,20832.21,-12400.47,-12883.545,-19929.96,-31089.24,-55482.795,-27133.965,-28003.365
1764505022.8432205,20830.995,-12401.325,-12884.76,-19931.13,-31091.445,-55483.83,-27136.035,-28005.525
1764505022.8432205,20827.98,-12404.34,-12887.595,-19933.38,-31094.415,-55487.16,-27139.815,-28008.72
1764505022.844763,20828.205,-12404.52,-12887.91,-19932.435,-31092.39,-55485.9,-27138.42,-28007.64
1764505022.844763,20831.445,-12401.865,-12884.04,-19928.565,-31087.755,-55480.995,-27134.415,-28004.04
1764505022.844763,20828.475,-12405.33,-12884.67,-19929.105,-31088.07,-55480.59,-27135.9,-28006.515
1764505022.844763,20827.71,-12407.265,-12885.165,-19929.285,-31088.655,-55480.545,-27136.35,-28007.505
1764505022.844763,20823.255,-12411.405,-12888.405,-19932.66,-31092.12,-55484.865,-27140.22,-28011.645
1764505022.844763,20823.3,-12410.46,-12888.72,-19932.39,-31092.705,-55485.63,-27140.895,-28011.915
1764505022.844763,20824.065,-12410.505,-12891.015,-19933.875,-31092.885,-55484.55,-27139.77,-28010.52
1764505022.844763,20824.74,-12411.54,-12892.275,-19935.045,-31093.11,-55485.135,-27139.635,-28010.43
1764505022.844763,20828.655,-12406.23,-12888.18,-19932.03,-31091.22,-55483.74,-27137.07,-28006.92
1764505022.844763,20830.68,-12404.25,-12887.865,-19931.175,-31090.77,-55483.29,-27135.945,-28005.48
1764505022.844763,20829.105,-12406.14,-12890.115,-19932.03,-31091.4,-55483.83,-27136.305,-28007.37
1764505022.8928754,20829.33,-12405.15,-12888.63,-19931.58,-31090.725,-55483.83,-27136.125,-28007.055
1764505022.8928754,20826.63,-12407.13,-12885.12,-19929.06,-31090.815,-55485.27,-27137.475,-28009.44
1764505022.8928754,20823.615,-12409.515,-12886.335,-19929.87,-31092.165,-55486.98,-27139.5,-28011.735
1764505022.8928754,20825.325,-12407.805,-12886.605,-19929.87,-31091.4,-55485.405,-27138.33,-28010.295
1764505022.8928754,20822.175,-12411.54,-12891.105,-19933.155,-31094.19,-55488.24,-27140.67,-28013.94
1764505022.8928754,20822.445,-12411.18,-12890.475,-19932.39,-31092.84,-55487.97,-27139.905,-28013.04
1764505022.8928754,20826.945,-12405.69,-12885.84,-19928.385,-31089.735,-55484.055,-27135.18,-28007.865
1764505022.8928754,20826.81,-12407.04,-12887.37,-19930.95,-31091.355,-55486.08,-27135.765,-28008.045
1764505022.8928754,20822.985,-12410.325,-12891.015,-19934.865,-31095.945,-55491.255,-27141.03,-28011.69
1764505022.8928754,20824.425,-12409.2,-12888.225,-19931.67,-31093.74,-55489.77,-27140.4,-28009.845
1764505022.8928754,20827.17,-12406.815,-12885.255,-19928.88,-31090.14,-55485.855,-27136.44,-28007.19
1764505022.8928754,20822.94,-12410.595,-12889.665,-19933.65,-31094.415,-55489.77,-27140.445,-28011.78
1764505022.893873,20827.305,-12406.095,-12886.38,-19929.915,-31091.355,-55486.89,-27136.89,-28006.965
1764505022.893873,20827.845,-12405.915,-12886.245,-19930.14,-31092.66,-55488.78,-27137.97,-28006.785
1764505022.893873,20823.795,-12409.56,-12889.8,-19932.885,-31095.72,-55491.795,-27141.48,-28010.835
1764505022.893873,20821.59,-12410.865,-12891.375,-19934.37,-31096.26,-55491.165,-27142.47,-28012.41
1764505022.893873,20823.93,-12409.56,-12890.025,-19932.12,-31094.28,-55488.96,-27140.31,-28010.52
1764505022.893873,20826.45,-12407.04,-12886.38,-19928.565,-31090.815,-55486.215,-27137.115,-28007.64
1764505022.893873,20826.63,-12406.365,-12885.48,-19928.295,-31090.905,-55486.125,-27136.575,-28007.505
1764505022.893873,20826.63,-12406.635,-12885.21,-19928.07,-31090.995,-55485.09,-27136.755,-28007.415
1764505022.893873,20825.235,-12407.49,-12885.84,-19928.565,-31090.995,-55485.495,-27136.89,-28008.315
1764505022.893873,20821.32,-12411.945,-12890.61,-19932.975,-31095.72,-55489.815,-27142.155,-28012.905
1764505022.893873,20822.265,-12410.82,-12890.205,-19932.255,-31095.135,-55489.32,-27142.245,-28011.87
1764505022.893873,20823.12,-12410.505,-12889.71,-19932.255,-31094.955,-55488.555,-27141.615,-28010.655
1764505022.938146,20826.36,-12407.58,-12886.83,-19930.41,-31093.155,-55486.17,-27138.375,-28007.505
1764505022.938146,20822.67,-12411.315,-12888.405,-19930.815,-31093.695,-55487.115,-27139.86,-28010.655
1764505022.938146,20824.11,-12409.2,-12887.19,-19930.32,-31093.425,-55486.665,-27138.915,-28009.44
1764505022.938146,20825.91,-12406.905,-12884.67,-19928.835,-31093.155,-55486.575,-27138.42,-28007.55
1764505022.938146,20827.98,-12404.88,-12881.52,-19924.29,-31087.89,-55481.625,-27134.145,-28004.58
1764505022.938146,20827.35,-12406.005,-12882.24,-19924.83,-31087.53,-55481.265,-27134.01,-28004.4
1764505022.938146,20827.8,-12405.375,-12882.825,-19926.315,-31088.43,-55481.67,-27134.91,-28005.255
1764505022.938146,20825.73,-12407.265,-12884.445,-19927.305,-31090.59,-55483.695,-27138.195,-28008.09
1764505022.938146,20823.615,-12408.48,-12886.83,-19928.745,-31093.155,-55485.765,-27140.31,-28010.07
1764505022.938466,20824.83,-12408.12,-12887.1,-19928.7,-31091.04,-55483.38,-27137.43,-28007.055
1764505022.938466,20824.065,-12408.705,-12886.83,-19929.6,-31091.895,-55484.28,-27138.555,-28008.495
1764505022.938466,20820.06,-12413.655,-12890.79,-19934.73,-31096.215,-55489.23,-27143.955,-28013.31
1764505022.938466,20820.06,-12413.565,-12889.62,-19932.84,-31094.685,-55487.79,-27143.055,-28012.275
1764505022.938466,20821.68,-12411.765,-12887.28,-19929.33,-31091.895,-55485.315,-27142.02,-28011.195
1764505022.938466,20819.43,-12413.655,-12889.755,-19931.67,-31094.28,-55487.34,-27143.955,-28013.67
1764505022.938466,20821.59,-12411.675,-12888.63,-19930.725,-31092.705,-55485.09,-27141.93,-28011.645
1764505022.938466,20825.01,-12407.94,-12885.93,-19928.16,-31089.285,-55481.445,-27137.97,-28008.27
1764505022.938466,20821.995,-12410.685,-12889.665,-19932.03,-31093.065,-55485.225,-27140.715,-28010.43
1764505022.938466,20827.89,-12405.24,-12885.21,-19928.52,-31091.085,-55483.56,-27137.7,-28005.255
1764505022.938466,20827.935,-12404.79,-12884.265,-19928.745,-31091.715,-55484.595,-27138.78,-28005.615
1764505022.938466,20824.11,-12407.265,-12885.165,-19930.545,-31094.37,-55486.89,-27142.11,-28008.99
1764505022.938466,20823.39,-12408.525,-12885.39,-19929.465,-31093.47,-55485.585,-27141.57,-28010.205
1764505022.938466,20825.235,-12407.49,-12884.895,-19927.935,-31090.68,-55482.21,-27139.23,-28008.225
1764505022.938466,20820.555,-12412.8,-12890.07,-19932.57,-31093.92,-55485.765,-27142.83,-28012.545
1764505022.9837744,20820.24,-12412.485,-12890.115,-19932.975,-31094.055,-55485.945,-27142.92,-28012.32
1764505022.9837744,20820.105,-12411.09,-12885.3,-19928.925,-31091.715,-55483.74,-27141.93,-28012.635
1764505022.9837744,20822.265,-12409.2,-12882.96,-19924.65,-31087.305,-55479.06,-27138.24,-28009.98
1764505022.9837744,20819.79,-12412.89,-12887.28,-19929.825,-31090.95,-55483.11,-27141.525,-28012.86
1764505022.9837744,20825.325,-12406.14,-12882.33,-19925.865,-31088.925,-55480.77,-27137.295,-28007.28
1764505022.9837744,20824.965,-12405.555,-12883.32,-19927.035,-31090.545,-55481.04,-27138.15,-28007.325
1764505022.984786,20824.11,-12406.77,-12884.49,-19927.08,-31090.5,-55481.265,-27139.005,-28007.82
1764505022.984786,20822.985,-12408.66,-12885.705,-19928.475,-31091.22,-55482.39,-27140.04,-28009.8
1764505022.984786,20826.855,-12405.285,-12881.655,-19925.145,-31088.88,-55479.87,-27137.115,-28007.055
1764505022.984786,20824.47,-12407.445,-12883.905,-19926.405,-31090.23,-55481.715,-27138.555,-28008.45
1764505022.984786,20820.42,-12411.405,-12887.955,-19930.095,-31092.705,-55484.235,-27142.245,-28012.32
1764505022.984786,20823.12,-12409.2,-12886.02,-19928.925,-31091.625,-55482.03,-27139.905,-28009.98
1764505022.984786,20824.965,-12407.31,-12883.41,-19927.035,-31089.915,-55480.14,-27138.555,-28008.135
1764505022.984786,20823.66,-12409.02,-12885.12,-19929.15,-31092.165,-55482.795,-27140.4,-28009.26
1764505022.984786,20820.51,-12412.17,-12888.135,-19931.49,-31094.505,-55485.405,-27142.74,-28012.32
1764505022.984786,20822.805,-12410.37,-12887.235,-19930.545,-31092.435,-55483.38,-27140.535,-28010.52
1764505022.984786,20823.48,-12409.245,-12885.84,-19930.365,-31092.255,-55482.12,-27139.77,-28009.755
1764505022.984786,20822.13,-12409.695,-12883.545,-19926.405,-31089.15,-55479.645,-27138.78,-28009.89
1764505022.984786,20820.24,-12410.91,-12885.255,-19927.17,-31090.455,-55480.455,-27140.76,-28011.69
1764505022.984786,20824.02,-12406.95,-12882.105,-19923.57,-31086.855,-55477.395,-27137.61,-28009.215
1764505022.984786,20824.38,-12406.995,-12882.78,-19924.56,-31087.17,-55477.395,-27137.655,-28008.585
1764505022.984786,20822.13,-12410.145,-12886.335,-19926.945,-31090.86,-55479.78,-27139.995,-28011.015
1764505023.0298147,20826.54,-12406.185,-12883.545,-19924.74,-31087.98,-55476.99,-27136.215,-28007.91
1764505023.0298147,20824.965,-12407.76,-12885.165,-19927.305,-31091.58,-55480.815,-27138.645,-28009.89
1764505023.0298147,20827.8,-12404.16,-12880.755,-19923.39,-31088.79,-55478.295,-27135.945,-28006.38
1764505023.0298147,20826.045,-12406.23,-12882.24,-19925.37,-31089.51,-55478.745,-27136.485,-28007.775
1764505023.0303442,20823.48,-12408.57,-12884.805,-19927.8,-31090.815,-55479.915,-27138.78,-28010.025
1764505023.0303442,20819.61,-12411.315,-12887.505,-19929.465,-31094.19,-55483.74,-27142.965,-28013.625
1764505023.0303442,20820.51,-12410.37,-12885.93,-19927.485,-31093.065,-55482.48,-27141.795,-28012.995
1764505023.0303442,20819.52,-12412.98,-12888.72,-19929.42,-31093.695,-55481.85,-27142.245,-28013.715
1764505023.0303442,20820.06,-12413.52,-12889.755,-19930.095,-31093.29,-55481.715,-27142.2,-28013.58
1764505023.0303442,20820.6,-12412.125,-12886.65,-19927.845,-31092.165,-55480.995,-27141.3,-28013.49
1764505023.0303442,20825.46,-12406.995,-12882.42,-19924.29,-31087.755,-55476.945,-27136.44,-28008.63
1764505023.0303442,20825.055,-12406.815,-12884.265,-19927.035,-31089.465,-55477.89,-27137.07,-28008.18
1764505023.03136,20824.11,-12407.355,-12882.555,-19925.64,-31089.015,-55477.8,-27137.295,-28008.495
1764505023.03136,20821.41,-12409.695,-12883.365,-19926.405,-31090.995,-55480.05,-27139.14,-28011.33
1764505023.03136,20818.53,-12412.755,-12886.83,-19929.645,-31093.695,-55482.165,-27142.515,-28014.165
1764505023.03136,20819.88,-12411.135,-12885.075,-19927.53,-31091.535,-55479.87,-27140.67,-28012.23
1764505023.03136,20818.575,-12412.125,-12886.92,-19929.015,-31092.48,-55481.58,-27142.02,-28013.535
1764505023.03136,20821.32,-12409.38,-12884.355,-19926.315,-31089.645,-55477.89,-27138.285,-28010.79
1764505023.03136,20818.485,-12412.26,-12889.215,-19929.6,-31092.3,-55480.32,-27140.625,-28013.175
1764505023.03136,20821.185,-12409.47,-12886.47,-19927.845,-31091.76,-55479.42,-27139.68,-28011.06
1764505023.0333562,20821.59,-12407.535,-12882.24,-19925.19,-31091.49,-55479.555,-27139.41,-28009.8
1764505023.0333562,20820.51,-12408.39,-12881.025,-19924.425,-31092.075,-55479.87,-27140.805,-28011.24
1764505023.0333562,20819.88,-12409.92,-12884.265,-19926.09,-31092.795,-55479.24,-27141.075,-28011.555
1764505023.0333562,20819.295,-12411.36,-12886.47,-19927.8,-31092.84,-55479.645,-27140.805,-28012.275
1764505023.079054,20816.82,-12413.88,-12889.17,-19931.13,-31096.215,-55483.245,-27143.595,-28014.165
1764505023.079054,20816.28,-12414.015,-12889.665,-19932.03,-31098.24,-55484.28,-27144.45,-28014.165
1764505023.079054,20817.54,-12412.62,-12888.63,-19931.895,-31098.555,-55484.1,-27144.045,-28013.715
1764505023.079054,20817.36,-12412.215,-12889.08,-19932.03,-31099.185,-55485.135,-27144.765,-28014.255
1764505023.079054,20816.28,-12413.115,-12889.215,-19931.175,-31097.475,-55484.595,-27144.315,-28014.48
1764505023.079054,20817.63,-12411.585,-12887.28,-19929.06,-31095.9,-55482.075,-27142.155,-28013.265
1764505023.079054,20820.735,-12407.805,-12883.32,-19925.775,-31091.58,-55478.205,-27138.69,-28009.17
1764505023.0806231,20815.785,-12412.08,-12886.875,-19929.735,-31095.45,-55482.525,-27143.37,-28013.94
1764505023.0806231,20819.16,-12407.58,-12882.825,-19925.64,-31091.31,-55478.52,-27139.995,-28011.42
1764505023.0806231,20819.205,-12407.625,-12882.24,-19924.74,-31090.815,-55477.26,-27139.14,-28011.375
1764505023.0806231,20818.215,-12409.92,-12883.455,-19924.965,-31091.67,-55477.62,-27140.04,-28012.95
1764505023.0806231,20815.11,-12413.34,-12886.335,-19927.44,-31093.02,-55479.375,-27142.38,-28014.705
1764505023.0806231,20818.17,-12410.73,-12885.03,-19926.18,-31091.58,-55477.08,-27139.23,-28011.465
1764505023.0806231,20814.345,-12413.79,-12888.54,-19930.05,-31095.63,-55479.195,-27141.705,-28013.67
1764505023.0806231,20814.795,-12414.78,-12886.83,-19929.105,-31095.225,-55479.195,-27142.02,-28012.77
1764505023.0806231,20820.15,-12410.685,-12883.365,-19925.73,-31092.48,-55477.215,-27138.375,-28008.675
1764505023.0806231,20821.86,-12409.875,-12882.825,-19924.92,-31091.58,-55476.135,-27136.935,-28007.19
1764505023.0806231,20817.045,-12414.51,-12887.145,-19929.105,-31095.18,-55479.555,-27141.48,-28011.69
1764505023.0806231,20820.015,-12410.55,-12882.105,-19925.415,-31091.76,-55476.045,-27139.14,-28009.17
1764505023.0806231,20820.105,-12409.83,-12880.08,-19922.895,-31089.825,-55475.865,-27138.87,-28009.53
1764505023.0806231,20820.105,-12411.045,-12882.51,-19924.245,-31088.97,-55474.92,-27138.915,-28009.17
1764505023.0806231,20820.51,-12411.225,-12882.87,-19924.065,-31088.25,-55473.435,-27138.465,-28008.0
1764505023.0806231,20820.78,-12409.83,-12881.115,-19922.4,-31087.755,-55472.355,-27138.015,-28008.0
1764505023.0806231,20821.23,-12409.695,-12880.845,-19922.58,-31087.71,-55471.77,-27137.475,-28008.54
1764505023.125914,20820.555,-12410.1,-12881.295,-19923.48,-31088.295,-55471.545,-27137.925,-28008.495
1764505023.125914,20821.86,-12409.695,-12881.295,-19923.345,-31087.53,-55470.195,-27137.43,-28006.875
1764505023.125914,20822.175,-12409.965,-12881.97,-19923.615,-31087.98,-55471.005,-27137.34,-28007.505
1764505023.125914,20818.485,-12413.925,-12886.335,-19926.99,-31090.59,-55474.695,-27140.715,-28011.375
1764505023.125914,20818.35,-12413.565,-12886.02,-19927.575,-31090.365,-55474.47,-27140.49,-28010.835
1764505023.125914,20818.98,-12413.07,-12883.995,-19927.44,-31090.635,-55473.885,-27140.04,-28010.745
1764505023.125914,20820.645,-12411.54,-12883.32,-19926.63,-31090.23,-55473.255,-27138.42,-28009.62
1764505023.125914,20821.995,-12411.315,-12882.195,-19925.82,-31089.645,-55473.21,-27138.15,-28008.405
1764505023.125914,20824.11,-12408.57,-12879.99,-19923.66,-31087.665,-55470.915,-27135.765,-28005.705
1764505023.125914,20819.925,-12413.16,-12885.39,-19928.565,-31092.435,-55476.135,-27141.3,-28010.79
1764505023.125914,20819.655,-12412.755,-12884.085,-19927.62,-31091.58,-55475.64,-27141.39,-28011.105
1764505023.125914,20823.615,-12409.245,-12881.025,-19924.2,-31088.16,-55470.825,-27136.755,-28007.955
1764505023.125914,20821.86,-12411.135,-12884.85,-19925.325,-31089.195,-55471.095,-27137.88,-28009.44
1764505023.125914,20816.73,-12416.31,-12890.43,-19931.22,-31093.02,-55475.55,-27142.11,-28014.795
1764505023.125914,20818.935,-12413.205,-12884.76,-19927.53,-31090.455,-55472.04,-27139.95,-28011.6
1764505023.125914,20815.515,-12415.815,-12882.42,-19925.82,-31090.77,-55472.895,-27142.02,-28014.525
1764505023.125914,20818.71,-12413.115,-12880.44,-19923.12,-31087.08,-55469.97,-27139.185,-28011.6
1764505023.1269176,20818.845,-12414.195,-12882.825,-19925.415,-31089.015,-55471.68,-27139.545,-28011.195
1764505023.1269176,20822.76,-12410.865,-12880.8,-19924.515,-31088.745,-55471.5,-27137.61,-28007.685
1764505023.1269176,20820.375,-12413.34,-12884.94,-19929.285,-31093.74,-55475.37,-27141.165,-28010.205
1764505023.1269176,20819.745,-12413.655,-12883.995,-19928.34,-31091.58,-55474.38,-27140.04,-28010.07
1764505023.1269176,20820.645,-12413.115,-12882.15,-19926.315,-31089.06,-55472.715,-27138.24,-28009.395
1764505023.170002,20822.895,-12411.225,-12880.305,-19925.19,-31088.295,-55471.275,-27136.845,-28007.415
1764505023.170002,20817.225,-12416.94,-12887.55,-19931.805,-31094.595,-55476.63,-27142.785,-28013.58
1764505023.170002,20816.91,-12417.255,-12886.965,-19929.465,-31091.49,-55474.38,-27141.705,-28013.265
1764505023.170002,20819.205,-12414.69,-12883.995,-19926.0,-31088.97,-55471.68,-27138.78,-28010.34
1764505023.170002,20817.495,-12415.995,-12885.66,-19928.07,-31091.04,-55472.985,-27140.58,-28011.69
1764505023.170002,20819.745,-12414.15,-12883.23,-19926.495,-31088.925,-55471.005,-27139.095,-28010.565
1764505023.170002,20819.43,-12414.69,-12883.32,-19926.72,-31088.88,-55471.005,-27139.05,-28011.105
1764505023.170002,20815.92,-12417.57,-12886.065,-19929.15,-31092.075,-55474.11,-27142.2,-28014.48
1764505023.170002,20817.09,-12416.175,-12884.625,-19928.385,-31091.805,-55473.66,-27140.94,-28013.715
1764505023.170002,20820.465,-12412.26,-12878.64,-19921.68,-31085.82,-55467.225,-27136.62,-28009.98
1764505023.170002,20823.165,-12410.775,-12878.595,-19922.805,-31086.405,-55467.855,-27135.81,-28007.37
1764505023.170002,20822.49,-12412.8,-12882.96,-19926.0,-31087.665,-55468.53,-27134.82,-28006.695
1764505023.170002,20821.59,-12413.34,-12883.455,-19927.17,-31089.195,-55469.475,-27135.72,-28006.83
1764505023.1715307,20819.745,-12415.5,-12884.76,-19928.88,-31092.39,-55472.58,-27139.005,-28010.43
1764505023.1715307,20822.985,-12412.575,-12880.98,-19925.505,-31089.42,-55470.105,-27136.08,-28007.685
1764505023.1715307,20820.735,-12414.105,-12881.88,-19926.495,-31089.33,-55469.79,-27137.205,-28008.855
1764505023.1715307,20817.54,-12416.85,-12883.995,-19928.88,-31092.3,-55473.255,-27140.175,-28012.815
1764505023.1715307,20817.27,-12416.94,-12884.31,-19928.97,-31092.66,-55473.615,-27140.4,-28013.085
1764505023.1715307,20817.135,-12415.995,-12884.67,-19929.24,-31092.705,-55473.3,-27140.13,-28013.22
1764505023.1715307,20816.64,-12416.445,-12884.805,-19928.745,-31091.49,-55471.77,-27139.86,-28012.86
1764505023.1715307,20819.97,-12412.62,-12880.8,-19924.335,-31087.89,-55467.585,-27137.34,-28010.025
1764505023.1715307,20816.595,-12415.365,-12883.77,-19926.9,-31090.365,-55470.06,-27139.635,-28012.68
1764505023.1715307,20813.445,-12418.74,-12888.18,-19930.545,-31094.01,-55473.75,-27142.56,-28015.74
1764505023.1715307,20817.27,-12415.545,-12884.895,-19927.89,-31091.67,-55470.33,-27139.41,-28012.725
1764505023.2196915,20817.045,-12416.085,-12885.615,-19928.025,-31091.94,-55470.285,-27138.915,-28012.68
1764505023.2196915,20814.93,-12418.515,-12887.325,-19928.97,-31093.515,-55471.68,-27140.4,-28014.165
1764505023.2196915,20817.81,-12414.465,-12880.98,-19923.885,-31088.61,-55467.09,-27135.855,-28010.97
1764505023.2196915,20816.235,-12415.23,-12881.25,-19924.65,-31089.555,-55468.53,-27137.97,-28013.265
1764505023.2196915,20818.665,-12412.35,-12879.27,-19923.48,-31089.105,-55468.44,-27136.89,-28011.105
1764505023.2196915,20815.065,-12416.715,-12883.14,-19927.845,-31092.39,-55472.22,-27140.805,-28015.02
1764505023.2196915,20817.585,-12414.645,-12881.25,-19924.695,-31088.52,-55468.44,-27137.385,-28012.5
1764505023.2207315,20815.335,-12418.155,-12883.59,-19926.81,-31089.915,-55469.16,-27138.825,-28014.075
1764505023.2207315,20815.38,-12419.73,-12885.435,-19928.745,-31090.995,-55470.105,-27138.645,-28013.49
1764505023.2207315,20814.03,-12421.845,-12889.755,-19933.83,-31095.54,-55474.515,-27141.255,-28014.84
1764505023.2207315,20819.385,-12416.175,-12886.38,-19932.075,-31095.18,-55474.425,-27138.555,-28010.925
1764505023.2207315,20817.54,-12416.49,-12884.76,-19931.715,-31095.9,-55475.1,-27140.31,-28013.22
1764505023.2207315,20812.905,-12419.73,-12884.805,-19931.49,-31095.945,-55475.415,-27142.155,-28016.73
1764505023.2207315,20814.66,-12417.165,-12882.6,-19927.665,-31092.57,-55472.265,-27139.725,-28014.39
1764505023.2207315,20815.605,-12417.48,-12883.365,-19928.295,-31092.795,-55472.4,-27140.175,-28013.805
1764505023.2207315,20815.02,-12417.93,-12883.41,-19929.105,-31092.57,-55472.85,-27139.905,-28014.66
1764505023.2207315,20813.985,-12419.145,-12884.94,-19931.265,-31093.47,-55472.49,-27139.41,-28015.425
1764505023.2207315,20812.77,-12421.215,-12887.685,-19933.155,-31096.53,-55474.245,-27141.84,-28017.09
1764505023.2207315,20812.32,-12422.385,-12889.305,-19934.865,-31099.275,-55476.81,-27144.27,-28017.27
1764505023.2207315,20817.225,-12417.435,-12884.805,-19931.04,-31095.225,-55472.94,-27139.815,-28012.68
1764505023.2207315,20818.305,-12416.85,-12883.23,-19929.645,-31093.11,-55472.13,-27139.185,-28011.96
1764505023.2207315,20816.73,-12418.155,-12884.49,-19930.68,-31092.975,-55472.49,-27140.13,-28013.265
1764505023.264901,20814.345,-12420.675,-12886.74,-19931.715,-31094.235,-55474.11,-27141.975,-28015.29
1764505023.264901,20812.32,-12423.375,-12889.44,-19934.235,-31096.845,-55476.18,-27143.46,-28017.855
1764505023.264901,20814.48,-12420.72,-12886.92,-19930.995,-31094.955,-55473.345,-27141.255,-28015.155
1764505023.264901,20812.545,-12422.88,-12888.81,-19932.615,-31096.44,-55474.74,-27143.1,-28016.415
1764505023.264901,20816.415,-12418.74,-12886.56,-19931.58,-31095.405,-55472.535,-27140.715,-28013.22
1764505023.264901,20812.68,-12422.07,-12888.18,-19932.84,-31097.115,-55474.155,-27144.0,-28017.09
1764505023.264901,20815.425,-12419.01,-12884.58,-19929.6,-31094.415,-55472.22,-27141.84,-28014.66
1764505023.264901,20815.47,-12418.65,-12883.635,-19928.16,-31094.91,-55472.805,-27142.245,-28013.715
1764505023.264901,20816.46,-12418.83,-12884.94,-19930.545,-31095.72,-55472.67,-27141.57,-28012.32
1764505023.264901,20815.47,-12421.53,-12887.865,-19932.705,-31095.54,-55472.85,-27142.065,-28014.525
1764505023.264901,20817.495,-12418.83,-12884.31,-19929.42,-31093.47,-55470.015,-27139.68,-28012.545
1764505023.2659154,20814.255,-12422.34,-12886.605,-19931.625,-31095.945,-55473.12,-27142.38,-28015.38
1764505023.2659154,20815.2,-12421.08,-12885.165,-19930.815,-31094.37,-55471.815,-27141.525,-28014.525
1764505023.2659154,20818.575,-12416.715,-12880.89,-19925.64,-31088.745,-55466.505,-27137.34,-28011.105
1764505023.2659154,20819.295,-12418.11,-12881.205,-19925.46,-31088.745,-55465.38,-27137.7,-28011.24
1764505023.2659154,20815.875,-12422.295,-12885.12,-19929.33,-31091.58,-55468.305,-27140.22,-28013.94
1764505023.2659154,20819.295,-12417.795,-12881.97,-19926.315,-31087.755,-55464.57,-27136.395,-28010.25
1764505023.2659154,20821.185,-12416.76,-12881.115,-19925.505,-31087.53,-55464.165,-27135.855,-28009.26
1764505023.2659154,20821.23,-12416.625,-12881.115,-19926.315,-31088.43,-55465.605,-27137.43,-28009.53
1764505023.2659154,20821.455,-12415.005,-12880.89,-19925.73,-31089.15,-55466.1,-27137.295,-28010.115
1764505023.2659154,20820.375,-12415.77,-12881.97,-19926.63,-31090.365,-55466.46,-27137.565,-28010.97
1764505023.2659154,20818.845,-12416.895,-12881.88,-19927.89,-31092.75,-55468.395,-27139.185,-28012.32
1764505023.2659154,20822.76,-12412.305,-12876.03,-19921.86,-31088.115,-55463.94,-27135.72,-28008.585
1764505023.2659154,20823.705,-12411.315,-12875.22,-19919.97,-31085.505,-55461.555,-27134.28,-28007.19
1764505023.3098664,20822.805,-12411.765,-12876.57,-19921.005,-31085.28,-55460.925,-27133.74,-28006.965
1764505023.3098664,20821.005,-12414.24,-12878.865,-19923.3,-31086.18,-55461.6,-27134.73,-28008.675
1764505023.3098664,20818.17,-12417.705,-12882.555,-19927.305,-31090.815,-55466.415,-27138.87,-28011.69
1764505023.3098664,20818.62,-12418.02,-12883.545,-19927.62,-31091.445,-55466.91,-27140.805,-28011.69
1764505023.3103943,20822.49,-12413.16,-12879.405,-19923.615,-31086.72,-55461.465,-27136.035,-28008.0
1764505023.3103943,20822.985,-12412.035,-12879.495,-19923.93,-31087.035,-55460.565,-27135.495,-28007.505
1764505023.3103943,20820.69,-12415.725,-12882.555,-19926.99,-31089.24,-55462.23,-27137.52,-28009.89
1764505023.3103943,20818.08,-12418.425,-12883.095,-19928.745,-31091.805,-55463.715,-27139.275,-28011.69
1764505023.3103943,20823.795,-12412.755,-12876.3,-19923.975,-31090.05,-55460.97,-27135.405,-28006.245
1764505023.3103943,20824.74,-12412.17,-12875.22,-19922.85,-31088.655,-55460.205,-27134.145,-28005.525
1764505023.3103943,20823.12,-12414.375,-12877.965,-19924.2,-31088.565,-55461.105,-27135.09,-28007.055
1764505023.3103943,20818.935,-12417.84,-12882.69,-19928.52,-31093.155,-55467.09,-27140.04,-28011.33
1764505023.3103943,20819.835,-12417.48,-12881.88,-19928.115,-31092.165,-55466.1,-27139.815,-28010.7
1764505023.3103943,20823.21,-12413.115,-12877.965,-19924.605,-31088.34,-55462.095,-27136.395,-28007.055
1764505023.3103943,20821.68,-12413.07,-12878.685,-19925.685,-31089.33,-55463.445,-27137.79,-28008.945
1764505023.3103943,20817.18,-12417.255,-12881.295,-19928.475,-31092.57,-55466.19,-27141.3,-28012.995
1764505023.3103943,20817.135,-12416.67,-12880.665,-19927.44,-31091.22,-55465.335,-27140.94,-28013.445
1764505023.3103943,20818.08,-12416.31,-12880.215,-19927.26,-31091.445,-55464.48,-27140.31,-28013.085
1764505023.3103943,20819.07,-12416.445,-12880.305,-19927.215,-31091.895,-55464.12,-27139.365,-28011.555
1764505023.3103943,20820.195,-12415.275,-12879.63,-19928.295,-31092.57,-55463.805,-27137.97,-28009.53
1764505023.3103943,20824.605,-12411.36,-12876.255,-19924.02,-31087.17,-55459.395,-27132.75,-28004.445
1764505023.3103943,20822.76,-12413.835,-12877.155,-19923.705,-31087.395,-55460.115,-27133.605,-28006.245
1764505023.3103943,20819.25,-12417.57,-12881.025,-19927.44,-31090.545,-55462.32,-27136.935,-28010.025
1764505023.3103943,20818.755,-12416.67,-12880.395,-19926.855,-31090.005,-55462.275,-27137.655,-28010.295
1764505023.3574474,20819.745,-12415.95,-12880.26,-19927.08,-31090.455,-55462.68,-27137.295,-28009.575
1764505023.3584514,20820.51,-12415.32,-12879.54,-19926.675,-31090.41,-55461.87,-27135.63,-28008.27
1764505023.3584514,20821.14,-12414.42,-12877.2,-19924.65,-31088.115,-55460.16,-27134.325,-28007.73
1764505023.3584514,20825.235,-12410.64,-12873.645,-19920.78,-31084.515,-55456.92,-27131.31,-28004.85
1764505023.3584514,20826.0,-12410.01,-12873.375,-19920.015,-31083.39,-55455.435,-27130.68,-28004.445
1764505023.3584514,20826.72,-12410.145,-12872.565,-19919.7,-31083.165,-55455.03,-27130.365,-28003.77
1764505023.3584514,20826.81,-12410.145,-12872.61,-19918.755,-31082.445,-55454.22,-27130.455,-28003.41
1764505023.3584514,20826.045,-12409.83,-12873.465,-19919.475,-31083.345,-55454.715,-27131.22,-28003.635
1764505023.3584514,20826.045,-12409.965,-12872.61,-19919.115,-31082.49,-55454.58,-27130.185,-28003.05
1764505023.3584514,20822.445,-12412.62,-12875.355,-19921.365,-31084.155,-55456.47,-27132.165,-28006.47
1764505023.3584514,20823.885,-12410.46,-12872.61,-19918.845,-31081.23,-55454.22,-27130.095,-28004.22
1764505023.3584514,20824.02,-12410.73,-12871.665,-19917.855,-31080.465,-55453.455,-27130.32,-28004.805
1764505023.3584514,20824.02,-12411.27,-12871.755,-19918.215,-31080.78,-55453.005,-27130.815,-28005.03
1764505023.3584514,20821.185,-12414.465,-12875.535,-19920.78,-31083.525,-55455.3,-27132.48,-28007.415
1764505023.3584514,20823.39,-12412.62,-12874.41,-19917.9,-31079.655,-55451.16,-27128.745,-28004.085
