Timestamp,Channel1,Channel2,Channel3,Channel4,Channel5,Channel6,Channel7,Channel8
1764504865.0184455,-5672.565,4666.095,-43789.275,-34108.155,-41131.62,-32490.765,-15841.89,668.745
1764504865.0184455,-5671.889999999999,4665.825,-43788.69,-34108.605,-41134.455,-32499.045,-15840.945,669.42
1764504865.0184455,-5666.085,4672.17,-43782.255,-34104.195,-41135.265,-32504.265,-15837.93,674.865
1764504865.0184455,-5670.224999999999,4667.67,-43787.295,-34110.405,-41144.94,-32514.795,-15841.755,671.67
1764504865.0184455,-5673.465,4664.25,-43791.255,-34113.915,-41147.955,-32516.82,-15844.095,668.2049999999999
1764504865.0195005,-5670.675,4666.41,-43788.42,-34108.38,-41139.405,-32502.42,-15842.7,670.545
1764504865.0195005,-5673.33,4664.205,-43790.175,-34108.38,-41135.445,-32494.23,-15842.925,667.845
1764504865.0195005,-5674.59,4663.17,-43791.345,-34107.39,-41130.27,-32489.775,-15842.205,667.26
1764504865.0195005,-5673.014999999999,4664.429999999999,-43790.13,-34105.68,-41129.46,-32490.045,-15841.62,668.655
1764504865.0195005,-5667.795,4670.01,-43783.695,-34099.2,-41124.825,-32485.95,-15841.08,672.48
1764504865.022032,-5668.92,4668.66,-43786.62,-34103.52,-41131.26,-32492.88,-15843.375,670.68
1764504865.022032,-5666.04,4670.685,-43784.595,-34101.765,-41130.63,-32490.855,-15841.17,674.685
1764504865.022032,-5666.4,4670.37,-43784.64,-34103.655,-41132.25,-32487.75,-15842.34,673.155
1764504865.022032,-5674.139999999999,4662.045,-43793.55,-34113.915,-41141.295,-32490.99,-15844.455,666.27
1764504865.022032,-5671.98,4664.25,-43791.255,-34112.79,-41142.195,-32493.195,-15838.785,669.78
1764504865.022032,-5667.3,4669.335,-43784.595,-34105.95,-41134.68,-32492.835,-15835.86,673.74
1764504865.022032,-5668.65,4667.445,-43787.295,-34106.895,-41135.895,-32502.96,-15841.215,671.895
1764504865.022032,-5671.575,4663.8,-43790.445,-34109.415,-41138.955,-32506.245,-15844.05,668.8349999999999
1764504865.022032,-5674.679999999999,4659.705,-43794.54,-34112.655,-41143.095,-32503.635,-15844.725,666.18
1764504865.023037,-5672.52,4661.955,-43793.055,-34111.395,-41144.895,-32500.17,-15843.375,668.385
1764504865.023037,-5669.28,4666.724999999999,-43787.475,-34106.76,-41142.555,-32501.34,-15840.405,670.05
1764504865.023037,-5671.98,4664.745,-43788.645,-34107.75,-41142.465,-32503.185,-15839.82,668.385
1764504865.023037,-5668.514999999999,4664.295,-43792.065,-34109.145,-41141.115,-32501.97,-15836.085,673.515
1764504865.023037,-5672.745,4662.045,-43793.82,-34111.17,-41142.285,-32505.57,-15841.89,666.675
1764504865.0674348,-5671.71,4663.71,-43790.715,-34108.065,-41137.02,-32499.54,-15842.295,666.63
1764504865.0674348,-5672.34,4663.485,-43791.12,-34106.895,-41133.645,-32493.69,-15843.33,666.9449999999999
1764504865.0674348,-5667.57,4668.929999999999,-43783.965,-34098.93,-41123.295,-32481.405,-15838.56,672.0749999999999
1764504865.0674348,-5669.865,4666.995,-43786.665,-34101.54,-41125.95,-32483.115,-15840.36,668.88
1764504865.0674348,-5668.29,4668.615,-43785.765,-34099.47,-41124.24,-32479.56,-15840.945,669.87
1764504865.0674348,-5664.87,4671.81,-43782.93,-34094.97,-41117.895,-32468.04,-15836.76,674.505
1764504865.0684316,-5665.5,4669.83,-43785.495,-34097.58,-41120.685,-32468.49,-15836.22,674.28
1764504865.0684316,-5665.275,4670.325,-43784.82,-34101.45,-41128.92,-32479.605,-15837.03,673.605
1764504865.0684316,-5663.115,4672.395,-43782.345,-34101.675,-41133.555,-32489.19,-15834.87,675.54
1764504865.0684316,-5669.415,4665.42,-43791.165,-34110.045,-41142.78,-32500.53,-15839.55,669.9599999999999
1764504865.0684316,-5666.94,4667.22,-43789.275,-34107.03,-41138.1,-32494.95,-15838.155,673.155
1764504865.0684316,-5668.155,4665.24,-43790.94,-34107.48,-41138.955,-32498.955,-15838.245,672.975
1764504865.0684316,-5671.844999999999,4662.585,-43793.37,-34109.01,-41139.09,-32505.57,-15838.92,668.97
1764504865.0684316,-5670.0,4665.554999999999,-43791.345,-34108.515,-41140.62,-32509.485,-15839.82,670.23
1764504865.0684316,-5666.4,4669.47,-43786.17,-34101.945,-41130.585,-32487.435,-15836.22,674.01
1764504865.0684316,-5666.264999999999,4669.065,-43786.17,-34101.315,-41126.04,-32478.075,-15835.59,673.47
1764504865.0684316,-5664.465,4671.045,-43784.415,-34101.27,-41126.85,-32478.975,-15835.95,673.29
1764504865.0684316,-5661.99,4673.61,-43782.255,-34099.425,-41123.88,-32473.845,-15834.24,677.025
1764504865.0684316,-5662.215,4673.115,-43782.93,-34100.46,-41125.545,-32475.87,-15833.025,678.06
1764504865.0684316,-5666.895,4667.895,-43787.79,-34105.815,-41133.15,-32486.175,-15837.615,672.48
1764504865.0684316,-5661.54,4673.429999999999,-43782.12,-34100.64,-41132.205,-32491.035,-15834.96,676.935
1764504865.0684316,-5661.585,4673.88,-43780.365,-34099.244999999995,-41132.835,-32498.19,-15833.07,677.385
1764504865.1134646,-5666.04,4669.38,-43785.72,-34105.005,-41140.215,-32510.835,-15834.78,673.6949999999999
1764504865.1134646,-5666.985,4668.255,-43787.655,-34106.355,-41142.87,-32515.74,-15836.04,673.38
1764504865.1134646,-5667.3,4668.66,-43786.89,-34103.34,-41135.22,-32505.075,-15837.075,673.74
1764504865.1134646,-5662.44,4674.42,-43780.005,-34097.31,-41127.48,-32494.185,-15834.42,678.42
1764504865.1134646,-5661.855,4675.41,-43778.52,-34094.115,-41120.91,-32477.985,-15832.035,679.14
1764504865.1134646,-5662.844999999999,4675.41,-43777.8,-34094.115,-41119.47,-32471.235,-15834.42,677.745
1764504865.1134646,-5664.06,4673.474999999999,-43779.24,-34094.115,-41119.38,-32470.38,-15834.735,677.385
1764504865.1134646,-5668.2,4668.3,-43784.55,-34098.75,-41124.87,-32478.165,-15838.155,672.5699999999999
1764504865.1146102,-5665.455,4672.485,-43780.365,-34096.994999999995,-41123.88,-32476.815,-15838.695,673.47
1764504865.1146102,-5660.865,4677.3,-43776.99,-34095.24,-41124.78,-32477.85,-15835.32,678.555
1764504865.1146102,-5658.344999999999,4679.955,-43774.02,-34095.869999999995,-41130.405,-32486.895,-15834.6,681.345
1764504865.1146102,-5663.25,4673.745,-43782.3,-34105.815,-41143.32,-32499.675,-15837.03,678.285
1764504865.1146102,-5661.405,4675.23,-43782.615,-34106.85,-41145.48,-32508.315,-15836.94,679.185
1764504865.1146102,-5662.755,4673.925,-43784.19,-34106.04,-41140.98,-32502.645,-15838.605,678.4649999999999
1764504865.1146102,-5663.115,4675.005,-43781.22,-34100.415,-41132.52,-32494.23,-15838.155,678.3299999999999
1764504865.1146102,-5661.719999999999,4677.3,-43775.955,-34092.765,-41121.405,-32481.765,-15832.17,679.005
1764504865.1146102,-5660.46,4677.345,-43776.27,-34090.965,-41116.905,-32472.09,-15825.51,682.6949999999999
1764504865.1146102,-5666.58,4670.685,-43782.345,-34097.13,-41123.07,-32477.355,-15828.345,677.655
1764504865.1146102,-5665.679999999999,4671.72,-43781.13,-34096.815,-41126.04,-32484.06,-15827.76,677.52
1764504865.115613,-5665.05,4672.575,-43779.555,-34095.915,-41125.77,-32483.655,-15829.29,677.655
1764504865.115613,-5660.594999999999,4676.895,-43775.865,-34092.494999999995,-41123.88,-32483.43,-15829.515,681.7049999999999
1764504865.115613,-5661.495,4676.49,-43777.215,-34094.88,-41127.93,-32489.505,-15832.215,678.1949999999999
1764504865.1594603,-5662.26,4675.41,-43777.98,-34098.165,-41131.17,-32493.6,-15832.62,677.925
1764504865.1604755,-5660.775,4677.435,-43776.765,-34097.85,-41130.855,-32495.58,-15834.105,680.31
1764504865.1604755,-5657.94,4680.179999999999,-43773.84,-34095.51,-41127.39,-32490.54,-15832.8,682.92
1764504865.1604755,-5655.645,4682.07,-43772.22,-34091.19,-41120.055,-32477.67,-15827.94,686.745
1764504865.1604755,-5656.275,4680.855,-43774.56,-34091.505,-41120.28,-32475.78,-15826.995,686.43
1764504865.1604755,-5662.8,4674.375,-43780.455,-34097.355,-41128.02,-32484.285,-15830.235,680.0849999999999
1764504865.1614964,-5658.57,4679.46,-43774.155,-34091.64,-41125.32,-32488.47,-15826.905,684.63
1764504865.1614964,-5661.81,4673.88,-43780.635,-34097.085,-41130.405,-32496.525,-15828.03,683.64
1764504865.1624992,-5660.955,4675.5,-43780.05,-34093.44,-41123.295,-32485.995,-15826.05,684.9449999999999
1764504865.1624992,-5663.25,4676.715,-43776.135,-34087.815,-41111.64,-32463.18,-15825.735,680.985
1764504865.1624992,-5666.264999999999,4671.81,-43779.24,-34091.28,-41112.54,-32459.4,-15826.23,677.97
1764504865.1624992,-5665.05,4673.025,-43778.61,-34091.685,-41112.99,-32460.165,-15825.96,679.5899999999999
1764504865.1624992,-5663.565,4674.06,-43778.61,-34093.665,-41114.925,-32461.47,-15825.465,682.1999999999999
1764504865.1638331,-5665.679999999999,4672.304999999999,-43781.76,-34095.33,-41114.88,-32460.57,-15828.03,680.13
1764504865.1638331,-5666.085,4671.764999999999,-43781.715,-34095.195,-41113.98,-32459.805,-15828.615,679.365
1764504865.1638331,-5665.679999999999,4672.575,-43780.005,-34095.465,-41117.76,-32463.945,-15830.28,678.735
1764504865.164478,-5668.02,4669.965,-43783.515,-34100.865,-41123.565,-32472.315,-15833.52,675.18
1764504865.164478,-5666.175,4671.405,-43783.515,-34102.98,-41128.2,-32484.33,-15834.24,676.845
1764504865.164478,-5661.99,4674.51,-43781.67,-34102.53,-41131.98,-32491.89,-15830.28,682.47
1764504865.164478,-5664.06,4671.945,-43783.155,-34104.15,-41135.13,-32495.58,-15830.235,680.9399999999999
1764504865.164478,-5659.425,4677.165,-43777.62,-34097.445,-41129.46,-32492.97,-15826.095,685.395
1764504865.164478,-5661.495,4676.49,-43777.98,-34098.84,-41135.805,-32503.545,-15828.39,681.885
1764504865.165475,-5663.7,4675.185,-43779.24,-34101.45,-41141.88,-32513.895,-15830.595,679.14
1764504865.165475,-5663.745,4674.06,-43780.995,-34099.2,-41133.555,-32500.98,-15830.955,679.635
1764504865.206357,-5660.505,4678.2,-43776.09,-34092.405,-41122.26,-32486.265,-15826.32,682.9649999999999
1764504865.206357,-5664.825,4674.735,-43778.295,-34091.955,-41118.12,-32481.54,-15829.29,677.97
1764504865.206357,-5662.44,4677.21,-43776.315,-34089.66,-41115.24,-32477.265,-15827.49,680.175
1764504865.206357,-5661.27,4677.615,-43775.73,-34090.11,-41114.25,-32473.305,-15826.14,681.7049999999999
1764504865.206357,-5666.985,4670.505,-43781.895,-34096.545,-41118.57,-32472.765,-15828.165,676.755
1764504865.206357,-5668.605,4669.695,-43783.29,-34098.795,-41120.1,-32468.265,-15830.19,675.81
1764504865.206357,-5666.625,4672.08,-43781.58,-34098.119999999995,-41121.765,-32470.74,-15831.27,677.43
1764504865.206357,-5661.179999999999,4677.165,-43776.18,-34097.085,-41125.095,-32475.06,-15831.315,681.615
1764504865.206357,-5659.695,4678.11,-43775.865,-34102.305,-41137.56,-32490.72,-15834.465,682.605
1764504865.206357,-5661.63,4675.995,-43779.015,-34108.47,-41148.495,-32505.345,-15838.605,679.68
1764504865.206357,-5658.21,4679.91,-43776.855,-34104.645,-41143.815,-32502.285,-15835.815,682.6949999999999
1764504865.206357,-5661.945,4676.355,-43780.32,-34105.815,-41144.67,-32511.6,-15836.49,679.8149999999999
1764504865.206357,-5669.594999999999,4667.175,-43786.305,-34107.615,-41141.34,-32510.34,-15832.35,674.4599999999999
1764504865.206357,-5669.415,4667.085,-43784.055,-34098.66,-41124.6,-32486.94,-15826.905,675.495
1764504865.206357,-5665.995,4672.17,-43777.17,-34087.005,-41108.265,-32464.305,-15822.585,679.005
1764504865.206357,-5668.2,4671.36,-43777.125,-34086.105,-41103.63,-32457.24,-15825.825,675.9
1764504865.206357,-5666.895,4672.62,-43778.16,-34088.13,-41106.33,-32459.13,-15827.985,676.8
1764504865.206357,-5661.135,4679.01,-43772.085,-34085.25,-41106.915,-32460.345,-15825.33,682.29
1764504865.206357,-5659.02,4679.415,-43771.59,-34089.705,-41115.33,-32470.695,-15825.33,684.18
1764504865.206357,-5658.57,4678.245,-43774.38,-34094.88,-41126.265,-32483.835,-15828.48,684.99
1764504865.206357,-5653.62,4685.535,-43767.675,-34088.715,-41124.78,-32484.69,-15828.75,687.105
1764504865.206357,-5656.679999999999,4680.72,-43772.895,-34093.35,-41129.55,-32492.655,-15831.765,684.18
1764504865.206357,-5661.63,4673.835,-43779.69,-34097.22,-41129.955,-32493.06,-15831.18,680.4449999999999
1764504865.206357,-5661.0,4675.005,-43778.7,-34093.845,-41123.475,-32485.68,-15825.87,682.0649999999999
1764504865.2516596,-5665.094999999999,4670.505,-43783.02,-34096.68,-41121.855,-32477.895,-15826.905,678.15
1764504865.2516596,-5663.25,4673.34,-43779.195,-34092.045,-41116.545,-32471.955,-15825.87,680.13
1764504865.2516596,-5659.245,4677.345,-43774.605,-34087.41,-41110.11,-32460.75,-15821.82,684.9449999999999
1764504865.2516596,-5659.785,4675.679999999999,-43776.135,-34090.155,-41111.955,-32458.815,-15821.91,683.73
1764504865.2516596,-5661.495,4673.925,-43778.385,-34093.665,-41116.68,-32465.61,-15824.7,681.885
1764504865.2516596,-5657.985,4677.705,-43775.505,-34091.505,-41116.77,-32468.625,-15822.495,685.0799999999999
1764504865.2526753,-5657.264999999999,4677.345,-43774.965,-34092.494999999995,-41120.415,-32472.675,-15822.495,685.2149999999999
1764504865.2526753,-5658.75,4675.365,-43777.215,-34096.994999999995,-41125.77,-32479.155,-15826.68,683.055
1764504865.2526753,-5660.639999999999,4674.15,-43779.15,-34098.345,-41128.065,-32481.855,-15828.525,680.76
1764504865.2526753,-5660.46,4674.33,-43779.06,-34098.57,-41127.525,-32482.98,-15829.92,680.31
1764504865.2526753,-5656.139999999999,4678.56,-43774.11,-34094.61,-41123.34,-32477.94,-15828.165,684.045
1764504865.2526753,-5656.185,4679.01,-43773.345,-34093.845,-41122.89,-32473.98,-15827.895,684.225
1764504865.2526753,-5659.965,4675.455,-43776.99,-34097.13,-41125.455,-32475.87,-15830.595,680.76
1764504865.2526753,-5658.974999999999,4675.679999999999,-43778.475,-34099.244999999995,-41127.885,-32481.405,-15830.82,681.75
1764504865.2526753,-5654.88,4679.37,-43775.55,-34096.59,-41125.59,-32486.58,-15828.345,685.755
1764504865.2526753,-5652.315,4682.205,-43772.265,-34094.7,-41126.04,-32496.165,-15826.77,687.4649999999999
1764504865.2526753,-5653.035,4682.16,-43773.255,-34094.295,-41128.155,-32499.36,-15827.085,687.1949999999999
1764504865.2526753,-5660.639999999999,4673.474999999999,-43781.355,-34100.82,-41136.84,-32504.445,-15831.315,680.4
1764504865.2526753,-5659.335,4675.545,-43779.105,-34096.815,-41133.78,-32497.515,-15829.875,681.3
1764504865.2526753,-5657.445,4677.929999999999,-43776.99,-34089.84,-41124.24,-32482.44,-15825.105,685.125
1764504865.2526753,-5658.12,4678.11,-43774.47,-34084.44,-41113.53,-32468.13,-15821.37,684.9449999999999
1764504865.2526753,-5661.764999999999,4671.405,-43781.49,-34088.85,-41110.605,-32459.67,-15821.865,681.255
1764504865.2983673,-5659.65,4674.014999999999,-43778.52,-34087.275,-41106.96,-32451.48,-15823.395,681.48
1764504865.2983673,-5657.219999999999,4677.57,-43775.415,-34087.5,-41109.615,-32453.19,-15823.125,683.1
1764504865.2983673,-5651.865,4682.655,-43771.455,-34085.79,-41111.55,-32455.26,-15821.505,687.3299999999999
1764504865.2983673,-5649.255,4686.075,-43768.755,-34087.32,-41117.805,-32465.61,-15824.745,689.535
1764504865.2983673,-5647.724999999999,4687.38,-43767.855,-34090.38,-41126.04,-32480.55,-15828.93,689.985
1764504865.2983673,-5653.665,4682.16,-43773.705,-34097.67,-41134.86,-32498.955,-15838.605,682.515
1764504865.2983673,-5653.26,4682.61,-43773.795,-34096.635,-41134.95,-32505.705,-15836.445,683.91
1764504865.2983673,-5653.844999999999,4679.46,-43776.81,-34098.3,-41133.465,-32504.94,-15828.39,685.485
1764504865.2983673,-5652.585,4679.505,-43774.83,-34090.965,-41118.345,-32485.86,-15820.245,688.185
1764504865.2983673,-5656.815,4676.445,-43775.28,-34086.96,-41111.685,-32476.77,-15822.63,683.1
1764504865.2983673,-5657.04,4676.625,-43774.965,-34085.565,-41112.135,-32479.83,-15821.865,683.28
1764504865.2983673,-5654.835,4679.46,-43773.12,-34083.405,-41110.785,-32473.17,-15818.22,687.06
1764504865.2983673,-5653.844999999999,4681.08,-43771.005,-34079.895,-41105.7,-32463.36,-15817.68,687.24
1764504865.2983673,-5652.0,4682.385,-43768.665,-34077.915,-41101.65,-32456.61,-15816.555,687.87
1764504865.2983673,-5649.795,4684.095,-43766.955,-34077.195,-41098.275,-32446.665,-15815.79,689.76
1764504865.2983673,-5651.054999999999,4683.51,-43768.98,-34081.515,-41105.88,-32454.855,-15820.065,687.915
1764504865.2983673,-5650.83,4683.735,-43769.7,-34083.81,-41111.505,-32464.395,-15821.91,687.51
1764504865.2983673,-5653.44,4681.304999999999,-43771.455,-34088.31,-41118.03,-32471.055,-15825.06,685.0799999999999
1764504865.2983673,-5649.84,4684.86,-43768.89,-34087.545,-41118.03,-32471.37,-15823.665,688.635
1764504865.2983673,-5651.639999999999,4682.835,-43771.545,-34092.9,-41122.665,-32475.42,-15826.095,685.7099999999999
1764504865.2983673,-5657.175,4676.22,-43778.745,-34099.92,-41127.93,-32477.13,-15827.22,682.47
1764504865.2983673,-5655.465,4677.705,-43777.035,-34097.04,-41125.005,-32475.195,-15823.395,685.485
1764504865.2983673,-5657.13,4675.005,-43779.6,-34096.77,-41124.69,-32477.04,-15822.9,683.4599999999999
1764504865.2983673,-5657.625,4674.195,-43779.285,-34096.59,-41127.75,-32484.465,-15823.89,682.6949999999999
1764504865.3431325,-5653.53,4680.135,-43772.625,-34091.64,-41125.005,-32481.72,-15821.415,687.15
1764504865.3431325,-5656.545,4676.445,-43776.855,-34094.79,-41126.085,-32484.195,-15826.365,683.01
1764504865.3431325,-5651.145,4682.295,-43771.05,-34088.4,-41119.02,-32481.54,-15826.275,687.87
1764504865.3431325,-5650.514999999999,4683.69,-43769.115,-34084.98,-41113.665,-32476.77,-15827.22,688.005
1764504865.3431325,-5651.145,4685.49,-43767.18,-34082.595,-41110.83,-32472.27,-15827.715,684.855
1764504865.3431325,-5657.219999999999,4678.56,-43773.795,-34092.315,-41121.315,-32483.655,-15832.17,679.545
1764504865.3431325,-5657.94,4676.985,-43776.945,-34096.365,-41125.455,-32487.795,-15832.125,680.355
1764504865.3431325,-5657.219999999999,4677.12,-43777.575,-34096.77,-41124.78,-32483.52,-15828.975,681.75
1764504865.3431325,-5655.645,4679.595,-43775.1,-34092.494999999995,-41119.425,-32477.49,-15825.465,683.865
1764504865.3431325,-5650.245,4685.355,-43769.025,-34084.17,-41108.58,-32465.34,-15820.2,689.985
1764504865.3431325,-5650.965,4683.69,-43771.365,-34086.015,-41109.705,-32464.215,-15817.68,690.93
1764504865.3431325,-5657.264999999999,4676.58,-43777.575,-34092.9,-41117.265,-32473.125,-15821.145,685.035
1764504865.3431325,-5654.25,4680.179999999999,-43773.255,-34088.265,-41112.45,-32468.22,-15819.345,687.645
1764504865.3431325,-5657.849999999999,4676.804999999999,-43776.9,-34091.1,-41112.765,-32464.17,-15822.0,683.28
1764504865.3431325,-5657.085,4678.514999999999,-43774.515,-34089.21,-41109.255,-32456.16,-15821.73,683.1
1764504865.3431325,-5649.929999999999,4685.895,-43768.17,-34084.845,-41108.355,-32453.955,-15818.985,688.86
1764504865.3431325,-5647.05,4689.045,-43764.345,-34082.685,-41111.1,-32460.93,-15818.85,690.525
1764504865.3431325,-5651.505,4682.52,-43770.87,-34087.14,-41117.13,-32475.375,-15818.94,689.535
1764504865.3431325,-5656.23,4675.41,-43778.745,-34094.925,-41123.655,-32491.215,-15820.47,686.79
1764504865.3431325,-5652.9,4680.99,-43772.895,-34090.92,-41120.19,-32493.87,-15821.595,687.645
1764504865.3431325,-5650.38,4685.175,-43768.62,-34084.89,-41107.86,-32474.025,-15822.63,689.625
1764504865.3431325,-5656.77,4680.09,-43773.075,-34089.165,-41111.1,-32468.04,-15827.67,683.235
1764504865.3929183,-5653.44,4683.554999999999,-43768.44,-34085.88,-41110.38,-32462.235,-15823.755,685.755
1764504865.3929183,-5652.945,4683.645,-43769.97,-34089.795,-41117.76,-32474.07,-15823.44,686.475
1764504865.3929183,-5653.26,4682.7,-43771.455,-34091.235,-41121.09,-32483.475,-15823.89,687.15
1764504865.3929183,-5652.27,4682.429999999999,-43771.59,-34090.02,-41119.83,-32485.095,-15819.48,688.77
1764504865.3929183,-5648.264999999999,4687.965,-43764.39,-34081.875,-41111.595,-32476.995,-15812.955,693.0
1764504865.3929183,-5648.715,4688.054999999999,-43761.645,-34077.6,-41101.965,-32457.735,-15811.335,692.73
1764504865.3929183,-5650.38,4682.655,-43770.375,-34085.07,-41108.94,-32461.92,-15812.145,692.91
1764504865.3929183,-5649.75,4683.33,-43770.87,-34087.005,-41112.855,-32470.2,-15813.855,692.145
1764504865.3929183,-5652.135,4682.925,-43771.365,-34087.77,-41112.945,-32469.075,-15817.365,689.805
1764504865.3941538,-5659.92,4675.635,-43779.78,-34094.475,-41118.75,-32474.88,-15823.17,682.92
1764504865.3941538,-5659.83,4675.545,-43778.565,-34090.38,-41111.19,-32467.545,-15823.305,683.01
1764504865.3941538,-5656.094999999999,4679.865,-43773.795,-34085.34,-41103.36,-32457.645,-15820.47,687.915
1764504865.3941538,-5655.24,4681.26,-43772.625,-34087.14,-41107.14,-32457.195,-15820.245,688.005
1764504865.3941538,-5657.715,4679.235,-43775.82,-34094.07,-41116.995,-32464.575,-15824.295,684.675
1764504865.3941538,-5655.645,4681.71,-43773.255,-34094.655,-41123.07,-32472.855,-15822.765,686.52
1764504865.3941538,-5651.37,4685.22,-43769.43,-34092.855,-41127.345,-32476.545,-15819.75,690.12
1764504865.3941538,-5645.565,4690.71,-43764.57,-34089.57,-41126.4,-32477.13,-15817.365,695.385
1764504865.3941538,-5646.42,4688.955,-43766.055,-34090.38,-41126.04,-32478.39,-15818.58,695.16
1764504865.3941538,-5646.599999999999,4688.82,-43766.73,-34088.22,-41119.965,-32474.745,-15818.13,695.25
1764504865.3941538,-5650.065,4686.03,-43768.215,-34085.79,-41113.395,-32472.63,-15819.975,692.055
1764504865.3941538,-5650.514999999999,4684.724999999999,-43767.585,-34081.47,-41106.015,-32465.97,-15819.075,691.38
1764504865.3941538,-5651.145,4684.59,-43766.19,-34079.625,-41103.45,-32461.38,-15819.795,689.31
1764504865.3941538,-5647.275,4689.36,-43761.015,-34074.765,-41098.77,-32454.765,-15816.87,693.045
1764504865.3941538,-5651.639999999999,4682.745,-43769.79,-34085.34,-41109.39,-32461.245,-15818.04,690.66
1764504865.4392292,-5653.17,4681.17,-43771.5,-34089.615,-41116.995,-32472.045,-15820.92,688.23
1764504865.4392292,-5649.165,4685.849999999999,-43766.91,-34085.43,-41116.815,-32475.69,-15819.03,692.01
1764504865.4392292,-5649.615,4683.96,-43769.115,-34086.42,-41119.47,-32480.865,-15819.39,691.11
1764504865.4392292,-5653.844999999999,4678.47,-43774.515,-34090.29,-41118.525,-32480.865,-15820.425,688.005
1764504865.4392292,-5655.645,4676.985,-43774.515,-34089.119999999995,-41112.99,-32474.61,-15820.92,686.61
1764504865.4392292,-5658.435,4674.87,-43775.64,-34089.03,-41110.065,-32465.205,-15822.765,682.8299999999999
1764504865.4392292,-5652.63,4680.585,-43770.645,-34083.315,-41100.885,-32450.355,-15818.355,687.78
1764504865.4392292,-5650.74,4682.474999999999,-43769.205,-34084.08,-41103.09,-32454.09,-15819.84,689.0849999999999
1764504865.4392292,-5648.94,4684.05,-43768.215,-34084.665,-41110.155,-32462.82,-15819.075,690.435
1764504865.4392292,-5651.145,4681.889999999999,-43769.88,-34087.14,-41117.13,-32469.57,-15817.68,688.3199999999999
1764504865.4392292,-5651.505,4681.26,-43772.445,-34089.93,-41119.47,-32468.4,-15818.445,688.8149999999999
1764504865.4392292,-5650.469999999999,4682.835,-43771.59,-34088.22,-41118.12,-32468.22,-15817.77,690.3
1764504865.4407644,-5651.865,4680.81,-43773.39,-34090.695,-41120.055,-32472.09,-15818.265,688.095
1764504865.4407644,-5647.995,4685.76,-43768.98,-34085.205,-41112.045,-32466.465,-15820.02,690.8399999999999
1764504865.4407644,-5647.23,4688.235,-43765.83,-34080.57,-41109.435,-32467.095,-15821.595,690.525
1764504865.4407644,-5648.76,4686.885,-43763.985,-34077.78,-41105.295,-32462.775,-15820.785,687.78
1764504865.4407644,-5651.594999999999,4684.275,-43764.795,-34079.355,-41105.34,-32465.565,-15820.515,685.62
1764504865.4407644,-5648.445,4687.38,-43763.4,-34078.95,-41101.11,-32458.68,-15818.67,688.77
1764504865.4407644,-5646.465,4688.19,-43762.95,-34079.175,-41101.02,-32459.31,-15815.115,690.93
1764504865.4407644,-5646.195,4688.865,-43761.375,-34078.005,-41100.84,-32460.795,-15814.08,691.605
1764504865.4407644,-5649.344999999999,4683.78,-43766.82,-34083.135,-41104.755,-32459.355,-15816.6,689.175
1764504865.4407644,-5653.395,4679.505,-43773.84,-34091.325,-41116.59,-32470.56,-15823.08,685.485
1764504865.4407644,-5652.764999999999,4681.71,-43774.02,-34094.7,-41125.59,-32479.965,-15824.655,685.755
1764504865.4407644,-5650.469999999999,4683.915,-43772.895,-34096.86,-41132.34,-32490.09,-15824.97,686.8349999999999
1764504865.4842372,-5646.33,4687.38,-43769.835,-34093.845,-41128.335,-32490.18,-15821.055,691.515
1764504865.4842372,-5653.17,4680.135,-43775.37,-34095.105,-41125.455,-32488.875,-15825.6,685.395
1764504865.4842372,-5656.094999999999,4676.76,-43776.09,-34090.11,-41112.63,-32471.595,-15823.845,683.235
1764504865.4842372,-5656.59,4676.31,-43775.235,-34091.28,-41113.62,-32469.12,-15822.855,683.055
1764504865.4842372,-5654.16,4679.37,-43773.03,-34091.1,-41117.265,-32473.215,-15822.72,684.675
1764504865.4842372,-5655.285,4678.47,-43774.47,-34092.765,-41120.955,-32478.57,-15822.405,683.595
1764504865.4842372,-5658.705,4673.88,-43780.14,-34096.23,-41120.82,-32473.845,-15820.38,682.47
1764504865.4842372,-5660.82,4669.38,-43784.55,-34097.04,-41117.49,-32466.87,-15820.74,681.75
1764504865.4842372,-5650.695,4681.665,-43771.095,-34086.375,-41110.515,-32463.99,-15819.03,687.6899999999999
1764504865.4842372,-5646.285,4687.74,-43764.66,-34082.64,-41111.73,-32463.135,-15817.725,691.0649999999999
1764504865.4842372,-5645.429999999999,4689.405,-43762.365,-34081.605,-41111.64,-32461.785,-15817.815,692.01
1764504865.4842372,-5652.224999999999,4684.05,-43766.505,-34085.655,-41113.44,-32461.02,-15822.63,685.7099999999999
1764504865.4842372,-5649.389999999999,4683.15,-43769.565,-34087.95,-41114.655,-32466.15,-15819.03,690.12
1764504865.4842372,-5647.094999999999,4685.804999999999,-43767.72,-34086.69,-41114.25,-32473.44,-15819.75,690.885
1764504865.4842372,-5647.139999999999,4686.03,-43767.27,-34086.105,-41114.61,-32478.21,-15820.875,689.67
1764504865.4842372,-5650.695,4681.71,-43771.455,-34088.985,-41118.255,-32482.44,-15821.235,686.295
1764504865.4842372,-5649.48,4682.655,-43770.735,-34087.14,-41115.195,-32469.75,-15817.725,689.0849999999999
1764504865.4842372,-5654.34,4678.38,-43775.37,-34092.9,-41119.605,-32469.57,-15821.55,684.5849999999999
1764504865.4842372,-5655.15,4677.525,-43777.305,-34095.105,-41123.295,-32473.89,-15824.295,683.55
1764504865.4842372,-5653.844999999999,4678.83,-43775.955,-34093.215,-41123.385,-32476.5,-15827.22,685.125
1764504865.4842372,-5647.815,4685.94,-43767.675,-34085.61,-41117.4,-32472.405,-15826.23,689.13
1764504865.4842372,-5651.325,4684.095,-43768.755,-34088.85,-41122.53,-32481.36,-15830.82,684.135
1764504865.4853556,-5649.255,4685.804999999999,-43767.675,-34089.03,-41124.24,-32487.255,-15825.33,687.735
1764504865.4853556,-5655.78,4678.2,-43775.73,-34095.24,-41127.615,-32494.455,-15824.43,683.415
1764504865.5300603,-5657.49,4676.31,-43777.485,-34093.89,-41118.075,-32478.21,-15822.765,682.3349999999999
1764504865.5300603,-5657.13,4677.705,-43774.515,-34087.994999999995,-41106.645,-32458.725,-15820.74,683.235
1764504865.5300603,-5655.195,4680.135,-43770.915,-34082.369999999995,-41098.5,-32447.34,-15820.695,684.72
1764504865.5300603,-5655.96,4678.11,-43775.145,-34085.88,-41102.28,-32448.915,-15821.685,684.045
1764504865.5300603,-5652.45,4679.55,-43774.83,-34088.13,-41107.185,-32454.765,-15820.155,686.97
1764504865.5300603,-5653.125,4679.91,-43774.515,-34091.28,-41113.755,-32463.0,-15822.72,685.8
1764504865.5320532,-5648.219999999999,4684.86,-43769.07,-34086.33,-41111.1,-32463.99,-15821.595,689.985
1764504865.5320532,-5649.75,4683.51,-43770.555,-34087.994999999995,-41115.96,-32471.82,-15821.91,689.13
1764504865.5320532,-5652.9,4681.304999999999,-43771.995,-34088.76,-41116.815,-32471.19,-15822.99,686.61
1764504865.5320532,-5651.325,4683.06,-43770.105,-34085.34,-41110.065,-32462.145,-15821.055,688.905
1764504865.5320532,-5652.224999999999,4681.71,-43772.895,-34085.61,-41108.67,-32462.73,-15818.175,689.355
1764504865.5320532,-5656.679999999999,4677.66,-43774.56,-34085.115,-41106.915,-32465.88,-15819.93,684.135
1764504865.5320532,-5657.94,4677.84,-43774.92,-34086.869999999995,-41111.055,-32472.045,-15821.01,683.505
1764504865.5320532,-5657.219999999999,4679.37,-43774.38,-34089.885,-41117.445,-32477.895,-15822.585,684.495
1764504865.5320532,-5654.52,4682.205,-43771.275,-34089.345,-41119.245,-32475.735,-15821.19,686.8349999999999
1764504865.5320532,-5651.325,4685.264999999999,-43767.855,-34088.67,-41118.705,-32470.965,-15820.245,689.49
1764504865.5320532,-5648.13,4688.37,-43766.055,-34087.455,-41118.165,-32470.47,-15818.58,692.3249999999999
1764504865.5320532,-5653.17,4682.07,-43771.545,-34091.775,-41119.695,-32474.61,-15821.19,688.545
1764504865.5320532,-5657.219999999999,4678.11,-43776.09,-34094.07,-41119.74,-32479.65,-15823.485,684.72
1764504865.5320532,-5657.219999999999,4678.11,-43775.955,-34091.955,-41116.365,-32482.035,-15824.25,684.18
1764504865.5320532,-5654.34,4681.08,-43772.175,-34085.565,-41108.58,-32472.405,-15821.775,687.78
1764504865.5320532,-5653.71,4683.06,-43769.52,-34081.515,-41102.28,-32459.04,-15819.255,688.095
1764504865.5785313,-5654.565,4681.935,-43769.79,-34082.235,-41102.415,-32448.87,-15817.635,687.78
1764504865.5785313,-5656.815,4678.92,-43773.435,-34087.635,-41110.29,-32454.405,-15821.28,684.5849999999999
1764504865.5785313,-5652.9,4682.97,-43769.655,-34084.305,-41110.065,-32461.875,-15820.425,687.78
1764504865.5785313,-5656.23,4680.135,-43772.94,-34087.05,-41111.055,-32467.095,-15823.17,684.63
1764504865.5785313,-5655.014999999999,4680.495,-43773.48,-34086.24,-41106.105,-32459.13,-15822.495,686.385
1764504865.5785313,-5656.455,4679.595,-43774.245,-34088.22,-41107.005,-32458.995,-15825.105,684.135
1764504865.5785313,-5659.469999999999,4676.625,-43777.305,-34092.72,-41111.955,-32461.74,-15826.14,681.66
1764504865.5785313,-5659.38,4676.67,-43778.205,-34094.97,-41118.39,-32468.04,-15825.42,682.92
1764504865.5785313,-5652.945,4682.385,-43773.345,-34091.685,-41119.38,-32472.99,-15821.505,688.995
1764504865.5785313,-5652.315,4682.7,-43773.39,-34092.99,-41123.565,-32482.26,-15821.91,688.86
1764504865.5785313,-5653.844999999999,4681.485,-43774.965,-34097.085,-41131.17,-32497.47,-15826.95,685.755
1764504865.5785313,-5652.045,4685.085,-43770.42,-34090.65,-41124.69,-32494.32,-15827.715,687.8249999999999
1764504865.5785313,-5659.155,4676.985,-43778.565,-34095.915,-41124.78,-32486.895,-15828.255,683.055
1764504865.5785313,-5659.2,4674.825,-43782.21,-34098.84,-41124.6,-32476.815,-15826.32,683.235
1764504865.5797858,-5653.395,4683.51,-43771.68,-34087.32,-41111.505,-32459.715,-15823.8,686.385
1764504865.5797858,-5659.02,4677.66,-43777.755,-34091.82,-41113.035,-32460.75,-15825.735,682.6949999999999
1764504865.5797858,-5655.06,4679.685,-43775.19,-34091.325,-41115.195,-32464.98,-15821.19,685.5749999999999
1764504865.5797858,-5649.615,4687.47,-43765.74,-34083.72,-41109.615,-32464.215,-15819.84,688.545
1764504865.5797858,-5649.075,4687.02,-43767.09,-34084.53,-41110.29,-32464.215,-15820.065,688.8149999999999
1764504865.5797858,-5650.155,4684.905,-43770.465,-34085.88,-41108.355,-32461.02,-15821.235,687.9599999999999
1764504865.5797858,-5649.03,4685.535,-43769.43,-34081.965,-41099.715,-32449.41,-15820.605,690.0749999999999
1764504865.5797858,-5645.7,4688.82,-43765.74,-34077.105,-41096.7,-32447.43,-15817.77,693.0899999999999
1764504865.624863,-5651.19,4683.285,-43772.175,-34084.8,-41108.265,-32461.065,-15821.235,688.5
1764504865.624863,-5647.455,4687.02,-43770.24,-34084.305,-41111.46,-32463.045,-15817.59,693.18
1764504865.624863,-5641.65,4693.005,-43762.635,-34076.79,-41104.305,-32459.355,-15813.9,697.095
1764504865.624863,-5643.585,4691.925,-43764.12,-34079.625,-41107.995,-32471.28,-15815.97,695.25
1764504865.624863,-5646.105,4688.775,-43768.665,-34086.555,-41116.455,-32483.205,-15819.48,693.27
1764504865.624863,-5642.955,4690.935,-43765.92,-34082.955,-41111.19,-32471.955,-15816.69,696.1949999999999
1764504865.624863,-5642.37,4692.599999999999,-43762.815,-34077.96,-41104.125,-32460.165,-15814.8,695.745
1764504865.624863,-5645.07,4690.98,-43763.76,-34078.005,-41105.97,-32465.25,-15817.095,691.92
1764504865.624863,-5645.115,4689.855,-43765.11,-34080.075,-41110.83,-32473.53,-15815.79,692.64
1764504865.624863,-5644.98,4688.955,-43765.425,-34081.155,-41110.38,-32466.33,-15812.595,694.26
1764504865.624863,-5646.96,4684.995,-43769.61,-34082.91,-41104.935,-32451.975,-15811.245,692.91
1764504865.624863,-5647.094999999999,4685.625,-43768.35,-34079.265,-41097.24,-32442.3,-15812.145,692.8199999999999
1764504865.6260812,-5645.61,4689.179999999999,-43766.37,-34077.465,-41095.35,-32439.87,-15812.145,694.35
1764504865.6260812,-5645.474999999999,4688.639999999999,-43766.82,-34079.58,-41098.365,-32445.81,-15813.9,693.405
1764504865.6260812,-5645.969999999999,4688.73,-43767.99,-34082.19,-41102.64,-32456.925,-15814.485,692.8199999999999
1764504865.6260812,-5649.12,4684.23,-43772.355,-34086.195,-41108.58,-32469.21,-15815.7,690.255
1764504865.6260812,-5645.52,4687.605,-43767.63,-34082.865,-41107.59,-32469.03,-15814.305,693.72
1764504865.6260812,-5648.715,4684.86,-43769.97,-34086.195,-41111.19,-32468.22,-15818.13,690.2099999999999
1764504865.6260812,-5643.54,4689.855,-43764.345,-34081.47,-41109.48,-32463.54,-15816.87,694.125
1764504865.6260812,-5643.945,4689.405,-43763.31,-34082.91,-41113.575,-32465.79,-15819.39,692.9549999999999
1764504865.6260812,-5646.735,4687.47,-43766.64,-34087.815,-41121.72,-32482.08,-15823.62,688.4549999999999
1764504865.6260812,-5645.655,4687.92,-43766.64,-34086.69,-41118.93,-32480.73,-15823.17,690.12
1764504865.6260812,-5641.695,4691.655,-43762.68,-34081.244999999995,-41110.83,-32469.12,-15820.965,694.395
1764504865.6260812,-5642.82,4690.395,-43764.435,-34082.1,-41111.01,-32470.2,-15821.37,692.145
1764504865.6686149,-5648.264999999999,4684.005,-43770.915,-34085.52,-41111.28,-32463.99,-15822.81,687.555
1764504865.6686149,-5651.865,4679.73,-43774.875,-34088.355,-41109.795,-32457.375,-15822.855,684.81
1764504865.6686149,-5649.255,4681.98,-43772.58,-34085.61,-41104.17,-32450.805,-15817.77,687.645
1764504865.6686149,-5645.7,4685.4,-43769.07,-34082.369999999995,-41100.615,-32444.595,-15814.035,691.425
1764504865.6686149,-5648.895,4682.7,-43773.075,-34087.905,-41109.12,-32453.595,-15817.095,688.185
1764504865.6686149,-5647.95,4684.05,-43771.005,-34088.085,-41112.405,-32458.725,-15818.76,687.735
1764504865.6686149,-5648.67,4683.105,-43771.815,-34089.119999999995,-41115.195,-32461.785,-15819.21,687.06
1764504865.6686149,-5648.58,4682.52,-43773.615,-34091.28,-41116.32,-32461.965,-15819.435,688.3199999999999
1764504865.6686149,-5642.505,4688.685,-43767.855,-34084.71,-41110.065,-32456.43,-15815.97,694.17
1764504865.6686149,-5640.344999999999,4691.295,-43764.975,-34081.2,-41109.975,-32460.03,-15814.755,695.475
1764504865.6686149,-5640.389999999999,4690.575,-43764.66,-34079.58,-41108.355,-32460.21,-15810.93,696.42
1764504865.6686149,-5643.54,4687.38,-43766.865,-34080.255,-41110.785,-32467.59,-15812.37,694.53
1764504865.6686149,-5641.02,4690.08,-43764.165,-34076.565,-41107.455,-32467.14,-15812.415,696.015
1764504865.6686149,-5643.855,4687.11,-43767.405,-34082.82,-41114.61,-32477.535,-15816.555,692.73
1764504865.6686149,-5647.815,4684.185,-43770.33,-34084.89,-41112.54,-32472.72,-15821.64,688.23
1764504865.6686149,-5642.775,4690.755,-43761.015,-34075.35,-41098.32,-32450.805,-15817.32,692.8199999999999
1764504865.6686149,-5642.28,4691.115,-43760.97,-34072.425,-41091.66,-32433.255,-15816.42,693.36
1764504865.6686149,-5642.37,4690.035,-43763.22,-34073.64,-41090.805,-32424.75,-15814.935,694.35
1764504865.6686149,-5641.695,4690.485,-43763.355,-34077.015,-41098.095,-32434.605,-15813.585,695.475
1764504865.669631,-5644.62,4687.2,-43768.17,-34084.215,-41109.39,-32453.1,-15813.18,693.9449999999999
1764504865.669631,-5648.219999999999,4680.27,-43778.34,-34093.665,-41118.615,-32471.685,-15813.72,692.64
1764504865.669631,-5646.465,4682.61,-43776.99,-34092.675,-41122.125,-32492.07,-15817.545,692.55
1764504865.7182877,-5643.45,4686.795,-43771.635,-34084.665,-41115.96,-32490.855,-15816.51,693.63
1764504865.7182877,-5644.485,4686.795,-43769.565,-34081.65,-41112.72,-32480.775,-15815.565,693.5849999999999
1764504865.7182877,-5645.295,4686.705,-43768.125,-34078.5,-41105.34,-32463.405,-15813.765,693.63
1764504865.7182877,-5648.219999999999,4683.87,-43768.17,-34075.035,-41095.215,-32445.72,-15812.865,690.48
1764504865.7182877,-5641.965,4691.16,-43759.845,-34064.775,-41080.905,-32430.69,-15807.51,696.645
1764504865.7182877,-5645.115,4684.679999999999,-43768.845,-34072.515,-41084.775,-32429.07,-15806.43,697.14
1764504865.7182877,-5642.505,4687.695,-43766.235,-34074.585,-41089.995,-32434.56,-15806.88,697.5899999999999
1764504865.7182877,-5637.42,4695.075,-43758.54,-34072.92,-41096.43,-32446.395,-15810.12,698.4449999999999
1764504865.7182877,-5638.365,4693.455,-43761.645,-34077.78,-41104.17,-32454.135,-15812.055,698.22
1764504865.7182877,-5644.08,4688.145,-43766.505,-34083.36,-41112.585,-32461.965,-15817.005,693.405
1764504865.7182877,-5641.065,4690.53,-43764.84,-34082.505,-41113.26,-32465.475,-15817.005,695.88
1764504865.7182877,-5641.965,4689.0,-43767.045,-34084.8,-41115.465,-32474.115,-15818.31,694.62
1764504865.7182877,-5639.13,4691.025,-43763.67,-34078.68,-41106.15,-32466.42,-15813.81,698.13
1764504865.7182877,-5639.849999999999,4690.53,-43762.095,-34074.0,-41096.115,-32450.94,-15813.135,697.5899999999999
1764504865.7182877,-5637.69,4693.635,-43757.64,-34069.005,-41091.21,-32447.475,-15810.615,699.345
1764504865.7182877,-5637.195,4693.679999999999,-43757.775,-34070.13,-41096.205,-32455.08,-15810.03,699.7049999999999
1764504865.7182877,-5637.285,4692.645,-43761.105,-34074.765,-41102.595,-32459.715,-15811.2,699.345
1764504865.7182877,-5644.395,4685.94,-43769.43,-34084.98,-41112.045,-32467.365,-15819.03,693.63
1764504865.7182877,-5644.844999999999,4684.995,-43770.33,-34087.095,-41112.315,-32471.82,-15820.605,693.36
1764504865.7182877,-5643.224999999999,4686.705,-43767.765,-34084.305,-41108.445,-32468.67,-15817.59,695.16
1764504865.7192998,-5646.599999999999,4685.22,-43768.215,-34081.965,-41103.945,-32456.79,-15815.835,692.1
1764504865.7192998,-5646.06,4685.13,-43768.215,-34081.83,-41104.44,-32450.49,-15813.09,693.765
1764504865.7192998,-5645.474999999999,4685.085,-43768.62,-34084.395,-41109.705,-32452.74,-15814.08,694.7099999999999
1764504865.7192998,-5648.94,4682.61,-43771.23,-34088.67,-41115.645,-32460.39,-15819.75,690.885
1764504865.7192998,-5645.52,4686.389999999999,-43768.395,-34086.735,-41116.77,-32467.905,-15820.245,693.72
1764504865.7192998,-5646.554999999999,4685.445,-43769.565,-34087.41,-41118.12,-32473.395,-15821.325,691.47
1764504865.7645133,-5642.91,4689.135,-43765.335,-34080.75,-41109.345,-32466.555,-15818.265,695.655
1764504865.7645133,-5648.58,4683.06,-43771.275,-34084.8,-41106.87,-32458.365,-15820.65,691.1999999999999
1764504865.7645133,-5651.91,4680.179999999999,-43773.21,-34086.465,-41106.105,-32455.62,-15819.93,688.365
1764504865.7645133,-5646.645,4686.974999999999,-43765.425,-34078.77,-41100.03,-32444.955,-15814.665,692.145
1764504865.7645133,-5645.474999999999,4688.775,-43763.805,-34078.275,-41104.215,-32446.8,-15814.53,691.56
1764504865.7645133,-5644.08,4688.685,-43765.2,-34082.64,-41112.54,-32462.37,-15814.035,693.405
1764504865.7645133,-5642.82,4687.11,-43767.045,-34085.43,-41115.375,-32473.26,-15814.44,695.52
1764504865.7645133,-5646.42,4683.645,-43771.005,-34090.02,-41119.515,-32482.08,-15818.895,691.47
1764504865.7645133,-5647.094999999999,4683.465,-43769.88,-34087.545,-41112.18,-32474.385,-15822.405,691.155
1764504865.7645133,-5648.13,4681.44,-43772.355,-34090.74,-41115.06,-32469.57,-15826.32,689.4
1764504865.7645133,-5647.365,4683.87,-43769.745,-34087.32,-41112.495,-32460.75,-15825.285,689.9399999999999
1764504865.766081,-5648.625,4682.61,-43771.59,-34088.58,-41113.08,-32463.945,-15824.745,689.4449999999999
1764504865.766081,-5653.665,4678.56,-43775.55,-34090.38,-41111.82,-32461.38,-15828.21,685.035
1764504865.766081,-5659.469999999999,4673.565,-43780.455,-34094.475,-41112.81,-32460.075,-15831.315,680.31
1764504865.766081,-5656.995,4675.139999999999,-43780.635,-34096.14,-41117.895,-32467.815,-15829.02,682.605
1764504865.766081,-5649.48,4683.51,-43770.195,-34088.58,-41113.62,-32466.69,-15821.415,689.265
1764504865.766081,-5650.245,4682.61,-43770.87,-34089.705,-41117.94,-32472.63,-15821.82,687.9599999999999
1764504865.766081,-5649.795,4681.8,-43772.265,-34088.67,-41115.645,-32467.59,-15817.32,690.03
1764504865.766081,-5644.71,4687.335,-43765.47,-34079.085,-41104.53,-32458.185,-15810.705,695.97
1764504865.766081,-5642.73,4690.98,-43761.15,-34074.494999999995,-41098.455,-32450.985,-15810.075,696.78
1764504865.766081,-5642.91,4691.565,-43759.35,-34072.244999999995,-41094.0,-32444.01,-15812.055,696.3299999999999
1764504865.766081,-5647.005,4685.804999999999,-43767.135,-34079.13,-41097.6,-32446.98,-15814.215,693.81
1764504865.8100858,-5645.115,4684.905,-43770.915,-34082.91,-41102.235,-32452.515,-15814.305,695.8349999999999
1764504865.8100858,-5642.82,4687.875,-43767.45,-34082.505,-41107.635,-32460.84,-15817.455,694.7099999999999
1764504865.8100858,-5645.88,4685.445,-43769.745,-34088.265,-41116.77,-32475.24,-15821.955,691.425
1764504865.8100858,-5643.27,4688.91,-43766.64,-34085.565,-41114.43,-32478.57,-15821.325,694.035
1764504865.8100858,-5648.264999999999,4683.87,-43771.59,-34089.48,-41115.78,-32477.805,-15823.215,689.22
1764504865.8100858,-5650.38,4681.53,-43775.055,-34090.605,-41113.08,-32471.865,-15822.855,688.23
1764504865.8100858,-5648.13,4684.095,-43771.32,-34085.385,-41107.005,-32462.01,-15819.075,690.8399999999999
1764504865.8100858,-5647.139999999999,4686.255,-43766.865,-34081.2,-41103.63,-32449.725,-15814.53,692.685
1764504865.8100858,-5646.105,4685.985,-43766.1,-34080.48,-41106.285,-32453.865,-15812.595,693.63
1764504865.8100858,-5650.245,4681.53,-43771.995,-34085.025,-41110.605,-32462.595,-15816.24,688.86
1764504865.8100858,-5643.09,4689.27,-43763.49,-34078.32,-41104.575,-32460.885,-15813.99,694.53
1764504865.8100858,-5643.0,4689.179999999999,-43763.625,-34078.59,-41104.62,-32461.74,-15816.285,693.855
1764504865.8100858,-5649.075,4682.88,-43771.365,-34085.88,-41109.39,-32458.275,-15821.73,688.77
1764504865.8100858,-5653.395,4678.92,-43775.415,-34090.2,-41111.73,-32456.385,-15825.33,684.9449999999999
1764504865.8100858,-5649.21,4682.52,-43772.355,-34087.5,-41107.77,-32453.64,-15821.775,689.0849999999999
1764504865.8100858,-5650.11,4680.72,-43773.66,-34088.58,-41108.85,-32456.205,-15823.755,687.285
1764504865.8100858,-5647.32,4684.005,-43770.24,-34086.869999999995,-41110.695,-32461.785,-15822.9,688.86
1764504865.8100858,-5643.675,4687.605,-43765.65,-34084.125,-41112.855,-32467.41,-15818.805,692.4599999999999
1764504865.8100858,-5639.804999999999,4692.06,-43762.23,-34082.955,-41115.735,-32471.595,-15816.6,696.24
1764504865.8100858,-5643.495,4688.91,-43765.92,-34085.43,-41117.445,-32474.97,-15821.01,692.55
1764504865.8110929,-5646.15,4684.095,-43771.005,-34085.88,-41114.745,-32473.395,-15820.47,692.235
1764504865.8110929,-5646.87,4682.52,-43772.895,-34086.015,-41112.27,-32468.49,-15819.93,691.74
1764504865.8552225,-5650.155,4679.37,-43774.605,-34086.42,-41107.05,-32454.045,-15823.845,687.105
1764504865.8552225,-5646.554999999999,4683.42,-43770.015,-34080.84,-41098.455,-32441.13,-15820.245,690.03
1764504865.8552225,-5647.905,4683.33,-43770.105,-34081.83,-41099.445,-32445.45,-15819.165,689.49
1764504865.8552225,-5643.63,4687.065,-43766.685,-34078.905,-41097.465,-32447.97,-15818.13,692.145
1764504865.8552225,-5643.81,4685.715,-43768.395,-34081.65,-41102.505,-32452.245,-15819.705,692.1899999999999
1764504865.856223,-5647.05,4683.42,-43769.565,-34083.405,-41108.805,-32458.995,-15821.55,689.67
1764504865.856223,-5646.735,4683.06,-43769.52,-34084.44,-41113.98,-32465.295,-15821.775,690.48
1764504865.856223,-5647.275,4682.025,-43771.095,-34088.85,-41121.315,-32471.955,-15823.215,689.13
1764504865.856223,-5644.304999999999,4685.4,-43768.62,-34087.994999999995,-41121.315,-32476.32,-15819.84,692.145
1764504865.856223,-5642.865,4687.74,-43765.695,-34081.425,-41111.19,-32468.175,-15818.085,692.505
1764504865.856223,-5647.5,4683.15,-43770.24,-34083.135,-41108.085,-32463.675,-15822.63,688.8149999999999
1764504865.856223,-5651.37,4678.785,-43774.245,-34087.05,-41111.1,-32463.54,-15821.64,687.87
1764504865.856223,-5651.28,4678.875,-43773.57,-34087.365,-41108.625,-32457.6,-15821.28,687.645
1764504865.856223,-5647.275,4684.05,-43766.235,-34080.525,-41101.605,-32449.365,-15820.515,689.76
1764504865.856223,-5648.58,4681.889999999999,-43768.755,-34084.305,-41106.015,-32455.26,-15823.44,688.41
1764504865.856223,-5645.565,4684.23,-43768.935,-34083.99,-41107.725,-32459.535,-15822.495,692.055
1764504865.8567328,-5649.48,4680.855,-43772.49,-34088.04,-41114.475,-32468.895,-15825.825,688.185
1764504865.8567328,-5655.87,4675.995,-43777.035,-34096.455,-41125.95,-32484.015,-15832.44,680.5799999999999
1764504865.8567328,-5655.78,4675.95,-43778.295,-34099.965,-41132.025,-32491.35,-15834.6,680.5799999999999
1764504865.8567328,-5651.865,4679.505,-43775.505,-34096.365,-41125.5,-32481.135,-15831.63,684.63
1764504865.8567328,-5650.245,4680.945,-43774.02,-34093.44,-41118.165,-32466.78,-15829.47,685.755
1764504865.8567328,-5650.38,4681.08,-43772.085,-34090.47,-41110.515,-32455.665,-15827.085,685.935
1764504865.8567328,-5655.24,4676.67,-43774.965,-34092.54,-41111.55,-32459.085,-15828.975,681.615
1764504865.8567328,-5656.59,4676.445,-43774.29,-34091.145,-41111.82,-32462.415,-15828.255,680.9399999999999
1764504865.9021409,-5656.32,4674.06,-43779.69,-34095.69,-41118.615,-32466.42,-15824.88,684.405
1764504865.9021409,-5649.75,4680.945,-43774.245,-34091.369999999995,-41116.32,-32462.955,-15820.425,689.85
1764504865.9021409,-5650.065,4683.465,-43770.825,-34089.93,-41118.93,-32472.045,-15823.89,688.365
1764504865.9021409,-5651.639999999999,4681.44,-43772.805,-34090.965,-41120.595,-32475.375,-15825.465,687.645
1764504865.9021409,-5653.304999999999,4679.505,-43774.29,-34088.445,-41113.89,-32471.01,-15823.89,686.43
1764504865.903164,-5652.495,4681.035,-43771.86,-34082.055,-41103.045,-32462.055,-15821.28,687.51
1764504865.903164,-5647.094999999999,4685.804999999999,-43765.11,-34073.46,-41090.13,-32448.015,-15816.96,691.92
1764504865.903164,-5648.175,4684.275,-43767.27,-34075.665,-41088.78,-32440.725,-15817.455,691.56
1764504865.903164,-5649.3,4683.51,-43769.07,-34080.975,-41097.285,-32444.415,-15819.84,691.56
1764504865.903164,-5649.075,4683.645,-43770.42,-34087.365,-41108.31,-32450.175,-15821.82,691.65
1764504865.903164,-5648.219999999999,4684.5,-43769.745,-34087.545,-41111.1,-32448.555,-15821.19,692.595
1764504865.903164,-5645.79,4687.514999999999,-43766.28,-34086.33,-41113.71,-32460.165,-15818.4,695.295
1764504865.903164,-5641.56,4691.745,-43762.005,-34084.845,-41116.635,-32471.46,-15814.755,698.4449999999999
1764504865.903164,-5646.42,4686.795,-43767.81,-34090.785,-41124.735,-32485.77,-15821.145,692.505
1764504865.903164,-5647.95,4685.58,-43769.25,-34091.1,-41123.52,-32486.265,-15824.475,691.605
1764504865.903164,-5648.715,4685.849999999999,-43768.485,-34088.22,-41116.77,-32477.04,-15824.07,692.505
1764504865.903164,-5650.2,4684.455,-43769.295,-34085.7,-41109.57,-32465.52,-15823.08,692.055
1764504865.903164,-5655.195,4678.56,-43773.705,-34086.24,-41101.38,-32448.69,-15821.01,688.9499999999999
1764504865.903164,-5656.23,4677.3,-43775.73,-34086.69,-41100.93,-32445.36,-15816.6,689.985
1764504865.903164,-5653.53,4681.17,-43770.24,-34081.605,-41100.075,-32444.1,-15815.25,691.56
1764504865.903164,-5655.465,4679.28,-43772.265,-34085.43,-41106.06,-32451.39,-15816.87,689.13
1764504865.903164,-5647.23,4686.885,-43765.785,-34081.244999999995,-41104.755,-32453.235,-15810.615,697.005
1764504865.903164,-5649.615,4681.304999999999,-43773.66,-34088.535,-41110.29,-32457.555,-15809.535,697.005
1764504865.903164,-5655.42,4676.445,-43777.62,-34094.43,-41114.7,-32464.485,-15817.905,689.5799999999999
1764504865.950935,-5652.54,4680.405,-43772.715,-34092.315,-41117.445,-32467.545,-15820.02,689.9399999999999
1764504865.952242,-5649.615,4683.554999999999,-43769.97,-34090.065,-41118.975,-32469.975,-15820.47,692.865
1764504865.952242,-5648.49,4686.21,-43767.495,-34088.67,-41120.28,-32477.985,-15821.955,692.8199999999999
1764504865.952242,-5649.389999999999,4686.12,-43765.92,-34086.33,-41115.96,-32476.23,-15822.54,690.255
1764504865.952242,-5648.49,4685.895,-43765.47,-34083.405,-41109.03,-32466.96,-15819.615,691.92
1764504865.952242,-5658.84,4673.61,-43778.295,-34094.655,-41112.675,-32461.83,-15823.575,684.63
1764504865.952242,-5655.735,4676.13,-43775.505,-34089.345,-41107.095,-32456.835,-15820.155,688.365
1764504865.952242,-5650.2,4683.285,-43766.505,-34078.095,-41095.98,-32448.33,-15813.45,693.135
1764504865.952242,-5648.175,4685.804999999999,-43762.59,-34075.305,-41095.215,-32447.295,-15810.615,695.3399999999999
1764504865.952242,-5653.17,4680.045,-43769.61,-34082.1,-41101.74,-32447.52,-15815.34,690.12
1764504865.952242,-5649.435,4683.825,-43767.72,-34080.48,-41099.535,-32441.445,-15812.595,693.9449999999999
1764504865.9532406,-5647.005,4687.335,-43763.49,-34077.555,-41098.905,-32445.27,-15812.64,694.755
1764504865.9532406,-5653.665,4680.495,-43771.455,-34085.565,-41107.59,-32454.495,-15817.455,689.22
1764504865.9532406,-5654.7,4677.795,-43774.515,-34087.59,-41111.64,-32461.695,-15819.57,689.4449999999999
1764504865.9532406,-5648.264999999999,4684.545,-43767.0,-34080.3,-41104.215,-32456.295,-15815.88,694.53
1764504865.9532406,-5649.615,4683.825,-43768.305,-34080.525,-41105.43,-32458.68,-15814.35,693.36
1764504865.9532406,-5645.34,4687.92,-43764.84,-34078.05,-41103.0,-32455.44,-15809.535,698.355
1764504865.9532406,-5644.44,4689.495,-43763.625,-34075.845,-41098.68,-32445.585,-15806.565,699.7049999999999
1764504865.9532406,-5639.94,4694.804999999999,-43757.865,-34069.5,-41092.515,-32441.49,-15800.58,703.53
1764504865.9532406,-5645.115,4688.145,-43764.255,-34076.115,-41100.12,-32453.775,-15803.685,700.47
1764504865.9532406,-5640.389999999999,4692.33,-43761.015,-34072.244999999995,-41094.765,-32448.915,-15801.165,705.4649999999999
1764504865.9532406,-5639.355,4695.885,-43756.02,-34068.06,-41089.365,-32440.41,-15804.675,704.115
1764504865.9532406,-5641.65,4693.41,-43758.18,-34068.375,-41086.44,-32433.165,-15806.7,702.135
1764504865.9532406,-5640.12,4694.625,-43756.38,-34066.35,-41084.01,-32433.795,-15806.52,703.935
1764504865.997465,-5640.165,4694.67,-43756.875,-34068.735,-41088.465,-32439.645,-15806.34,704.0699999999999
1764504865.997465,-5638.86,4697.46,-43754.445,-34068.915,-41092.2,-32446.845,-15806.43,704.61
1764504865.997465,-5634.99,4700.295,-43751.745,-34068.42,-41094.045,-32453.28,-15805.755,707.805
1764504865.997465,-5636.88,4696.56,-43755.255,-34072.965,-41097.15,-32454.45,-15804.72,707.04
1764504865.997465,-5637.33,4694.985,-43758.27,-34076.205,-41101.695,-32454.09,-15801.255,708.2099999999999
1764504865.997465,-5638.905,4693.23,-43760.88,-34079.895,-41107.545,-32455.665,-15804.63,706.23
1764504865.997465,-5638.995,4692.96,-43761.33,-34081.965,-41111.145,-32460.57,-15807.42,706.23
1764504865.997465,-5643.315,4688.325,-43764.525,-34082.325,-41110.02,-32456.43,-15810.03,703.845
1764504865.997465,-5646.014999999999,4685.31,-43767.225,-34082.955,-41108.895,-32454.045,-15810.795,701.3249999999999
1764504865.997465,-5649.12,4683.014999999999,-43767.99,-34082.595,-41107.815,-32454.9,-15813.495,697.095
1764504865.997465,-5647.094999999999,4686.21,-43763.22,-34074.63,-41097.645,-32448.195,-15813.315,696.1949999999999
1764504865.997465,-5649.389999999999,4682.835,-43768.305,-34078.05,-41096.79,-32444.1,-15811.965,695.97
1764504865.998477,-5649.795,4682.07,-43769.925,-34080.3,-41098.725,-32444.865,-15808.005,697.4549999999999
1764504865.998477,-5641.965,4690.17,-43761.42,-34070.94,-41090.355,-32437.98,-15803.145,703.035
1764504865.998477,-5639.4,4692.195,-43760.34,-34070.58,-41090.76,-32439.78,-15803.055,705.015
1764504865.998477,-5643.764999999999,4687.335,-43764.39,-34075.485,-41095.53,-32443.38,-15807.42,699.345
1764504865.998477,-5642.594999999999,4688.91,-43762.905,-34074.36,-41095.08,-32443.605,-15807.24,700.425
1764504865.998477,-5643.315,4688.37,-43763.625,-34076.385,-41099.13,-32450.805,-15808.59,700.02
1764504865.998477,-5641.92,4688.505,-43763.805,-34077.78,-41101.74,-32457.42,-15809.22,701.37
1764504865.998477,-5637.285,4692.285,-43760.565,-34075.53,-41096.88,-32451.705,-15809.94,704.295
1764504865.998477,-5636.745,4693.635,-43758.27,-34075.35,-41095.485,-32447.835,-15813.315,703.35
1764504865.998477,-5641.155,4688.82,-43763.22,-34082.505,-41106.33,-32455.26,-15818.265,698.895
1764504865.998477,-5637.42,4690.8,-43762.32,-34084.98,-41116.095,-32466.195,-15817.005,701.595
1764504865.998477,-5639.04,4689.495,-43764.75,-34090.38,-41127.165,-32481.045,-15818.31,699.435
1764504866.0450404,-5634.45,4695.66,-43758.585,-34085.655,-41127.39,-32483.655,-15811.785,703.7099999999999
1764504866.0450404,-5639.58,4689.405,-43764.93,-34090.965,-41134.005,-32493.105,-15814.98,698.805
1764504866.0450404,-5640.12,4687.155,-43767.045,-34085.115,-41119.02,-32476.275,-15813.225,699.48
1764504866.0450404,-5644.44,4683.06,-43770.195,-34079.94,-41102.37,-32450.85,-15812.145,695.5649999999999
1764504866.046039,-5643.81,4683.915,-43766.235,-34068.869999999995,-41082.66,-32424.48,-15808.005,697.8149999999999
1764504866.046039,-5648.535,4680.81,-43767.54,-34068.465,-41078.295,-32419.62,-15810.3,693.63
1764504866.046039,-5644.395,4685.804999999999,-43762.5,-34064.55,-41076.09,-32420.475,-15810.39,695.6999999999999
1764504866.046039,-5638.59,4690.71,-43759.305,-34065.81,-41081.49,-32430.51,-15809.94,701.4599999999999
1764504866.046039,-5637.06,4690.17,-43761.555,-34070.67,-41089.5,-32439.42,-15811.92,701.865
1764504866.046039,-5636.52,4689.495,-43762.905,-34074.99,-41095.53,-32444.505,-15812.055,702.675
1764504866.046039,-5637.105,4688.955,-43764.885,-34080.119999999995,-41102.28,-32447.79,-15812.28,702.5849999999999
1764504866.0470378,-5642.325,4684.005,-43769.745,-34086.465,-41110.605,-32455.665,-15818.445,696.1949999999999
1764504866.0470378,-5641.469999999999,4685.4,-43767.72,-34084.8,-41111.955,-32462.82,-15819.03,696.4649999999999
1764504866.0470378,-5641.965,4685.355,-43767.72,-34084.485,-41113.71,-32471.145,-15819.165,696.105
1764504866.0470378,-5642.415,4684.995,-43767.72,-34084.619999999995,-41114.7,-32476.365,-15819.12,696.285
1764504866.0470378,-5644.304999999999,4683.465,-43766.91,-34080.705,-41108.895,-32471.595,-15820.65,694.395
1764504866.0470378,-5644.755,4682.745,-43766.37,-34077.375,-41100.84,-32458.545,-15819.57,693.72
1764504866.048547,-5642.73,4684.635,-43763.49,-34072.2,-41091.93,-32446.89,-15816.555,695.43
1764504866.048547,-5638.905,4687.785,-43761.015,-34068.825,-41086.665,-32440.725,-15813.36,699.12
1764504866.048547,-5635.53,4690.889999999999,-43757.82,-34067.744999999995,-41088.24,-32443.65,-15811.92,701.28
1764504866.048547,-5635.62,4690.44,-43759.89,-34070.895,-41093.865,-32446.89,-15810.84,701.685
1764504866.048547,-5641.11,4684.32,-43765.74,-34078.14,-41103.765,-32458.275,-15815.07,697.4549999999999
1764504866.0906014,-5643.315,4683.42,-43766.73,-34079.4,-41105.79,-32458.5,-15817.545,694.26
1764504866.0906014,-5644.035,4680.585,-43771.23,-34082.055,-41105.52,-32449.23,-15815.925,695.79
1764504866.0906014,-5637.599999999999,4687.605,-43762.86,-34076.61,-41101.38,-32447.79,-15814.8,699.75
1764504866.0906014,-5636.025,4689.855,-43760.79,-34075.08,-41101.245,-32451.255,-15818.04,700.29
1764504866.0906014,-5636.52,4689.855,-43762.32,-34076.88,-41102.325,-32449.995,-15819.21,699.66
1764504866.0906014,-5636.16,4690.035,-43761.555,-34077.015,-41102.64,-32451.03,-15818.895,699.3
1764504866.0906014,-5636.025,4689.045,-43763.13,-34079.85,-41104.89,-32454.27,-15817.23,700.92
1764504866.0906014,-5635.26,4690.035,-43761.555,-34078.545,-41104.35,-32454.09,-15814.395,701.9549999999999
1764504866.0906014,-5633.91,4691.88,-43758.945,-34076.25,-41101.965,-32452.2,-15812.19,701.505
1764504866.0906014,-5639.219999999999,4687.335,-43764.795,-34082.145,-41107.5,-32460.21,-15815.79,696.78
1764504866.093157,-5639.04,4686.075,-43765.29,-34082.46,-41106.915,-32464.305,-15815.925,696.87
1764504866.093157,-5635.889999999999,4689.585,-43763.805,-34078.994999999995,-41103.81,-32460.21,-15815.115,699.795
1764504866.093157,-5637.24,4688.82,-43764.255,-34078.005,-41103.0,-32458.275,-15815.205,698.7149999999999
1764504866.093157,-5641.335,4683.78,-43768.665,-34083.765,-41111.055,-32463.72,-15817.815,695.0699999999999
1764504866.093157,-5643.54,4681.395,-43769.565,-34083.45,-41109.12,-32457.645,-15818.625,694.395
1764504866.093157,-5644.575,4682.61,-43767.27,-34078.455,-41099.58,-32445.99,-15816.87,694.17
1764504866.093157,-5646.24,4679.685,-43770.915,-34082.685,-41100.57,-32446.35,-15818.355,692.595
1764504866.093157,-5640.03,4686.03,-43765.515,-34078.994999999995,-41097.915,-32440.905,-15817.41,697.14
1764504866.093157,-5638.23,4688.145,-43762.455,-34077.105,-41099.265,-32440.905,-15816.69,698.4
1764504866.093157,-5639.13,4687.02,-43763.58,-34078.905,-41104.62,-32448.915,-15817.275,697.725
1764504866.093157,-5638.995,4686.615,-43764.705,-34081.02,-41110.695,-32460.795,-15815.835,698.5799999999999
1764504866.093157,-5641.83,4684.77,-43766.595,-34085.205,-41118.93,-32475.24,-15817.545,696.51
1764504866.1369288,-5639.13,4688.054999999999,-43764.75,-34082.64,-41115.33,-32473.71,-15817.77,698.7149999999999
1764504866.1369288,-5641.514999999999,4686.03,-43766.145,-34080.795,-41104.845,-32457.69,-15820.065,696.51
1764504866.1369288,-5645.745,4682.925,-43768.845,-34080.57,-41102.415,-32448.915,-15820.74,692.1899999999999
1764504866.1369288,-5639.804999999999,4689.585,-43761.15,-34072.605,-41093.37,-32440.59,-15815.43,697.635
1764504866.1369288,-5639.445,4689.72,-43759.98,-34070.805,-41089.815,-32437.98,-15814.305,698.0849999999999
1764504866.1369288,-5642.505,4686.885,-43762.635,-34074.045,-41094.495,-32446.89,-15817.86,694.845
1764504866.1369288,-5640.12,4687.605,-43763.895,-34076.88,-41099.76,-32454.765,-15815.655,699.255
1764504866.1369288,-5645.16,4683.51,-43768.44,-34082.369999999995,-41104.215,-32459.49,-15820.38,693.045
1764504866.1369288,-5643.855,4684.905,-43765.695,-34080.345,-41101.965,-32458.365,-15819.12,693.5849999999999
1764504866.1369288,-5644.17,4683.33,-43767.72,-34083.855,-41104.935,-32458.14,-15817.41,695.385
1764504866.1369288,-5645.429999999999,4682.385,-43769.25,-34084.845,-41104.08,-32450.265,-15815.07,695.61
1764504866.1369288,-5645.16,4684.77,-43766.19,-34079.625,-41100.345,-32444.73,-15811.47,695.025
1764504866.1369288,-5641.469999999999,4688.01,-43763.94,-34076.7,-41099.49,-32450.4,-15809.85,698.76
1764504866.1369288,-5645.295,4684.59,-43767.315,-34082.19,-41105.34,-32462.82,-15815.295,695.385
1764504866.1369288,-5642.685,4688.145,-43764.84,-34079.535,-41103.27,-32460.615,-15815.7,697.185
1764504866.1369288,-5645.52,4686.21,-43765.65,-34082.369999999995,-41106.87,-32462.775,-15820.56,694.53
1764504866.1369288,-5641.29,4691.745,-43758.315,-34076.115,-41102.55,-32459.31,-15817.905,697.995
1764504866.1369288,-5645.205,4687.56,-43762.275,-34079.625,-41106.015,-32461.2,-15818.625,693.855
1764504866.1369288,-5654.25,4676.355,-43773.93,-34091.01,-41115.15,-32466.96,-15821.91,687.105
1764504866.1369288,-5656.455,4673.61,-43777.215,-34093.98,-41117.805,-32469.12,-15824.16,685.935
1764504866.1369288,-5656.275,4673.97,-43776.405,-34091.1,-41112.27,-32461.065,-15826.455,685.755
1764504866.1369288,-5655.06,4676.085,-43773.12,-34088.13,-41108.265,-32457.87,-15827.175,685.845
1764504866.1369288,-5653.665,4677.705,-43771.59,-34086.825,-41108.175,-32459.85,-15825.195,687.06
1764504866.1369288,-5653.755,4677.3,-43772.22,-34089.03,-41111.055,-32469.12,-15822.45,688.3199999999999
1764504866.1842723,-5651.46,4680.27,-43770.465,-34086.24,-41106.42,-32465.025,-15817.68,692.3249999999999
1764504866.1853094,-5652.63,4676.22,-43775.685,-34088.895,-41105.655,-32451.975,-15815.88,693.225
1764504866.1853094,-5649.525,4680.63,-43769.97,-34083.405,-41099.58,-32440.95,-15815.565,693.99
1764504866.1853094,-5651.865,4680.045,-43769.295,-34083.855,-41102.595,-32447.295,-15819.795,690.39
1764504866.1863024,-5648.94,4683.195,-43765.74,-34078.32,-41099.13,-32444.28,-15817.275,694.17
1764504866.1863024,-5650.514999999999,4681.26,-43767.81,-34078.77,-41100.48,-32446.485,-15817.815,693.045
1764504866.1863024,-5651.865,4679.054999999999,-43769.97,-34082.01,-41104.44,-32455.26,-15819.345,692.055
1764504866.1863024,-5656.995,4673.925,-43775.01,-34087.77,-41111.595,-32464.98,-15823.035,687.3299999999999
1764504866.1863024,-5656.005,4675.995,-43774.515,-34088.355,-41112.63,-32466.33,-15823.485,688.23
1764504866.1863024,-5651.145,4680.855,-43770.195,-34084.53,-41108.805,-32463.63,-15821.055,692.55
1764504866.1863024,-5648.985,4682.52,-43768.125,-34081.02,-41102.28,-32456.43,-15819.93,693.855
1764504866.1863024,-5649.255,4680.855,-43769.34,-34081.605,-41097.69,-32446.8,-15819.345,693.81
1764504866.1863024,-5651.415,4678.605,-43772.22,-34083.315,-41096.565,-32441.13,-15819.615,692.505
1764504866.1863024,-5653.62,4676.625,-43773.795,-34085.565,-41101.92,-32445.225,-15820.74,690.5699999999999
1764504866.1863024,-5653.08,4677.84,-43772.85,-34087.275,-41107.41,-32456.115,-15820.2,690.2099999999999
1764504866.1863024,-5650.11,4680.63,-43770.42,-34087.185,-41111.19,-32465.115,-15819.705,692.91
1764504866.1863024,-5648.67,4681.98,-43768.26,-34086.555,-41113.395,-32470.245,-15821.64,692.595
1764504866.1863024,-5649.48,4681.349999999999,-43768.845,-34086.6,-41112.54,-32467.5,-15823.575,691.9649999999999
1764504866.1863024,-5652.54,4677.974999999999,-43771.635,-34089.57,-41113.08,-32466.465,-15825.87,688.23
1764504866.1872828,-5653.395,4677.435,-43772.22,-34089.75,-41109.84,-32460.255,-15824.925,688.3199999999999
1764504866.1872828,-5648.849999999999,4681.62,-43769.16,-34085.88,-41103.495,-32449.77,-15819.705,693.5849999999999
1764504866.1872828,-5646.915,4683.51,-43766.91,-34083.63,-41103.09,-32449.14,-15816.78,695.745
1764504866.1872828,-5646.915,4682.745,-43769.07,-34087.545,-41111.865,-32463.09,-15817.32,695.8349999999999
1764504866.1872828,-5652.81,4675.724999999999,-43776.99,-34096.05,-41126.22,-32482.53,-15822.405,690.615
1764504866.2321973,-5651.865,4676.4,-43776.27,-34095.69,-41127.435,-32485.14,-15820.02,691.92
1764504866.2321973,-5650.514999999999,4677.165,-43774.65,-34094.07,-41127.435,-32482.8,-15818.13,693.045
1764504866.2321973,-5648.264999999999,4680.27,-43771.77,-34089.119999999995,-41119.155,-32473.89,-15818.31,694.17
1764504866.2321973,-5652.36,4676.67,-43774.92,-34090.155,-41116.68,-32476.68,-15821.415,689.985
1764504866.2321973,-5648.13,4680.675,-43770.825,-34083.945,-41109.39,-32473.62,-15818.085,693.9449999999999
1764504866.2332098,-5650.29,4679.82,-43771.365,-34082.369999999995,-41102.91,-32464.755,-15819.885,690.93
1764504866.2332098,-5649.929999999999,4679.82,-43771.365,-34079.4,-41095.665,-32449.59,-15819.93,691.6949999999999
1764504866.2332098,-5644.71,4685.4,-43765.245,-34073.865,-41089.005,-32439.15,-15816.465,697.41
1764504866.2332098,-5643.99,4687.47,-43763.49,-34072.515,-41087.745,-32436.315,-15816.555,697.8149999999999
1764504866.2332098,-5647.95,4683.105,-43767.09,-34077.195,-41092.875,-32437.665,-15818.04,693.135
1764504866.2332098,-5651.82,4677.615,-43772.265,-34082.685,-41098.815,-32443.245,-15816.87,690.255
1764504866.2332098,-5651.82,4677.84,-43770.465,-34081.515,-41099.31,-32446.125,-15814.44,691.11
1764504866.2332098,-5648.67,4680.945,-43768.89,-34081.065,-41100.84,-32449.095,-15813.63,693.54
1764504866.2332098,-5644.125,4684.275,-43767.72,-34082.325,-41107.32,-32463.27,-15814.62,698.355
1764504866.2332098,-5643.63,4683.105,-43770.465,-34087.815,-41117.985,-32476.005,-15818.67,699.345
1764504866.2332098,-5644.665,4685.04,-43767.99,-34087.635,-41120.1,-32479.83,-15826.23,694.17
1764504866.2332098,-5643.045,4686.84,-43765.245,-34085.34,-41117.67,-32475.33,-15825.645,694.845
1764504866.2332098,-5638.95,4689.585,-43762.14,-34080.57,-41111.91,-32467.275,-15818.4,698.625
1764504866.2332098,-5642.01,4684.545,-43767.045,-34081.83,-41107.725,-32455.71,-15813.405,697.995
1764504866.2332098,-5651.865,4674.24,-43775.46,-34084.485,-41103.81,-32448.645,-15816.15,690.435
1764504866.2332098,-5654.429999999999,4672.98,-43777.44,-34082.73,-41099.355,-32440.68,-15815.655,689.13
1764504866.2332098,-5652.27,4675.41,-43773.84,-34080.345,-41096.025,-32436.135,-15815.835,690.39
1764504866.2332098,-5645.969999999999,4681.395,-43768.26,-34076.295,-41092.02,-32433.165,-15812.1,696.6
1764504866.2332098,-5646.96,4679.054999999999,-43773.3,-34079.85,-41094.765,-32437.62,-15812.82,697.4549999999999
1764504866.277588,-5645.205,4682.88,-43766.595,-34076.385,-41095.485,-32446.395,-15816.645,696.15
1764504866.277588,-5645.655,4684.32,-43764.39,-34076.925,-41101.245,-32461.02,-15820.56,693.495
1764504866.277588,-5640.075,4689.27,-43760.115,-34074.09,-41100.615,-32457.87,-15819.795,697.9499999999999
1764504866.277588,-5643.045,4684.365,-43766.055,-34080.84,-41104.845,-32451.39,-15820.515,695.8349999999999
1764504866.277588,-5640.795,4686.165,-43764.93,-34081.47,-41106.06,-32455.62,-15818.895,698.985
1764504866.277588,-5648.94,4678.11,-43773.525,-34089.39,-41113.215,-32465.475,-15824.43,691.8299999999999
1764504866.277588,-5648.985,4677.48,-43773.525,-34086.33,-41108.04,-32461.515,-15821.415,692.01
1764504866.277588,-5646.33,4680.135,-43770.915,-34080.93,-41100.795,-32454.99,-15816.69,695.295
1764504866.277588,-5647.094999999999,4679.46,-43771.725,-34080.57,-41098.995,-32447.565,-15815.475,695.16
1764504866.277588,-5650.83,4675.95,-43775.19,-34084.619999999995,-41102.37,-32447.52,-15816.42,693.225
1764504866.277588,-5647.05,4681.17,-43769.07,-34077.06,-41095.35,-32439.285,-15810.66,697.635
1764504866.277588,-5649.885,4680.63,-43769.07,-34078.23,-41098.275,-32444.415,-15813.855,693.27
1764504866.277588,-5649.705,4680.135,-43770.735,-34082.73,-41104.98,-32454.225,-15817.455,693.045
1764504866.277588,-5644.575,4684.365,-43767.0,-34080.3,-41103.765,-32455.17,-15814.62,698.0849999999999
1764504866.277588,-5644.665,4683.195,-43768.935,-34084.98,-41108.58,-32458.365,-15815.655,697.995
1764504866.277588,-5651.37,4676.804999999999,-43775.235,-34090.244999999995,-41114.745,-32463.45,-15821.955,691.11
1764504866.277588,-5649.84,4679.054999999999,-43771.95,-34085.205,-41110.515,-32459.22,-15820.965,692.235
1764504866.277588,-5646.78,4682.61,-43767.315,-34078.68,-41102.82,-32453.37,-15818.535,695.115
1764504866.277588,-5649.885,4678.335,-43771.23,-34081.38,-41102.37,-32456.52,-15819.255,691.8299999999999
1764504866.277588,-5649.03,4679.01,-43770.555,-34079.355,-41098.545,-32453.82,-15820.02,692.055
1764504866.277588,-5645.429999999999,4682.745,-43766.28,-34076.295,-41096.565,-32451.345,-15817.5,695.88
1764504866.2785983,-5648.535,4680.135,-43769.07,-34081.695,-41106.465,-32464.62,-15821.1,693.27
1764504866.3226676,-5644.53,4684.095,-43766.415,-34079.895,-41106.69,-32464.125,-15819.345,696.1949999999999
1764504866.323227,-5646.375,4680.855,-43770.375,-34083.315,-41105.88,-32452.515,-15817.905,695.16
1764504866.323227,-5645.655,4681.755,-43768.665,-34081.02,-41099.58,-32437.35,-15815.745,695.97
1764504866.323227,-5644.889999999999,4682.835,-43766.55,-34079.94,-41097.825,-32433.3,-15818.895,694.485
1764504866.323227,-5642.955,4685.67,-43764.12,-34080.75,-41105.34,-32447.97,-15822.765,695.0699999999999
1764504866.323227,-5646.24,4682.835,-43766.865,-34085.79,-41115.105,-32465.295,-15826.185,692.28
1764504866.323227,-5641.965,4686.75,-43763.13,-34081.605,-41114.52,-32475.78,-15824.43,696.06
1764504866.323227,-5645.655,4681.71,-43769.34,-34083.63,-41114.205,-32474.745,-15822.0,695.2049999999999
1764504866.323227,-5650.605,4674.78,-43778.025,-34091.19,-41121.18,-32472.765,-15816.915,693.9449999999999
1764504866.323227,-5655.554999999999,4670.685,-43780.68,-34092.045,-41116.77,-32470.74,-15816.465,688.3199999999999
1764504866.323227,-5655.15,4670.82,-43778.88,-34087.545,-41106.825,-32463.315,-15816.24,688.3199999999999
1764504866.323227,-5651.235,4677.255,-43770.78,-34077.6,-41096.25,-32451.075,-15813.36,691.38
1764504866.323227,-5650.155,4680.855,-43766.37,-34072.74,-41088.555,-32436.225,-15813.405,690.435
1764504866.323227,-5653.125,4673.79,-43776.36,-34084.845,-41102.505,-32446.08,-15816.87,690.03
1764504866.323227,-5652.09,4674.87,-43776.675,-34088.535,-41111.865,-32456.88,-15819.39,689.535
1764504866.3237894,-5647.094999999999,4682.385,-43768.8,-34083.36,-41110.335,-32461.065,-15819.705,692.4599999999999
1764504866.3237894,-5649.255,4677.435,-43775.595,-34089.795,-41117.13,-32467.545,-15820.515,692.8199999999999
1764504866.3237894,-5643.224999999999,4684.365,-43766.595,-34081.965,-41111.055,-32461.965,-15819.705,696.285
1764504866.3237894,-5642.955,4684.32,-43767.81,-34083.045,-41110.335,-32459.805,-15820.065,695.52
1764504866.3237894,-5646.51,4680.495,-43770.51,-34085.34,-41109.84,-32457.24,-15820.515,692.505
1764504866.3237894,-5642.73,4685.085,-43764.12,-34077.195,-41098.815,-32444.415,-15818.67,694.89
1764504866.3237894,-5644.755,4682.97,-43765.515,-34076.79,-41095.71,-32439.825,-15819.93,692.4599999999999
1764504866.3237894,-5642.594999999999,4684.679999999999,-43764.39,-34075.485,-41095.305,-32443.425,-15817.905,695.2049999999999
1764504866.3237894,-5644.08,4682.34,-43767.09,-34080.705,-41104.17,-32461.065,-15820.02,693.9449999999999
1764504866.369763,-5645.295,4680.9,-43768.305,-34084.935,-41112.765,-32472.495,-15818.49,692.055
1764504866.369763,-5647.005,4679.145,-43770.69,-34088.31,-41117.985,-32472.135,-15817.14,691.155
1764504866.369763,-5648.175,4678.425,-43772.085,-34087.994999999995,-41114.565,-32460.165,-15817.005,691.515
1764504866.369763,-5646.42,4680.0,-43770.42,-34085.25,-41110.56,-32461.29,-15818.175,692.01
1764504866.369763,-5644.935,4680.09,-43770.465,-34084.755,-41109.84,-32458.995,-15818.22,692.8199999999999
1764504866.369763,-5643.0,4682.97,-43768.44,-34082.145,-41107.815,-32453.145,-15817.905,695.385
1764504866.369763,-5643.224999999999,4682.97,-43766.91,-34078.455,-41103.09,-32450.31,-15815.835,693.81
1764504866.3707783,-5647.455,4678.065,-43769.07,-34078.005,-41099.445,-32443.965,-15814.08,690.885
1764504866.3707783,-5643.63,4681.62,-43764.705,-34074.405,-41096.07,-32439.555,-15812.865,694.53
1764504866.3707783,-5647.905,4678.425,-43769.115,-34080.795,-41103.72,-32449.05,-15821.415,689.535
1764504866.3707783,-5646.285,4679.685,-43769.61,-34080.435,-41103.495,-32450.58,-15821.28,691.785
1764504866.3707783,-5651.775,4673.835,-43776.495,-34086.78,-41107.815,-32454.045,-15822.855,687.87
1764504866.3707783,-5649.57,4675.77,-43773.39,-34083.09,-41103.765,-32452.02,-15818.895,689.67
1764504866.3707783,-5644.62,4680.855,-43767.27,-34076.43,-41097.42,-32446.98,-15814.755,693.5849999999999
1764504866.3707783,-5645.88,4680.36,-43766.145,-34077.195,-41097.915,-32446.125,-15815.835,693.4499999999999
1764504866.3707783,-5650.785,4676.535,-43769.565,-34078.815,-41097.915,-32444.415,-15818.04,688.5899999999999
1764504866.371774,-5648.31,4677.345,-43769.34,-34077.285,-41095.53,-32442.3,-15814.935,692.145
1764504866.371774,-5648.94,4675.635,-43772.85,-34082.82,-41100.39,-32449.635,-15815.79,692.865
1764504866.371774,-5649.12,4676.31,-43772.805,-34083.945,-41102.595,-32447.205,-15819.075,692.01
1764504866.371774,-5651.505,4673.205,-43775.37,-34087.5,-41107.455,-32449.365,-15823.71,688.4549999999999
1764504866.371774,-5646.96,4677.795,-43769.79,-34083.72,-41106.555,-32447.655,-15822.945,692.055
1764504866.371774,-5649.12,4676.445,-43772.31,-34089.345,-41116.725,-32460.84,-15827.175,689.49
1764504866.4185767,-5647.005,4679.955,-43769.745,-34087.994999999995,-41119.65,-32468.445,-15827.805,690.885
1764504866.4185767,-5643.719999999999,4683.195,-43766.1,-34083.09,-41114.385,-32464.845,-15824.295,694.305
1764504866.4185767,-5647.365,4678.155,-43771.23,-34088.76,-41119.335,-32473.08,-15822.54,692.235
1764504866.4185767,-5649.974999999999,4675.545,-43775.28,-34094.295,-41124.645,-32482.53,-15820.155,691.47
1764504866.4185767,-5651.415,4672.845,-43778.7,-34098.21,-41127.885,-32486.175,-15818.13,691.9649999999999
1764504866.4185767,-5650.38,4673.655,-43776.765,-34092.99,-41116.635,-32469.21,-15816.24,692.9549999999999
1764504866.4185767,-5651.73,4673.205,-43776.675,-34089.165,-41110.29,-32458.905,-15817.365,691.92
1764504866.4185767,-5657.58,4667.67,-43780.995,-34092.18,-41113.08,-32453.415,-15821.28,687.285
1764504866.4195917,-5653.17,4672.215,-43776.99,-34088.445,-41112.81,-32452.83,-15817.23,690.66
1764504866.4195917,-5654.16,4673.7,-43775.865,-34086.869999999995,-41115.195,-32465.52,-15818.355,688.86
1764504866.4195917,-5649.57,4680.36,-43769.115,-34079.94,-41109.975,-32470.2,-15816.915,693.405
1764504866.4195917,-5651.28,4678.875,-43769.07,-34076.52,-41099.67,-32459.49,-15820.02,690.5699999999999
1764504866.4195917,-5657.4,4671.585,-43774.83,-34077.96,-41090.04,-32437.665,-15822.45,685.0799999999999
1764504866.4195917,-5655.735,4672.575,-43773.57,-34076.79,-41087.655,-32429.43,-15818.985,688.77
1764504866.4195917,-5651.145,4678.56,-43767.99,-34073.46,-41088.915,-32435.73,-15817.545,691.92
1764504866.4195917,-5650.29,4679.01,-43767.945,-34074.585,-41093.1,-32443.965,-15816.915,691.6949999999999
1764504866.4195917,-5651.639999999999,4677.48,-43770.195,-34079.265,-41101.155,-32457.6,-15818.94,691.38
1764504866.4195917,-5655.51,4673.52,-43773.84,-34086.6,-41112.18,-32474.7,-15825.15,686.475
1764504866.4195917,-5652.09,4676.985,-43770.33,-34083.54,-41110.065,-32470.695,-15820.515,690.975
1764504866.4195917,-5657.895,4668.21,-43781.805,-34095.33,-41118.03,-32468.715,-15821.19,687.285
1764504866.4195917,-5658.12,4669.29,-43780.095,-34094.205,-41113.755,-32453.55,-15823.08,685.845
1764504866.4195917,-5655.195,4673.745,-43776.36,-34089.885,-41108.895,-32448.33,-15822.09,687.9599999999999
1764504866.4195917,-5652.63,4675.679999999999,-43775.235,-34087.59,-41106.825,-32449.815,-15819.345,691.02
1764504866.4195917,-5653.349999999999,4674.96,-43776.45,-34086.6,-41106.96,-32452.245,-15818.4,692.3249999999999
1764504866.464891,-5655.195,4674.15,-43776.54,-34086.24,-41107.095,-32458.905,-15821.145,689.76
1764504866.464891,-5653.665,4676.67,-43771.905,-34082.19,-41105.88,-32458.815,-15822.315,689.22
1764504866.464891,-5648.715,4681.755,-43767.63,-34076.475,-41099.49,-32447.16,-15816.915,693.9449999999999
1764504866.464891,-5651.639999999999,4677.929999999999,-43771.32,-34081.29,-41103.45,-32452.155,-15818.535,690.66
1764504866.464891,-5653.665,4675.545,-43773.84,-34084.665,-41105.34,-32454.225,-15820.065,688.9499999999999
1764504866.464891,-5649.75,4678.47,-43771.905,-34082.415,-41104.575,-32455.98,-15818.355,692.595
1764504866.464891,-5648.94,4679.145,-43772.49,-34083.81,-41108.355,-32458.005,-15818.22,692.91
1764504866.464891,-5653.71,4675.095,-43775.1,-34085.655,-41108.76,-32455.89,-15820.695,688.365
1764504866.464891,-5651.73,4676.94,-43773.03,-34082.415,-41104.305,-32447.88,-15815.745,691.245
1764504866.464891,-5655.735,4673.295,-43775.55,-34085.25,-41107.005,-32450.445,-15815.655,687.555
1764504866.464891,-5653.26,4676.22,-43770.51,-34080.66,-41104.395,-32452.065,-15817.185,688.185
1764504866.464891,-5651.28,4677.929999999999,-43769.655,-34081.2,-41104.575,-32448.465,-15817.905,689.7149999999999
1764504866.464891,-5647.005,4680.945,-43768.395,-34079.355,-41100.795,-32440.77,-15815.565,694.17
1764504866.464891,-5648.804999999999,4679.28,-43770.78,-34083.045,-41105.16,-32446.35,-15819.615,692.01
1764504866.464891,-5644.17,4683.78,-43766.415,-34079.985,-41102.685,-32440.77,-15818.94,696.105
1764504866.464891,-5644.844999999999,4683.24,-43766.73,-34080.3,-41102.235,-32440.995,-15818.985,694.62
1764504866.4658885,-5648.49,4678.83,-43771.14,-34083.63,-41103.99,-32444.37,-15820.515,692.28
1764504866.4658885,-5643.99,4683.375,-43766.82,-34080.03,-41102.73,-32448.87,-15819.705,695.97
1764504866.4658885,-5641.785,4684.77,-43765.38,-34080.57,-41108.805,-32464.305,-15819.345,697.86
1764504866.4658885,-5640.165,4685.535,-43765.74,-34083.315,-41116.365,-32480.28,-15818.625,699.39
1764504866.4658885,-5641.38,4684.275,-43767.675,-34085.07,-41119.92,-32484.33,-15818.49,698.4
1764504866.4658885,-5643.27,4682.835,-43768.665,-34084.125,-41115.105,-32470.02,-15814.215,698.0849999999999
1764504866.5097086,-5643.405,4683.87,-43766.595,-34077.96,-41105.295,-32453.865,-15810.93,698.0849999999999
1764504866.5097086,-5648.895,4679.505,-43770.24,-34079.265,-41103.81,-32448.375,-15814.665,691.92
1764504866.5097086,-5648.67,4678.425,-43771.005,-34080.075,-41099.355,-32435.28,-15812.865,693.135
1764504866.5097086,-5648.94,4677.615,-43773.03,-34082.19,-41100.66,-32434.74,-15811.74,694.755
1764504866.5097086,-5649.03,4678.065,-43772.895,-34085.025,-41106.195,-32445.405,-15814.26,693.225
1764504866.5097086,-5645.07,4682.295,-43770.42,-34085.115,-41110.83,-32456.7,-15815.655,695.385
1764504866.5097086,-5644.26,4683.24,-43770.195,-34087.455,-41118.03,-32467.815,-15818.355,696.4649999999999
1764504866.5097086,-5645.52,4682.52,-43770.015,-34087.994999999995,-41120.37,-32472.0,-15821.55,694.53
1764504866.5097086,-5644.485,4684.545,-43768.305,-34086.105,-41118.075,-32473.08,-15822.09,696.06
1764504866.5097086,-5639.355,4688.505,-43765.065,-34083.0,-41115.555,-32476.23,-15820.83,699.93
1764504866.5097086,-5637.825,4690.395,-43762.77,-34080.525,-41116.14,-32479.74,-15821.775,700.245
1764504866.5097086,-5642.19,4685.94,-43766.685,-34082.685,-41113.98,-32472.54,-15822.72,696.285
1764504866.5097086,-5651.415,4675.815,-43777.98,-34089.975,-41113.71,-32463.18,-15822.9,691.155
1764504866.5097086,-5655.599999999999,4670.37,-43783.515,-34092.945,-41114.07,-32458.14,-15820.74,689.7149999999999
1764504866.5097086,-5654.025,4673.07,-43779.375,-34087.77,-41106.645,-32452.74,-15819.255,691.02
1764504866.5097086,-5649.255,4680.585,-43768.215,-34077.6,-41099.58,-32454.945,-15823.215,693.135
1764504866.5097086,-5643.855,4685.895,-43764.03,-34080.03,-41107.815,-32467.815,-15830.73,695.925
1764504866.5097086,-5648.219999999999,4679.955,-43772.04,-34093.26,-41123.52,-32482.755,-15837.3,691.3349999999999
1764504866.5112238,-5649.165,4676.58,-43777.125,-34099.02,-41128.605,-32483.97,-15833.25,692.28
1764504866.5112238,-5649.12,4674.96,-43779.915,-34101.225,-41130.945,-32482.35,-15824.52,693.72
1764504866.5112238,-5646.195,4676.804999999999,-43779.42,-34099.02,-41128.74,-32471.325,-15814.17,698.0849999999999
1764504866.5122285,-5650.695,4673.655,-43779.33,-34094.25,-41120.775,-32455.26,-15810.345,693.9
1764504866.5122285,-5652.135,4673.61,-43777.305,-34087.545,-41114.025,-32453.28,-15809.13,692.1899999999999
1764504866.5122285,-5648.13,4680.405,-43767.72,-34074.54,-41099.94,-32440.545,-15807.42,694.98
1764504866.5122285,-5647.815,4681.62,-43763.85,-34066.215,-41087.25,-32428.215,-15808.365,693.36
1764504866.51323,-5647.32,4682.7,-43761.42,-34062.165,-41082.615,-32430.6,-15809.355,692.64
1764504866.558302,-5647.995,4681.845,-43762.455,-34061.76,-41079.24,-32432.895,-15808.635,692.8199999999999
1764504866.558302,-5650.38,4678.695,-43765.515,-34063.02,-41075.595,-32425.605,-15808.185,692.01
1764504866.558302,-5652.045,4677.389999999999,-43767.495,-34063.785,-41074.47,-32416.11,-15808.23,691.785
1764504866.558302,-5651.505,4675.32,-43769.115,-34065.855,-41073.615,-32407.02,-15808.995,691.38
1764504866.558302,-5649.615,4677.03,-43767.0,-34064.55,-41073.165,-32410.98,-15807.24,693.495
1764504866.558302,-5649.21,4677.795,-43767.0,-34066.755,-41079.15,-32421.645,-15808.365,693.0
1764504866.558302,-5650.065,4677.03,-43769.115,-34072.92,-41088.465,-32429.655,-15810.39,691.245
1764504866.558302,-5647.815,4679.28,-43767.675,-34074.765,-41094.855,-32437.35,-15812.145,692.73
1764504866.558302,-5649.929999999999,4677.12,-43770.42,-34079.805,-41104.215,-32451.705,-15815.97,691.3349999999999
1764504866.558302,-5648.445,4676.355,-43773.165,-34081.65,-41106.555,-32456.52,-15815.295,693.495
1764504866.558302,-5647.86,4679.01,-43768.215,-34076.835,-41099.49,-32450.445,-15817.14,690.795
1764504866.558302,-5648.58,4678.2,-43769.115,-34075.125,-41094.09,-32439.69,-15816.645,689.7149999999999
1764504866.558302,-5651.145,4672.485,-43776.675,-34079.085,-41095.395,-32437.98,-15812.55,690.3
1764504866.558302,-5649.03,4675.275,-43772.49,-34076.655,-41093.73,-32437.935,-15812.64,690.39
1764504866.558302,-5645.565,4678.695,-43768.665,-34072.2,-41086.8,-32427.81,-15809.67,694.53
1764504866.558302,-5647.5,4677.03,-43771.14,-34074.27,-41089.545,-32434.47,-15811.335,693.405
1764504866.558302,-5646.014999999999,4679.685,-43767.54,-34074.315,-41091.66,-32436.585,-15811.74,693.045
1764504866.558302,-5648.355,4677.66,-43769.97,-34078.86,-41096.34,-32436.585,-15816.24,690.75
1764504866.558302,-5646.42,4678.2,-43771.14,-34080.93,-41095.53,-32431.995,-15815.52,693.765
1764504866.558302,-5645.34,4677.974999999999,-43772.445,-34083.225,-41097.87,-32429.34,-15814.17,695.025
1764504866.558302,-5649.255,4675.815,-43773.57,-34084.98,-41106.015,-32439.735,-15816.24,689.805
1764504866.558302,-5645.969999999999,4679.01,-43771.41,-34085.79,-41115.735,-32460.48,-15816.465,692.505
1764504866.6033244,-5643.855,4680.0,-43770.6,-34085.43,-41119.155,-32474.97,-15815.835,694.5749999999999
1764504866.6033244,-5642.19,4681.575,-43768.665,-34082.955,-41115.375,-32474.385,-15816.24,695.16
1764504866.6033244,-5636.52,4687.02,-43764.21,-34077.15,-41106.42,-32461.425,-15812.595,700.785
1764504866.6033244,-5638.679999999999,4684.995,-43765.47,-34078.994999999995,-41104.71,-32457.24,-15814.98,698.22
1764504866.6033244,-5639.985,4683.96,-43766.82,-34081.335,-41107.095,-32457.195,-15816.78,695.97
1764504866.6033244,-5635.53,4689.09,-43761.735,-34078.185,-41106.06,-32455.575,-15817.23,699.12
1764504866.6033244,-5632.469999999999,4692.599999999999,-43757.865,-34077.465,-41108.715,-32457.69,-15818.31,700.38
1764504866.6033244,-5632.514999999999,4693.095,-43757.955,-34078.86,-41109.795,-32459.49,-15819.93,700.1999999999999
1764504866.6033244,-5632.514999999999,4691.429999999999,-43760.295,-34082.369999999995,-41112.09,-32464.395,-15818.085,701.055
1764504866.6033244,-5634.045,4689.224999999999,-43762.68,-34082.955,-41113.17,-32469.93,-15817.23,700.155
1764504866.6033244,-5639.445,4683.375,-43767.045,-34083.0,-41109.705,-32463.585,-15819.21,694.935
1764504866.6033244,-5640.885,4682.52,-43769.34,-34081.155,-41105.43,-32454.72,-15816.24,694.035
1764504866.6033244,-5638.23,4685.085,-43766.73,-34077.735,-41102.91,-32451.705,-15811.335,697.005
1764504866.6033244,-5640.705,4682.205,-43767.72,-34079.4,-41107.77,-32458.365,-15813.18,693.81
1764504866.6033244,-5640.84,4681.53,-43768.53,-34079.985,-41108.535,-32457.06,-15811.83,695.3399999999999
1764504866.6033244,-5638.905,4684.185,-43765.38,-34073.64,-41099.49,-32446.125,-15810.12,696.8249999999999
1764504866.6033244,-5639.895,4684.139999999999,-43764.255,-34066.845,-41084.28,-32426.235,-15806.97,696.15
1764504866.6033244,-5642.145,4682.205,-43766.235,-34069.5,-41084.865,-32426.46,-15807.96,693.9449999999999
1764504866.6033244,-5636.655,4687.785,-43761.24,-34066.44,-41084.415,-32428.26,-15805.845,698.04
1764504866.6033244,-5638.05,4687.11,-43762.41,-34068.42,-41088.87,-32435.73,-15809.49,695.97
1764504866.6043422,-5632.83,4692.105,-43757.37,-34066.619999999995,-41088.555,-32433.93,-15810.3,699.2099999999999
1764504866.6043422,-5631.3,4692.42,-43757.91,-34069.14,-41092.695,-32436.99,-15811.965,699.975
1764504866.6043422,-5631.795,4691.835,-43759.125,-34070.04,-41094.63,-32438.34,-15812.955,699.8399999999999
1764504866.6043422,-5636.295,4686.795,-43765.29,-34077.285,-41101.515,-32443.605,-15816.465,695.0699999999999
1764504866.6512687,-5633.099999999999,4688.82,-43764.03,-34077.915,-41101.74,-32443.065,-15812.055,698.895
1764504866.6512687,-5634.945,4687.29,-43764.615,-34078.68,-41102.595,-32444.595,-15810.345,698.13
1764504866.6512687,-5639.445,4684.32,-43766.28,-34077.195,-41101.605,-32445.27,-15811.245,693.495
1764504866.6512687,-5637.06,4686.21,-43763.895,-34074.18,-41098.86,-32444.82,-15808.185,695.52
1764504866.6512687,-5638.275,4684.365,-43766.685,-34075.98,-41100.48,-32451.84,-15808.545,696.105
1764504866.6512687,-5636.474999999999,4685.94,-43764.93,-34073.055,-41092.92,-32439.78,-15807.555,699.03
1764504866.6512687,-5638.32,4685.58,-43765.515,-34073.415,-41091.84,-32433.255,-15811.065,696.8249999999999
1764504866.6512687,-5632.74,4691.79,-43759.215,-34067.97,-41087.34,-32421.78,-15809.13,701.235
1764504866.6512687,-5631.48,4693.005,-43758.315,-34067.79,-41090.49,-32432.13,-15807.915,701.64
1764504866.6512687,-5637.014999999999,4687.785,-43763.805,-34074.945,-41101.74,-32448.015,-15813.045,696.915
1764504866.6512687,-5631.435,4693.185,-43759.62,-34074.9,-41105.655,-32456.205,-15809.895,701.91
1764504866.6512687,-5632.245,4690.98,-43761.87,-34080.84,-41115.33,-32470.695,-15810.93,700.8299999999999
1764504866.6512687,-5629.545,4693.23,-43758.99,-34079.67,-41114.295,-32473.26,-15810.39,703.62
1764504866.6512687,-5630.895,4692.69,-43758.09,-34077.69,-41110.245,-32465.115,-15811.83,701.865
1764504866.6512687,-5634.855,4686.165,-43766.28,-34082.505,-41111.82,-32459.895,-15810.885,701.145
1764504866.6512687,-5639.445,4681.755,-43770.33,-34084.665,-41111.865,-32460.66,-15814.53,696.555
1764504866.6512687,-5639.67,4682.835,-43768.305,-34078.635,-41100.615,-32446.08,-15812.595,696.78
1764504866.6512687,-5638.05,4684.545,-43765.29,-34072.695,-41090.445,-32432.445,-15806.52,699.39
1764504866.6512687,-5634.405,4688.37,-43761.15,-34066.665,-41083.92,-32422.095,-15802.47,703.7099999999999
1764504866.6512687,-5638.724999999999,4685.31,-43762.815,-34067.88,-41083.29,-32419.8,-15805.8,698.535
1764504866.6512687,-5639.445,4684.23,-43763.22,-34071.119999999995,-41085.495,-32422.32,-15807.285,698.175
1764504866.6512687,-5639.849999999999,4683.33,-43764.165,-34074.405,-41086.755,-32421.42,-15809.58,697.23
1764504866.6962156,-5636.34,4686.66,-43762.68,-34075.305,-41090.67,-32427.18,-15810.93,699.165
1764504866.6962156,-5631.435,4692.285,-43757.595,-34072.83,-41095.8,-32433.93,-15810.165,702.63
1764504866.6962156,-5633.505,4688.685,-43762.095,-34078.23,-41108.895,-32447.88,-15809.85,702.54
1764504866.6962156,-5631.84,4689.945,-43762.185,-34078.59,-41113.71,-32459.31,-15806.655,705.1949999999999
1764504866.6962156,-5634.224999999999,4687.38,-43763.58,-34079.4,-41113.98,-32467.185,-15805.845,704.115
1764504866.6962156,-5638.41,4682.745,-43768.035,-34081.47,-41115.195,-32472.765,-15807.195,701.415
1764504866.6962156,-5638.815,4683.599999999999,-43767.495,-34075.53,-41099.175,-32452.515,-15806.61,702.045
1764504866.6962156,-5645.115,4679.19,-43770.06,-34072.695,-41088.33,-32434.65,-15811.92,695.25
1764504866.6962156,-5641.29,4684.679999999999,-43762.455,-34065.045,-41082.3,-32425.38,-15810.12,698.0849999999999
1764504866.6962156,-5634.179999999999,4691.745,-43753.545,-34059.105,-41078.7,-32423.625,-15806.43,703.7099999999999
1764504866.6962156,-5636.655,4688.55,-43757.73,-34063.965,-41083.29,-32425.83,-15805.62,702.135
1764504866.6962156,-5635.215,4689.63,-43758.18,-34064.415,-41084.865,-32426.055,-15803.415,704.61
1764504866.6962156,-5635.395,4689.63,-43757.28,-34065.81,-41090.49,-32436.135,-15805.215,703.26
1764504866.6962156,-5630.355,4696.695,-43750.755,-34060.41,-41087.565,-32434.74,-15804.405,707.265
1764504866.6962156,-5629.815,4697.054999999999,-43750.215,-34061.265,-41089.95,-32437.845,-15806.115,707.7149999999999
1764504866.6962156,-5632.11,4694.49,-43753.59,-34065.494999999995,-41094.225,-32441.13,-15810.48,705.105
1764504866.6962156,-5627.835,4698.63,-43751.745,-34065.494999999995,-41092.56,-32437.08,-15808.59,709.785
1764504866.6962156,-5633.054999999999,4692.645,-43759.845,-34074.63,-41101.965,-32449.05,-15815.88,704.0699999999999
1764504866.6962156,-5636.205,4688.01,-43765.965,-34078.994999999995,-41105.205,-32452.83,-15817.095,702.9
1764504866.6962156,-5634.719999999999,4689.09,-43765.38,-34075.44,-41102.505,-32452.425,-15813.63,705.645
1764504866.6962156,-5635.304999999999,4688.685,-43765.065,-34072.065,-41096.385,-32446.8,-15811.02,705.735
1764504866.6962156,-5642.19,4681.035,-43772.22,-34076.205,-41098.005,-32444.235,-15811.92,699.255
1764504866.6962156,-5643.719999999999,4679.28,-43773.615,-34076.744999999995,-41098.095,-32440.455,-15809.445,699.255
1764504866.6962156,-5643.045,4681.215,-43768.98,-34072.425,-41091.705,-32432.445,-15806.115,699.435
1764504866.742723,-5641.514999999999,4684.545,-43763.94,-34065.72,-41083.065,-32423.355,-15803.595,699.795
1764504866.742723,-5638.59,4687.56,-43761.825,-34065.18,-41084.19,-32421.105,-15802.245,702.63
1764504866.742723,-5631.929999999999,4692.87,-43756.47,-34063.244999999995,-41085.27,-32419.71,-15800.31,708.795
1764504866.742723,-5632.965,4692.06,-43757.145,-34064.19,-41086.665,-32424.12,-15802.29,706.9499999999999
1764504866.743735,-5635.17,4689.945,-43758.72,-34064.685,-41084.865,-32425.605,-15804.585,704.6999999999999
1764504866.743735,-5633.28,4691.61,-43757.415,-34061.805,-41080.995,-32428.395,-15804.18,706.9499999999999
1764504866.743735,-5632.965,4692.105,-43757.415,-34064.369999999995,-41086.305,-32440.095,-15805.395,707.13
1764504866.7447338,-5631.84,4692.735,-43757.055,-34066.755,-41092.515,-32450.22,-15805.89,707.67
1764504866.7447338,-5631.84,4691.835,-43758.18,-34067.925,-41094.495,-32449.455,-15805.935,707.4
1764504866.7447338,-5632.065,4691.745,-43757.82,-34065.765,-41088.645,-32435.91,-15805.08,706.8149999999999
1764504866.7447338,-5633.19,4690.53,-43757.595,-34063.695,-41083.2,-32423.67,-15802.965,705.735
1764504866.7447338,-5636.025,4689.179999999999,-43758.63,-34064.595,-41082.66,-32419.62,-15802.65,703.89
1764504866.7457345,-5630.67,4695.48,-43753.545,-34060.32,-41078.79,-32415.705,-15800.085,708.885
1764504866.7457345,-5631.3,4695.705,-43752.06,-34061.58,-41083.965,-32422.995,-15802.605,707.22
1764504866.7467475,-5634.495,4690.485,-43757.415,-34068.555,-41094.27,-32433.705,-15804.945,704.97
1764504866.7467475,-5634.27,4687.29,-43762.95,-34075.98,-41103.315,-32440.995,-15804.54,707.4449999999999
1764504866.7467475,-5632.38,4692.06,-43757.64,-34072.515,-41103.045,-32445.27,-15806.52,706.725
1764504866.7467475,-5635.17,4689.09,-43760.79,-34074.855,-41102.37,-32443.83,-15809.445,703.17
1764504866.7467475,-5633.415,4689.81,-43759.395,-34073.64,-41096.52,-32434.11,-15809.58,704.025
1764504866.7467475,-5631.03,4692.06,-43758.225,-34071.885,-41094.405,-32429.97,-15809.175,707.22
1764504866.7467475,-5634.855,4688.46,-43762.86,-34076.565,-41098.995,-32434.29,-15812.64,704.295
1764504866.7467475,-5631.12,4692.195,-43759.395,-34072.92,-41096.7,-32433.12,-15808.77,708.2099999999999
1764504866.7467475,-5629.094999999999,4694.715,-43756.2,-34070.22,-41097.6,-32439.105,-15805.17,710.55
1764504866.7467475,-5632.514999999999,4691.205,-43760.43,-34074.99,-41105.52,-32451.93,-15808.095,707.355
1764504866.7863233,-5633.91,4689.764999999999,-43761.69,-34074.99,-41107.41,-32457.06,-15808.5,705.6
1764504866.7873657,-5639.849999999999,4684.635,-43766.595,-34078.994999999995,-41111.685,-32463.675,-15809.31,700.515
1764504866.7873657,-5636.925,4688.01,-43762.23,-34072.02,-41099.67,-32449.185,-15804.99,703.17
1764504866.7873657,-5638.5,4685.76,-43762.095,-34067.88,-41087.88,-32430.87,-15804.63,701.4599999999999
1764504866.7873657,-5633.594999999999,4690.98,-43756.065,-34060.86,-41079.735,-32416.965,-15800.265,706.86
1764504866.7873657,-5635.395,4689.9,-43757.73,-34065.675,-41090.04,-32425.515,-15804.09,705.42
1764504866.7873657,-5635.125,4689.135,-43759.89,-34070.625,-41097.915,-32437.125,-15807.735,705.015
1764504866.7873657,-5630.715,4693.41,-43755.48,-34066.08,-41095.35,-32440.5,-15806.205,706.77
1764504866.7873657,-5629.005,4695.705,-43753.23,-34065.99,-41100.255,-32452.92,-15807.195,708.345
1764504866.7873657,-5633.28,4691.97,-43757.55,-34070.355,-41103.315,-32459.58,-15810.66,704.655
1764504866.7873657,-5642.37,4680.405,-43770.42,-34078.725,-41103.27,-32456.88,-15812.145,699.165
1764504866.7873657,-5644.125,4678.83,-43771.545,-34076.295,-41096.385,-32443.65,-15812.235,697.275
1764504866.7873657,-5643.315,4681.17,-43766.145,-34067.7,-41083.65,-32426.73,-15810.975,696.915
1764504866.788366,-5641.605,4682.16,-43763.355,-34063.335,-41078.07,-32414.715,-15805.98,698.985
1764504866.788366,-5639.219999999999,4685.085,-43759.575,-34061.445,-41076.18,-32409.0,-15803.01,701.37
1764504866.788366,-5635.844999999999,4688.505,-43757.28,-34062.165,-41079.78,-32413.635,-15803.865,704.3399999999999
1764504866.788366,-5628.78,4695.12,-43752.015,-34061.13,-41085.18,-32425.155,-15804.54,709.92
1764504866.788366,-5627.34,4696.785,-43751.7,-34064.369999999995,-41092.92,-32438.655,-15807.195,711.36
1764504866.788366,-5628.285,4695.075,-43755.03,-34069.365,-41100.93,-32452.83,-15809.13,710.055
1764504866.788366,-5633.325,4689.36,-43762.275,-34076.655,-41109.3,-32463.72,-15813.27,705.015
1764504866.788366,-5637.06,4685.31,-43765.74,-34078.68,-41110.74,-32463.405,-15813.315,701.9549999999999
1764504866.788366,-5638.635,4683.42,-43766.82,-34077.195,-41105.295,-32451.705,-15808.815,701.73
1764504866.8349102,-5638.724999999999,4685.085,-43763.49,-34070.265,-41091.885,-32432.985,-15807.465,702.045
1764504866.8349102,-5636.7,4687.785,-43760.43,-34064.369999999995,-41081.805,-32422.905,-15807.285,703.4399999999999
1764504866.8349102,-5640.344999999999,4683.96,-43763.31,-34066.575,-41084.37,-32428.935,-15808.365,700.38
1764504866.8349102,-5633.054999999999,4691.61,-43754.355,-34059.825,-41080.86,-32428.89,-15804.63,706.185
1764504866.8349102,-5631.03,4692.33,-43754.355,-34062.75,-41087.25,-32433.795,-15806.34,707.625
1764504866.8349102,-5632.2,4690.575,-43756.74,-34067.115,-41093.28,-32432.94,-15808.005,706.5
1764504866.8349102,-5628.915,4693.59,-43753.77,-34063.785,-41088.015,-32424.975,-15803.73,710.595
1764504866.8349102,-5633.639999999999,4689.27,-43758.54,-34066.44,-41088.015,-32424.93,-15804.405,707.355
1764504866.8349102,-5639.445,4683.825,-43764.57,-34070.355,-41087.475,-32419.125,-15804.54,703.4399999999999
1764504866.8349102,-5638.77,4683.599999999999,-43763.58,-34067.565,-41084.055,-32416.605,-15802.245,704.16
1764504866.8349102,-5634.9,4687.785,-43760.205,-34063.92,-41081.715,-32418.405,-15800.805,707.0849999999999
1764504866.8349102,-5637.735,4684.41,-43764.705,-34069.635,-41089.86,-32430.33,-15804.54,704.745
1764504866.8349102,-5643.224999999999,4678.335,-43769.745,-34075.08,-41096.79,-32440.905,-15808.455,699.93
1764504866.8349102,-5641.56,4681.575,-43766.055,-34071.795,-41095.395,-32438.79,-15805.98,701.4599999999999
1764504866.8359256,-5634.855,4689.045,-43757.19,-34063.92,-41087.745,-32426.55,-15801.03,707.0849999999999
1764504866.8359256,-5633.865,4689.72,-43755.3,-34063.065,-41083.515,-32417.595,-15801.705,708.03
1764504866.8359256,-5632.605,4691.79,-43753.41,-34061.085,-41080.545,-32412.69,-15802.605,708.03
1764504866.8359256,-5632.965,4689.045,-43758.855,-34067.475,-41089.455,-32423.445,-15803.64,709.6949999999999
1764504866.8359256,-5631.66,4689.179999999999,-43759.8,-34072.29,-41098.23,-32436.495,-15805.44,710.1899999999999
1764504866.8359256,-5633.37,4689.27,-43760.07,-34075.98,-41106.87,-32453.325,-15809.715,706.86
1764504866.8359256,-5630.04,4692.06,-43758.45,-34074.135,-41108.67,-32463.54,-15809.04,710.235
1764504866.8359256,-5631.255,4690.53,-43758.945,-34072.2,-41105.655,-32459.22,-15809.355,709.29
1764504866.8359256,-5636.429999999999,4686.255,-43763.31,-34075.485,-41105.655,-32450.355,-15808.77,705.1949999999999
1764504866.8359256,-5635.215,4688.054999999999,-43760.97,-34072.695,-41100.435,-32439.69,-15806.97,705.645
1764504866.884635,-5637.465,4686.21,-43762.365,-34073.19,-41099.265,-32440.545,-15809.895,702.72
1764504866.884635,-5636.61,4686.3,-43762.815,-34072.875,-41097.105,-32438.115,-15808.95,704.52
1764504866.884635,-5633.415,4689.495,-43759.44,-34067.97,-41088.69,-32428.62,-15805.08,708.12
1764504866.884635,-5638.365,4685.67,-43761.555,-34066.845,-41083.74,-32421.915,-15805.845,704.385
1764504866.884635,-5637.42,4686.885,-43759.575,-34065.27,-41080.005,-32419.035,-15802.74,705.735
1764504866.884635,-5638.86,4685.445,-43760.565,-34066.89,-41084.595,-32425.02,-15802.83,704.385
1764504866.884635,-5636.295,4687.335,-43760.025,-34066.935,-41088.78,-32429.16,-15801.93,706.23
1764504866.884635,-5635.08,4689.179999999999,-43758.765,-34065.405,-41092.83,-32439.105,-15803.145,707.265
1764504866.884635,-5632.065,4692.014999999999,-43755.615,-34061.58,-41089.635,-32439.915,-15800.265,710.64
1764504866.884635,-5635.665,4687.83,-43759.89,-34065.765,-41092.965,-32442.705,-15801.03,707.31
1764504866.884635,-5631.929999999999,4691.474999999999,-43756.245,-34062.03,-41088.51,-32437.53,-15799.77,710.28
1764504866.884635,-5631.615,4692.51,-43754.67,-34060.005,-41081.265,-32427.72,-15801.165,711.3149999999999
1764504866.8856397,-5630.175,4693.77,-43754.445,-34059.735,-41080.545,-32422.005,-15799.455,713.5649999999999
1764504866.8856397,-5632.469999999999,4692.51,-43755.39,-34063.605,-41086.89,-32424.75,-15803.685,709.47
1764504866.8856397,-5630.4,4695.03,-43753.815,-34065.81,-41088.195,-32422.59,-15804.945,711.3149999999999
1764504866.8856397,-5627.79,4697.37,-43752.645,-34065.315,-41088.33,-32424.3,-15804.63,713.745
1764504866.8856397,-5632.56,4691.429999999999,-43758.9,-34070.94,-41095.755,-32437.485,-15809.94,709.605
1764504866.8856397,-5636.07,4687.965,-43761.69,-34073.685,-41101.605,-32449.545,-15814.305,706.095
1764504866.8856397,-5636.925,4687.11,-43762.995,-34073.955,-41104.755,-32456.34,-15812.46,706.3199999999999
1764504866.8856397,-5637.78,4685.31,-43765.875,-34074.0,-41105.88,-32458.995,-15807.24,707.535
1764504866.8856397,-5634.945,4687.38,-43763.355,-34070.67,-41102.055,-32456.115,-15799.365,711.495
1764504866.8856397,-5639.04,4683.24,-43766.775,-34070.58,-41095.62,-32440.95,-15796.89,708.03
1764504866.8856397,-5634.675,4690.53,-43757.55,-34058.025,-41080.185,-32424.48,-15793.83,711.18
1764504866.8856397,-5634.719999999999,4692.33,-43753.23,-34053.119999999995,-41071.095,-32413.365,-15797.7,709.515
1764504866.929871,-5634.99,4690.304999999999,-43755.48,-34055.865,-41072.535,-32409.81,-15798.105,710.415
1764504866.929871,-5639.355,4686.12,-43760.07,-34063.47,-41080.32,-32409.495,-15802.47,705.285
1764504866.929871,-5638.23,4688.099999999999,-43757.28,-34065.18,-41083.92,-32413.815,-15802.74,705.06
1764504866.929871,-5635.755,4689.45,-43757.19,-34066.8,-41088.96,-32427.09,-15803.325,707.22
1764504866.929871,-5632.335,4691.745,-43757.28,-34065.72,-41088.87,-32427.63,-15799.32,711.81
1764504866.929871,-5635.395,4687.695,-43762.77,-34071.03,-41093.91,-32429.16,-15798.42,710.1899999999999
1764504866.929871,-5635.44,4688.595,-43761.195,-34069.815,-41092.875,-32427.945,-15797.43,710.91
1764504866.929871,-5633.955,4690.53,-43758.72,-34066.44,-41089.095,-32424.165,-15796.98,712.485
1764504866.929871,-5632.965,4691.52,-43755.12,-34059.96,-41080.095,-32415.705,-15799.41,711.18
1764504866.929871,-5634.315,4691.835,-43751.79,-34053.795,-41071.905,-32409.765,-15802.605,707.355
1764504866.929871,-5630.715,4695.48,-43748.73,-34050.69,-41069.7,-32410.71,-15799.275,712.17
1764504866.929871,-5633.594999999999,4690.845,-43755.345,-34058.744999999995,-41081.04,-32419.125,-15799.86,710.1899999999999
1764504866.9305658,-5630.31,4693.005,-43755.705,-34059.285,-41085.27,-32418.765,-15796.305,713.6999999999999
1764504866.9305658,-5629.23,4694.67,-43754.4,-34060.68,-41090.04,-32427.18,-15796.26,714.645
1764504866.9305658,-5629.679999999999,4694.804999999999,-43753.905,-34062.03,-41092.155,-32435.19,-15797.295,714.4649999999999
1764504866.9305658,-5630.895,4692.78,-43755.795,-34062.84,-41094.135,-32447.205,-15798.87,712.2149999999999
1764504866.9305658,-5630.175,4693.5,-43755.255,-34062.885,-41092.965,-32448.645,-15798.78,712.485
1764504866.9320765,-5629.59,4695.3,-43752.51,-34059.465,-41084.55,-32433.345,-15799.455,712.485
1764504866.9320765,-5628.014999999999,4697.46,-43749.63,-34054.65,-41075.19,-32413.995,-15797.34,714.555
1764504866.9320765,-5633.82,4691.835,-43755.03,-34058.205,-41076.855,-32411.115,-15799.41,709.155
1764504866.9329689,-5631.3,4695.21,-43750.62,-34056.855,-41077.44,-32417.145,-15797.43,710.9549999999999
1764504866.9329689,-5631.525,4692.735,-43754.535,-34061.22,-41083.785,-32424.03,-15796.89,712.53
1764504866.9768367,-5634.179999999999,4685.985,-43764.39,-34069.005,-41088.87,-32427.045,-15797.97,712.7099999999999
1764504866.9768367,-5626.71,4694.895,-43752.555,-34060.77,-41084.145,-32427.585,-15798.6,715.68
1764504866.9768367,-5623.92,4698.585,-43749.225,-34060.095,-41087.79,-32436.99,-15798.915,717.255
1764504866.9768367,-5625.27,4697.01,-43751.88,-34062.03,-41091.705,-32440.68,-15798.33,716.13
1764504866.9768367,-5628.69,4694.04,-43755.345,-34064.01,-41092.74,-32438.07,-15798.69,712.89
1764504866.9768367,-5628.554999999999,4693.95,-43754.805,-34061.4,-41085.54,-32427.495,-15795.765,715.185
1764504866.9768367,-5632.155,4690.53,-43758.0,-34062.119999999995,-41084.1,-32425.56,-15796.305,713.52
1764504866.9768367,-5636.25,4686.435,-43761.735,-34064.73,-41087.97,-32431.995,-15799.5,707.805
1764504866.9768367,-5633.145,4689.495,-43758.135,-34060.05,-41083.065,-32425.965,-15797.115,710.595
1764504866.9768367,-5636.474999999999,4686.974999999999,-43760.52,-34062.255,-41083.47,-32423.265,-15800.49,707.0849999999999
1764504866.9768367,-5635.889999999999,4688.865,-43757.505,-34057.665,-41075.64,-32410.935,-15800.22,706.68
1764504866.9768367,-5633.415,4690.935,-43755.84,-34056.63,-41075.955,-32412.24,-15799.455,708.39
1764504866.9768367,-5627.655,4697.145,-43750.305,-34054.02,-41076.9,-32417.145,-15797.115,713.8349999999999
1764504866.9768367,-5626.44,4697.235,-43750.62,-34056.765,-41081.715,-32424.57,-15798.195,714.735
1764504866.9768367,-5631.165,4691.7,-43757.595,-34066.215,-41092.74,-32437.89,-15802.02,710.73
1764504866.9768367,-5628.554999999999,4693.95,-43755.255,-34065.45,-41094.495,-32447.655,-15801.795,712.035
1764504866.9768367,-5624.73,4696.245,-43753.05,-34064.1,-41093.145,-32445.63,-15800.805,715.41
1764504866.9768367,-5632.605,4689.36,-43760.925,-34072.785,-41098.545,-32438.25,-15807.555,708.8399999999999
1764504866.9768367,-5630.804999999999,4691.385,-43759.35,-34071.165,-41097.555,-32430.375,-15807.69,710.1899999999999
1764504866.9768367,-5629.275,4693.005,-43757.91,-34068.42,-41098.455,-32434.785,-15808.905,710.865
1764504866.9768367,-5630.04,4692.78,-43757.325,-34067.115,-41101.155,-32446.08,-15810.12,710.055
1764504866.9768367,-5636.385,4686.885,-43761.33,-34070.535,-41105.52,-32458.32,-15812.595,704.61
1764504866.9768367,-5635.62,4686.885,-43761.915,-34071.075,-41105.52,-32461.695,-15806.43,706.995
1764504866.9768367,-5632.92,4689.405,-43759.44,-34066.35,-41097.24,-32451.57,-15799.32,711.5849999999999
1764504867.020367,-5638.59,4684.95,-43762.455,-34065.81,-41087.205,-32433.12,-15802.695,705.4649999999999
1764504867.0209818,-5637.42,4687.335,-43760.295,-34062.39,-41079.465,-32413.185,-15802.875,706.05
1764504867.0209818,-5630.985,4692.645,-43755.255,-34056.54,-41071.635,-32392.395,-15794.775,715.095
1764504867.0209818,-5632.74,4689.81,-43758.99,-34059.69,-41074.605,-32392.17,-15793.47,714.1949999999999
1764504867.0209818,-5631.165,4692.645,-43756.155,-34059.24,-41077.62,-32396.985,-15797.295,711.5849999999999
1764504867.0209818,-5628.78,4693.455,-43755.66,-34062.66,-41087.52,-32415.84,-15801.93,713.115
1764504867.0209818,-5628.735,4692.96,-43756.965,-34067.07,-41097.555,-32441.94,-15803.685,713.8349999999999
1764504867.0209818,-5628.645,4694.625,-43755.615,-34065.36,-41099.49,-32453.73,-15804.09,711.495
1764504867.0231776,-5629.005,4695.03,-43754.4,-34061.49,-41093.91,-32447.655,-15804.81,710.3249999999999
1764504867.0231776,-5630.355,4694.804999999999,-43753.14,-34057.305,-41084.73,-32432.715,-15800.535,710.9549999999999
1764504867.0231776,-5633.145,4689.945,-43757.64,-34060.59,-41084.595,-32426.505,-15797.16,709.515
1764504867.0231776,-5634.81,4686.705,-43761.51,-34063.2,-41084.235,-32422.275,-15798.42,708.8399999999999
1764504867.0231776,-5629.635,4692.78,-43754.22,-34055.145,-41073.705,-32410.89,-15795.765,713.43
1764504867.0231776,-5628.599999999999,4695.3,-43749.765,-34052.895,-41072.49,-32409.135,-15795.585,713.025
1764504867.0231776,-5627.429999999999,4696.47,-43748.955,-34056.765,-41080.365,-32418.81,-15796.98,713.16
1764504867.0231776,-5630.895,4692.24,-43754.175,-34063.244999999995,-41087.745,-32426.865,-15800.805,710.01
1764504867.0231776,-5627.7,4695.03,-43751.43,-34060.455,-41084.73,-32426.19,-15799.905,712.305
1764504867.0231776,-5630.264999999999,4691.205,-43754.4,-34062.255,-41084.73,-32428.845,-15802.785,709.0649999999999
1764504867.0231776,-5635.304999999999,4685.804999999999,-43759.62,-34066.619999999995,-41088.015,-32431.185,-15805.71,704.295
1764504867.0231776,-5637.195,4684.23,-43760.88,-34068.6,-41090.31,-32433.39,-15807.015,702.81
1764504867.0231776,-5638.905,4681.395,-43764.12,-34070.31,-41090.175,-32431.995,-15807.06,702.495
1764504867.0231776,-5634.63,4686.57,-43758.765,-34063.29,-41081.535,-32423.805,-15805.26,705.51
1764504867.0231776,-5633.82,4687.11,-43759.125,-34064.325,-41085.09,-32431.545,-15802.47,707.265
1764504867.0231776,-5638.23,4680.72,-43766.595,-34072.56,-41095.08,-32440.59,-15806.7,703.62
1764504867.0686717,-5638.545,4683.42,-43762.32,-34069.635,-41093.775,-32440.725,-15811.695,699.345
1764504867.0686717,-5636.88,4685.49,-43759.35,-34065.99,-41089.455,-32435.28,-15809.67,701.37
1764504867.070688,-5639.94,4681.8,-43764.795,-34070.265,-41090.265,-32431.275,-15808.14,699.7049999999999
1764504867.070688,-5635.125,4686.84,-43761.6,-34066.98,-41085.765,-32420.205,-15804.045,704.43
1764504867.070688,-5635.215,4686.929999999999,-43761.78,-34068.195,-41088.735,-32419.8,-15805.395,703.935
1764504867.070688,-5631.84,4690.395,-43757.685,-34066.08,-41089.23,-32421.42,-15804.495,706.635
1764504867.070688,-5634.495,4687.83,-43760.79,-34071.255,-41094.945,-32431.365,-15807.825,704.295
1764504867.070688,-5632.695,4689.81,-43759.845,-34069.77,-41095.485,-32441.355,-15806.925,705.735
1764504867.070688,-5626.935,4695.12,-43754.445,-34064.505,-41092.605,-32443.74,-15801.885,711.9
1764504867.070688,-5629.455,4692.195,-43757.73,-34068.105,-41098.455,-32452.245,-15803.19,709.47
1764504867.070688,-5625.855,4696.29,-43752.645,-34060.32,-41089.05,-32439.96,-15800.535,713.115
1764504867.070688,-5628.735,4693.679999999999,-43753.59,-34059.15,-41083.875,-32425.245,-15799.995,710.685
1764504867.070688,-5636.429999999999,4686.57,-43760.475,-34063.515,-41085.72,-32417.01,-15802.92,704.0699999999999
1764504867.070688,-5634.99,4688.73,-43757.685,-34059.915,-41081.265,-32411.43,-15803.64,705.735
1764504867.070688,-5630.13,4694.04,-43752.645,-34056.45,-41077.845,-32412.78,-15800.94,710.4599999999999
1764504867.070688,-5632.965,4688.685,-43759.755,-34065.72,-41088.105,-32432.175,-15801.93,708.0749999999999
1764504867.0717015,-5630.264999999999,4691.474999999999,-43758.315,-34066.215,-41090.355,-32436.18,-15799.545,710.8199999999999
1764504867.0722349,-5632.74,4689.675,-43759.935,-34068.825,-41094.495,-32436.315,-15803.01,707.67
1764504867.0722349,-5627.429999999999,4694.22,-43756.965,-34069.5,-41099.22,-32438.97,-15803.145,712.0799999999999
1764504867.0722349,-5626.62,4696.425,-43753.995,-34067.88,-41098.005,-32435.19,-15804.315,711.9449999999999
1764504867.0722349,-5625.224999999999,4698.63,-43751.61,-34066.619999999995,-41093.64,-32429.655,-15804.27,712.26
1764504867.0722349,-5630.804999999999,4692.105,-43757.865,-34070.49,-41095.44,-32435.37,-15808.68,706.905
1764504867.117449,-5633.145,4688.685,-43761.015,-34069.095,-41089.59,-32423.985,-15805.44,707.31
1764504867.1184456,-5638.05,4682.835,-43767.045,-34072.56,-41093.685,-32428.665,-15806.61,703.26
1764504867.1184456,-5634.99,4687.155,-43762.275,-34066.08,-41088.915,-32432.445,-15803.28,706.995
1764504867.1184456,-5635.44,4686.21,-43761.42,-34065.0,-41089.14,-32438.52,-15798.96,707.0849999999999
1764504867.1184456,-5639.445,4682.295,-43766.82,-34068.6,-41092.83,-32445.18,-15801.21,704.0699999999999
1764504867.1184456,-5636.88,4686.165,-43761.465,-34060.365,-41076.675,-32424.66,-15801.48,706.4549999999999
1764504867.1184456,-5629.23,4695.48,-43749.495,-34049.025,-41067.27,-32410.485,-15796.845,711.855
1764504867.1184456,-5630.445,4694.175,-43751.475,-34051.68,-41070.915,-32409.81,-15797.205,709.785
1764504867.1184456,-5629.23,4694.49,-43752.24,-34055.145,-41076.315,-32415.03,-15797.07,710.9549999999999
1764504867.1184456,-5631.165,4692.06,-43755.48,-34059.825,-41082.21,-32422.185,-15797.565,709.8299999999999
1764504867.1184456,-5631.75,4691.97,-43755.39,-34060.68,-41083.56,-32423.67,-15798.555,709.38
1764504867.1184456,-5630.849999999999,4691.97,-43756.02,-34059.465,-41080.995,-32420.88,-15796.395,712.035
1764504867.1184456,-5631.75,4692.195,-43755.93,-34059.6,-41080.185,-32422.095,-15796.62,710.55
1764504867.1184456,-5632.425,4691.79,-43756.785,-34061.715,-41082.705,-32426.955,-15800.895,707.805
1764504867.1184456,-5628.599999999999,4694.67,-43754.445,-34059.51,-41079.42,-32418.9,-15798.015,713.295
1764504867.1184456,-5631.03,4691.835,-43757.37,-34062.93,-41081.58,-32411.97,-15799.545,710.73
1764504867.1189518,-5623.514999999999,4699.349999999999,-43749.63,-34055.325,-41072.31,-32393.52,-15794.055,716.805
1764504867.1189518,-5625.27,4697.775,-43751.745,-34058.07,-41074.29,-32394.465,-15795.675,715.905
1764504867.1189518,-5629.5,4693.005,-43757.91,-34067.43,-41087.295,-32411.97,-15798.825,712.485
1764504867.1189518,-5628.87,4692.96,-43758.9,-34071.165,-41096.205,-32429.115,-15800.805,712.305
1764504867.1189518,-5627.655,4695.165,-43757.415,-34070.535,-41099.625,-32437.98,-15801.84,711.9
1764504867.1189518,-5629.05,4693.5,-43758.18,-34069.68,-41099.085,-32436.09,-15802.695,709.02
1764504867.1189518,-5624.685,4697.595,-43754.22,-34064.91,-41095.98,-32439.78,-15800.265,714.3299999999999
1764504867.1189518,-5622.389999999999,4700.88,-43749.09,-34059.375,-41091.435,-32446.215,-15798.555,716.4449999999999
1764504867.1632226,-5626.53,4697.955,-43751.16,-34059.195,-41089.995,-32448.915,-15800.445,712.4399999999999
1764504867.1632226,-5634.45,4690.485,-43757.28,-34061.85,-41083.56,-32432.445,-15801.705,706.8149999999999
1764504867.1632226,-5630.355,4693.139999999999,-43754.625,-34056.36,-41072.715,-32411.97,-15794.19,711.81
1764504867.1642232,-5633.91,4686.705,-43763.04,-34065.494999999995,-41083.065,-32416.605,-15795.27,709.38
1764504867.1642232,-5628.33,4694.849999999999,-43753.14,-34057.619999999995,-41078.52,-32415.3,-15795.945,711.72
1764504867.1642232,-5627.385,4696.56,-43750.395,-34055.369999999995,-41078.43,-32419.08,-15798.42,711.4499999999999
1764504867.1642232,-5629.635,4693.679999999999,-43754.58,-34059.825,-41085.09,-32423.535,-15800.715,709.47
1764504867.165231,-5632.2,4690.71,-43758.09,-34064.775,-41092.29,-32431.41,-15801.615,709.02
1764504867.165231,-5629.724999999999,4694.445,-43753.095,-34062.165,-41090.13,-32431.5,-15803.865,710.64
1764504867.165231,-5628.87,4694.625,-43752.78,-34061.22,-41086.845,-32425.47,-15804.045,710.8199999999999
1764504867.165231,-5628.825,4695.03,-43754.175,-34060.68,-41084.73,-32422.545,-15802.065,711.225
1764504867.165231,-5629.005,4695.615,-43754.13,-34058.835,-41080.635,-32421.735,-15801.525,711.63
1764504867.165231,-5625.675,4699.395,-43749.54,-34053.39,-41073.21,-32417.145,-15797.52,715.05
1764504867.165231,-5625.945,4698.63,-43750.44,-34055.01,-41073.705,-32416.29,-15796.89,716.355
1764504867.1662216,-5630.31,4693.545,-43755.48,-34059.645,-41077.215,-32414.445,-15795.99,713.79
1764504867.1662216,-5632.875,4690.26,-43758.72,-34061.49,-41077.89,-32411.43,-15795.855,711.135
1764504867.1662216,-5632.245,4690.8,-43757.73,-34060.59,-41076.72,-32411.43,-15792.705,712.755
1764504867.1662216,-5637.51,4686.795,-43761.825,-34066.305,-41084.1,-32420.565,-15794.775,707.76
1764504867.1662216,-5636.835,4687.2,-43762.815,-34068.465,-41088.6,-32424.57,-15793.83,708.885
1764504867.1662216,-5631.525,4691.97,-43758.09,-34065.675,-41090.13,-32429.655,-15791.67,713.385
1764504867.1672206,-5633.37,4690.17,-43759.665,-34068.78,-41096.565,-32440.59,-15795.9,710.4599999999999
1764504867.1672206,-5634.224999999999,4689.495,-43760.61,-34069.725,-41095.845,-32438.7,-15797.97,710.055
1764504867.1672206,-5634.81,4690.035,-43759.62,-34066.845,-41090.13,-32433.93,-15801.03,708.93
1764504867.1672206,-5637.33,4689.63,-43758.63,-34064.505,-41085.045,-32431.905,-15805.44,705.1949999999999
1764504867.2079394,-5634.63,4692.33,-43755.12,-34058.295,-41073.705,-32416.515,-15803.505,708.12
1764504867.2079394,-5635.53,4690.349999999999,-43755.48,-34057.575,-41072.04,-32412.735,-15802.155,706.185
1764504867.2079394,-5631.885,4693.41,-43752.06,-34053.3,-41069.025,-32406.525,-15796.215,710.01
1764504867.2079394,-5634.855,4689.0,-43757.145,-34059.33,-41078.115,-32416.02,-15794.64,707.535
1764504867.2079394,-5632.965,4690.755,-43756.695,-34062.165,-41085.27,-32430.735,-15793.92,710.595
1764504867.2079394,-5635.665,4688.55,-43760.295,-34068.24,-41094.72,-32450.04,-15797.7,708.435
1764504867.2079394,-5637.825,4686.3,-43761.915,-34068.915,-41091.75,-32441.49,-15800.175,706.185
1764504867.2079394,-5635.755,4687.785,-43760.205,-34062.48,-41076.945,-32414.94,-15798.69,707.895
1764504867.2079394,-5633.639999999999,4689.09,-43757.775,-34059.78,-41069.925,-32397.345,-15797.025,709.65
1764504867.2079394,-5641.514999999999,4681.935,-43764.165,-34067.43,-41074.74,-32397.255,-15801.12,704.655
1764504867.2079394,-5637.735,4687.02,-43759.98,-34065.72,-41078.07,-32407.605,-15800.355,707.895
1764504867.2084718,-5637.87,4686.165,-43761.42,-34069.365,-41085.54,-32421.645,-15800.895,706.86
1764504867.2084718,-5635.395,4688.099999999999,-43759.305,-34069.005,-41088.42,-32429.565,-15800.58,708.2099999999999
1764504867.2084718,-5631.929999999999,4691.565,-43755.165,-34065.63,-41087.565,-32430.555,-15799.32,710.91
1764504867.2084718,-5632.335,4690.755,-43756.11,-34065.09,-41087.475,-32428.53,-15799.905,710.595
1764504867.2084718,-5633.55,4688.91,-43758.63,-34067.43,-41090.49,-32428.305,-15800.49,709.29
1764504867.2084718,-5635.53,4687.11,-43760.88,-34069.545,-41094.54,-32438.835,-15801.39,707.265
1764504867.2084718,-5632.469999999999,4690.935,-43755.48,-34065.945,-41092.695,-32438.295,-15801.21,709.605
1764504867.2084718,-5635.17,4687.56,-43759.485,-34071.03,-41096.655,-32439.555,-15803.055,706.77
1764504867.2084718,-5640.929999999999,4681.17,-43765.875,-34077.15,-41100.795,-32440.905,-15806.52,701.73
1764504867.2084718,-5640.615,4678.695,-43769.88,-34079.04,-41099.67,-32437.26,-15805.44,704.385
1764504867.2084718,-5639.355,4680.855,-43765.965,-34073.64,-41092.605,-32432.13,-15806.34,703.53
1764504867.256864,-5640.48,4681.98,-43763.355,-34071.84,-41090.31,-32430.51,-15809.355,700.47
1764504867.256864,-5637.87,4683.78,-43762.995,-34072.065,-41088.735,-32425.02,-15806.745,704.97
1764504867.256864,-5638.185,4683.69,-43763.13,-34072.965,-41089.815,-32422.275,-15805.62,704.52
1764504867.256864,-5636.16,4686.57,-43759.98,-34069.275,-41089.68,-32421.78,-15804.495,705.42
1764504867.256864,-5633.865,4687.514999999999,-43758.81,-34069.77,-41094.945,-32430.825,-15806.115,706.365
1764504867.256864,-5632.74,4688.46,-43758.0,-34070.49,-41097.555,-32437.98,-15806.52,707.31
1764504867.256864,-5634.315,4686.929999999999,-43762.185,-34072.65,-41097.105,-32440.05,-15808.995,706.41
1764504867.256864,-5637.014999999999,4684.59,-43763.67,-34070.805,-41092.2,-32434.74,-15811.155,704.025
1764504867.256864,-5635.08,4687.02,-43760.16,-34066.619999999995,-41088.69,-32433.75,-15810.12,704.43
1764504867.256864,-5636.295,4686.435,-43759.71,-34067.43,-41091.3,-32443.83,-15809.715,703.53
1764504867.256864,-5632.469999999999,4688.37,-43758.495,-34064.955,-41088.33,-32443.47,-15802.695,709.1999999999999
1764504867.256864,-5632.56,4686.885,-43759.755,-34064.46,-41081.49,-32429.07,-15796.395,709.6949999999999
1764504867.256864,-5634.764999999999,4685.804999999999,-43758.99,-34063.38,-41076.63,-32419.935,-15795.63,708.2099999999999
1764504867.256864,-5640.255,4681.575,-43762.725,-34064.595,-41076.045,-32416.11,-15799.185,703.17
1764504867.256864,-5637.375,4685.445,-43759.17,-34061.85,-41074.425,-32407.515,-15799.905,705.3299999999999
1764504867.256864,-5633.325,4689.27,-43755.705,-34060.77,-41073.66,-32402.925,-15798.375,708.93
1764504867.256864,-5629.86,4690.935,-43754.22,-34061.445,-41076.405,-32404.275,-15795.54,712.7099999999999
1764504867.256864,-5628.96,4692.465,-43753.905,-34062.705,-41081.49,-32412.015,-15798.33,712.26
1764504867.256864,-5626.304999999999,4695.66,-43751.295,-34061.04,-41083.425,-32420.07,-15799.86,713.025
1764504867.256864,-5626.8,4695.21,-43752.285,-34064.82,-41089.59,-32430.465,-15802.155,712.485
1764504867.256864,-5633.865,4688.099999999999,-43760.88,-34076.43,-41106.825,-32454.135,-15811.02,706.05
1764504867.256864,-5635.17,4686.66,-43764.255,-34080.119999999995,-41112.315,-32468.715,-15814.845,704.8349999999999
1764504867.256864,-5633.639999999999,4686.84,-43765.47,-34079.49,-41109.345,-32465.25,-15812.64,707.04
1764504867.256864,-5636.79,4684.5,-43766.73,-34079.265,-41107.815,-32457.555,-15812.955,704.295
1764504867.3005111,-5634.764999999999,4687.02,-43762.365,-34069.59,-41092.47,-32440.725,-15806.79,706.545
1764504867.3005111,-5638.23,4682.61,-43764.84,-34066.35,-41084.19,-32427.495,-15803.1,704.655
1764504867.3005111,-5633.19,4687.92,-43758.225,-34055.595,-41069.925,-32404.995,-15794.505,710.73
1764504867.3005111,-5635.8,4685.31,-43759.305,-34056.0,-41068.935,-32400.27,-15796.08,707.4
1764504867.3005111,-5630.67,4691.474999999999,-43752.42,-34050.555,-41065.245,-32395.23,-15791.49,711.72
1764504867.3005111,-5628.915,4692.15,-43752.015,-34051.275,-41066.37,-32395.14,-15790.545,712.485
1764504867.3005111,-5628.42,4691.295,-43753.77,-34054.875,-41071.545,-32402.745,-15792.615,712.305
1764504867.3005111,-5632.92,4686.12,-43760.43,-34063.065,-41080.725,-32413.815,-15797.88,707.85
1764504867.301531,-5632.74,4685.22,-43761.375,-34066.619999999995,-41084.1,-32414.445,-15800.94,707.22
1764504867.301531,-5625.764999999999,4692.554999999999,-43753.95,-34061.715,-41078.34,-32405.805,-15800.94,711.9
1764504867.301531,-5624.28,4694.264999999999,-43751.34,-34061.31,-41079.96,-32408.73,-15802.47,711.72
1764504867.301531,-5626.395,4692.465,-43753.23,-34065.36,-41087.7,-32417.055,-15805.26,710.28
1764504867.301531,-5628.554999999999,4689.72,-43757.505,-34069.23,-41092.92,-32426.82,-15803.82,710.37
1764504867.301531,-5630.625,4686.075,-43761.33,-34072.38,-41101.605,-32449.455,-15803.775,708.975
1764504867.301531,-5629.679999999999,4686.885,-43761.555,-34072.244999999995,-41105.52,-32467.5,-15804.315,709.155
1764504867.301531,-5632.38,4684.005,-43765.38,-34075.845,-41107.905,-32467.5,-15807.645,704.88
1764504867.301531,-5634.27,4682.16,-43766.37,-34074.63,-41097.87,-32438.34,-15811.02,701.28
1764504867.301531,-5630.58,4686.03,-43760.88,-34068.015,-41088.015,-32420.43,-15808.455,704.52
1764504867.301531,-5630.849999999999,4685.849999999999,-43760.745,-34064.415,-41079.87,-32407.02,-15805.17,704.8349999999999
1764504867.301531,-5631.84,4685.264999999999,-43761.465,-34066.125,-41084.505,-32413.86,-15804.54,704.52
1764504867.301531,-5631.255,4685.985,-43760.07,-34066.53,-41087.745,-32421.87,-15803.235,704.16
1764504867.301531,-5623.469999999999,4692.78,-43753.365,-34060.455,-41083.785,-32421.78,-15798.555,711.045
1764504867.301531,-5625.855,4690.125,-43756.47,-34063.83,-41086.53,-32421.285,-15801.93,709.1999999999999
1764504867.301531,-5631.03,4684.995,-43761.96,-34069.725,-41090.805,-32426.235,-15806.34,704.43
1764504867.349529,-5628.554999999999,4686.57,-43760.7,-34066.395,-41085.855,-32423.4,-15804.72,707.13
1764504867.3500383,-5627.16,4689.135,-43758.63,-34062.57,-41081.625,-32425.965,-15805.395,707.0849999999999
1764504867.3500383,-5625.179999999999,4691.115,-43754.67,-34057.44,-41075.19,-32427.315,-15803.82,708.3
1764504867.3500383,-5624.865,4691.474999999999,-43753.815,-34057.71,-41076.0,-32429.07,-15801.39,708.795
1764504867.3500383,-5621.13,4695.974999999999,-43749.81,-34056.54,-41075.64,-32422.365,-15796.44,712.62
1764504867.3500383,-5625.63,4690.395,-43755.75,-34063.38,-41081.895,-32416.47,-15796.035,709.155
1764504867.3500383,-5621.13,4693.32,-43753.095,-34062.75,-41084.415,-32415.57,-15793.29,713.0699999999999
1764504867.3500383,-5619.375,4696.785,-43750.17,-34060.275,-41086.845,-32422.905,-15795.675,712.89
1764504867.3500383,-5613.57,4702.185,-43746.12,-34052.805,-41078.565,-32420.07,-15789.33,720.9449999999999
1764504867.3500383,-5621.31,4693.59,-43753.68,-34058.07,-41079.195,-32418.225,-15793.02,715.005
1764504867.3500383,-5624.054999999999,4693.365,-43752.24,-34058.295,-41078.61,-32416.47,-15797.52,709.515
1764504867.3500383,-5622.03,4694.895,-43751.52,-34059.465,-41082.615,-32424.165,-15797.7,710.685
1764504867.3500383,-5618.745,4698.72,-43748.415,-34057.98,-41082.165,-32425.47,-15796.755,713.61
1764504867.3500383,-5618.61,4698.855,-43749.315,-34058.88,-41080.905,-32423.265,-15798.78,713.3399999999999
