Timestamp,Channel1,Channel2,Channel3,Channel4,Channel5,Channel6,Channel7,Channel8
1764764369.161435,395.595,-445.32,-28198.215,-5757.84,-19734.84,-27772.335,-6218.235,2624.085
1764764369.161435,391.455,-449.145,-28203.03,-5761.8,-19740.105,-27777.555,-6221.745,2620.305
1764764369.161435,386.595,-454.68,-28208.61,-5767.065,-19745.685,-27782.28,-6225.344999999999,2614.995
1764764369.161435,386.685,-454.905,-28208.565,-5766.84,-19745.1,-27782.145,-6225.57,2615.535
1764764369.161435,387.765,-453.285,-28207.755,-5765.94,-19744.065,-27781.155,-6224.445,2616.93
1764764369.161435,389.34,-451.395,-28205.28,-5764.139999999999,-19742.22,-27778.995,-6222.78,2618.28
1764764369.161435,394.245,-447.03,-28201.365,-5759.594999999999,-19738.305,-27774.99,-6219.719999999999,2621.88
1764764369.161435,394.245,-446.895,-28201.365,-5759.955,-19738.755,-27774.765,-6219.764999999999,2622.285
1764764369.161435,392.67,-447.84,-28201.545,-5760.585,-19738.98,-27775.665,-6220.26,2620.89
1764764369.161435,392.31,-448.695,-28201.815,-5760.63,-19738.665,-27776.475,-6220.08,2619.9
1764764369.161435,396.81,-443.97,-28196.64,-5755.59,-19733.445,-27771.75,-6216.615,2625.345
1764764369.161435,396.18,-444.78,-28197.9,-5755.995,-19734.12,-27771.57,-6216.21,2624.94
1764764369.161435,393.345,-447.255,-28201.005,-5758.469999999999,-19737.045,-27773.145,-6217.56,2622.555
1764764369.161435,394.83,-445.545,-28199.565,-5756.67,-19735.83,-27772.065,-6217.695,2624.13
1764764369.161435,392.58,-448.065,-28201.77,-5759.73,-19738.755,-27775.845,-6219.045,2621.925
1764764369.161435,395.1,-445.995,-28200.465,-5757.389999999999,-19737.09,-27773.595,-6217.875,2624.04
1764764369.161435,393.795,-446.94,-28201.95,-5758.83,-19738.485,-27774.63,-6218.685,2622.285
1764764369.161435,395.505,-444.825,-28199.295,-5757.344999999999,-19736.73,-27772.695,-6217.514999999999,2624.445
1764764369.161435,393.21,-446.805,-28200.33,-5758.74,-19738.665,-27775.305,-6218.19,2622.105
1764764369.161435,395.73,-445.365,-28198.755,-5756.985,-19736.28,-27773.37,-6217.335,2624.085
1764764369.161435,398.385,-443.07,-28196.82,-5754.51,-19734.255,-27770.67,-6215.94,2627.145
1764764369.162443,392.265,-448.695,-28201.68,-5759.415,-19739.295,-27775.17,-6219.179999999999,2622.24
1764764369.21261,392.265,-448.605,-28201.905,-5759.505,-19739.655,-27776.52,-6219.855,2621.7
1764764369.21261,395.415,-444.645,-28198.71,-5756.804999999999,-19737.135,-27774.18,-6218.415,2624.715
1764764369.21261,395.37,-444.465,-28198.8,-5757.48,-19737.765,-27774.45,-6218.325,2624.985
1764764369.21261,390.465,-449.82,-28203.57,-5761.665,-19742.13,-27779.895,-6221.52,2620.395
1764764369.21261,389.16,-450.855,-28204.335,-5762.474999999999,-19742.805,-27780.21,-6221.79,2619.72
1764764369.21261,389.835,-449.055,-28202.535,-5759.37,-19739.295,-27776.835,-6220.665,2619.495
1764764369.21261,393.525,-444.015,-28198.35,-5755.679999999999,-19735.245,-27773.325,-6218.955,2620.62
1764764369.21261,394.56,-443.025,-28200.105,-5759.505,-19739.565,-27777.915,-6221.7,2618.865
1764764369.21261,396.585,-439.965,-28198.035,-5756.804999999999,-19738.08,-27777.015,-6221.16,2620.17
1764764369.21261,382.545,-454.815,-28206.315,-5762.25,-19743.345,-27781.965,-6225.75,2613.51
1764764369.21261,379.035,-460.17,-28209.645,-5764.275,-19744.875,-27783.045,-6227.82,2614.005
1764764369.21386,385.38,-453.465,-28207.44,-5764.094999999999,-19746.09,-27783.495,-6226.83,2616.705
1764764369.21386,385.38,-453.195,-28208.7,-5766.885,-19750.32,-27786.87,-6227.639999999999,2614.095
1764764369.21386,386.46,-451.395,-28205.73,-5764.455,-19748.79,-27786.375,-6227.145,2613.33
1764764369.21386,390.51,-446.085,-28199.34,-5759.145,-19744.785,-27782.73,-6224.895,2616.885
1764764369.21386,392.67,-444.42,-28195.605,-5754.735,-19740.105,-27778.23,-6222.24,2619.72
1764764369.21386,386.91,-452.52,-28205.325,-5761.98,-19744.47,-27781.785,-6224.58,2615.715
1764764369.21386,388.755,-453.24,-28209.015,-5764.23,-19743.885,-27779.805,-6222.465,2619.135
1764764369.21386,387.36,-455.31,-28211.355,-5766.57,-19745.01,-27780.165,-6222.33,2618.145
1764764369.21386,382.68,-457.02,-28210.86,-5767.695,-19747.305,-27783.72,-6226.065,2612.97
1764764369.21386,387.405,-447.57,-28201.905,-5762.34,-19744.965,-27783.18,-6225.03,2615.265
1764764369.21386,393.39,-440.37,-28194.165,-5756.175,-19741.455,-27780.165,-6222.87,2618.775
1764764369.21386,388.71,-447.21,-28197.315,-5756.49,-19741.455,-27780.57,-6223.139999999999,2616.12
1764764369.21386,389.205,-446.175,-28194.165,-5752.349999999999,-19738.845,-27778.995,-6222.285,2617.605
1764764369.2581754,391.5,-445.275,-28196.91,-5756.67,-19741.365,-27778.5,-6221.655,2620.215
1764764369.2581754,384.255,-455.355,-28209.735,-5767.245,-19748.205,-27782.64,-6225.57,2614.41
1764764369.2581754,377.82,-464.895,-28220.175,-5772.42,-19747.665,-27781.92,-6227.37,2611.08
1764764369.2581754,381.78,-461.205,-28215.315,-5768.145,-19743.075,-27778.41,-6224.804999999999,2614.995
1764764369.2581754,382.185,-458.64,-28211.715,-5766.57,-19744.155,-27780.345,-6225.389999999999,2614.095
1764764369.2581754,378.36,-460.44,-28212.795,-5769.405,-19749.105,-27785.565,-6229.62,2606.535
1764764369.2581754,378.855,-455.76,-28207.26,-5763.735,-19744.74,-27781.92,-6227.19,2607.3
1764764369.2581754,377.64,-459.135,-28211.445,-5765.31,-19743.975,-27780.795,-6225.165,2612.025
1764764369.2581754,385.245,-456.345,-28211.085,-5764.365,-19743.255,-27779.85,-6224.04,2618.325
1764764369.2581754,388.305,-452.52,-28206.945,-5762.115,-19742.985,-27779.895,-6223.905,2616.975
1764764369.2581754,390.645,-450.36,-28203.615,-5759.415,-19740.105,-27777.42,-6221.565,2618.28
1764764369.2581754,389.07,-450.27,-28203.345,-5758.469999999999,-19739.205,-27775.89,-6220.665,2618.505
1764764369.2581754,391.68,-447.615,-28200.195,-5755.77,-19736.82,-27773.865,-6218.955,2620.935
1764764369.2581754,390.285,-448.47,-28201.635,-5757.21,-19738.89,-27775.98,-6220.304999999999,2619.945
1764764369.2581754,392.94,-445.905,-28199.115,-5755.32,-19737.405,-27774.45,-6219.855,2622.42
1764764369.2581754,389.385,-450.81,-28203.975,-5760.135,-19742.04,-27778.635,-6222.51,2618.55
1764764369.2581754,391.275,-448.38,-28202.22,-5758.965,-19739.16,-27776.385,-6220.98,2621.16
1764764369.2581754,391.815,-447.165,-28200.78,-5757.615,-19738.215,-27776.43,-6220.395,2621.07
1764764369.2581754,393.885,-443.07,-28196.595,-5754.014999999999,-19736.415,-27775.305,-6218.91,2621.925
1764764369.2581754,398.295,-437.355,-28189.35,-5748.615,-19734.615,-27773.73,-6217.65,2624.085
1764764369.2581754,399.375,-433.44,-28184.04,-5745.285,-19734.93,-27775.26,-6217.65,2623.275
1764764369.2581754,401.58,-428.805,-28179.09,-5741.82,-19733.445,-27774.36,-6215.985,2625.345
1764764369.2581754,395.955,-436.275,-28188.72,-5749.245,-19737.99,-27778.365,-6219.36,2621.745
1764764369.2581754,387.765,-450.9,-28205.415,-5760.179999999999,-19741.095,-27777.69,-6221.52,2617.425
1764764369.3014836,382.41,-459.045,-28215.72,-5767.11,-19742.085,-27777.15,-6222.42,2615.265
1764764369.3014836,379.53,-461.295,-28217.79,-5769.675,-19746.72,-27782.685,-6226.74,2611.035
1764764369.3014836,385.335,-453.105,-28208.34,-5762.07,-19742.76,-27780.57,-6224.804999999999,2614.995
1764764369.3014836,391.05,-445.995,-28199.43,-5754.87,-19738.62,-27777.33,-6221.429999999999,2618.46
1764764369.3014836,391.68,-446.805,-28200.42,-5755.139999999999,-19737.54,-27775.44,-6219.54,2620.215
1764764369.3014836,389.835,-449.955,-28204.875,-5757.84,-19737.27,-27773.82,-6219.495,2620.17
1764764369.3014836,386.37,-452.25,-28206.675,-5758.605,-19738.305,-27775.665,-6221.34,2617.155
1764764369.3014836,385.83,-453.33,-28208.25,-5759.775,-19739.07,-27775.53,-6221.115,2617.92
1764764369.3014836,385.155,-454.23,-28209.33,-5762.745,-19743.345,-27779.67,-6223.094999999999,2615.985
1764764369.3014836,391.185,-446.94,-28201.545,-5755.23,-19737.54,-27774.405,-6219.63,2621.52
1764764369.3014836,391.005,-445.77,-28200.69,-5753.655,-19736.145,-27773.415,-6218.639999999999,2622.465
1764764369.3014836,386.91,-450.855,-28206.675,-5759.46,-19740.42,-27776.97,-6222.24,2618.01
1764764369.3014836,381.645,-457.605,-28212.885,-5765.04,-19744.335,-27780.12,-6224.715,2613.195
1764764369.3014836,383.445,-455.4,-28211.085,-5762.79,-19743.165,-27779.67,-6224.985,2614.725
1764764369.3014836,384.03,-454.995,-28210.905,-5764.094999999999,-19747.215,-27782.37,-6225.705,2613.33
1764764369.3014836,388.08,-449.865,-28204.83,-5760.179999999999,-19745.955,-27781.11,-6224.264999999999,2615.715
1764764369.302817,394.83,-440.775,-28194.57,-5751.81,-19739.34,-27776.61,-6220.035,2621.52
1764764369.302817,392.985,-441.315,-28196.19,-5754.105,-19741.815,-27779.13,-6221.52,2620.035
1764764369.302817,390.24,-446.58,-28202.58,-5757.389999999999,-19741.365,-27777.33,-6220.98,2619.72
1764764369.302817,386.82,-451.89,-28207.44,-5760.135,-19741.455,-27777.555,-6220.844999999999,2617.65
1764764369.302817,390.915,-447.435,-28202.67,-5755.679999999999,-19737.54,-27773.325,-6217.965,2621.475
1764764369.302817,390.33,-447.57,-28202.445,-5755.679999999999,-19738.755,-27775.62,-6218.685,2619.72
1764764369.348929,389.385,-447.12,-28201.275,-5756.264999999999,-19739.655,-27777.87,-6219.224999999999,2619.18
1764764369.348929,393.255,-441.765,-28196.19,-5751.405,-19736.865,-27774.54,-6216.57,2623.5
1764764369.348929,394.47,-440.865,-28195.515,-5751.27,-19736.145,-27773.775,-6216.03,2623.815
1764764369.348929,395.91,-440.145,-28193.535,-5749.695,-19735.245,-27773.64,-6215.715,2623.77
1764764369.348929,393.57,-440.955,-28194.84,-5751.54,-19739.655,-27777.51,-6217.514999999999,2620.935
1764764369.3494356,393.705,-441.99,-28197.09,-5754.51,-19741.365,-27777.555,-6217.74,2621.61
1764764369.3494356,385.38,-454.41,-28211.22,-5765.355,-19746.855,-27780.345,-6220.395,2616.57
1764764369.3494356,383.805,-457.695,-28215.765,-5765.535,-19744.155,-27777.33,-6219.855,2617.605
1764764369.3494356,388.035,-451.53,-28208.025,-5759.955,-19742.805,-27777.42,-6218.46,2620.62
1764764369.3494356,387.855,-449.19,-28204.965,-5758.695,-19743.66,-27779.535,-6218.685,2619.63
1764764369.3494356,390.87,-446.175,-28202.715,-5756.715,-19740.24,-27776.025,-6216.12,2623.005
1764764369.3494356,388.755,-449.325,-28206.495,-5759.37,-19741.77,-27776.52,-6217.02,2621.655
1764764369.3494356,387.495,-449.865,-28206.855,-5759.37,-19742.67,-27778.545,-6217.74,2619.81
1764764369.3494356,393.48,-442.62,-28198.935,-5752.98,-19738.125,-27774.945,-6214.185,2624.805
1764764369.3494356,398.88,-437.265,-28192.455,-5747.849999999999,-19734.03,-27770.4,-6211.44,2629.035
1764764369.3499422,394.875,-441.18,-28196.37,-5751.0,-19735.965,-27773.28,-6213.825,2625.075
1764764369.3499422,394.335,-440.28,-28195.74,-5750.55,-19736.865,-27775.395,-6215.264999999999,2623.86
1764764369.3499422,397.125,-435.87,-28191.33,-5747.58,-19735.605,-27774.18,-6213.42,2626.515
1764764369.3499422,399.645,-435.195,-28189.8,-5745.69,-19733.4,-27772.245,-6211.395,2628.54
1764764369.3499422,393.435,-443.205,-28199.295,-5754.24,-19739.025,-27776.79,-6214.275,2623.86
1764764369.3499422,391.455,-447.66,-28204.785,-5758.065,-19739.52,-27774.675,-6213.42,2624.355
1764764369.3499422,389.88,-449.19,-28205.37,-5758.02,-19739.52,-27774.855,-6214.905,2623.095
1764764369.3499422,388.035,-449.82,-28205.505,-5759.46,-19742.085,-27777.87,-6216.615,2621.61
1764764369.3499422,391.05,-446.04,-28201.5,-5755.905,-19740.24,-27776.34,-6215.4,2623.41
1764764369.3970828,396.45,-439.38,-28194.705,-5749.29,-19734.48,-27770.985,-6211.215,2628.135
1764764369.3970828,394.11,-442.305,-28198.395,-5752.304999999999,-19737.0,-27772.785,-6213.014999999999,2625.57
1764764369.3970828,389.52,-446.985,-28203.885,-5756.985,-19742.22,-27776.97,-6216.03,2621.475
1764764369.3970828,393.66,-442.935,-28198.62,-5751.764999999999,-19737.945,-27772.965,-6212.88,2625.03
1764764369.3970828,395.685,-440.415,-28196.055,-5749.785,-19735.83,-27771.84,-6211.26,2626.965
1764764369.3970828,394.38,-440.685,-28196.595,-5751.045,-19737.63,-27773.595,-6212.115,2626.74
1764764369.3970828,392.22,-441.81,-28197.495,-5752.44,-19740.195,-27776.34,-6213.42,2623.815
1764764369.3970828,394.83,-437.805,-28193.58,-5749.02,-19737.81,-27775.395,-6213.24,2625.705
1764764369.3970828,391.05,-441.18,-28198.17,-5753.07,-19742.085,-27779.67,-6216.255,2621.385
1764764369.3970828,390.78,-443.295,-28199.52,-5753.79,-19741.77,-27779.22,-6216.255,2621.97
1764764369.3970828,391.095,-442.08,-28197.585,-5751.764999999999,-19740.015,-27778.095,-6216.615,2622.33
1764764369.3970828,392.445,-441.855,-28196.82,-5750.099999999999,-19736.64,-27774.495,-6214.545,2624.76
1764764369.3970828,388.17,-448.38,-28205.01,-5755.86,-19738.755,-27775.8,-6216.03,2622.555
1764764369.3970828,389.655,-447.48,-28204.38,-5754.78,-19737.945,-27774.72,-6215.264999999999,2623.635
1764764369.3970828,390.645,-446.85,-28203.03,-5753.655,-19738.44,-27774.495,-6214.185,2624.22
1764764369.3970828,386.685,-449.46,-28205.235,-5756.67,-19742.13,-27778.77,-6216.615,2620.53
1764764369.3970828,392.4,-442.98,-28199.025,-5751.495,-19737.54,-27774.405,-6213.51,2624.985
1764764369.3970828,393.75,-440.865,-28197.765,-5750.505,-19737.765,-27773.505,-6212.205,2626.155
1764764369.3970828,391.185,-443.115,-28199.79,-5752.62,-19739.655,-27776.115,-6213.465,2624.13
1764764369.3970828,391.95,-441.63,-28197.855,-5750.865,-19739.205,-27776.205,-6214.139999999999,2624.31
1764764369.3970828,398.88,-434.97,-28190.52,-5744.429999999999,-19732.815,-27769.68,-6210.09,2630.295
1764764369.3980885,399.645,-433.125,-28188.945,-5742.09,-19730.16,-27767.34,-6208.56,2631.105
1764764369.3980885,396.495,-436.455,-28192.14,-5744.745,-19734.12,-27770.805,-6210.045,2628.0
1764764369.3980885,396.09,-437.895,-28194.615,-5746.95,-19736.055,-27771.255,-6210.495,2628.36
1764764369.444456,398.61,-434.61,-28191.375,-5744.925,-19734.075,-27768.285,-6208.965,2631.735
1764764369.444456,396.585,-437.535,-28193.715,-5746.905,-19733.805,-27769.005,-6209.82,2629.98
1764764369.444456,393.57,-440.955,-28197.99,-5749.965,-19735.11,-27770.535,-6210.179999999999,2627.865
1764764369.444456,395.46,-439.74,-28197.225,-5747.535,-19731.555,-27766.98,-6207.075,2630.07
1764764369.444456,394.605,-439.605,-28196.91,-5747.49,-19733.445,-27769.545,-6208.29,2628.27
1764764369.444456,396.18,-437.805,-28195.515,-5746.724999999999,-19732.905,-27768.645,-6208.155,2629.755
1764764369.444456,390.96,-444.465,-28202.94,-5752.755,-19736.19,-27771.03,-6210.54,2626.425
1764764369.444456,387.495,-449.505,-28207.53,-5756.49,-19739.295,-27774.18,-6212.385,2623.05
1764764369.444456,391.095,-445.095,-28201.185,-5751.9,-19736.46,-27772.47,-6210.179999999999,2626.29
1764764369.444456,395.82,-438.93,-28194.93,-5746.05,-19732.815,-27767.88,-6207.03,2630.43
1764764369.444456,397.17,-436.905,-28193.625,-5744.969999999999,-19732.41,-27767.295,-6206.58,2631.42
1764764369.444972,397.53,-436.68,-28192.725,-5743.755,-19731.195,-27767.205,-6206.76,2631.51
1764764369.444972,396.675,-438.705,-28194.435,-5745.42,-19731.96,-27768.69,-6207.525,2630.385
1764764369.444972,395.055,-440.775,-28196.73,-5748.075,-19733.67,-27770.04,-6208.245,2628.63
1764764369.444972,393.21,-442.665,-28198.305,-5749.514999999999,-19735.92,-27771.615,-6209.594999999999,2626.29
1764764369.444972,397.98,-437.355,-28192.815,-5744.115,-19731.69,-27767.745,-6207.03,2630.52
1764764369.444972,398.835,-434.565,-28190.34,-5742.315,-19729.8,-27767.295,-6206.58,2631.42
1764764369.444972,399.69,-433.08,-28189.035,-5740.965,-19729.305,-27767.295,-6206.49,2632.095
1764764369.444972,397.26,-437.085,-28192.59,-5744.385,-19731.33,-27768.555,-6206.804999999999,2629.845
1764764369.444972,393.57,-441.315,-28197.45,-5748.48,-19733.985,-27769.995,-6207.344999999999,2627.955
1764764369.444972,394.56,-441.045,-28197.315,-5747.49,-19732.365,-27769.005,-6207.255,2629.17
1764764369.444972,390.06,-445.68,-28202.265,-5751.675,-19737.99,-27774.495,-6211.44,2623.905
1764764369.444972,392.265,-442.44,-28198.8,-5748.795,-19737.045,-27773.055,-6211.125,2625.345
1764764369.444972,389.205,-443.565,-28200.105,-5751.54,-19740.15,-27777.285,-6213.375,2621.97
1764764369.490966,391.635,-439.92,-28196.955,-5749.02,-19738.845,-27776.565,-6212.025,2623.275
1764764369.490966,396.135,-435.015,-28192.185,-5744.835,-19735.605,-27773.055,-6210.0,2626.785
1764764369.490966,391.905,-440.055,-28195.875,-5749.065,-19739.34,-27775.935,-6212.429999999999,2623.32
1764764369.490966,390.735,-443.61,-28199.07,-5751.54,-19739.925,-27775.485,-6213.285,2622.825
1764764369.490966,390.87,-444.6,-28200.42,-5752.215,-19738.17,-27773.415,-6213.105,2624.31
1764764369.490966,387.405,-448.245,-28204.29,-5755.005,-19738.44,-27773.28,-6213.645,2622.015
1764764369.490966,388.98,-446.445,-28202.85,-5752.485,-19735.875,-27771.21,-6212.655,2623.815
1764764369.490966,385.38,-447.93,-28204.515,-5754.78,-19739.925,-27776.655,-6215.895,2618.73
1764764369.490966,386.91,-445.815,-28201.635,-5752.485,-19739.16,-27775.71,-6214.905,2619.45
1764764369.490966,390.195,-441.99,-28197.99,-5749.425,-19736.505,-27772.965,-6213.42,2623.635
1764764369.490966,388.71,-443.34,-28200.465,-5751.09,-19738.35,-27775.08,-6214.365,2621.835
1764764369.490966,384.885,-447.84,-28205.145,-5755.545,-19741.59,-27778.59,-6217.155,2617.335
1764764369.490966,384.525,-448.515,-28206.045,-5756.355,-19741.59,-27777.69,-6217.65,2618.235
1764764369.490966,384.03,-449.37,-28207.98,-5756.67,-19741.59,-27777.105,-6217.695,2617.38
1764764369.490966,385.425,-448.02,-28205.64,-5755.094999999999,-19741.14,-27777.105,-6217.155,2618.055
1764764369.490966,389.205,-443.34,-28201.725,-5751.495,-19737.9,-27774.54,-6214.545,2622.375
1764764369.490966,388.485,-443.835,-28202.805,-5753.79,-19740.24,-27775.53,-6214.275,2621.79
1764764369.490966,385.695,-446.76,-28204.29,-5755.185,-19742.13,-27778.5,-6215.535,2618.82
1764764369.490966,389.295,-443.205,-28200.78,-5751.405,-19737.0,-27773.64,-6213.735,2622.87
1764764369.490966,390.51,-442.575,-28200.69,-5751.09,-19736.46,-27772.47,-6213.06,2623.905
1764764369.490966,389.7,-443.79,-28201.995,-5752.844999999999,-19737.855,-27772.695,-6212.835,2623.5
1764764369.490966,387.045,-446.4,-28205.145,-5755.86,-19740.15,-27775.035,-6213.915,2621.52
1764764369.5373795,392.805,-439.47,-28197.0,-5749.56,-19735.605,-27771.165,-6210.0,2626.47
1764764369.5373795,398.07,-432.495,-28190.07,-5743.44,-19731.735,-27767.52,-6206.355,2630.115
1764764369.5373795,399.96,-428.85,-28186.065,-5740.29,-19730.88,-27767.79,-6205.86,2630.88
1764764369.5373795,398.97,-430.335,-28186.875,-5740.785,-19731.915,-27769.59,-6206.625,2629.575
1764764369.5373795,401.355,-428.94,-28185.03,-5737.95,-19728.315,-27765.54,-6203.655,2633.175
1764764369.5373795,399.645,-427.905,-28182.105,-5737.05,-19731.33,-27769.185,-6205.455,2629.845
1764764369.5373795,404.775,-420.705,-28174.365,-5730.84,-19728.09,-27767.205,-6203.205,2633.805
1764764369.5373795,402.075,-427.05,-28182.78,-5737.005,-19729.26,-27765.945,-6203.52,2633.13
1764764369.5373795,390.96,-444.465,-28201.545,-5749.469999999999,-19731.06,-27764.64,-6206.264999999999,2627.82
1764764369.5373795,391.185,-445.455,-28202.22,-5747.985,-19727.37,-27760.545,-6204.96,2629.485
1764764369.5373795,389.835,-445.995,-28204.29,-5750.505,-19730.97,-27764.28,-6206.445,2627.55
1764764369.5373795,389.565,-444.33,-28201.365,-5748.84,-19733.22,-27767.88,-6207.885,2625.21
1764764369.5373795,393.525,-438.705,-28195.065,-5744.655,-19730.7,-27766.08,-6206.67,2627.955
1764764369.5373795,393.345,-439.38,-28196.955,-5746.365,-19732.23,-27767.07,-6206.67,2627.865
1764764369.5373795,389.385,-444.915,-28203.3,-5751.719999999999,-19736.145,-27770.805,-6208.965,2624.58
1764764369.5373795,384.03,-451.215,-28209.105,-5757.075,-19740.69,-27774.54,-6212.79,2620.035
1764764369.5373795,386.235,-448.83,-28206.855,-5754.87,-19738.665,-27772.47,-6211.889999999999,2622.06
1764764369.5373795,385.785,-447.345,-28204.29,-5754.014999999999,-19738.395,-27773.145,-6211.53,2621.43
1764764369.5373795,389.025,-444.105,-28200.78,-5750.37,-19734.93,-27770.22,-6209.505,2624.535
1764764369.5373795,387.495,-444.78,-28201.32,-5751.09,-19736.415,-27771.255,-6210.9,2622.87
1764764369.5373795,386.145,-444.915,-28201.905,-5752.53,-19737.765,-27773.685,-6212.34,2621.025
1764764369.5373795,391.68,-438.66,-28194.615,-5745.69,-19733.805,-27770.355,-6209.594999999999,2624.58
1764764369.5847793,392.805,-436.68,-28192.77,-5743.889999999999,-19734.615,-27771.705,-6209.054999999999,2624.49
1764764369.5847793,396.36,-431.145,-28187.19,-5739.344999999999,-19730.925,-27768.24,-6205.59,2628.99
1764764369.5847793,394.11,-435.195,-28191.24,-5742.495,-19731.69,-27768.645,-6205.77,2627.865
1764764369.5847793,389.61,-442.89,-28199.97,-5750.054999999999,-19735.695,-27772.695,-6208.965,2623.545
1764764369.5847793,385.425,-446.715,-28204.47,-5753.745,-19739.115,-27775.215,-6210.945,2620.125
1764764369.5847793,384.705,-448.02,-28205.64,-5754.285,-19739.655,-27774.63,-6211.755,2619.045
1764764369.5847793,384.255,-448.515,-28205.82,-5753.52,-19738.53,-27773.46,-6211.575,2619.09
1764764369.5847793,386.46,-445.59,-28202.94,-5751.0,-19736.955,-27772.335,-6210.54,2621.52
1764764369.5847793,392.22,-440.775,-28197.99,-5746.455,-19732.32,-27766.98,-6207.615,2625.795
1764764369.5847793,392.805,-440.37,-28197.045,-5745.465,-19731.87,-27765.675,-6206.085,2626.065
1764764369.5847793,389.07,-442.845,-28199.745,-5748.344999999999,-19735.56,-27769.095,-6208.29,2622.645
1764764369.5847793,390.06,-441.99,-28198.8,-5748.165,-19735.92,-27769.635,-6208.2,2623.905
1764764369.5847793,393.795,-438.165,-28196.055,-5745.51,-19733.715,-27768.285,-6205.77,2627.82
1764764369.5847793,390.96,-440.37,-28197.99,-5748.57,-19736.505,-27771.48,-6207.929999999999,2625.12
1764764369.5847793,393.435,-437.49,-28193.715,-5745.87,-19734.615,-27769.59,-6206.67,2627.28
1764764369.5847793,394.11,-436.905,-28194.48,-5746.59,-19736.37,-27770.76,-6207.705,2626.605
1764764369.5847793,396.405,-435.33,-28193.355,-5745.599999999999,-19735.335,-27769.365,-6206.58,2628.0
1764764369.5847793,393.3,-437.04,-28196.235,-5747.76,-19737.585,-27772.02,-6208.785,2624.895
1764764369.5847793,394.425,-434.295,-28193.355,-5745.285,-19735.155,-27769.995,-6207.795,2627.01
1764764369.5847793,391.77,-437.265,-28196.73,-5748.165,-19737.9,-27772.695,-6208.74,2624.985
1764764369.5847793,394.56,-434.88,-28194.12,-5745.33,-19736.055,-27771.345,-6207.3,2626.785
1764764369.5847793,391.59,-437.895,-28197.36,-5749.56,-19740.78,-27775.755,-6209.73,2623.77
1764764369.5847793,391.32,-439.695,-28199.745,-5751.179999999999,-19742.265,-27775.755,-6210.719999999999,2624.58
1764764369.5847793,386.955,-443.88,-28204.605,-5754.645,-19744.65,-27778.05,-6213.87,2620.845
1764764369.6286814,384.21,-447.21,-28207.89,-5756.804999999999,-19745.82,-27779.265,-6215.58,2618.82
1764764369.6286814,381.375,-451.395,-28212.03,-5761.485,-19747.845,-27781.965,-6217.02,2616.75
1764764369.6286814,385.155,-447.12,-28207.17,-5756.175,-19742.445,-27776.7,-6213.554999999999,2621.25
1764764369.6286814,387.9,-443.34,-28202.49,-5753.295,-19742.085,-27775.98,-6213.06,2621.835
1764764369.6286814,389.61,-440.685,-28199.475,-5750.099999999999,-19740.555,-27775.755,-6212.115,2621.835
1764764369.6286814,386.325,-443.34,-28202.76,-5752.844999999999,-19742.58,-27778.5,-6213.465,2618.685
1764764369.6286814,380.34,-452.295,-28213.065,-5760.764999999999,-19745.46,-27779.535,-6214.679999999999,2616.21
1764764369.629185,381.195,-453.195,-28214.37,-5760.855,-19743.345,-27776.745,-6213.24,2618.055
1764764369.629185,385.83,-446.67,-28206.72,-5754.78,-19739.52,-27773.37,-6211.08,2622.105
1764764369.629185,381.96,-449.28,-28208.655,-5757.03,-19742.85,-27777.555,-6214.23,2618.955
1764764369.629185,384.57,-446.805,-28205.46,-5754.014999999999,-19741.455,-27776.835,-6212.88,2619.81
1764764369.629185,388.17,-443.295,-28200.915,-5750.82,-19740.06,-27775.125,-6211.665,2621.34
1764764369.629185,391.455,-440.145,-28196.91,-5747.175,-19737.225,-27772.335,-6209.639999999999,2624.76
1764764369.629185,389.88,-442.08,-28199.025,-5748.84,-19737.9,-27773.325,-6210.63,2623.545
1764764369.629185,385.695,-445.635,-28204.245,-5752.53,-19740.87,-27775.755,-6213.78,2619.72
1764764369.629185,380.565,-451.035,-28210.995,-5758.245,-19744.56,-27779.13,-6216.255,2616.12
1764764369.629185,383.67,-448.2,-28208.16,-5755.185,-19741.635,-27776.655,-6214.41,2618.91
1764764369.629185,386.505,-445.14,-28203.975,-5752.035,-19739.655,-27775.305,-6212.07,2620.62
1764764369.629185,388.485,-442.935,-28201.815,-5750.19,-19738.215,-27774.27,-6210.179999999999,2621.79
1764764369.629185,387.09,-442.98,-28202.22,-5751.224999999999,-19739.25,-27776.34,-6212.205,2620.845
1764764369.629185,386.82,-442.845,-28201.95,-5751.405,-19741.14,-27778.14,-6213.465,2619.36
1764764369.629185,385.2,-445.23,-28203.66,-5753.474999999999,-19744.11,-27780.795,-6215.31,2617.02
1764764369.6762784,387.945,-442.215,-28200.825,-5751.27,-19740.915,-27777.555,-6213.42,2620.08
1764764369.6762784,385.695,-445.095,-28205.055,-5754.195,-19742.58,-27777.69,-6213.599999999999,2619.405
1764764369.6762784,382.995,-448.245,-28208.52,-5756.535,-19744.335,-27780.075,-6215.49,2617.11
1764764369.6762784,381.78,-448.74,-28208.07,-5756.804999999999,-19745.37,-27782.19,-6215.219999999999,2615.445
1764764369.6762784,386.01,-443.745,-28203.165,-5752.125,-19741.905,-27777.69,-6211.62,2619.81
1764764369.6762784,384.975,-444.645,-28204.065,-5753.385,-19743.57,-27778.86,-6212.429999999999,2618.505
1764764369.6762784,388.62,-441.855,-28201.275,-5750.01,-19739.745,-27775.305,-6210.09,2622.51
1764764369.6762784,385.92,-445.23,-28203.975,-5752.98,-19742.805,-27778.545,-6212.115,2620.125
1764764369.6772974,388.575,-442.575,-28201.635,-5750.955,-19741.815,-27777.78,-6211.17,2622.465
1764764369.6772974,384.885,-445.14,-28204.335,-5754.69,-19746.99,-27782.64,-6213.554999999999,2618.55
1764764369.6772974,385.875,-443.88,-28201.995,-5753.205,-19745.685,-27782.235,-6213.105,2618.37
1764764369.6772974,393.66,-434.745,-28192.77,-5743.935,-19738.53,-27775.71,-6208.83,2624.805
1764764369.6772974,394.695,-436.095,-28194.345,-5744.969999999999,-19738.8,-27774.765,-6207.84,2625.66
1764764369.6772974,389.115,-443.025,-28201.095,-5751.09,-19742.715,-27778.905,-6210.99,2621.295
1764764369.6772974,391.59,-440.19,-28198.845,-5749.469999999999,-19741.23,-27777.375,-6209.955,2623.32
1764764369.6772974,388.62,-443.79,-28203.705,-5751.99,-19741.59,-27777.42,-6210.09,2621.34
1764764369.6772974,388.575,-443.79,-28205.235,-5752.395,-19740.465,-27775.62,-6209.145,2622.87
1764764369.6772974,386.01,-446.715,-28208.07,-5755.545,-19743.48,-27777.915,-6211.844999999999,2620.845
1764764369.6772974,384.435,-448.47,-28209.465,-5756.58,-19745.1,-27779.895,-6212.655,2618.64
1764764369.6772974,382.14,-449.64,-28211.13,-5757.929999999999,-19747.62,-27782.865,-6213.915,2616.93
1764764369.6772974,385.605,-446.085,-28206.99,-5754.33,-19744.2,-27779.04,-6211.98,2619.81
1764764369.6772974,386.37,-444.51,-28204.425,-5753.205,-19743.705,-27777.78,-6212.025,2620.035
1764764369.6772974,385.605,-444.195,-28204.695,-5753.295,-19744.83,-27779.04,-6212.474999999999,2619.18
1764764369.6772974,384.255,-445.59,-28205.505,-5754.24,-19746.99,-27782.46,-6213.96,2617.515
1764764369.6772974,389.025,-439.65,-28199.16,-5749.29,-19743.435,-27779.265,-6211.26,2621.79
1764764369.6772974,390.735,-437.67,-28196.55,-5747.4,-19743.255,-27778.455,-6210.045,2622.51
1764764369.7245731,395.235,-431.64,-28191.15,-5743.71,-19739.79,-27775.53,-6207.165,2626.38
1764764369.7245731,393.885,-433.305,-28192.95,-5744.34,-19739.52,-27776.205,-6208.02,2625.345
1764764369.7245731,391.005,-437.715,-28196.64,-5747.94,-19741.725,-27777.78,-6210.179999999999,2621.97
1764764369.7245731,384.705,-444.24,-28204.605,-5754.69,-19746.855,-27781.83,-6212.52,2617.65
1764764369.7245731,385.605,-442.71,-28203.57,-5752.485,-19743.93,-27780.21,-6212.07,2619.855
1764764369.7245731,385.56,-444.87,-28204.425,-5753.295,-19744.965,-27779.805,-6212.34,2619.495
1764764369.7245731,381.825,-449.46,-28209.375,-5757.795,-19749.105,-27783.045,-6214.455,2615.67
1764764369.7245731,382.995,-447.165,-28207.17,-5757.344999999999,-19749.51,-27783.585,-6214.905,2615.13
1764764369.7245731,387.135,-443.34,-28203.03,-5753.565,-19745.415,-27779.445,-6211.8,2619.81
1764764369.7245731,387.225,-443.79,-28202.445,-5753.115,-19744.2,-27778.77,-6211.17,2621.07
1764764369.725085,385.695,-446.265,-28206.135,-5755.32,-19744.56,-27779.4,-6210.764999999999,2620.08
1764764369.725085,384.345,-447.84,-28208.115,-5755.59,-19745.19,-27779.94,-6212.61,2619.27
1764764369.725085,387.09,-444.015,-28203.03,-5751.224999999999,-19742.67,-27778.635,-6210.54,2621.16
1764764369.725085,390.69,-436.905,-28194.705,-5745.78,-19741.185,-27778.86,-6210.09,2623.005
1764764369.725085,394.47,-429.435,-28185.435,-5738.67,-19738.89,-27777.645,-6208.245,2624.67
1764764369.725085,392.4,-432.045,-28189.71,-5742.315,-19742.85,-27781.38,-6210.315,2621.385
1764764369.725085,386.73,-442.53,-28201.905,-5752.125,-19744.605,-27781.38,-6212.205,2619.72
1764764369.725085,378.36,-455.085,-28215.0,-5761.935,-19747.8,-27782.775,-6214.455,2615.31
1764764369.725085,379.98,-453.69,-28214.64,-5760.315,-19744.515,-27778.995,-6211.844999999999,2617.47
1764764369.725085,381.78,-449.91,-28209.87,-5757.12,-19744.83,-27779.985,-6211.215,2617.92
1764764369.725085,385.605,-444.915,-28204.74,-5754.87,-19746.315,-27781.785,-6210.27,2619.765
1764764369.725085,385.605,-443.97,-28203.3,-5754.87,-19748.79,-27784.665,-6212.655,2618.37
1764764369.7713766,383.355,-446.355,-28206.09,-5756.849999999999,-19750.59,-27786.69,-6213.78,2614.905
1764764369.7713766,382.95,-447.93,-28208.835,-5757.435,-19748.52,-27783.945,-6213.915,2615.58
1764764369.7713766,379.71,-451.17,-28211.985,-5760.99,-19750.635,-27785.835,-6215.625,2613.87
1764764369.7713766,382.59,-447.21,-28207.665,-5757.48,-19747.17,-27782.595,-6213.105,2617.38
1764764369.7713766,382.455,-447.885,-28208.385,-5757.12,-19747.53,-27782.64,-6213.42,2617.38
1764764369.7713766,381.645,-448.38,-28209.33,-5758.29,-19749.33,-27784.53,-6214.455,2616.03
1764764369.7713766,380.79,-449.055,-28209.87,-5759.955,-19751.22,-27785.565,-6215.58,2614.545
1764764369.7713766,381.555,-447.615,-28207.62,-5758.155,-19749.645,-27784.62,-6214.59,2616.255
1764764369.7713766,384.03,-444.555,-28204.47,-5754.69,-19747.305,-27783.405,-6212.34,2618.46
1764764369.7713766,380.16,-448.38,-28208.025,-5758.695,-19751.985,-27787.59,-6215.355,2614.005
1764764369.7713766,381.33,-446.715,-28206.585,-5756.58,-19751.265,-27785.97,-6214.32,2614.905
1764764369.7713766,379.44,-449.955,-28209.015,-5759.505,-19753.92,-27788.58,-6216.255,2611.8
1764764369.7713766,379.125,-451.17,-28210.365,-5761.304999999999,-19753.92,-27788.49,-6216.389999999999,2612.79
1764764369.7713766,381.375,-449.82,-28209.78,-5758.965,-19751.13,-27785.475,-6215.715,2615.265
1764764369.7713766,381.06,-449.955,-28209.06,-5758.155,-19752.165,-27786.105,-6216.03,2614.365
1764764369.7713766,377.1,-452.97,-28211.67,-5761.575,-19755.945,-27790.695,-6218.639999999999,2610.0
1764764369.7713766,377.37,-452.115,-28211.805,-5761.755,-19756.44,-27791.145,-6218.82,2610.27
1764764369.7713766,382.23,-447.03,-28207.62,-5757.3,-19752.84,-27786.96,-6215.849999999999,2614.995
1764764369.7713766,382.905,-445.815,-28206.0,-5755.32,-19751.175,-27785.925,-6215.085,2614.995
1764764369.7713766,378.63,-450.54,-28211.13,-5759.865,-19755.405,-27791.055,-6219.09,2610.135
1764764369.7713766,378.63,-450.99,-28211.265,-5760.63,-19755.54,-27791.595,-6219.36,2609.775
1764764369.7713766,381.51,-446.4,-28206.675,-5756.715,-19753.785,-27790.92,-6217.74,2611.35
1764764369.8159027,387.99,-438.39,-28198.17,-5749.2,-19750.815,-27788.355,-6214.905,2616.165
1764764369.8164294,393.12,-432.045,-28189.935,-5741.865,-19744.65,-27782.73,-6211.844999999999,2620.8
1764764369.8164294,387.855,-436.725,-28195.605,-5746.635,-19746.99,-27785.115,-6214.32,2616.75
1764764369.8164294,384.12,-444.06,-28204.965,-5753.745,-19750.23,-27785.97,-6215.895,2616.255
1764764369.8164294,375.615,-455.67,-28217.655,-5763.69,-19755.09,-27789.39,-6219.764999999999,2610.72
1764764369.8164294,372.735,-458.64,-28220.67,-5766.344999999999,-19757.88,-27792.855,-6221.07,2607.3
1764764369.8164294,376.83,-454.14,-28215.405,-5762.7,-19753.83,-27789.345,-6218.505,2612.16
1764764369.8164294,375.345,-455.67,-28217.205,-5765.04,-19756.665,-27792.045,-6221.61,2610.315
1764764369.8164294,375.48,-454.32,-28216.665,-5765.715,-19759.32,-27794.34,-6222.87,2609.01
1764764369.8164294,375.93,-452.655,-28213.65,-5763.33,-19758.15,-27794.34,-6222.33,2608.335
1764764369.8164294,382.275,-445.41,-28205.055,-5755.005,-19752.435,-27789.12,-6218.73,2613.15
1764764369.8164294,381.465,-444.33,-28203.255,-5753.79,-19752.615,-27790.11,-6219.63,2611.98
1764764369.8164294,385.47,-439.965,-28199.16,-5750.28,-19748.43,-27786.105,-6217.514999999999,2615.13
1764764369.8164294,382.635,-444.42,-28204.875,-5755.094999999999,-19749.33,-27786.06,-6217.2,2613.735
1764764369.8164294,374.49,-454.635,-28217.565,-5763.645,-19753.74,-27788.58,-6219.179999999999,2610.495
1764764369.8164294,372.24,-457.695,-28220.085,-5766.525,-19757.565,-27792.45,-6221.385,2607.75
1764764369.8164294,378.765,-451.08,-28212.12,-5760.719999999999,-19753.515,-27788.58,-6218.01,2612.43
1764764369.8164294,377.55,-451.08,-28212.39,-5760.764999999999,-19755.315,-27789.84,-6219.179999999999,2611.485
1764764369.8164294,375.795,-452.88,-28214.325,-5761.889999999999,-19755.63,-27790.425,-6219.99,2610.45
1764764369.8164294,373.995,-455.04,-28216.665,-5765.58,-19759.545,-27793.305,-6221.34,2608.245
1764764369.8164294,379.125,-449.46,-28210.68,-5760.045,-19755.135,-27789.345,-6218.505,2612.835
1764764369.8164294,378.045,-450.315,-28210.815,-5760.179999999999,-19755.045,-27790.245,-6218.73,2611.44
1764764369.8164294,377.91,-449.775,-28210.77,-5759.594999999999,-19753.74,-27789.255,-6218.145,2611.62
1764764369.8164294,379.62,-449.685,-28211.58,-5758.425,-19750.455,-27784.395,-6216.165,2614.185
1764764369.8632991,380.25,-449.505,-28210.5,-5757.84,-19750.05,-27783.9,-6214.77,2615.265
1764764369.8632991,379.08,-450.135,-28210.455,-5758.785,-19751.895,-27786.6,-6215.49,2613.195
1764764369.8632991,383.445,-443.655,-28204.065,-5753.34,-19747.08,-27783.18,-6213.375,2616.66
1764764369.8632991,380.025,-446.22,-28207.62,-5756.715,-19750.455,-27787.14,-6216.389999999999,2613.15
1764764369.8632991,382.95,-444.465,-28205.955,-5754.554999999999,-19748.205,-27784.125,-6214.77,2615.67
1764764369.8632991,382.185,-445.095,-28206.045,-5754.105,-19748.385,-27783.855,-6215.04,2615.265
1764764369.8632991,380.565,-446.535,-28207.395,-5756.445,-19750.365,-27785.925,-6216.929999999999,2613.78
1764764369.864832,378.135,-447.795,-28208.7,-5758.065,-19753.785,-27788.805,-6219.135,2610.585
1764764369.864832,381.42,-443.52,-28203.975,-5753.925,-19751.265,-27785.79,-6217.29,2613.645
1764764369.864832,380.97,-445.095,-28205.865,-5755.86,-19752.615,-27787.32,-6217.425,2612.25
1764764369.864832,381.24,-445.005,-28205.91,-5756.04,-19751.04,-27786.465,-6216.435,2613.33
1764764369.864832,381.96,-447.165,-28207.98,-5757.615,-19750.005,-27784.575,-6215.04,2615.22
1764764369.864832,381.87,-449.055,-28211.445,-5759.82,-19751.085,-27784.53,-6214.905,2615.04
1764764369.864832,382.635,-446.895,-28208.835,-5758.469999999999,-19752.3,-27785.655,-6215.67,2614.77
1764764369.864832,383.58,-444.78,-28206.27,-5756.58,-19752.48,-27786.195,-6215.085,2614.95
1764764369.864832,383.22,-444.33,-28206.72,-5756.67,-19751.22,-27786.015,-6214.185,2615.22
1764764369.864832,381.69,-446.58,-28209.555,-5757.615,-19751.22,-27785.025,-6213.96,2614.635
1764764369.864832,380.655,-447.12,-28209.78,-5758.11,-19752.03,-27786.195,-6215.264999999999,2613.285
1764764369.864832,380.115,-446.445,-28209.015,-5758.92,-19754.64,-27789.525,-6216.389999999999,2611.26
1764764369.864832,381.015,-444.06,-28206.315,-5757.929999999999,-19754.64,-27790.245,-6216.75,2612.835
1764764369.864832,383.58,-440.955,-28201.95,-5754.105,-19752.075,-27788.49,-6215.804999999999,2614.635
1764764369.864832,380.745,-444.375,-28205.46,-5757.885,-19754.415,-27790.695,-6216.795,2611.935
1764764369.864832,379.26,-447.885,-28210.77,-5760.405,-19754.01,-27789.21,-6216.255,2612.745
1764764369.864832,371.61,-454.545,-28218.42,-5767.605,-19760.94,-27796.365,-6221.88,2605.995
1764764369.864832,371.07,-455.625,-28218.915,-5768.01,-19761.795,-27797.04,-6222.915,2604.735
1764764369.864832,372.645,-454.545,-28217.61,-5766.435,-19760.67,-27795.375,-6222.24,2605.41
1764764369.910841,376.155,-451.035,-28213.47,-5762.88,-19757.7,-27792.72,-6219.855,2608.335
1764764369.910841,380.52,-445.365,-28207.845,-5758.38,-19754.505,-27790.425,-6218.235,2611.845
1764764369.910841,378.81,-445.41,-28207.62,-5759.594999999999,-19756.89,-27793.035,-6220.395,2609.28
1764764369.910841,379.98,-443.79,-28205.73,-5758.11,-19755.45,-27792.315,-6219.764999999999,2609.595
1764764369.910841,383.085,-440.37,-28201.905,-5755.905,-19754.415,-27791.055,-6218.19,2612.475
1764764369.910841,380.43,-444.15,-28207.17,-5761.665,-19758.24,-27794.565,-6218.82,2610.675
1764764369.910841,384.21,-441.0,-28203.345,-5756.13,-19753.065,-27790.155,-6215.49,2614.23
1764764369.910841,382.41,-441.27,-28202.895,-5755.995,-19753.92,-27792.045,-6216.929999999999,2612.25
1764764369.910841,382.815,-444.51,-28207.62,-5758.469999999999,-19752.21,-27788.445,-6214.995,2614.455
1764764369.910841,375.705,-454.32,-28218.195,-5765.94,-19756.35,-27790.38,-6218.415,2610.27
1764764369.910841,374.49,-453.78,-28216.08,-5764.365,-19757.565,-27792.405,-6219.045,2607.3
1764764369.910841,377.82,-449.415,-28211.985,-5761.62,-19755.18,-27790.83,-6217.83,2609.235
1764764369.910841,376.605,-451.71,-28213.74,-5764.32,-19757.205,-27792.27,-6218.235,2608.875
1764764369.910841,375.03,-452.835,-28215.99,-5765.445,-19759.545,-27794.205,-6219.54,2607.57
1764764369.910841,376.56,-450.045,-28213.2,-5762.565,-19757.16,-27791.64,-6218.19,2610.36
1764764369.910841,383.085,-442.89,-28205.865,-5755.59,-19751.625,-27786.6,-6214.23,2616.21
1764764369.910841,384.795,-440.775,-28203.795,-5753.565,-19750.095,-27785.07,-6212.474999999999,2617.38
1764764369.910841,382.455,-442.395,-28205.865,-5756.625,-19752.03,-27787.185,-6214.32,2615.625
1764764369.9577577,381.285,-443.7,-28206.63,-5757.929999999999,-19753.335,-27788.94,-6215.715,2614.14
1764764369.9577577,379.665,-444.645,-28207.575,-5758.965,-19754.28,-27789.66,-6216.66,2613.06
1764764369.9577577,384.885,-439.335,-28201.815,-5753.295,-19749.915,-27785.565,-6213.599999999999,2617.605
1764764369.9577577,383.895,-439.29,-28200.69,-5753.34,-19751.895,-27788.04,-6215.264999999999,2615.715
1764764369.9577577,380.16,-443.295,-28204.11,-5757.84,-19757.79,-27793.44,-6218.415,2611.71
1764764369.9577577,381.06,-442.305,-28203.75,-5757.3,-19756.62,-27792.9,-6218.73,2612.88
1764764369.9577577,381.555,-442.44,-28204.425,-5756.535,-19752.615,-27788.49,-6216.48,2614.905
1764764369.9577577,379.98,-445.815,-28208.34,-5758.29,-19752.615,-27787.815,-6215.67,2613.645
1764764369.9577577,379.62,-446.22,-28209.96,-5759.865,-19754.19,-27789.165,-6216.525,2612.97
1764764369.9577577,377.145,-448.83,-28213.02,-5762.79,-19757.7,-27793.215,-6219.27,2610.315
1764764369.9577577,382.635,-444.78,-28207.665,-5757.974999999999,-19753.065,-27788.895,-6215.67,2614.86
1764764369.9577577,382.05,-443.97,-28207.305,-5757.795,-19754.01,-27789.12,-6215.625,2613.96
1764764369.9577577,387.945,-436.725,-28199.475,-5750.685,-19748.88,-27784.845,-6212.52,2618.685
1764764369.9577577,389.835,-433.755,-28194.84,-5746.77,-19746.54,-27783.72,-6211.395,2619.63
1764764369.9587717,386.55,-435.375,-28196.28,-5748.84,-19748.925,-27786.69,-6213.599999999999,2616.48
1764764369.9587717,386.19,-436.365,-28197.72,-5749.83,-19749.015,-27785.745,-6213.195,2616.75
1764764369.9587717,383.535,-439.425,-28201.995,-5753.205,-19749.915,-27785.295,-6213.465,2615.94
1764764369.9587717,383.58,-440.37,-28204.695,-5754.554999999999,-19749.87,-27784.17,-6212.565,2617.245
1764764369.9587717,383.445,-442.53,-28206.0,-5755.05,-19749.42,-27784.575,-6212.07,2617.155
1764764369.9587717,378.585,-447.57,-28210.635,-5760.224999999999,-19753.74,-27788.67,-6214.815,2612.79
1764764369.9587717,381.105,-445.635,-28208.565,-5759.775,-19753.83,-27788.04,-6213.87,2614.635
1764764369.9587717,386.055,-439.47,-28201.5,-5754.465,-19751.58,-27785.295,-6212.295,2618.73
1764764369.9587717,388.71,-433.89,-28195.2,-5750.099999999999,-19750.68,-27784.665,-6211.44,2619.135
1764764369.9587717,393.165,-428.22,-28189.215,-5744.88,-19747.71,-27782.28,-6210.09,2623.05
1764764370.0021143,387.18,-435.69,-28197.045,-5751.81,-19752.165,-27787.185,-6213.645,2617.47
1764764370.0021143,381.96,-443.97,-28206.765,-5757.84,-19751.58,-27784.935,-6214.5,2616.48
1764764370.0021143,377.82,-450.09,-28214.145,-5762.969999999999,-19754.055,-27785.97,-6216.57,2613.105
1764764370.0021143,379.08,-450.045,-28213.695,-5761.844999999999,-19752.48,-27785.115,-6214.094999999999,2613.645
1764764370.0021143,382.14,-444.87,-28208.16,-5757.615,-19750.365,-27784.665,-6212.835,2615.355
1764764370.0021143,378.675,-447.075,-28209.915,-5760.224999999999,-19754.01,-27788.76,-6216.165,2611.395
1764764370.0021143,378.72,-446.49,-28209.195,-5759.594999999999,-19753.515,-27789.39,-6216.344999999999,2611.17
1764764370.0021143,380.655,-444.42,-28206.675,-5758.38,-19752.075,-27788.265,-6215.58,2612.88
1764764370.0021143,384.345,-440.235,-28202.58,-5754.33,-19749.555,-27785.205,-6213.825,2615.58
1764764370.0021143,387.63,-436.455,-28199.61,-5750.955,-19747.98,-27783.855,-6211.889999999999,2617.785
1764764370.0021143,389.16,-434.88,-28197.54,-5748.795,-19747.62,-27783.225,-6210.495,2618.685
1764764370.0021143,383.715,-441.54,-28204.875,-5755.995,-19751.805,-27787.185,-6213.554999999999,2614.635
1764764370.0021143,379.305,-447.525,-28212.075,-5761.08,-19752.84,-27788.49,-6215.94,2611.935
1764764370.0021143,380.16,-446.805,-28211.22,-5758.92,-19750.32,-27786.33,-6213.87,2613.555
1764764370.0021143,383.085,-443.16,-28207.44,-5755.77,-19747.845,-27784.62,-6211.98,2615.31
1764764370.0021143,377.91,-447.3,-28210.725,-5759.73,-19752.705,-27788.805,-6216.21,2610.405
1764764370.0021143,379.755,-445.59,-28209.465,-5758.74,-19752.75,-27788.715,-6216.48,2611.845
1764764370.0021143,376.47,-448.515,-28212.84,-5763.42,-19757.79,-27793.62,-6219.585,2607.705
1764764370.0021143,377.505,-447.39,-28211.49,-5762.295,-19756.755,-27792.855,-6219.495,2609.01
1764764370.0021143,380.07,-444.15,-28208.655,-5759.415,-19754.37,-27790.11,-6217.92,2611.08
1764764370.0021143,384.48,-440.235,-28204.11,-5754.87,-19750.095,-27785.97,-6214.905,2616.12
1764764370.0021143,384.525,-440.64,-28205.01,-5755.139999999999,-19749.69,-27785.34,-6214.139999999999,2616.795
1764764370.003448,383.895,-441.315,-28205.91,-5755.5,-19749.33,-27786.105,-6214.005,2616.435
1764764370.003448,383.715,-441.09,-28204.965,-5755.094999999999,-19750.095,-27786.87,-6213.78,2615.985
1764764370.003448,387.585,-437.04,-28200.645,-5750.685,-19745.73,-27783.36,-6211.08,2619.495
1764764370.003448,381.87,-441.855,-28205.415,-5755.86,-19750.77,-27789.03,-6214.77,2614.725
1764764370.050625,379.62,-444.51,-28208.43,-5759.415,-19754.82,-27791.865,-6217.785,2612.295
1764764370.050625,381.33,-441.855,-28205.505,-5757.75,-19755.315,-27792.27,-6217.514999999999,2613.06
1764764370.050625,386.73,-434.565,-28198.44,-5752.08,-19751.49,-27788.895,-6215.355,2616.705
1764764370.050625,391.905,-428.76,-28192.455,-5746.365,-19747.395,-27785.115,-6212.07,2620.845
1764764370.051132,384.84,-436.77,-28200.51,-5753.88,-19751.49,-27789.255,-6215.94,2613.96
1764764370.051132,382.59,-439.785,-28203.39,-5757.03,-19753.245,-27789.255,-6216.48,2613.24
1764764370.051132,384.435,-439.38,-28203.345,-5757.255,-19753.245,-27788.4,-6215.67,2615.355
1764764370.051132,383.985,-439.965,-28204.155,-5756.625,-19751.445,-27787.545,-6214.32,2615.76
1764764370.051132,381.96,-442.485,-28206.315,-5758.74,-19752.255,-27788.04,-6214.635,2614.725
1764764370.051132,377.91,-448.74,-28213.605,-5763.69,-19755.18,-27790.695,-6217.2,2611.71
1764764370.051132,377.685,-449.055,-28213.74,-5762.88,-19754.73,-27790.605,-6217.02,2611.71
1764764370.051132,382.68,-443.025,-28206.99,-5758.02,-19750.86,-27786.645,-6214.815,2615.76
1764764370.051132,383.94,-440.82,-28205.865,-5757.255,-19750.14,-27786.33,-6214.635,2615.715
1764764370.051132,382.68,-441.855,-28206.765,-5758.605,-19752.03,-27787.455,-6215.985,2614.32
1764764370.051132,380.61,-443.88,-28208.745,-5760.9,-19754.415,-27789.48,-6217.2,2612.07
1764764370.051132,382.905,-441.765,-28206.0,-5758.02,-19752.21,-27787.05,-6215.49,2614.455
1764764370.051132,383.13,-440.82,-28205.37,-5757.165,-19752.345,-27787.455,-6216.03,2613.87
1764764370.051132,384.975,-436.995,-28201.365,-5754.014999999999,-19752.165,-27788.445,-6214.5,2615.13
1764764370.051132,392.94,-426.915,-28190.43,-5744.835,-19745.415,-27782.505,-6209.639999999999,2623.095
1764764370.051132,393.705,-424.89,-28188.315,-5743.485,-19745.55,-27783.315,-6210.405,2622.915
1764764370.051132,386.415,-434.655,-28199.385,-5753.88,-19753.695,-27789.705,-6214.815,2616.435
1764764370.051132,377.685,-448.02,-28214.955,-5765.804999999999,-19757.88,-27791.505,-6217.785,2611.485
1764764370.051132,373.455,-452.97,-28220.13,-5769.179999999999,-19758.42,-27791.775,-6219.315,2608.515
1764764370.051132,375.795,-448.695,-28215.9,-5765.985,-19757.97,-27791.64,-6219.54,2609.01
1764764370.0971448,380.61,-442.98,-28209.555,-5760.719999999999,-19753.74,-27787.545,-6216.795,2612.34
1764764370.0971448,384.66,-439.74,-28205.325,-5756.67,-19749.465,-27783.72,-6214.139999999999,2616.21
1764764370.0971448,384.795,-440.505,-28206.27,-5757.705,-19751.94,-27785.565,-6214.455,2616.705
1764764370.0971448,387.36,-438.165,-28205.28,-5755.905,-19752.21,-27784.755,-6212.88,2618.685
1764764370.0971448,387.585,-437.175,-28203.84,-5754.87,-19751.985,-27784.485,-6212.115,2618.955
1764764370.0971448,382.815,-441.63,-28208.34,-5759.82,-19756.125,-27789.255,-6215.895,2614.635
1764764370.0971448,382.635,-442.755,-28209.465,-5760.315,-19756.305,-27789.48,-6215.04,2614.725
1764764370.0971448,385.47,-440.64,-28206.09,-5757.57,-19754.19,-27787.32,-6212.205,2616.93
1764764370.0971448,388.575,-436.59,-28200.51,-5753.295,-19750.905,-27784.935,-6211.215,2619.675
1764764370.0971448,390.78,-432.54,-28196.235,-5749.155,-19746.99,-27781.965,-6210.764999999999,2621.835
1764764370.0971448,385.695,-438.39,-28203.345,-5755.724999999999,-19752.03,-27787.095,-6213.42,2616.795
1764764370.0971448,381.825,-445.23,-28211.22,-5761.755,-19754.865,-27789.255,-6215.625,2614.005
1764764370.0971448,380.43,-446.355,-28212.975,-5762.745,-19755.72,-27790.2,-6216.84,2613.105
1764764370.0971448,383.805,-441.855,-28208.43,-5758.469999999999,-19752.795,-27787.5,-6215.445,2616.255
1764764370.0971448,387.405,-438.03,-28204.515,-5754.87,-19748.34,-27783.765,-6212.565,2619.495
1764764370.0971448,381.78,-443.475,-28210.14,-5759.865,-19753.605,-27789.03,-6216.48,2614.32
1764764370.0971448,382.545,-443.07,-28209.735,-5759.73,-19754.415,-27789.84,-6217.245,2613.915
1764764370.0971448,385.56,-440.82,-28206.54,-5757.615,-19752.255,-27788.13,-6215.804999999999,2616.435
1764764370.0971448,382.32,-443.655,-28210.23,-5761.215,-19756.35,-27791.91,-6218.505,2613.015
1764764370.0971448,380.61,-445.23,-28211.445,-5762.61,-19758.78,-27793.575,-6219.36,2611.935
1764764370.0971448,381.105,-444.915,-28210.77,-5761.98,-19758.465,-27792.225,-6218.91,2612.07
1764764370.0971448,382.95,-443.565,-28208.97,-5760.495,-19757.025,-27791.19,-6217.02,2613.42
1764764370.0971448,386.82,-438.705,-28204.515,-5756.04,-19752.795,-27787.455,-6214.05,2618.145
1764764370.0971448,387.945,-437.805,-28204.38,-5755.32,-19751.67,-27786.195,-6213.195,2618.865
1764764370.143149,388.485,-437.445,-28203.615,-5755.139999999999,-19752.075,-27786.555,-6212.79,2618.415
1764764370.143149,383.085,-442.125,-28207.665,-5759.28,-19757.07,-27791.055,-6216.389999999999,2612.925
1764764370.143149,383.445,-441.855,-28207.98,-5759.01,-19756.98,-27790.875,-6215.535,2613.195
1764764370.143149,385.11,-441.315,-28207.755,-5757.974999999999,-19755.945,-27789.885,-6215.04,2615.22
1764764370.143149,386.19,-440.145,-28206.045,-5756.04,-19753.74,-27788.13,-6214.32,2616.615
1764764370.143149,390.285,-435.24,-28199.97,-5750.054999999999,-19749.69,-27783.54,-6210.855,2620.8
1764764370.143149,389.52,-435.375,-28199.88,-5750.505,-19751.085,-27785.52,-6211.62,2618.64
1764764370.143149,393.57,-429.21,-28193.67,-5745.15,-19747.26,-27783.135,-6210.09,2621.16
1764764370.143149,393.66,-428.22,-28191.06,-5743.44,-19746.99,-27783.315,-6210.81,2620.935
1764764370.143149,394.515,-427.14,-28189.53,-5741.685,-19745.415,-27782.19,-6209.639999999999,2622.555
1764764370.143149,391.185,-430.83,-28196.37,-5747.67,-19750.14,-27784.935,-6211.62,2619.63
1764764370.143149,384.885,-438.795,-28204.38,-5755.815,-19756.035,-27790.515,-6215.31,2614.05
1764764370.143149,387.945,-435.015,-28199.34,-5751.36,-19751.985,-27786.735,-6213.33,2617.695
1764764370.143149,384.255,-439.695,-28205.235,-5755.905,-19754.775,-27788.58,-6215.49,2615.04
1764764370.143149,377.505,-447.48,-28214.1,-5764.139999999999,-19761.03,-27793.935,-6220.125,2609.37
1764764370.143149,381.285,-442.17,-28208.43,-5759.235,-19757.61,-27791.505,-6218.865,2612.025
1764764370.143149,381.915,-440.325,-28206.63,-5758.965,-19759.14,-27794.16,-6219.855,2611.62
1764764370.143149,379.395,-442.305,-28209.015,-5761.98,-19762.875,-27798.21,-6222.06,2609.19
1764764370.143149,384.12,-439.74,-28206.81,-5758.965,-19759.455,-27794.79,-6219.945,2613.51
1764764370.143149,382.005,-444.645,-28212.165,-5762.655,-19760.4,-27793.44,-6219.09,2613.555
1764764370.143149,379.035,-448.965,-28218.06,-5768.505,-19763.595,-27795.195,-6220.08,2611.53
1764764370.143149,371.43,-459.09,-28228.77,-5778.135,-19770.255,-27801.045,-6224.804999999999,2604.78
1764764370.1899898,377.19,-453.33,-28221.795,-5771.385,-19765.755,-27796.68,-6222.465,2609.01
1764764370.1899898,379.35,-449.28,-28216.98,-5768.235,-19764.405,-27796.68,-6221.25,2610.72
1764764370.1899898,380.7,-445.95,-28213.47,-5764.995,-19762.83,-27795.87,-6220.215,2611.08
1764764370.1899898,383.625,-441.495,-28208.34,-5760.405,-19759.905,-27793.62,-6218.19,2612.79
1764764370.1899898,384.255,-438.84,-28205.055,-5756.76,-19757.88,-27792.945,-6218.01,2613.195
1764764370.1899898,381.69,-441.54,-28207.89,-5758.155,-19757.925,-27792.855,-6219.719999999999,2610.63
1764764370.1899898,378.945,-444.6,-28210.275,-5760.719999999999,-19759.32,-27793.395,-6219.764999999999,2608.695
1764764370.1899898,384.93,-438.12,-28203.66,-5754.599999999999,-19754.01,-27788.985,-6215.715,2614.455
1764764370.1899898,384.615,-438.84,-28205.46,-5755.32,-19753.02,-27788.04,-6214.455,2615.31
1764764370.1899898,382.32,-442.485,-28208.88,-5758.965,-19754.73,-27789.885,-6215.67,2612.97
1764764370.1899898,386.73,-439.11,-28206.54,-5757.03,-19752.75,-27787.275,-6214.32,2615.985
1764764370.1899898,386.685,-439.74,-28207.08,-5757.615,-19754.055,-27788.67,-6214.365,2615.895
1764764370.1899898,382.77,-444.78,-28211.355,-5761.844999999999,-19757.97,-27792.135,-6216.165,2612.52
1764764370.1899898,382.095,-445.68,-28211.985,-5762.79,-19757.79,-27791.46,-6216.389999999999,2612.295
1764764370.1899898,386.73,-440.82,-28207.575,-5758.514999999999,-19754.145,-27786.915,-6212.969999999999,2616.48
1764764370.1899898,384.12,-442.98,-28210.725,-5761.665,-19757.385,-27789.615,-6214.275,2614.32
1764764370.1899898,385.695,-440.235,-28209.195,-5758.965,-19753.965,-27786.825,-6212.88,2616.66
1764764370.1899898,386.01,-439.965,-28207.44,-5758.29,-19753.605,-27787.725,-6213.915,2616.93
1764764370.1899898,387.36,-438.795,-28205.73,-5756.175,-19753.11,-27787.68,-6212.88,2616.885
1764764370.1899898,386.145,-440.145,-28205.685,-5756.94,-19755.675,-27790.29,-6214.32,2615.625
1764764370.1899898,386.505,-438.975,-28204.695,-5756.715,-19756.89,-27791.01,-6214.139999999999,2615.22
1764764370.1899898,387.63,-437.355,-28203.255,-5755.5,-19756.08,-27790.38,-6215.04,2615.085
1764764370.1899898,388.98,-436.005,-28202.04,-5754.599999999999,-19754.64,-27788.805,-6214.635,2616.03
1764764370.1899898,383.175,-443.565,-28209.645,-5761.215,-19759.23,-27792.495,-6216.57,2611.845
1764764370.2354147,383.895,-444.105,-28211.265,-5762.07,-19758.33,-27790.65,-6215.085,2614.05
1764764370.2354147,382.455,-445.905,-28213.02,-5763.645,-19760.67,-27792.135,-6215.58,2612.385
1764764370.2354147,386.235,-441.405,-28208.295,-5759.28,-19757.115,-27789.705,-6213.78,2616.03
1764764370.2354147,385.02,-441.045,-28208.385,-5760.45,-19758.33,-27792.63,-6214.455,2614.545
1764764370.2354147,389.34,-435.87,-28202.22,-5756.04,-19755.36,-27790.155,-6212.25,2617.245
1764764370.2354147,384.975,-439.965,-28205.73,-5760.0,-19760.625,-27796.32,-6217.11,2611.935
1764764370.2354147,385.11,-439.2,-28204.965,-5759.054999999999,-19761.345,-27797.13,-6218.865,2611.305
1764764370.2354147,385.29,-440.505,-28206.135,-5759.73,-19760.985,-27795.87,-6217.605,2612.52
1764764370.2354147,382.635,-445.59,-28211.715,-5763.014999999999,-19761.21,-27794.7,-6217.469999999999,2611.935
1764764370.2359383,381.735,-447.345,-28214.82,-5765.175,-19761.615,-27794.205,-6218.054999999999,2611.845
1764764370.2359383,379.53,-448.74,-28216.53,-5767.469999999999,-19763.73,-27797.265,-6218.955,2609.325
1764764370.2359383,379.935,-447.795,-28215.18,-5766.929999999999,-19764.0,-27797.355,-6218.235,2609.055
1764764370.2359383,381.555,-445.545,-28212.885,-5765.355,-19762.65,-27796.23,-6217.74,2610.45
1764764370.2359383,383.805,-443.025,-28209.87,-5762.61,-19760.58,-27794.88,-6216.389999999999,2612.205
1764764370.2359383,384.795,-441.09,-28207.485,-5760.675,-19759.68,-27793.89,-6216.615,2612.295
1764764370.2359383,381.105,-444.465,-28210.32,-5764.77,-19764.18,-27799.74,-6220.395,2608.02
1764764370.2359383,384.705,-439.83,-28205.595,-5761.215,-19761.48,-27797.355,-6217.425,2610.855
1764764370.2359383,388.755,-435.42,-28201.095,-5756.04,-19756.8,-27792.54,-6214.86,2614.455
1764764370.2359383,385.695,-440.145,-28205.82,-5760.27,-19759.05,-27794.295,-6216.12,2612.52
1764764370.2359383,386.73,-440.595,-28206.63,-5760.135,-19758.24,-27792.99,-6214.77,2613.6
1764764370.2359383,388.17,-439.47,-28206.315,-5758.469999999999,-19755.18,-27788.895,-6211.844999999999,2616.525
1764764370.2359383,385.11,-443.43,-28211.49,-5762.925,-19758.33,-27791.82,-6214.905,2613.915
1764764370.2845514,381.915,-445.905,-28213.02,-5765.715,-19762.515,-27795.105,-6217.605,2609.91
1764764370.2845514,385.065,-442.53,-28209.195,-5761.53,-19759.77,-27793.08,-6215.58,2612.16
1764764370.2845514,389.385,-437.805,-28205.055,-5757.75,-19755.72,-27789.03,-6212.88,2617.155
1764764370.2845514,386.73,-440.28,-28207.755,-5761.44,-19759.455,-27791.775,-6214.77,2614.455
1764764370.2845514,382.455,-443.97,-28211.625,-5765.175,-19763.01,-27795.825,-6217.245,2611.08
1764764370.2845514,384.21,-441.405,-28210.275,-5763.285,-19761.345,-27795.105,-6216.705,2612.16
1764764370.2845514,389.655,-434.97,-28203.12,-5757.929999999999,-19758.105,-27792.135,-6215.04,2615.985
1764764370.2850566,391.77,-429.21,-28196.055,-5753.025,-19756.935,-27792.81,-6215.67,2615.985
1764764370.2850566,394.47,-423.0,-28188.315,-5747.264999999999,-19756.215,-27793.845,-6214.86,2615.31
1764764370.2850566,397.44,-420.615,-28185.57,-5745.15,-19755.135,-27792.405,-6213.014999999999,2617.515
1764764370.2850566,393.345,-427.68,-28194.3,-5751.855,-19756.53,-27791.82,-6213.915,2616.885
1764764370.2850566,382.185,-445.005,-28214.415,-5767.83,-19763.73,-27795.24,-6216.885,2610.45
1764764370.2850566,376.335,-455.49,-28227.06,-5775.389999999999,-19765.125,-27794.745,-6218.235,2608.83
1764764370.2850566,375.615,-455.67,-28225.755,-5775.165,-19766.475,-27797.31,-6220.44,2606.76
1764764370.2850566,378.855,-450.225,-28219.905,-5771.07,-19765.665,-27796.005,-6219.27,2608.02
1764764370.2850566,382.05,-445.995,-28215.855,-5768.505,-19765.395,-27796.14,-6218.415,2610.135
1764764370.2850566,382.905,-444.285,-28213.92,-5767.605,-19765.62,-27796.59,-6219.224999999999,2610.045
1764764370.2850566,379.935,-445.995,-28215.18,-5768.955,-19767.33,-27799.785,-6221.295,2606.85
1764764370.2850566,379.575,-446.04,-28215.27,-5768.37,-19766.25,-27799.02,-6221.16,2606.805
1764764370.2850566,382.86,-442.35,-28211.13,-5763.375,-19761.165,-27793.665,-6217.514999999999,2611.035
1764764370.2850566,384.165,-440.685,-28208.88,-5761.575,-19760.445,-27793.71,-6216.3,2611.8
1764764370.2850566,386.01,-437.805,-28205.46,-5758.065,-19758.51,-27791.955,-6214.724999999999,2612.565
1764764370.2860644,387.945,-435.645,-28202.76,-5755.679999999999,-19756.08,-27789.48,-6213.285,2614.455
1764764370.2860644,381.51,-442.125,-28210.545,-5763.42,-19763.955,-27796.365,-6218.235,2608.83
1764764370.3321211,382.32,-441.63,-28211.355,-5764.23,-19765.26,-27797.355,-6218.955,2609.595
1764764370.332626,384.03,-441.315,-28212.03,-5764.005,-19763.865,-27796.23,-6217.83,2611.44
1764764370.332626,380.88,-445.545,-28216.26,-5767.965,-19766.52,-27798.84,-6219.81,2608.56
1764764370.332626,382.545,-443.25,-28214.28,-5766.255,-19764.495,-27796.005,-6218.955,2610.405
1764764370.332626,380.07,-444.555,-28215.045,-5766.525,-19764.99,-27796.905,-6220.125,2608.56
1764764370.332626,377.1,-447.93,-28217.7,-5768.415,-19768.23,-27800.505,-6222.465,2605.14
1764764370.332626,381.555,-442.845,-28211.805,-5764.59,-19765.755,-27797.895,-6220.844999999999,2608.74
1764764370.332626,383.67,-440.145,-28208.25,-5762.52,-19763.19,-27796.59,-6218.55,2610.27
1764764370.332626,381.375,-444.51,-28211.85,-5765.849999999999,-19764.99,-27798.03,-6219.315,2609.28
1764764370.332626,377.82,-449.64,-28217.88,-5770.755,-19769.175,-27801.27,-6221.925,2606.715
1764764370.332626,377.415,-450.81,-28220.265,-5771.79,-19770.165,-27800.955,-6221.52,2606.4
1764764370.332626,375.75,-452.565,-28221.435,-5773.545,-19772.865,-27803.115,-6223.724999999999,2603.97
1764764370.332626,379.935,-448.74,-28216.89,-5769.135,-19768.77,-27800.1,-6221.205,2607.885
1764764370.332626,381.195,-446.535,-28214.82,-5766.929999999999,-19767.465,-27798.615,-6220.485,2609.01
1764764370.332626,379.485,-446.895,-28215.495,-5767.605,-19769.58,-27801.18,-6221.655,2606.985
1764764370.332626,383.175,-441.81,-28210.005,-5762.52,-19765.89,-27797.625,-6219.179999999999,2610.81
1764764370.332626,382.995,-441.9,-28209.15,-5762.969999999999,-19766.025,-27797.67,-6218.19,2611.17
1764764370.332626,385.02,-440.595,-28208.16,-5761.8,-19762.965,-27794.205,-6216.525,2613.195
1764764370.332626,385.2,-441.54,-28208.79,-5761.98,-19762.695,-27794.7,-6216.389999999999,2611.845
1764764370.332626,381.195,-444.33,-28210.95,-5764.545,-19767.285,-27799.965,-6219.54,2608.29
1764764370.332626,385.65,-438.705,-28204.245,-5759.685,-19765.035,-27798.615,-6218.415,2611.845
1764764370.332626,392.175,-430.83,-28196.505,-5753.385,-19761.435,-27795.195,-6215.535,2616.075
1764764370.332626,390.15,-433.17,-28200.69,-5756.13,-19763.775,-27797.445,-6216.075,2613.825
1764764370.332626,384.795,-441.045,-28210.005,-5764.455,-19768.95,-27800.73,-6219.0,2610.495
1764764370.3763902,378.405,-449.46,-28219.365,-5772.014999999999,-19772.055,-27802.215,-6221.969999999999,2606.805
1764764370.3763902,377.325,-451.665,-28221.3,-5772.06,-19771.11,-27801.81,-6222.195,2606.445
1764764370.3763902,380.745,-445.95,-28214.505,-5766.795,-19768.59,-27801.045,-6221.115,2607.66
1764764370.3763902,383.4,-442.035,-28209.51,-5762.7,-19765.98,-27798.93,-6220.17,2609.505
1764764370.3763902,384.255,-441.495,-28210.905,-5761.844999999999,-19763.235,-27796.365,-6219.27,2611.17
1764764370.3763902,377.01,-450.54,-28220.49,-5768.46,-19767.15,-27799.65,-6222.195,2605.725
1764764370.3763902,379.89,-447.795,-28216.89,-5765.264999999999,-19764.405,-27795.78,-6220.17,2608.785
1764764370.3763902,378.18,-448.965,-28218.6,-5767.83,-19767.24,-27798.795,-6220.665,2606.22
1764764370.3763902,377.91,-449.325,-28219.05,-5769.224999999999,-19768.68,-27799.47,-6220.98,2606.31
1764764370.3763902,381.42,-445.905,-28216.125,-5766.974999999999,-19766.34,-27797.04,-6220.62,2608.965
1764764370.3763902,381.06,-446.04,-28215.405,-5766.974999999999,-19767.375,-27799.065,-6221.88,2608.11
1764764370.3763902,379.935,-446.985,-28215.675,-5768.594999999999,-19770.885,-27802.845,-6223.05,2606.445
1764764370.3763902,385.065,-441.0,-28209.015,-5763.014999999999,-19767.915,-27800.91,-6221.61,2609.73
1764764370.3763902,385.83,-439.695,-28206.855,-5762.295,-19768.68,-27802.62,-6222.105,2608.92
1764764370.3768983,385.92,-439.65,-28208.34,-5761.889999999999,-19765.575,-27799.02,-6219.855,2610.99
1764764370.3768983,379.44,-450.405,-28220.31,-5769.764999999999,-19767.375,-27798.12,-6222.105,2606.805
1764764370.3768983,374.805,-456.39,-28227.51,-5774.895,-19770.57,-27800.1,-6223.77,2603.61
1764764370.3768983,371.07,-458.685,-28229.445,-5778.135,-19775.115,-27804.915,-6226.695,2600.685
1764764370.3768983,373.14,-454.815,-28225.44,-5775.344999999999,-19772.91,-27803.7,-6226.02,2602.845
1764764370.3768983,371.7,-456.39,-28226.655,-5776.785,-19774.215,-27806.22,-6227.415,2600.37
1764764370.3768983,373.005,-455.58,-28224.72,-5775.344999999999,-19773.405,-27805.455,-6227.594999999999,2601.09
1764764370.3768983,378.27,-449.55,-28218.645,-5768.594999999999,-19767.645,-27800.505,-6223.545,2605.86
1764764370.3774257,380.43,-446.175,-28215.54,-5765.535,-19765.8,-27799.29,-6221.295,2607.66
1764764370.3774257,382.905,-442.845,-28211.67,-5762.25,-19763.415,-27796.905,-6218.82,2610.18
1764764370.4248412,384.795,-441.72,-28210.59,-5761.53,-19763.325,-27796.455,-6218.235,2611.62
1764764370.4248412,383.085,-443.34,-28211.67,-5763.465,-19764.765,-27797.895,-6219.585,2610.585
1764764370.4248412,382.77,-443.835,-28213.695,-5764.05,-19764.315,-27797.22,-6220.035,2609.91
1764764370.4248412,380.295,-446.22,-28215.495,-5765.219999999999,-19765.305,-27798.795,-6220.98,2607.48
1764764370.4248412,383.805,-442.035,-28211.13,-5761.395,-19762.56,-27796.005,-6219.54,2610.18
1764764370.4248412,384.12,-442.395,-28211.49,-5762.429999999999,-19763.145,-27795.69,-6219.855,2610.225
1764764370.4248412,382.86,-442.98,-28212.57,-5763.599999999999,-19764.72,-27796.815,-6220.53,2609.685
1764764370.4248412,378.675,-448.38,-28217.79,-5768.01,-19769.58,-27801.135,-6223.185,2605.455
1764764370.4248412,379.53,-448.56,-28217.475,-5767.74,-19770.255,-27801.135,-6222.375,2605.635
1764764370.4248412,380.7,-447.435,-28216.44,-5768.054999999999,-19769.445,-27800.64,-6222.105,2607.03
1764764370.4248412,384.3,-443.43,-28213.65,-5764.005,-19764.765,-27796.14,-6218.955,2611.17
1764764370.4248412,382.005,-444.78,-28215.225,-5766.344999999999,-19767.78,-27799.335,-6221.474999999999,2609.595
1764764370.4248412,383.265,-441.99,-28212.075,-5764.905,-19768.32,-27800.595,-6221.565,2610.09
1764764370.4248412,380.79,-444.33,-28213.335,-5766.795,-19770.48,-27804.285,-6223.724999999999,2605.995
1764764370.4248412,382.23,-443.745,-28212.255,-5765.804999999999,-19769.175,-27801.855,-6222.375,2607.03
1764764370.4248412,378.99,-446.49,-28215.99,-5769.315,-19772.91,-27803.97,-6223.679999999999,2604.375
1764764370.4248412,383.535,-439.785,-28209.33,-5762.655,-19768.905,-27800.73,-6221.969999999999,2608.29
1764764370.4248412,385.56,-435.78,-28202.805,-5757.48,-19766.925,-27801.405,-6221.79,2608.02
1764764370.4248412,386.28,-435.645,-28203.03,-5757.615,-19765.89,-27800.055,-6220.665,2610.225
1764764370.4248412,379.26,-448.83,-28219.05,-5769.63,-19769.805,-27801.315,-6222.24,2607.255
1764764370.4248412,374.085,-456.615,-28227.645,-5774.625,-19771.245,-27801.63,-6223.23,2604.96
1764764370.4248412,370.89,-458.145,-28227.42,-5776.469999999999,-19776.645,-27807.885,-6228.27,2599.875
1764764370.4707694,377.145,-447.975,-28216.845,-5768.955,-19773.72,-27805.59,-6225.389999999999,2604.33
1764764370.4707694,378.27,-445.005,-28214.505,-5768.639999999999,-19776.015,-27807.57,-6225.929999999999,2604.33
1764764370.4707694,384.12,-440.55,-28209.735,-5764.724999999999,-19771.92,-27802.89,-6222.87,2608.965
1764764370.4707694,382.185,-444.69,-28214.055,-5766.57,-19770.48,-27801.405,-6221.835,2608.56
1764764370.4707694,373.95,-455.265,-28224.99,-5773.905,-19773.27,-27803.925,-6225.21,2602.62
1764764370.4717836,377.055,-452.07,-28222.065,-5770.665,-19771.02,-27801.81,-6224.94,2605.095
1764764370.4717836,378.72,-448.605,-28218.465,-5767.92,-19769.805,-27801.765,-6224.13,2605.815
1764764370.4717836,376.92,-449.595,-28219.23,-5769.719999999999,-19771.83,-27803.295,-6224.715,2604.285
1764764370.4717836,379.665,-447.705,-28217.475,-5767.56,-19769.49,-27800.01,-6222.78,2607.525
1764764370.4717836,375.75,-451.08,-28220.715,-5770.98,-19773.675,-27805.32,-6225.84,2603.79
1764764370.4717836,377.37,-448.605,-28218.285,-5768.73,-19771.785,-27804.15,-6224.264999999999,2604.735
1764764370.4717836,379.71,-447.21,-28217.655,-5767.695,-19770.165,-27801.495,-6223.32,2606.94
1764764370.4717836,377.145,-452.115,-28222.83,-5773.139999999999,-19774.35,-27803.745,-6224.49,2604.735
1764764370.4717836,379.485,-450.135,-28220.94,-5771.385,-19772.64,-27801.54,-6223.094999999999,2607.075
1764764370.4717836,376.785,-452.7,-28223.865,-5774.085,-19774.485,-27804.24,-6224.13,2603.835
1764764370.4717836,377.28,-451.305,-28221.75,-5772.69,-19773.99,-27804.735,-6224.445,2604.06
1764764370.4717836,379.305,-448.2,-28218.06,-5769.405,-19772.46,-27803.835,-6223.995,2606.085
1764764370.4717836,383.4,-443.07,-28212.705,-5763.78,-19767.69,-27799.245,-6220.98,2610.99
1764764370.4717836,383.58,-443.205,-28212.705,-5763.465,-19768.095,-27798.615,-6220.485,2611.08
1764764370.4717836,381.645,-444.51,-28214.19,-5764.95,-19769.67,-27800.685,-6222.42,2609.91
1764764370.4717836,382.095,-443.79,-28213.38,-5763.96,-19768.545,-27799.245,-6220.935,2611.53
1764764370.4717836,381.33,-444.78,-28215.045,-5765.175,-19768.635,-27798.75,-6221.295,2611.17
1764764370.4717836,382.455,-444.51,-28214.955,-5764.545,-19767.42,-27796.995,-6220.08,2612.295
1764764370.4717836,381.33,-444.24,-28215.225,-5765.264999999999,-19769.22,-27798.57,-6221.025,2610.36
1764764370.5174215,380.295,-445.86,-28215.945,-5766.75,-19771.065,-27800.91,-6222.195,2607.57
1764764370.5174215,385.605,-440.1,-28209.51,-5760.855,-19767.195,-27797.58,-6219.585,2610.945
1764764370.5174215,388.53,-433.8,-28202.985,-5755.815,-19765.215,-27796.905,-6218.415,2612.97
1764764370.5174215,390.375,-430.02,-28198.575,-5753.07,-19764.54,-27797.22,-6217.92,2613.42
1764764370.5174215,392.355,-429.255,-28197.855,-5752.44,-19762.245,-27794.79,-6216.389999999999,2616.255
1764764370.5174215,383.805,-442.98,-28214.145,-5764.77,-19767.015,-27797.625,-6219.315,2611.08
1764764370.5174215,375.12,-453.78,-28225.89,-5773.59,-19772.865,-27801.585,-6223.545,2604.195
1764764370.5174215,377.01,-451.44,-28223.955,-5771.745,-19772.28,-27801.045,-6223.635,2605.23
1764764370.5174215,374.76,-453.24,-28224.45,-5772.465,-19774.44,-27803.34,-6225.344999999999,2602.935
1764764370.5174215,379.395,-448.605,-28219.005,-5768.325,-19771.245,-27799.74,-6223.094999999999,2606.715
1764764370.5174215,378.495,-448.245,-28218.78,-5768.55,-19773.135,-27802.395,-6224.67,2605.59
1764764370.5174215,380.295,-445.455,-28215.495,-5765.085,-19771.2,-27801.63,-6223.32,2606.67
1764764370.5174215,384.345,-441.18,-28210.68,-5762.07,-19768.815,-27799.065,-6221.429999999999,2610.765
1764764370.5174215,384.03,-441.855,-28211.085,-5763.78,-19770.615,-27800.955,-6222.96,2609.64
1764764370.5174215,385.785,-438.21,-28207.98,-5760.719999999999,-19769.985,-27801.81,-6222.195,2610.405
1764764370.5174215,384.57,-438.84,-28208.61,-5760.719999999999,-19769.67,-27802.215,-6222.105,2609.685
1764764370.5174215,381.465,-442.755,-28212.615,-5763.465,-19771.875,-27804.285,-6223.139999999999,2605.905
1764764370.5174215,382.995,-440.28,-28209.87,-5762.385,-19772.955,-27804.78,-6223.094999999999,2606.58
1764764370.5174215,381.96,-441.405,-28211.265,-5763.195,-19772.73,-27804.24,-6223.23,2606.31
1764764370.5174215,384.345,-440.1,-28209.645,-5761.215,-19768.68,-27799.83,-6221.25,2609.595
1764764370.5174215,379.215,-448.875,-28219.455,-5767.155,-19770.345,-27799.65,-6222.33,2607.255
1764764370.5174215,369.495,-460.665,-28232.19,-5776.875,-19775.745,-27804.015,-6225.705,2600.685
1764764370.5174215,373.68,-452.745,-28223.55,-5770.215,-19774.485,-27803.925,-6224.535,2602.8
1764764370.5174215,380.16,-445.095,-28215.54,-5763.195,-19770.84,-27800.64,-6222.24,2606.58
1764764370.5635722,384.21,-442.8,-28213.245,-5762.115,-19768.095,-27797.58,-6219.719999999999,2610.81
1764764370.5635722,378.72,-450.765,-28222.47,-5770.44,-19772.505,-27800.73,-6223.094999999999,2606.805
1764764370.5635722,375.12,-455.895,-28229.4,-5775.929999999999,-19776.015,-27803.295,-6224.895,2604.69
1764764370.5635722,374.445,-455.13,-28227.735,-5775.075,-19777.5,-27805.77,-6226.514999999999,2602.71
1764764370.5635722,377.955,-450.765,-28221.93,-5769.855,-19773.405,-27802.395,-6225.255,2605.68
1764764370.5635722,379.305,-448.515,-28218.645,-5767.335,-19771.2,-27801.585,-6223.679999999999,2606.76
1764764370.5635722,381.195,-446.355,-28216.08,-5764.23,-19768.68,-27800.19,-6221.835,2607.66
1764764370.5635722,381.42,-445.59,-28215.54,-5763.375,-19768.455,-27800.325,-6222.69,2607.3
1764764370.5635722,378.99,-447.57,-28217.475,-5765.49,-19770.615,-27801.9,-6223.635,2605.14
1764764370.5635722,377.415,-450.27,-28221.12,-5768.505,-19773.18,-27803.52,-6224.355,2603.655
1764764370.5645795,376.335,-451.71,-28222.245,-5769.675,-19774.755,-27805.365,-6225.75,2603.16
1764764370.5645795,371.61,-455.49,-28226.025,-5774.219999999999,-19780.155,-27810.945,-6230.16,2598.345
1764764370.5645795,373.545,-453.87,-28224.765,-5772.69,-19778.985,-27809.46,-6228.99,2600.37
1764764370.5645795,371.295,-456.12,-28227.375,-5775.12,-19781.415,-27811.35,-6230.385,2598.3
1764764370.5645795,376.155,-450.72,-28222.38,-5770.889999999999,-19776.195,-27807.3,-6227.955,2602.215
1764764370.5645795,375.255,-452.88,-28223.865,-5773.455,-19778.31,-27809.28,-6228.405,2601.315
1764764370.5645795,371.565,-455.49,-28226.07,-5775.929999999999,-19782.135,-27812.88,-6230.79,2598.795
1764764370.5645795,373.545,-453.015,-28224.0,-5775.03,-19781.91,-27813.015,-6230.295,2598.75
1764764370.565088,377.46,-449.505,-28220.76,-5772.15,-19779.21,-27810.27,-6228.45,2601.18
1764764370.565088,379.26,-447.39,-28217.25,-5767.335,-19774.395,-27806.76,-6226.695,2603.745
1764764370.565088,378.81,-447.885,-28216.62,-5766.795,-19773.495,-27805.635,-6225.615,2603.655
1764764370.565088,375.93,-452.25,-28221.165,-5771.88,-19778.76,-27810.045,-6228.27,2600.235
1764764370.6123185,375.48,-453.42,-28222.47,-5772.51,-19777.77,-27808.965,-6227.28,2601.045
1764764370.6123185,374.085,-455.49,-28224.585,-5774.085,-19777.725,-27808.38,-6227.099999999999,2600.145
1764764370.6123185,375.3,-454.86,-28223.235,-5772.51,-19777.095,-27807.615,-6226.335,2600.91
1764764370.6123185,376.335,-451.89,-28222.47,-5771.565,-19776.69,-27808.29,-6226.155,2601.99
1764764370.6123185,382.455,-444.78,-28214.235,-5765.219999999999,-19773.63,-27805.545,-6224.58,2606.355
1764764370.6123185,381.555,-444.87,-28213.38,-5766.03,-19775.385,-27807.525,-6225.84,2605.635
1764764370.6133232,375.885,-452.79,-28221.48,-5773.905,-19780.29,-27811.035,-6228.405,2601.54
1764764370.6133232,374.175,-456.255,-28226.295,-5777.505,-19782.585,-27812.43,-6229.17,2600.145
1764764370.6133232,377.01,-452.97,-28223.01,-5773.094999999999,-19779.57,-27809.55,-6227.145,2601.99
1764764370.6133232,375.48,-454.275,-28224.315,-5773.905,-19780.83,-27811.17,-6228.99,2600.325
1764764370.6133232,376.38,-454.5,-28225.17,-5773.679999999999,-19777.545,-27807.57,-6227.28,2602.305
1764764370.6133232,372.78,-457.965,-28229.445,-5777.28,-19780.83,-27810.585,-6229.125,2599.695
1764764370.6133232,373.635,-456.66,-28226.97,-5776.02,-19782.045,-27811.215,-6229.125,2600.055
1764764370.6133232,375.165,-453.69,-28223.145,-5773.679999999999,-19781.595,-27811.665,-6229.395,2599.83
1764764370.6133232,378.63,-447.57,-28217.97,-5769.27,-19778.985,-27809.28,-6227.955,2602.485
1764764370.6133232,381.96,-443.61,-28213.605,-5765.4,-19775.07,-27806.085,-6225.525,2606.31
1764764370.6133232,375.12,-452.565,-28223.46,-5773.005,-19778.085,-27808.74,-6228.495,2601.18
1764764370.6133232,374.85,-454.05,-28225.17,-5773.139999999999,-19776.465,-27807.93,-6228.855,2601.495
1764764370.6133232,376.56,-451.575,-28222.92,-5772.96,-19777.635,-27809.64,-6228.719999999999,2601.72
1764764370.6133232,373.32,-456.345,-28227.195,-5777.325,-19781.685,-27813.24,-6231.554999999999,2599.02
1764764370.6133232,376.335,-453.24,-28223.91,-5773.094999999999,-19778.49,-27809.19,-6229.755,2602.035
1764764370.6133232,375.66,-453.15,-28223.64,-5773.094999999999,-19778.985,-27809.82,-6230.115,2600.685
1764764370.6133232,373.815,-454.59,-28224.54,-5774.58,-19782.135,-27812.205,-6231.33,2598.03
1764764370.6133232,375.255,-452.385,-28222.02,-5772.465,-19780.695,-27811.26,-6230.385,2599.29
1764764370.6565604,378.135,-450.405,-28220.715,-5770.755,-19777.275,-27807.84,-6227.639999999999,2602.665
1764764370.6565604,374.355,-456.57,-28229.175,-5777.01,-19780.47,-27808.74,-6229.26,2600.685
1764764370.6565604,372.06,-458.415,-28231.335,-5780.52,-19785.87,-27813.825,-6232.185,2596.905
1764764370.6565604,375.48,-453.195,-28225.125,-5775.66,-19783.215,-27812.745,-6231.195,2598.93
1764764370.6565604,378.495,-449.235,-28220.985,-5771.07,-19779.39,-27809.91,-6230.115,2601.225
1764764370.6565604,375.21,-453.105,-28224.045,-5774.804999999999,-19781.73,-27811.755,-6231.33,2598.84
1764764370.6579664,370.035,-460.53,-28232.01,-5781.69,-19784.79,-27814.32,-6232.995,2595.195
1764764370.6579664,370.44,-460.035,-28233.36,-5781.15,-19784.34,-27813.105,-6233.04,2595.6
1764764370.6579664,369.72,-458.865,-28231.92,-5779.71,-19785.06,-27813.735,-6233.67,2594.745
1764764370.6579664,373.995,-454.23,-28226.205,-5774.895,-19781.37,-27809.955,-6231.014999999999,2598.345
1764764370.6579664,371.97,-456.705,-28229.13,-5777.01,-19783.53,-27812.205,-6232.275,2595.645
1764764370.6579664,371.25,-456.795,-28229.49,-5776.92,-19784.115,-27812.655,-6233.264999999999,2595.24
1764764370.6584778,371.97,-455.22,-28228.095,-5775.57,-19783.395,-27812.565,-6233.355,2595.24
1764764370.6584778,377.235,-450.045,-28222.74,-5771.16,-19779.255,-27808.65,-6229.62,2600.145
1764764370.6584778,377.46,-449.955,-28222.335,-5771.52,-19780.065,-27809.865,-6229.215,2600.28
1764764370.6584778,374.805,-452.79,-28224.18,-5773.32,-19783.485,-27813.24,-6232.32,2596.68
1764764370.6584778,375.93,-452.385,-28223.28,-5771.745,-19780.965,-27810.72,-6231.69,2599.2
1764764370.6594915,374.085,-455.22,-28227.015,-5774.04,-19782.36,-27811.08,-6232.094999999999,2598.705
1764764370.6594915,372.015,-457.245,-28229.67,-5776.965,-19785.465,-27814.455,-6234.255,2596.23
1764764370.6594915,372.33,-456.615,-28228.455,-5776.695,-19785.87,-27814.995,-6234.03,2595.51
1764764370.6594915,377.235,-451.53,-28223.19,-5772.465,-19781.145,-27810.315,-6230.7,2601.135
1764764370.6594915,378.225,-450.18,-28221.165,-5770.98,-19780.875,-27810.63,-6230.115,2600.505
1764764370.6594915,377.955,-447.12,-28217.34,-5768.415,-19782.36,-27813.51,-6231.24,2598.615
1764764370.6594915,384.525,-436.59,-28206.09,-5758.245,-19777.275,-27809.82,-6228.135,2602.62
1764764370.7058573,390.285,-430.875,-28200.285,-5753.745,-19773.585,-27805.725,-6223.679999999999,2608.38
1764764370.7058573,380.745,-446.58,-28219.05,-5769.945,-19782.765,-27811.215,-6228.36,2603.43
1764764370.7058573,368.955,-465.12,-28239.705,-5784.389999999999,-19787.445,-27813.87,-6232.455,2596.095
1764764370.7058573,367.65,-465.885,-28238.895,-5782.995,-19785.87,-27813.735,-6232.905,2594.43
1764764370.7058573,370.575,-461.52,-28234.305,-5779.349999999999,-19785.33,-27813.555,-6232.094999999999,2595.6
1764764370.7058573,376.56,-454.5,-28226.565,-5773.005,-19780.425,-27809.28,-6228.63,2600.91
1764764370.7058573,378.495,-452.835,-28225.44,-5771.34,-19779.66,-27807.84,-6226.695,2603.43
1764764370.7058573,378.18,-452.79,-28225.08,-5771.34,-19780.92,-27808.56,-6228.045,2602.035
1764764370.7058573,380.655,-447.84,-28219.68,-5767.245,-19779.795,-27809.055,-6227.955,2603.115
1764764370.7058573,381.24,-445.68,-28216.215,-5765.67,-19780.56,-27810.72,-6228.855,2602.395
1764764370.7058573,381.33,-446.265,-28217.97,-5767.335,-19781.19,-27810.63,-6228.405,2603.025
1764764370.7058573,375.345,-453.285,-28226.205,-5773.32,-19785.06,-27814.185,-6230.79,2598.345
1764764370.7058573,376.38,-452.385,-28224.135,-5771.295,-19782.315,-27812.115,-6229.844999999999,2599.605
1764764370.7058573,373.41,-457.515,-28229.04,-5776.469999999999,-19786.275,-27813.87,-6231.87,2598.255
1764764370.7058573,372.825,-459.585,-28232.46,-5779.53,-19788.435,-27814.005,-6231.014999999999,2599.335
1764764370.7058573,372.15,-460.845,-28234.08,-5780.655,-19787.895,-27814.545,-6230.655,2598.66
1764764370.7058573,375.48,-456.615,-28231.38,-5778.315,-19786.815,-27813.555,-6230.295,2600.325
1764764370.7058573,377.1,-454.005,-28229.13,-5776.2,-19785.645,-27812.655,-6229.71,2601.81
1764764370.7058573,375.03,-455.805,-28231.56,-5778.719999999999,-19788.615,-27815.49,-6231.375,2598.93
1764764370.7058573,379.26,-451.26,-28226.835,-5773.815,-19784.475,-27810.99,-6228.135,2603.925
1764764370.7058573,381.375,-449.415,-28223.91,-5771.385,-19782.315,-27809.325,-6225.84,2605.41
1764764370.7058573,380.565,-451.62,-28224.99,-5773.139999999999,-19783.845,-27810.945,-6227.955,2603.43
1764764370.7058573,385.335,-446.355,-28219.545,-5767.785,-19778.58,-27805.995,-6224.58,2607.39
1764764370.7058573,385.02,-445.23,-28218.555,-5765.849999999999,-19776.69,-27805.14,-6224.04,2607.93
1764764370.752213,384.435,-445.995,-28218.69,-5765.895,-19776.375,-27804.87,-6224.715,2607.66
1764764370.752213,386.055,-445.455,-28217.25,-5764.95,-19774.62,-27803.07,-6223.679999999999,2608.335
1764764370.752213,384.525,-448.065,-28219.05,-5765.94,-19775.88,-27803.655,-6224.175,2607.12
1764764370.752213,380.61,-451.305,-28223.145,-5769.315,-19778.895,-27805.41,-6225.21,2604.645
1764764370.752213,383.13,-448.065,-28221.075,-5766.84,-19775.655,-27802.98,-6223.635,2607.435
1764764370.752213,382.14,-448.74,-28221.795,-5767.695,-19777.275,-27805.365,-6224.31,2606.085
1764764370.752213,385.83,-444.78,-28217.295,-5764.59,-19774.53,-27802.8,-6222.599999999999,2610.225
1764764370.752213,382.725,-447.345,-28219.59,-5767.514999999999,-19778.085,-27806.49,-6225.12,2607.255
1764764370.752213,385.11,-444.51,-28216.44,-5764.005,-19776.6,-27805.59,-6224.175,2608.02
1764764370.752213,389.52,-438.615,-28210.095,-5758.514999999999,-19772.82,-27802.395,-6221.565,2611.53
1764764370.752213,394.425,-433.035,-28203.255,-5751.9,-19767.87,-27797.58,-6218.865,2616.255
1764764370.752213,391.995,-437.535,-28207.755,-5755.185,-19769.535,-27798.39,-6219.855,2613.915
1764764370.752213,382.32,-450.99,-28222.38,-5767.875,-19776.42,-27803.43,-6223.679999999999,2606.625
1764764370.752213,379.08,-455.49,-28227.15,-5771.88,-19779.21,-27805.59,-6225.66,2604.105
1764764370.752213,383.085,-450.45,-28221.255,-5767.245,-19777.815,-27804.78,-6224.264999999999,2606.535
1764764370.752213,388.08,-444.24,-28214.775,-5761.395,-19774.125,-27802.44,-6221.295,2610.405
1764764370.752213,392.04,-439.605,-28210.545,-5756.94,-19770.57,-27799.02,-6218.594999999999,2613.42
1764764370.752213,388.26,-443.745,-28213.605,-5761.08,-19775.79,-27802.62,-6222.15,2609.55
1764764370.752213,391.005,-440.46,-28210.995,-5757.57,-19773.54,-27801.945,-6220.485,2612.565
1764764370.752213,390.105,-443.295,-28216.44,-5763.78,-19777.14,-27806.175,-6221.16,2612.07
1764764370.752213,387.72,-447.84,-28226.61,-5782.455,-19794.78,-27814.14,-6223.59,2610.45
1764764370.752213,393.705,-443.295,-28226.385,-5797.035,-19819.755,-27820.575,-6222.24,2615.895
1764764370.7988667,396.045,-440.19,-28224.9,-5804.054999999999,-19845.18,-27833.58,-6222.285,2617.29
1764764370.7988667,395.19,-441.315,-28225.26,-5803.514999999999,-19854.54,-27844.92,-6224.13,2615.535
1764764370.7988667,398.16,-437.355,-28220.22,-5793.84,-19842.39,-27845.19,-6225.03,2617.245
1764764370.7988667,398.925,-433.53,-28213.83,-5778.405,-19821.195,-27839.655,-6226.245,2616.12
1764764370.7988667,404.595,-426.51,-28204.875,-5760.045,-19796.58,-27825.255,-6222.014999999999,2621.43
1764764370.7988667,397.575,-435.735,-28213.515,-5760.27,-19784.43,-27818.19,-6224.264999999999,2616.57
1764764370.7988667,387.18,-449.145,-28226.655,-5767.83,-19778.805,-27809.28,-6226.785,2609.91
1764764370.7988667,381.555,-453.015,-28228.77,-5767.29,-19769.085,-27795.915,-6226.605,2605.41
1764764370.7988667,378.9,-454.86,-28227.465,-5763.554999999999,-19756.755,-27787.41,-6225.84,2603.205
1764764370.7988667,375.75,-458.145,-28228.815,-5762.205,-19749.195,-27784.395,-6224.219999999999,2600.685
1764764370.7988667,373.995,-459.9,-28230.075,-5764.545,-19754.955,-27790.92,-6224.67,2598.57
1764764370.7988667,380.025,-452.34,-28223.73,-5760.63,-19762.155,-27795.465,-6221.88,2603.88
1764764370.7988667,386.955,-445.365,-28218.015,-5756.535,-19768.725,-27799.155,-6219.81,2610.81
1764764370.7988667,389.115,-443.205,-28216.845,-5757.705,-19779.165,-27806.895,-6221.115,2612.79
1764764370.7988667,391.455,-440.865,-28213.29,-5755.545,-19783.53,-27810.945,-6220.53,2614.32
1764764370.7988667,390.78,-440.91,-28213.38,-5757.84,-19785.33,-27812.295,-6222.554999999999,2612.385
1764764370.7988667,389.655,-441.18,-28212.975,-5758.514999999999,-19777.68,-27806.58,-6223.05,2610.72
1764764370.7988667,386.685,-443.52,-28214.28,-5759.37,-19770.525,-27801.765,-6223.59,2608.29
1764764370.7988667,388.485,-441.585,-28211.535,-5754.554999999999,-19763.775,-27796.635,-6221.969999999999,2609.955
1764764370.7988667,385.38,-444.6,-28214.82,-5756.085,-19764.09,-27796.905,-6223.139999999999,2607.525
1764764370.7993798,378.405,-454.455,-28224.405,-5763.915,-19768.23,-27798.795,-6226.335,2601.855
1764764370.7993798,375.795,-457.29,-28226.07,-5764.679999999999,-19765.845,-27795.87,-6226.425,2599.965
1764764370.7993798,375.66,-456.435,-28226.07,-5764.905,-19766.52,-27796.635,-6226.695,2600.37
1764764370.7993798,380.385,-451.665,-28220.67,-5760.81,-19765.8,-27795.105,-6223.724999999999,2604.195
1764764370.8420398,385.875,-446.76,-28215.315,-5755.905,-19763.595,-27793.215,-6221.07,2608.155
1764764370.8420398,381.375,-450.18,-28218.645,-5760.09,-19769.67,-27798.93,-6224.535,2604.105
1764764370.8420398,382.68,-448.29,-28217.205,-5759.145,-19770.39,-27799.695,-6224.76,2605.095
1764764370.8420398,382.86,-448.11,-28216.53,-5759.46,-19772.145,-27801.45,-6225.165,2604.69
1764764370.8420398,382.635,-448.29,-28217.43,-5760.54,-19773.18,-27802.215,-6224.804999999999,2604.15
1764764370.8420398,383.22,-449.145,-28219.365,-5761.98,-19772.505,-27800.82,-6223.905,2606.445
1764764370.8420398,380.655,-452.745,-28222.965,-5766.21,-19775.115,-27802.98,-6225.795,2604.51
1764764370.8420398,378.72,-454.23,-28224.54,-5769.045,-19779.435,-27806.58,-6228.45,2601.63
1764764370.8420398,383.625,-448.515,-28218.645,-5762.79,-19775.295,-27802.485,-6226.514999999999,2605.77
1764764370.8420398,386.01,-445.725,-28215.045,-5759.865,-19773.81,-27801.09,-6224.445,2607.615
1764764370.8420398,387.315,-445.185,-28215.585,-5760.09,-19775.205,-27801.855,-6223.59,2608.47
1764764370.8420398,384.615,-448.02,-28219.5,-5763.645,-19778.715,-27804.87,-6225.3,2606.67
1764764370.8420398,389.295,-443.52,-28214.19,-5758.11,-19773.225,-27799.11,-6221.385,2611.485
1764764370.8420398,389.745,-441.99,-28211.76,-5756.58,-19771.605,-27797.895,-6220.62,2612.025
1764764370.8420398,387.36,-444.51,-28214.865,-5759.594999999999,-19774.935,-27800.145,-6222.51,2609.46
1764764370.8420398,389.025,-442.44,-28212.48,-5757.974999999999,-19773.135,-27798.84,-6221.115,2610.495
1764764370.8420398,392.13,-440.055,-28209.42,-5755.59,-19772.1,-27796.725,-6219.764999999999,2613.06
1764764370.8420398,388.485,-445.365,-28215.045,-5761.44,-19777.23,-27801.405,-6222.465,2610.09
1764764370.8420398,389.61,-445.275,-28215.09,-5760.54,-19774.755,-27798.93,-6221.07,2611.845
1764764370.8420398,388.62,-444.87,-28215.27,-5760.585,-19773.585,-27798.21,-6219.719999999999,2611.845
1764764370.8420398,388.98,-444.555,-28215.855,-5760.495,-19774.215,-27799.65,-6219.09,2611.755
1764764370.8420398,386.325,-446.04,-28217.565,-5762.115,-19777.815,-27803.565,-6222.105,2608.605
1764764370.88884,387.0,-445.32,-28215.405,-5761.53,-19777.59,-27803.385,-6222.554999999999,2608.38
1764764370.88884,388.17,-444.24,-28214.37,-5760.09,-19775.97,-27801.09,-6221.79,2610.54
1764764370.88884,388.935,-444.78,-28216.26,-5760.54,-19774.98,-27798.75,-6219.945,2612.745
1764764370.88884,385.065,-449.46,-28221.165,-5764.545,-19778.85,-27802.215,-6222.915,2609.775
1764764370.88884,382.68,-451.665,-28222.38,-5766.03,-19781.55,-27805.68,-6224.849999999999,2607.21
1764764370.88884,383.4,-450.765,-28221.615,-5765.219999999999,-19781.1,-27805.545,-6225.344999999999,2607.57
1764764370.88884,387.36,-447.345,-28218.24,-5762.205,-19777.995,-27802.215,-6223.545,2610.27
1764764370.88884,388.395,-445.23,-28216.125,-5760.99,-19777.005,-27802.08,-6222.15,2611.35
1764764370.88884,388.98,-444.15,-28214.64,-5760.09,-19777.815,-27803.115,-6222.87,2611.35
1764764370.88884,387.045,-445.86,-28215.765,-5761.08,-19779.255,-27805.365,-6226.065,2608.47
1764764370.88884,386.505,-446.22,-28216.215,-5761.62,-19779.57,-27805.23,-6225.885,2608.65
1764764370.88884,386.685,-446.49,-28216.98,-5762.025,-19779.66,-27805.14,-6225.389999999999,2608.74
1764764370.88884,387.09,-444.51,-28215.72,-5760.855,-19779.66,-27806.175,-6226.38,2608.02
1764764370.88884,384.57,-447.12,-28218.6,-5763.825,-19781.28,-27806.895,-6227.82,2606.535
1764764370.88884,381.915,-452.205,-28224.855,-5768.415,-19783.215,-27806.985,-6228.0,2604.735
1764764370.88884,376.56,-458.415,-28231.605,-5773.32,-19788.39,-27811.53,-6231.15,2599.875
1764764370.88884,376.155,-458.64,-28230.615,-5773.455,-19789.515,-27813.195,-6232.32,2599.515
1764764370.88884,380.07,-454.905,-28227.375,-5770.08,-19786.455,-27811.08,-6229.304999999999,2602.35
1764764370.88884,385.2,-449.865,-28221.705,-5764.815,-19781.955,-27806.985,-6226.605,2607.03
1764764370.88884,384.075,-450.99,-28223.28,-5766.389999999999,-19783.89,-27808.335,-6228.585,2605.68
1764764370.88884,381.735,-453.645,-28225.935,-5769.27,-19783.8,-27807.03,-6228.9,2604.015
1764764370.88884,383.085,-452.97,-28223.82,-5768.19,-19782.72,-27807.12,-6228.224999999999,2605.23
1764764370.88884,386.01,-447.66,-28218.69,-5765.175,-19784.025,-27808.65,-6227.594999999999,2605.86
1764764370.88884,394.695,-435.15,-28205.955,-5753.295,-19776.645,-27802.62,-6223.32,2611.98
1764764370.934884,397.71,-429.84,-28199.475,-5747.715,-19773.0,-27800.865,-6221.34,2614.23
1764764370.934884,395.595,-434.655,-28204.245,-5752.035,-19774.62,-27800.37,-6221.79,2613.6
1764764370.934884,387.63,-447.66,-28218.6,-5762.025,-19776.825,-27800.82,-6223.23,2609.865
1764764370.934884,381.915,-457.02,-28229.175,-5769.224999999999,-19778.31,-27801.99,-6224.13,2607.12
1764764370.934884,381.555,-457.11,-28229.445,-5769.36,-19779.66,-27802.89,-6224.49,2607.165
1764764370.934884,383.04,-454.86,-28227.78,-5769.179999999999,-19782.18,-27805.41,-6225.525,2606.58
1764764370.934884,382.455,-455.31,-28228.23,-5771.025,-19784.7,-27807.615,-6227.01,2604.96
1764764370.934884,386.28,-450.54,-28223.91,-5767.605,-19781.775,-27803.97,-6225.435,2609.055
1764764370.934884,384.885,-450.99,-28224.045,-5768.145,-19783.305,-27805.905,-6226.74,2607.03
1764764370.934884,381.645,-454.32,-28226.745,-5770.575,-19786.275,-27809.955,-6229.575,2603.07
1764764370.934884,386.055,-449.01,-28221.12,-5764.545,-19781.505,-27805.995,-6227.37,2606.805
1764764370.934884,387.315,-446.94,-28218.195,-5762.835,-19781.19,-27806.67,-6227.325,2607.03
1764764370.934884,384.66,-448.56,-28219.095,-5764.995,-19784.88,-27810.18,-6228.99,2604.375
1764764370.9354117,388.845,-444.105,-28214.865,-5761.44,-19781.37,-27806.805,-6227.28,2608.56
1764764370.9354117,386.505,-447.84,-28219.905,-5765.04,-19782.135,-27807.57,-6229.125,2607.66
1764764370.9354117,379.71,-457.29,-28230.12,-5772.69,-19786.365,-27811.125,-6233.49,2601.945
1764764370.9354117,376.785,-460.62,-28233.99,-5775.389999999999,-19789.695,-27813.42,-6234.615,2599.47
1764764370.9354117,375.615,-460.89,-28233.63,-5775.165,-19791.405,-27815.04,-6235.605,2597.67
1764764370.9354117,379.53,-456.975,-28228.815,-5771.61,-19788.03,-27812.07,-6234.344999999999,2599.92
1764764370.9354117,378.99,-457.38,-28228.815,-5772.375,-19788.12,-27812.205,-6234.389999999999,2599.515
1764764370.9354117,377.955,-458.55,-28230.93,-5773.77,-19788.795,-27812.97,-6235.29,2599.02
1764764370.9354117,377.415,-459.315,-28231.515,-5774.445,-19790.145,-27814.23,-6235.155,2598.03
1764764370.9822152,382.41,-454.905,-28225.98,-5769.764999999999,-19785.33,-27809.82,-6231.825,2603.295
1764764370.9822152,381.285,-455.445,-28226.7,-5770.215,-19785.645,-27810.54,-6232.635,2602.08
1764764370.9822152,378.18,-457.02,-28229.04,-5771.88,-19788.48,-27813.645,-6234.705,2599.155
1764764370.9822152,377.055,-457.65,-28229.355,-5771.925,-19788.93,-27814.14,-6236.054999999999,2598.345
1764764370.9822152,374.355,-460.755,-28232.235,-5774.985,-19792.215,-27817.065,-6237.675,2594.88
1764764370.9822152,376.47,-457.965,-28228.905,-5771.745,-19790.55,-27815.94,-6236.415,2596.815
1764764370.9822152,380.97,-452.115,-28222.83,-5766.255,-19785.825,-27811.44,-6233.355,2601.135
1764764370.9822152,378.405,-454.68,-28224.315,-5768.01,-19788.615,-27814.545,-6235.605,2598.435
1764764370.9822152,379.125,-455.58,-28225.35,-5768.73,-19789.02,-27813.96,-6234.75,2599.155
1764764370.9822152,377.415,-459.225,-28229.805,-5772.24,-19790.64,-27814.95,-6236.37,2598.435
1764764370.983232,377.46,-459.405,-28230.435,-5772.51,-19789.47,-27813.42,-6235.875,2599.47
1764764370.983232,378.045,-459.72,-28231.065,-5772.06,-19789.155,-27813.42,-6235.74,2600.01
1764764370.983232,382.995,-454.815,-28225.575,-5766.615,-19785.105,-27809.685,-6232.724999999999,2604.42
1764764370.983232,384.12,-452.34,-28223.145,-5765.49,-19784.565,-27809.37,-6232.094999999999,2605.275
1764764370.983232,386.28,-448.335,-28219.14,-5762.025,-19784.115,-27808.965,-6230.88,2606.445
1764764370.983232,386.28,-446.31,-28216.44,-5760.764999999999,-19784.97,-27810.225,-6231.375,2605.635
1764764370.983232,388.305,-443.385,-28213.92,-5758.245,-19783.215,-27809.1,-6230.385,2606.58
1764764370.983232,386.955,-446.31,-28216.62,-5759.73,-19782.045,-27808.155,-6229.935,2606.805
1764764370.983232,383.04,-453.87,-28225.44,-5767.155,-19783.98,-27807.795,-6230.565,2606.625
1764764370.983232,376.38,-462.195,-28234.89,-5775.84,-19790.37,-27813.465,-6234.48,2600.73
1764764370.983232,378.27,-459.495,-28231.11,-5772.87,-19789.29,-27812.43,-6234.795,2601.99
1764764370.983232,385.335,-449.64,-28220.49,-5764.23,-19784.475,-27808.515,-6231.33,2607.48
1764764371.029041,389.16,-442.89,-28214.1,-5758.92,-19781.685,-27807.12,-6228.99,2610.36
1764764371.029041,387.585,-444.105,-28215.405,-5759.594999999999,-19783.035,-27809.235,-6230.835,2608.38
1764764371.029041,386.01,-448.245,-28220.22,-5763.375,-19785.6,-27810.675,-6231.78,2606.625
1764764371.029041,380.88,-456.165,-28229.715,-5771.34,-19790.145,-27813.06,-6234.12,2603.385
1764764371.029041,375.975,-461.61,-28235.025,-5775.389999999999,-19793.115,-27816.075,-6237.179999999999,2599.065
1764764371.029041,373.455,-464.895,-28238.67,-5777.955,-19793.88,-27817.47,-6238.395,2596.995
1764764371.029041,375.345,-462.96,-28236.78,-5775.57,-19792.305,-27815.13,-6236.37,2598.435
1764764371.029041,380.79,-455.94,-28229.13,-5770.26,-19789.02,-27811.98,-6233.04,2602.575
1764764371.029041,383.58,-451.845,-28225.305,-5766.525,-19787.22,-27810.765,-6230.429999999999,2605.32
1764764371.029041,385.02,-449.595,-28222.245,-5763.78,-19786.23,-27809.46,-6230.205,2606.13
1764764371.029041,387.09,-447.93,-28220.94,-5762.61,-19784.88,-27808.875,-6230.295,2607.615
1764764371.029041,385.11,-448.605,-28220.805,-5763.195,-19787.04,-27811.845,-6232.995,2604.78
1764764371.029041,383.805,-448.155,-28219.59,-5763.465,-19789.38,-27815.445,-6234.255,2603.385
1764764371.029041,384.21,-450.0,-28221.84,-5764.679999999999,-19787.67,-27813.33,-6233.445,2604.195
1764764371.029041,375.66,-462.105,-28235.07,-5775.57,-19792.44,-27816.84,-6237.585,2598.21
1764764371.029041,374.715,-463.32,-28236.105,-5776.514999999999,-19792.98,-27816.435,-6238.485,2597.58
1764764371.029041,382.455,-453.78,-28225.215,-5766.795,-19787.94,-27811.845,-6234.615,2603.52
1764764371.029041,385.875,-449.37,-28219.68,-5763.554999999999,-19787.13,-27812.88,-6235.065,2603.655
1764764371.029041,383.31,-453.33,-28223.865,-5767.02,-19788.93,-27814.275,-6235.83,2601.72
1764764371.029041,379.845,-458.235,-28229.04,-5770.53,-19791.09,-27815.355,-6236.054999999999,2599.83
1764764371.029041,385.47,-452.61,-28223.775,-5766.48,-19786.86,-27811.08,-6232.545,2605.68
1764764371.029041,383.625,-455.985,-28227.555,-5768.639999999999,-19787.49,-27811.62,-6234.389999999999,2604.42
1764764371.029041,383.13,-455.265,-28228.86,-5769.27,-19788.345,-27810.81,-6234.344999999999,2604.69
1764764371.029041,380.16,-458.415,-28232.415,-5772.78,-19790.595,-27811.395,-6235.29,2603.385
1764764371.0758815,378.18,-461.34,-28234.755,-5774.985,-19791.81,-27813.15,-6236.415,2601.405
1764764371.0758815,375.795,-462.6,-28235.16,-5776.469999999999,-19794.96,-27816.255,-6238.395,2598.03
1764764371.07642,379.485,-456.795,-28229.31,-5771.925,-19791.495,-27813.24,-6236.82,2600.595
1764764371.07642,387.675,-448.65,-28220.31,-5763.24,-19785.33,-27808.155,-6233.49,2605.86
1764764371.07642,389.655,-446.22,-28217.115,-5760.45,-19785.24,-27808.56,-6231.465,2606.67
1764764371.07642,394.245,-440.19,-28211.31,-5754.735,-19780.515,-27803.835,-6227.639999999999,2612.07
1764764371.07642,395.37,-439.515,-28210.995,-5753.745,-19779.03,-27802.53,-6226.965,2612.97
1764764371.07642,392.13,-444.69,-28216.215,-5756.94,-19780.83,-27803.88,-6228.855,2610.72
1764764371.07642,391.5,-445.725,-28216.935,-5757.075,-19780.965,-27804.105,-6229.44,2610.45
1764764371.07642,390.42,-446.445,-28217.565,-5758.92,-19782.36,-27805.5,-6230.07,2609.91
1764764371.07642,388.44,-449.46,-28221.255,-5761.844999999999,-19783.755,-27805.095,-6229.665,2609.46
1764764371.07642,388.395,-450.585,-28223.055,-5762.969999999999,-19783.62,-27802.935,-6229.665,2610.045
1764764371.07642,383.76,-457.245,-28231.92,-5769.36,-19786.77,-27804.42,-6232.139999999999,2607.39
1764764371.07642,380.16,-460.89,-28235.655,-5772.96,-19789.83,-27808.65,-6235.155,2602.935
1764764371.07642,387.36,-450.945,-28225.44,-5764.139999999999,-19786.005,-27806.04,-6232.365,2608.11
1764764371.07642,389.52,-445.23,-28218.645,-5760.54,-19785.87,-27807.03,-6231.87,2609.325
1764764371.07642,395.91,-437.175,-28209.06,-5753.655,-19782.27,-27804.42,-6228.945,2613.78
1764764371.07642,392.85,-438.705,-28209.555,-5755.86,-19786.32,-27809.865,-6233.219999999999,2609.91
1764764371.07642,394.92,-435.78,-28205.82,-5751.315,-19782.18,-27806.805,-6232.094999999999,2612.07
1764764371.07642,395.01,-437.04,-28206.72,-5751.315,-19780.425,-27805.86,-6231.78,2612.025
1764764371.07642,389.43,-445.23,-28216.98,-5757.57,-19781.955,-27805.995,-6232.724999999999,2609.1
1764764371.07642,380.295,-458.55,-28232.145,-5769.45,-19789.47,-27810.63,-6236.639999999999,2603.16
1764764371.07642,378.54,-463.77,-28237.86,-5773.094999999999,-19789.2,-27810.0,-6237.45,2602.89
1764764371.07642,380.205,-461.295,-28233.45,-5769.99,-19787.94,-27809.415,-6236.37,2603.61
1764764371.123182,386.685,-451.17,-28222.335,-5762.07,-19785.87,-27808.74,-6234.885,2606.805
1764764371.123182,393.48,-439.695,-28210.095,-5753.565,-19784.34,-27808.47,-6232.59,2610.765
1764764371.123182,400.32,-429.12,-28197.585,-5745.375,-19782.495,-27807.93,-6230.295,2614.005
1764764371.123182,402.075,-423.72,-28190.34,-5740.605,-19780.74,-27808.155,-6231.014999999999,2613.42
1764764371.123182,396.855,-434.07,-28204.74,-5751.45,-19782.72,-27808.515,-6231.96,2611.62
1764764371.123182,380.43,-462.555,-28238.895,-5772.24,-19783.89,-27804.825,-6233.895,2604.78
1764764371.123182,377.01,-467.64,-28243.575,-5773.41,-19783.485,-27804.015,-6234.57,2601.81
1764764371.123182,385.155,-454.365,-28227.15,-5762.745,-19783.26,-27805.23,-6234.12,2605.77
1764764371.123182,390.465,-446.535,-28217.745,-5756.49,-19781.82,-27804.42,-6232.59,2609.145
1764764371.123182,383.805,-455.715,-28228.635,-5767.245,-19788.345,-27808.29,-6235.29,2604.69
1764764371.123182,370.845,-474.165,-28249.74,-5784.165,-19796.94,-27814.68,-6240.96,2595.915
1764764371.123704,371.925,-473.49,-28248.93,-5781.375,-19792.755,-27810.765,-6239.295,2598.3
1764764371.123704,376.83,-466.83,-28241.955,-5777.19,-19791.675,-27810.495,-6237.81,2600.955
1764764371.123704,377.46,-464.49,-28238.805,-5775.615,-19792.89,-27813.105,-6238.889999999999,2599.65
1764764371.123704,377.37,-463.905,-28237.815,-5775.03,-19793.835,-27815.175,-6239.565,2599.695
1764764371.123704,379.935,-459.99,-28234.08,-5772.014999999999,-19791.765,-27813.42,-6238.44,2602.71
1764764371.123704,380.34,-459.54,-28233.765,-5771.295,-19792.215,-27814.185,-6239.07,2601.63
1764764371.123704,385.11,-453.465,-28227.15,-5765.715,-19787.4,-27810.045,-6237.135,2605.41
1764764371.123704,388.98,-448.47,-28221.345,-5761.53,-19786.23,-27809.145,-6235.83,2607.84
1764764371.123704,392.535,-442.08,-28214.28,-5756.4,-19783.935,-27808.83,-6234.615,2609.955
1764764371.123704,395.055,-437.13,-28208.34,-5751.945,-19782.045,-27808.38,-6233.985,2610.405
1764764371.123704,390.195,-444.015,-28215.72,-5759.505,-19786.815,-27811.665,-6235.38,2607.795
1764764371.123704,385.2,-453.87,-28227.78,-5767.29,-19788.435,-27810.495,-6235.605,2606.805
1764764371.123704,375.885,-465.66,-28240.155,-5777.37,-19793.655,-27814.77,-6239.969999999999,2599.605
1764764371.1700504,377.91,-462.645,-28236.555,-5774.49,-19793.205,-27814.77,-6239.835,2600.82
1764764371.1700504,377.955,-460.8,-28234.485,-5773.724999999999,-19794.015,-27816.48,-6241.365,2600.73
1764764371.170557,380.655,-458.37,-28231.965,-5771.07,-19791.045,-27814.455,-6240.105,2603.475
1764764371.170557,381.735,-457.425,-28230.39,-5770.125,-19790.46,-27813.555,-6239.205,2604.195
1764764371.170557,381.465,-457.245,-28229.895,-5770.349999999999,-19791.36,-27814.95,-6239.429999999999,2602.845
1764764371.170557,382.905,-454.815,-28228.14,-5768.19,-19790.01,-27814.005,-6238.304999999999,2604.465
1764764371.170557,383.895,-451.755,-28225.98,-5766.435,-19790.19,-27813.645,-6237.63,2604.555
1764764371.170557,386.235,-448.965,-28222.38,-5763.735,-19789.92,-27814.005,-6237.495,2604.87
1764764371.170557,391.995,-443.43,-28215.72,-5757.974999999999,-19786.275,-27810.63,-6235.335,2609.955
1764764371.170557,390.015,-445.905,-28217.79,-5761.17,-19789.38,-27814.05,-6238.035,2608.29
1764764371.170557,385.065,-450.045,-28222.875,-5764.545,-19790.865,-27815.265,-6239.295,2605.455
1764764371.170557,390.015,-443.295,-28215.27,-5757.57,-19785.78,-27811.44,-6236.46,2608.65
1764764371.170557,391.995,-437.76,-28209.015,-5754.554999999999,-19786.59,-27813.465,-6237.179999999999,2607.975
1764764371.170557,397.53,-430.605,-28200.96,-5747.849999999999,-19782.9,-27809.73,-6234.66,2612.43
1764764371.170557,388.08,-445.275,-28218.015,-5760.675,-19787.58,-27812.655,-6236.955,2606.895
1764764371.170557,375.705,-464.355,-28240.065,-5776.74,-19792.17,-27813.87,-6239.969999999999,2601.315
1764764371.170557,370.395,-470.79,-28246.185,-5782.905,-19797.705,-27818.955,-6243.929999999999,2596.23
1764764371.170557,374.445,-465.66,-28239.48,-5777.28,-19795.095,-27817.47,-6242.175,2598.84
1764764371.170557,381.015,-457.695,-28230.12,-5768.955,-19788.885,-27812.34,-6237.63,2604.555
1764764371.170557,381.735,-455.895,-28228.365,-5768.505,-19790.505,-27814.32,-6239.745,2603.97
1764764371.170557,381.285,-456.795,-28229.04,-5770.08,-19792.8,-27816.165,-6241.32,2603.16
1764764371.170557,383.265,-453.465,-28225.53,-5767.965,-19792.35,-27815.67,-6241.275,2605.41
1764764371.170557,382.455,-454.005,-28226.07,-5768.505,-19793.34,-27817.2,-6242.04,2603.385
1764764371.170557,377.46,-459.54,-28232.82,-5774.04,-19796.985,-27820.17,-6245.325,2599.47
1764764371.2163036,372.06,-465.795,-28239.57,-5779.08,-19800.315,-27822.915,-6247.62,2595.555
1764764371.2163036,374.58,-463.59,-28237.905,-5778.0,-19799.46,-27821.295,-6247.395,2597.895
1764764371.2163036,371.655,-465.345,-28238.85,-5779.26,-19800.9,-27823.635,-6248.745,2595.06
1764764371.2163036,372.645,-464.085,-28237.185,-5778.27,-19799.595,-27821.88,-6248.07,2596.545
1764764371.2163036,377.145,-460.485,-28233.945,-5774.4,-19796.625,-27819.315,-6246.224999999999,2600.01
1764764371.2163036,374.985,-461.97,-28235.52,-5775.84,-19798.83,-27822.51,-6247.889999999999,2597.085
1764764371.2163036,375.975,-461.07,-28233.99,-5774.264999999999,-19798.065,-27821.34,-6247.395,2598.66
1764764371.2163036,374.22,-464.355,-28237.005,-5777.685,-19801.485,-27823.815,-6248.385,2596.41
1764764371.2163036,378.855,-459.315,-28231.47,-5773.05,-19797.21,-27819.54,-6244.965,2600.055
1764764371.2163036,380.61,-455.85,-28227.645,-5770.53,-19796.04,-27818.775,-6244.65,2600.73
1764764371.2163036,381.555,-454.095,-28225.8,-5769.764999999999,-19796.805,-27819.945,-6244.785,2600.55
1764764371.2163036,385.425,-449.73,-28222.11,-5765.04,-19791.045,-27815.535,-6241.05,2604.6
1764764371.2163036,388.26,-447.03,-28219.14,-5762.925,-19788.975,-27813.735,-6239.52,2606.895
1764764371.2163036,383.13,-456.57,-28229.67,-5770.98,-19792.44,-27815.355,-6241.455,2604.78
1764764371.2163036,377.055,-464.76,-28239.39,-5777.73,-19794.645,-27816.93,-6243.525,2601.72
1764764371.2163036,376.245,-463.815,-28238.04,-5777.235,-19796.445,-27819.045,-6246.09,2599.74
1764764371.2163036,376.875,-462.285,-28236.915,-5776.02,-19796.085,-27819.045,-6246.54,2599.335
1764764371.2163036,376.02,-462.465,-28236.69,-5776.29,-19797.48,-27820.98,-6248.34,2597.76
1764764371.2163036,375.12,-463.185,-28236.6,-5777.01,-19797.84,-27822.15,-6248.745,2596.275
1764764371.2163036,376.425,-461.925,-28235.7,-5776.02,-19798.065,-27821.07,-6248.115,2597.76
1764764371.2163036,375.57,-461.88,-28235.88,-5775.84,-19799.64,-27823.185,-6249.78,2596.455
1764764371.2163036,380.655,-455.805,-28228.95,-5770.17,-19796.67,-27821.115,-6247.844999999999,2599.695
1764764371.2635458,379.485,-455.985,-28228.14,-5770.17,-19797.93,-27823.14,-6249.195,2598.255
1764764371.2635458,379.305,-456.795,-28228.59,-5769.99,-19795.455,-27820.53,-6247.53,2598.57
1764764371.2635458,380.25,-458.82,-28231.02,-5770.889999999999,-19793.295,-27817.47,-6245.82,2600.64
1764764371.2635458,378.225,-462.51,-28233.72,-5773.139999999999,-19794.33,-27817.74,-6246.405,2599.92
1764764371.2635458,377.01,-462.915,-28233.945,-5773.455,-19794.915,-27818.01,-6246.99,2599.155
1764764371.2635458,377.28,-462.015,-28233.315,-5772.735,-19795.095,-27818.46,-6246.675,2598.12
1764764371.2635458,376.965,-460.305,-28231.74,-5771.969999999999,-19795.995,-27820.53,-6246.855,2597.985
1764764371.2635458,380.205,-455.805,-28227.51,-5768.415,-19794.33,-27819.585,-6246.719999999999,2600.46
1764764371.2635458,381.285,-454.005,-28226.43,-5767.514999999999,-19795.59,-27821.295,-6246.99,2599.965
1764764371.2635458,385.155,-449.145,-28220.985,-5763.195,-19793.025,-27818.64,-6244.425,2603.61
1764764371.2635458,385.695,-447.48,-28218.195,-5762.565,-19794.195,-27820.35,-6244.83,2603.205
1764764371.2635458,389.205,-443.07,-28213.38,-5758.065,-19790.91,-27818.19,-6243.929999999999,2606.04
1764764371.2635458,387.9,-445.59,-28216.44,-5761.035,-19791.54,-27817.155,-6243.57,2605.95
1764764371.2635458,377.325,-461.295,-28234.665,-5775.705,-19799.145,-27822.105,-6247.98,2599.425
1764764371.2635458,368.775,-474.84,-28250.82,-5787.27,-19805.265,-27825.435,-6251.58,2594.25
1764764371.2635458,364.68,-478.98,-28254.645,-5791.32,-19809.945,-27830.34,-6256.215,2589.525
1764764371.2635458,368.235,-473.67,-28248.795,-5787.99,-19810.395,-27831.105,-6257.295,2590.785
1764764371.2635458,368.28,-472.995,-28247.805,-5788.755,-19812.69,-27833.535,-6257.88,2589.75
1764764371.2635458,370.035,-470.205,-28246.14,-5786.82,-19811.88,-27832.815,-6257.565,2590.38
1764764371.2635458,373.86,-465.57,-28240.47,-5782.139999999999,-19808.91,-27829.53,-6256.665,2593.485
1764764371.2635458,375.975,-462.735,-28236.015,-5778.45,-19806.48,-27827.82,-6254.55,2595.195
1764764371.2635458,375.21,-463.545,-28236.555,-5779.17,-19806.48,-27829.71,-6254.19,2593.755
1764764371.2635458,375.795,-462.42,-28235.07,-5776.605,-19803.645,-27826.965,-6252.3,2595.15
1764764371.2635458,369.495,-469.755,-28242.405,-5782.815,-19807.92,-27829.89,-6254.865,2591.19
1764764371.3124032,372.735,-468.18,-28240.56,-5780.61,-19805.535,-27826.56,-6253.245,2594.835
1764764371.3127391,370.845,-468.585,-28241.73,-5782.32,-19808.505,-27829.89,-6255.99,2592.315
1764764371.3127391,367.92,-470.52,-28243.08,-5785.245,-19811.835,-27833.715,-6258.96,2588.31
1764764371.3127391,369.765,-467.64,-28239.66,-5782.455,-19809.765,-27832.095,-6257.969999999999,2589.3
1764764371.3127391,374.13,-463.455,-28235.43,-5777.505,-19804.95,-27826.83,-6254.865,2592.855
1764764371.3127391,374.445,-463.32,-28234.485,-5775.885,-19803.105,-27825.93,-6253.245,2593.62
1764764371.3127391,371.205,-467.37,-28239.21,-5779.125,-19805.355,-27828.045,-6253.965,2591.82
1764764371.3127391,375.345,-462.645,-28235.205,-5775.344999999999,-19801.845,-27824.445,-6251.715,2595.96
1764764371.3127391,377.685,-459.45,-28231.47,-5772.915,-19800.045,-27823.095,-6249.96,2598.345
1764764371.3127391,376.605,-462.06,-28233.99,-5774.264999999999,-19800.63,-27822.555,-6249.78,2597.355
1764764371.3127391,371.97,-467.73,-28239.255,-5779.53,-19804.32,-27826.155,-6251.58,2592.945
1764764371.3127391,372.555,-466.38,-28237.77,-5778.27,-19803.555,-27825.975,-6251.895,2592.945
1764764371.3127391,374.94,-463.545,-28236.24,-5776.065,-19801.44,-27824.265,-6250.679999999999,2594.07
1764764371.3127391,378.45,-458.73,-28231.695,-5772.42,-19798.92,-27822.33,-6248.79,2596.68
1764764371.3127391,382.095,-454.365,-28227.645,-5767.92,-19795.59,-27818.415,-6246.045,2600.505
1764764371.3127391,378.765,-459.45,-28232.145,-5771.61,-19798.515,-27820.71,-6248.88,2597.76
1764764371.3127391,375.975,-462.195,-28234.755,-5773.995,-19800.63,-27822.465,-6250.05,2595.42
1764764371.3127391,379.26,-458.55,-28230.57,-5770.665,-19796.985,-27818.865,-6247.395,2599.47
1764764371.3127391,379.935,-458.595,-28231.065,-5770.665,-19795.59,-27817.695,-6246.09,2601.225
1764764371.3127391,377.685,-461.295,-28234.35,-5773.905,-19798.2,-27821.025,-6248.429999999999,2599.2
1764764371.3127391,376.785,-461.295,-28234.395,-5773.905,-19798.83,-27822.42,-6249.24,2597.355
1764764371.3127391,382.14,-454.005,-28226.07,-5766.75,-19795.365,-27819.27,-6246.63,2602.035
1764764371.355203,383.985,-448.74,-28220.715,-5763.69,-19796.175,-27821.07,-6246.045,2601.81
1764764371.355203,390.06,-440.1,-28210.995,-5756.67,-19794.105,-27820.35,-6244.92,2604.78
1764764371.355203,392.13,-438.705,-28209.24,-5754.24,-19790.685,-27817.29,-6244.155,2607.615
1764764371.355203,384.795,-449.505,-28221.255,-5763.24,-19794.915,-27819.54,-6246.045,2603.475
1764764371.355203,373.86,-464.895,-28238.805,-5778.405,-19803.915,-27826.47,-6250.185,2596.05
1764764371.355203,368.595,-474.84,-28251.045,-5786.505,-19805.58,-27825.525,-6251.085,2593.935
1764764371.355203,374.355,-468.9,-28243.755,-5778.99,-19799.865,-27820.305,-6248.115,2598.93
1764764371.355203,376.245,-464.805,-28237.68,-5776.2,-19800.945,-27822.735,-6249.195,2598.795
1764764371.3567529,380.745,-458.19,-28231.065,-5770.17,-19796.805,-27820.035,-6247.304999999999,2602.71
1764764371.3567529,379.305,-460.485,-28232.595,-5771.969999999999,-19798.515,-27821.88,-6248.655,2599.92
1764764371.3567529,380.61,-460.575,-28233.27,-5771.655,-19797.39,-27819.405,-6248.385,2601.585
1764764371.3567529,378.18,-463.32,-28235.43,-5772.735,-19798.29,-27820.305,-6249.24,2599.92
1764764371.3567529,377.505,-462.105,-28233.9,-5772.51,-19799.505,-27822.69,-6250.545,2597.895
1764764371.3567529,381.33,-457.965,-28229.58,-5769.719999999999,-19797.885,-27819.81,-6248.205,2600.91
1764764371.3567529,379.035,-460.665,-28231.38,-5771.52,-19799.01,-27820.845,-6248.969999999999,2599.38
1764764371.3567529,382.68,-456.75,-28228.23,-5767.92,-19795.185,-27817.515,-6245.955,2603.43
1764764371.3567529,382.725,-456.885,-28228.86,-5769.179999999999,-19795.275,-27816.75,-6245.775,2603.745
1764764371.3567529,378.675,-459.945,-28231.965,-5772.375,-19798.11,-27819.585,-6248.565,2600.235
1764764371.3567529,375.345,-463.32,-28235.79,-5775.48,-19800.81,-27823.005,-6250.86,2596.545
1764764371.3567529,378.225,-460.8,-28233.18,-5772.78,-19799.595,-27821.52,-6248.655,2598.93
1764764371.3567529,380.925,-457.11,-28229.625,-5769.719999999999,-19797.93,-27820.17,-6247.53,2601.09
1764764371.3567529,384.345,-453.06,-28225.215,-5764.815,-19792.53,-27815.715,-6245.594999999999,2604.375
1764764371.3567529,382.23,-455.85,-28227.915,-5767.74,-19794.87,-27816.57,-6245.865,2603.295
1764764371.3567529,376.965,-461.52,-28234.575,-5774.76,-19800.81,-27822.465,-6249.78,2598.03
1764764371.4027834,378.0,-460.215,-28234.845,-5774.264999999999,-19800.765,-27821.52,-6249.78,2598.48
1764764371.4042563,382.455,-457.2,-28231.47,-5770.349999999999,-19796.985,-27817.695,-6246.719999999999,2602.755
1764764371.4042563,382.41,-457.605,-28230.615,-5769.719999999999,-19796.895,-27818.415,-6246.36,2602.53
1764764371.4042563,378.135,-460.44,-28233.405,-5773.365,-19801.44,-27823.59,-6250.094999999999,2598.255
1764764371.4042563,381.42,-455.985,-28228.77,-5769.719999999999,-19799.325,-27820.98,-6249.15,2601.36
1764764371.4042563,381.69,-455.31,-28227.24,-5768.594999999999,-19799.37,-27821.52,-6249.375,2600.055
1764764371.4042563,386.46,-451.35,-28223.19,-5764.32,-19795.365,-27817.2,-6246.405,2603.61
1764764371.4042563,385.83,-451.17,-28223.415,-5764.005,-19796.22,-27818.235,-6246.764999999999,2602.305
1764764371.4042563,386.46,-450.855,-28223.235,-5763.599999999999,-19794.465,-27816.705,-6246.179999999999,2603.295
1764764371.4042563,378.045,-460.44,-28234.08,-5772.465,-19800.045,-27821.43,-6249.78,2597.58
1764764371.4042563,377.055,-463.23,-28238.355,-5775.12,-19799.64,-27820.395,-6249.554999999999,2598.03
1764764371.40476,381.69,-459.405,-28233.675,-5770.62,-19794.915,-27815.355,-6246.63,2602.485
1764764371.40476,382.77,-456.39,-28230.84,-5768.37,-19794.825,-27814.995,-6245.235,2604.195
1764764371.40476,377.37,-462.15,-28236.24,-5773.455,-19800.855,-27821.925,-6250.005,2597.67
1764764371.40476,378.945,-460.935,-28235.025,-5772.33,-19799.46,-27820.845,-6249.554999999999,2598.66
1764764371.40476,383.715,-456.39,-28229.715,-5766.84,-19794.555,-27816.525,-6246.315,2604.105
1764764371.40476,383.985,-455.49,-28229.265,-5766.344999999999,-19794.285,-27815.805,-6245.55,2604.015
1764764371.40476,379.845,-458.82,-28232.505,-5770.44,-19798.245,-27820.17,-6248.745,2599.695
1764764371.40476,379.755,-458.37,-28231.965,-5770.08,-19798.065,-27821.025,-6249.69,2599.74
1764764371.40476,380.655,-457.605,-28230.975,-5769.315,-19797.165,-27819.81,-6249.554999999999,2599.92
1764764371.40476,383.805,-453.96,-28226.7,-5765.445,-19794.24,-27815.985,-6247.08,2603.655
1764764371.40476,384.885,-453.33,-28225.53,-5763.915,-19793.385,-27814.545,-6245.73,2604.6
1764764371.40476,385.695,-452.295,-28224.675,-5763.195,-19792.62,-27813.87,-6244.065,2605.995
1764764371.40476,381.735,-455.805,-28229.49,-5768.01,-19796.895,-27817.83,-6246.764999999999,2603.43
1764764371.4506798,380.115,-457.785,-28231.56,-5769.63,-19798.695,-27819.18,-6247.665,2600.955
1764764371.4506798,384.435,-453.375,-28227.69,-5764.905,-19795.77,-27816.75,-6246.0,2603.205
1764764371.4506798,382.185,-454.095,-28228.365,-5766.795,-19799.01,-27820.44,-6248.115,2600.37
1764764371.4506798,384.345,-450.585,-28223.685,-5762.835,-19797.255,-27818.955,-6247.125,2602.71
1764764371.4506798,388.665,-445.05,-28218.015,-5758.29,-19793.07,-27815.31,-6244.74,2606.535
1764764371.4506798,388.35,-444.555,-28217.115,-5758.02,-19794.015,-27818.235,-6246.719999999999,2604.51
1764764371.4506798,387.45,-445.545,-28217.25,-5758.875,-19796.31,-27820.935,-6247.889999999999,2602.8
1764764371.4506798,392.175,-440.73,-28211.715,-5752.844999999999,-19790.19,-27814.905,-6244.38,2608.47
1764764371.4506798,392.85,-441.27,-28211.805,-5753.07,-19788.3,-27813.195,-6242.355,2609.91
1764764371.4506798,385.065,-453.555,-28226.16,-5764.679999999999,-19794.78,-27817.47,-6246.764999999999,2604.15
1764764371.4506798,380.88,-458.055,-28231.02,-5767.29,-19795.05,-27819.135,-6249.105,2600.73
1764764371.4506798,379.62,-459.81,-28231.83,-5768.415,-19796.265,-27819.63,-6250.5,2599.245
1764764371.4506798,376.965,-463.68,-28235.52,-5770.889999999999,-19797.345,-27820.395,-6251.31,2597.13
1764764371.4506798,374.76,-466.56,-28238.49,-5774.085,-19801.53,-27823.32,-6252.795,2595.06
1764764371.4506798,380.205,-459.72,-28230.84,-5768.37,-19797.165,-27819.81,-6250.77,2599.2
1764764371.4506798,382.86,-457.2,-28228.365,-5766.795,-19797.84,-27819.99,-6250.185,2600.145
1764764371.4506798,378.945,-462.69,-28235.07,-5772.42,-19802.385,-27824.22,-6253.695,2596.77
1764764371.4506798,371.61,-471.42,-28245.015,-5780.969999999999,-19806.885,-27827.505,-6256.08,2592.54
1764764371.4516945,375.39,-468.45,-28242.315,-5777.865,-19801.665,-27822.015,-6252.12,2597.31
1764764371.4516945,375.48,-467.37,-28241.505,-5777.505,-19802.565,-27822.24,-6253.38,2597.085
1764764371.4516945,377.955,-463.005,-28237.815,-5774.355,-19801.485,-27822.51,-6252.929999999999,2598.48
1764764371.4516945,377.415,-462.69,-28237.23,-5773.59,-19802.43,-27823.905,-6253.965,2597.355
1764764371.4945414,381.285,-458.46,-28231.245,-5768.054999999999,-19798.965,-27820.35,-6250.815,2601.495
1764764371.4945414,378.405,-461.205,-28234.62,-5771.16,-19801.665,-27823.095,-6252.075,2598.705
1764764371.4945414,378.36,-461.295,-28235.115,-5770.53,-19801.485,-27823.14,-6251.849999999999,2598.66
1764764371.4945414,382.23,-456.57,-28229.22,-5764.995,-19796.94,-27819.09,-6248.969999999999,2602.62
1764764371.4945414,388.395,-449.865,-28221.12,-5759.73,-19792.71,-27815.94,-6246.0,2607.66
1764764371.4945414,389.61,-448.83,-28219.68,-5758.92,-19792.125,-27816.03,-6245.145,2609.01
1764764371.4945414,387.405,-452.295,-28224.72,-5761.349999999999,-19791.63,-27815.4,-6244.38,2608.11
1764764371.4945414,383.355,-456.66,-28229.76,-5766.12,-19795.32,-27818.235,-6247.485,2604.69
1764764371.4945414,381.06,-460.755,-28233.225,-5769.764999999999,-19797.795,-27818.73,-6249.33,2603.16
1764764371.4945414,377.73,-464.76,-28237.815,-5772.599999999999,-19800.09,-27820.845,-6251.355,2600.28
1764764371.4955482,378.81,-463.275,-28235.655,-5770.889999999999,-19799.64,-27821.34,-6251.085,2600.73
1764764371.4955482,378.9,-462.42,-28235.07,-5771.115,-19800.765,-27822.465,-6252.389999999999,2600.055
1764764371.4955482,378.945,-460.62,-28233.0,-5769.855,-19800.585,-27822.825,-6252.615,2600.1
1764764371.4955482,378.81,-461.79,-28233.045,-5769.99,-19800.945,-27823.23,-6252.435,2600.28
1764764371.4955482,382.05,-459.54,-28231.425,-5767.38,-19797.93,-27819.495,-6250.77,2603.88
1764764371.4955482,382.635,-457.695,-28230.345,-5766.03,-19797.075,-27819.72,-6250.005,2603.34
1764764371.4955482,386.46,-450.54,-28223.46,-5760.09,-19794.915,-27818.55,-6248.52,2605.635
1764764371.4955482,384.21,-452.115,-28224.36,-5762.655,-19797.12,-27820.26,-6251.13,2603.205
1764764371.4955482,377.145,-461.52,-28233.855,-5769.405,-19800.225,-27823.32,-6253.965,2597.895
1764764371.4955482,374.4,-465.21,-28237.545,-5771.205,-19800.54,-27822.915,-6255.135,2596.905
1764764371.4955482,377.19,-460.98,-28233.27,-5768.415,-19799.73,-27822.33,-6253.514999999999,2599.2
1764764371.4955482,378.27,-458.955,-28230.93,-5766.48,-19798.605,-27821.565,-6252.75,2600.055
1764764371.4955482,383.085,-453.87,-28224.99,-5761.395,-19794.915,-27818.73,-6251.264999999999,2602.935
1764764371.4955482,379.08,-458.145,-28229.895,-5765.985,-19799.235,-27822.24,-6253.155,2598.93
1764764371.54512,375.435,-464.805,-28236.69,-5771.79,-19801.62,-27823.77,-6254.639999999999,2597.265
1764764371.54512,379.71,-459.72,-28232.595,-5767.92,-19797.795,-27819.765,-6251.76,2601.135
1764764371.54512,378.495,-460.8,-28235.295,-5769.855,-19799.145,-27821.205,-6252.255,2600.235
1764764371.54512,372.78,-467.19,-28241.1,-5774.895,-19804.455,-27826.515,-6256.889999999999,2594.52
1764764371.54512,372.06,-469.305,-28244.115,-5778.0,-19807.155,-27827.82,-6257.88,2593.755
1764764371.54512,377.235,-463.86,-28238.13,-5772.465,-19802.745,-27823.59,-6254.594999999999,2598.12
1764764371.54512,378.72,-460.755,-28234.8,-5770.304999999999,-19803.33,-27824.04,-6253.65,2598.48
1764764371.54512,384.93,-452.43,-28226.295,-5763.645,-19799.1,-27819.945,-6250.365,2602.755
1764764371.54512,384.705,-450.99,-28224.45,-5763.06,-19799.595,-27821.88,-6251.355,2601.81
1764764371.54512,381.105,-454.905,-28227.42,-5765.355,-19801.395,-27825.57,-6254.46,2598.48
1764764371.54512,382.23,-455.76,-28229.355,-5765.715,-19798.605,-27821.745,-6252.435,2601.135
1764764371.54512,378.405,-462.105,-28236.735,-5770.08,-19799.37,-27821.205,-6253.155,2599.74
1764764371.54512,377.46,-462.465,-28237.005,-5769.945,-19798.56,-27821.655,-6253.29,2599.785
1764764371.54512,375.66,-462.915,-28237.14,-5771.474999999999,-19802.07,-27825.03,-6256.98,2595.96
1764764371.54512,376.515,-459.72,-28233.315,-5768.955,-19802.295,-27825.75,-6256.44,2595.33
1764764371.54512,381.555,-453.465,-28226.88,-5763.915,-19799.55,-27823.545,-6254.19,2599.38
1764764371.54512,382.005,-453.78,-28226.97,-5764.545,-19800.0,-27823.05,-6254.46,2600.37
1764764371.54512,379.8,-457.695,-28231.065,-5767.695,-19800.36,-27823.365,-6255.99,2598.795
1764764371.54512,373.725,-465.48,-28240.245,-5774.31,-19802.655,-27824.535,-6257.07,2595.33
1764764371.54512,369.135,-470.385,-28245.33,-5778.495,-19807.56,-27828.585,-6259.995,2591.235
1764764371.54512,371.385,-467.73,-28242.99,-5776.965,-19806.615,-27827.64,-6259.545,2592.72
1764764371.54512,368.955,-470.79,-28246.455,-5779.08,-19808.37,-27829.62,-6260.445,2590.785
1764764371.587618,371.7,-468.225,-28243.98,-5776.56,-19806.21,-27827.73,-6259.32,2593.44
1764764371.587618,367.92,-471.69,-28245.465,-5780.07,-19810.755,-27832.32,-6263.37,2589.795
1764764371.587618,370.89,-468.09,-28242.54,-5777.37,-19808.37,-27830.88,-6262.469999999999,2592.27
1764764371.587618,370.665,-468.675,-28242.315,-5777.639999999999,-19808.37,-27831.51,-6261.66,2591.055
1764764371.587618,376.425,-462.015,-28235.205,-5771.79,-19804.815,-27827.415,-6258.42,2595.285
1764764371.587618,378.09,-457.38,-28229.715,-5768.775,-19805.13,-27828.765,-6258.105,2595.555
1764764371.587618,380.61,-451.755,-28223.325,-5762.745,-19801.935,-27827.19,-6257.16,2597.355
1764764371.587618,380.565,-453.24,-28224.72,-5763.554999999999,-19802.295,-27827.73,-6257.16,2596.86
1764764371.587618,374.805,-463.995,-28238.4,-5774.04,-19806.345,-27828.36,-6258.96,2594.79
1764764371.587618,370.755,-470.475,-28246.365,-5777.505,-19804.77,-27825.435,-6259.5,2594.07
1764764371.587618,372.285,-468.405,-28242.72,-5774.264999999999,-19803.6,-27824.895,-6258.78,2594.655
1764764371.587618,371.88,-467.73,-28241.145,-5775.48,-19807.02,-27828.81,-6261.389999999999,2593.305
1764764371.587618,369.63,-469.665,-28242.225,-5776.65,-19808.865,-27830.88,-6262.38,2590.155
1764764371.587618,369.495,-470.025,-28242.135,-5776.965,-19809.765,-27830.97,-6262.335,2589.84
1764764371.587618,372.87,-466.875,-28239.705,-5774.804999999999,-19807.47,-27828.405,-6259.995,2593.215
1764764371.587618,378.27,-460.26,-28232.415,-5768.46,-19802.43,-27824.265,-6257.34,2597.535
1764764371.587618,378.0,-458.235,-28229.94,-5766.615,-19803.645,-27826.29,-6257.52,2595.825
1764764371.587618,377.145,-459.18,-28231.47,-5767.469999999999,-19803.51,-27826.02,-6256.844999999999,2596.05
1764764371.587618,373.23,-464.58,-28238.49,-5772.645,-19805.13,-27826.425,-6258.645,2593.35
1764764371.588636,375.165,-464.895,-28238.67,-5771.88,-19803.375,-27823.275,-6257.34,2595.465
1764764371.588636,375.93,-463.77,-28237.23,-5771.61,-19803.96,-27824.355,-6256.395,2596.635
1764764371.588636,370.395,-467.235,-28240.515,-5776.514999999999,-19809.855,-27831.195,-6261.795,2590.56
1764764371.588636,370.08,-468.18,-28241.19,-5776.2,-19808.91,-27830.97,-6262.514999999999,2589.66
1764764371.588636,373.59,-464.58,-28237.365,-5771.34,-19803.42,-27825.885,-6260.13,2593.305
1764764371.6346846,375.66,-461.88,-28233.9,-5769.224999999999,-19803.015,-27825.255,-6258.78,2594.79
1764764371.6346846,372.555,-464.265,-28235.88,-5772.78,-19808.055,-27830.43,-6261.66,2591.73
1764764371.6346846,376.605,-459.63,-28230.75,-5768.28,-19804.995,-27827.595,-6259.32,2595.51
1764764371.6346846,381.105,-454.545,-28227.465,-5764.185,-19801.575,-27824.805,-6256.844999999999,2599.02
1764764371.6346846,378.72,-459.0,-28232.775,-5767.695,-19803.42,-27824.49,-6257.025,2597.58
1764764371.6346846,376.065,-462.375,-28235.88,-5770.26,-19803.825,-27825.255,-6257.34,2596.095
