Timestamp,Channel1,Channel2,Channel3,Channel4,Channel5,Channel6,Channel7,Channel8
1764763589.5367942,-219.195,-1683.54,-27238.365,-7031.7,-18365.985,-26218.485,-6071.895,1061.73
1764763589.5367942,-221.715,-1684.4399999999998,-27238.32,-7030.98,-18367.515,-26220.555,-6073.695,1057.68
1764763589.5367942,-217.8,-1679.85,-27233.415,-7026.075,-18364.005,-26216.64,-6071.67,1061.46
1764763589.5373027,-218.655,-1682.01,-27236.745,-7029.27,-18365.49,-26217.405,-6071.445,1061.595
1764763589.5373027,-222.255,-1687.6799999999998,-27242.685,-7034.13,-18368.19,-26220.465,-6074.054999999999,1058.985
1764763589.5373027,-224.415,-1688.985,-27242.64,-7034.264999999999,-18369.81,-26222.85,-6075.179999999999,1055.61
1764763589.5373027,-218.655,-1683.0449999999998,-27236.16,-7028.594999999999,-18364.365,-26218.305,-6071.58,1059.39
1764763589.5373027,-219.6,-1684.35,-27238.77,-7031.565,-18367.11,-26220.465,-6072.705,1058.895
1764763589.5373027,-223.695,-1687.59,-27243.045,-7036.29,-18370.755,-26223.03,-6075.09,1056.69
1764763589.5373027,-226.17,-1690.2,-27245.115,-7038.09,-18373.005,-26225.73,-6077.474999999999,1053.495
1764763589.5373027,-222.345,-1686.33,-27240.93,-7034.804999999999,-18370.8,-26224.74,-6076.215,1055.97
1764763589.5373027,-223.965,-1688.085,-27243.63,-7036.469999999999,-18371.34,-26224.47,-6075.719999999999,1054.305
1764763589.5373027,-221.625,-1686.195,-27241.29,-7032.825,-18367.38,-26221.005,-6074.145,1056.555
1764763589.5373027,-224.28,-1688.085,-27242.505,-7034.94,-18370.845,-26224.875,-6076.215,1054.305
1764763589.5373027,-223.515,-1687.905,-27242.37,-7035.435,-18372.105,-26225.28,-6076.395,1054.395
1764763589.5373027,-219.195,-1683.405,-27238.59,-7032.645,-18369.945,-26222.985,-6073.425,1058.625
1764763589.5373027,-215.64,-1681.11,-27237.24,-7031.115,-18368.28,-26220.915,-6070.77,1062.36
1764763589.5373027,-220.77,-1687.59,-27243.945,-7037.415,-18372.915,-26225.37,-6074.415,1057.995
1764763589.5373027,-219.825,-1686.4199999999998,-27242.775,-7035.795,-18371.97,-26224.11,-6073.92,1059.795
1764763589.5373027,-222.03,-1687.86,-27243.63,-7036.83,-18373.365,-26225.955,-6074.594999999999,1056.555
1764763589.5373027,-222.615,-1688.265,-27244.71,-7037.46,-18373.455,-26226.09,-6075.495,1055.34
1764763589.5373027,-222.615,-1688.895,-27246.195,-7037.82,-18373.14,-26225.91,-6075.27,1056.42
1764763589.5838585,-219.645,-1685.205,-27241.065,-7033.185,-18368.64,-26221.905,-6073.155,1059.615
1764763589.5838585,-220.23,-1685.07,-27240.885,-7032.69,-18368.595,-26221.77,-6073.425,1059.345
1764763589.5838585,-223.155,-1687.185,-27242.955,-7034.58,-18371.07,-26224.605,-6074.91,1055.97
1764763589.5838585,-217.89,-1681.38,-27236.295,-7028.099999999999,-18365.265,-26218.665,-6069.599999999999,1060.47
1764763589.5838585,-212.625,-1675.395,-27229.995,-7021.8,-18358.965,-26213.31,-6065.099999999999,1066.095
1764763589.5843651,-215.685,-1678.6799999999998,-27234.45,-7025.895,-18363.6,-26216.1,-6067.395,1063.305
1764763589.5843651,-221.535,-1684.89,-27241.245,-7033.23,-18370.665,-26222.265,-6071.49,1058.49
1764763589.5843651,-220.95,-1685.745,-27242.505,-7034.58,-18371.7,-26222.67,-6071.895,1059.03
1764763589.5843651,-217.305,-1682.145,-27238.365,-7030.98,-18368.55,-26219.07,-6070.23,1062.36
1764763589.5843651,-218.115,-1682.595,-27238.455,-7031.115,-18368.325,-26218.125,-6070.05,1062.45
1764763589.5843651,-220.095,-1685.475,-27241.47,-7033.59,-18369.765,-26219.79,-6071.264999999999,1060.11
1764763589.5843651,-220.455,-1685.5649999999998,-27241.29,-7034.085,-18370.305,-26221.005,-6071.445,1059.435
1764763589.5843651,-221.715,-1685.745,-27241.56,-7034.264999999999,-18371.385,-26222.445,-6072.255,1058.31
1764763589.5843651,-221.715,-1684.89,-27240.885,-7032.69,-18370.44,-26221.905,-6071.67,1058.085
1764763589.5848696,-217.17,-1679.8049999999998,-27234.315,-7026.3,-18365.895,-26218.125,-6069.15,1061.415
1764763589.5848696,-219.555,-1680.57,-27233.865,-7026.84,-18367.515,-26220.42,-6070.545,1058.625
1764763589.5848696,-218.565,-1678.995,-27231.75,-7024.724999999999,-18365.445,-26218.755,-6069.915,1059.21
1764763589.5848696,-217.17,-1678.995,-27231.12,-7024.005,-18364.995,-26217.315,-6068.79,1060.38
1764763589.5848696,-214.11,-1676.4299999999998,-27228.015,-7021.304999999999,-18362.565,-26214.93,-6066.315,1064.25
1764763589.5848696,-215.505,-1678.095,-27230.67,-7023.15,-18363.24,-26214.84,-6067.215,1063.935
1764763589.5848696,-219.465,-1683.495,-27237.555,-7028.054999999999,-18365.355,-26216.145,-6069.645,1060.2
1764763589.5848696,-221.04,-1685.4299999999998,-27238.77,-7029.27,-18366.705,-26217.855,-6070.275,1057.68
1764763589.5848696,-217.845,-1681.425,-27234.495,-7025.445,-18363.42,-26214.975,-6068.969999999999,1061.055
1764763589.5848696,-216.18,-1678.635,-27231.12,-7022.655,-18361.08,-26213.67,-6066.855,1063.125
1764763589.630754,-217.125,-1679.6699999999998,-27232.47,-7024.455,-18362.79,-26215.065,-6066.224999999999,1062.585
1764763589.630754,-220.32,-1681.515,-27234.63,-7027.695,-18367.65,-26220.465,-6069.915,1058.31
1764763589.630754,-220.185,-1680.21,-27234.09,-7027.469999999999,-18368.325,-26220.33,-6070.77,1059.255
1764763589.630754,-218.565,-1679.58,-27234.27,-7027.38,-18366.84,-26218.755,-6069.554999999999,1060.29
1764763589.630754,-220.005,-1681.155,-27236.34,-7029.134999999999,-18368.73,-26220.78,-6070.23,1057.995
1764763589.630754,-219.6,-1682.73,-27238.32,-7029.9,-18366.255,-26217.9,-6069.195,1059.75
1764763589.630754,-226.44,-1692.0449999999998,-27248.985,-7039.62,-18370.845,-26221.32,-6072.84,1054.8
1764763589.630754,-225.945,-1692.63,-27250.965,-7041.42,-18370.395,-26219.79,-6072.165,1056.105
1764763589.630754,-226.935,-1693.08,-27250.92,-7042.679999999999,-18373.05,-26221.905,-6073.335,1054.845
1764763589.630754,-227.79,-1692.63,-27250.605,-7041.96,-18373.725,-26223.345,-6073.425,1053.45
1764763589.630754,-221.22,-1686.015,-27242.865,-7033.86,-18366.93,-26217.72,-6068.745,1058.895
1764763589.630754,-220.545,-1684.98,-27241.74,-7032.195,-18366.57,-26217.99,-6068.565,1059.48
1764763589.630754,-222.57,-1687.365,-27243.63,-7034.759999999999,-18369.18,-26220.42,-6070.094999999999,1057.68
1764763589.630754,-219.78,-1684.215,-27240.21,-7031.565,-18366.615,-26216.595,-6068.88,1060.695
1764763589.630754,-221.085,-1685.115,-27241.02,-7032.554999999999,-18367.155,-26218.395,-6069.915,1058.445
1764763589.630754,-224.505,-1688.49,-27243.405,-7034.804999999999,-18369.9,-26221.5,-6071.535,1054.485
1764763589.630754,-224.595,-1689.075,-27242.91,-7034.804999999999,-18371.43,-26223.03,-6073.065,1054.26
1764763589.630754,-222.57,-1686.24,-27240.84,-7034.355,-18372.375,-26224.605,-6074.594999999999,1055.07
1764763589.630754,-220.005,-1682.1899999999998,-27237.6,-7030.98,-18369.09,-26221.635,-6072.615,1057.86
1764763589.631265,-219.69,-1683.0,-27238.815,-7032.645,-18369.99,-26221.545,-6071.49,1058.355
1764763589.631265,-218.97,-1683.36,-27239.265,-7033.905,-18370.395,-26222.4,-6071.085,1058.625
1764763589.631265,-221.715,-1685.385,-27241.695,-7035.929999999999,-18373.14,-26225.37,-6072.3,1055.925
1764763589.6780455,-220.32,-1684.395,-27240.75,-7033.995,-18371.205,-26222.76,-6071.264999999999,1057.59
1764763589.6780455,-219.825,-1683.36,-27240.12,-7033.905,-18370.665,-26222.22,-6070.679999999999,1057.995
1764763589.6780455,-217.62,-1681.9199999999998,-27238.815,-7031.655,-18367.92,-26219.97,-6069.105,1059.57
1764763589.6780455,-222.48,-1687.995,-27245.295,-7037.639999999999,-18373.095,-26224.38,-6071.94,1055.835
1764763589.6780455,-222.12,-1689.255,-27246.33,-7038.945,-18374.085,-26224.11,-6072.344999999999,1056.24
1764763589.6780455,-223.83,-1690.47,-27247.905,-7040.52,-18376.605,-26226.0,-6073.469999999999,1054.845
1764763589.6780455,-221.22,-1686.78,-27244.53,-7037.505,-18374.625,-26225.055,-6072.435,1057.905
1764763589.6780455,-224.01,-1689.435,-27247.005,-7040.205,-18377.775,-26228.43,-6074.054999999999,1055.385
1764763589.6780455,-220.77,-1686.375,-27243.675,-7036.2,-18373.86,-26224.965,-6071.58,1058.355
1764763589.6780455,-225.09,-1689.885,-27246.645,-7038.27,-18376.695,-26228.025,-6074.145,1054.35
1764763589.6780455,-225.27,-1689.435,-27245.205,-7037.37,-18375.075,-26227.035,-6073.965,1053.99
1764763589.6780455,-221.085,-1685.835,-27241.695,-7033.41,-18370.575,-26222.49,-6070.905,1057.41
1764763589.6780455,-220.815,-1684.035,-27240.12,-7031.79,-18369.765,-26222.22,-6070.59,1057.86
1764763589.6780455,-219.465,-1681.29,-27236.34,-7028.145,-18367.515,-26220.285,-6070.139999999999,1057.995
1764763589.6780455,-219.195,-1679.445,-27233.145,-7025.219999999999,-18366.255,-26220.24,-6070.23,1057.005
1764763589.6780455,-222.39,-1681.965,-27234.99,-7027.83,-18369.495,-26223.93,-6071.895,1053.72
1764763589.6780455,-222.975,-1683.135,-27236.385,-7029.63,-18369.81,-26224.74,-6072.12,1053.855
1764763589.6780455,-220.77,-1683.72,-27238.545,-7031.969999999999,-18369.09,-26222.175,-6069.554999999999,1057.905
1764763589.6780455,-223.74,-1688.9399999999998,-27244.755,-7036.965,-18372.915,-26224.74,-6070.094999999999,1056.285
1764763589.6780455,-227.745,-1691.73,-27247.05,-7038.675,-18376.11,-26228.97,-6073.245,1051.785
1764763589.6780455,-225.63,-1688.625,-27242.82,-7036.514999999999,-18375.57,-26228.79,-6073.875,1052.775
1764763589.6780455,-226.8,-1691.0549999999998,-27247.095,-7040.07,-18376.965,-26229.555,-6074.37,1052.145
1764763589.6780455,-229.86,-1695.465,-27253.125,-7044.075,-18378.18,-26229.78,-6075.675,1050.255
1764763589.6780455,-228.105,-1693.53,-27251.64,-7042.905,-18377.37,-26229.15,-6074.82,1050.885
1764763589.720238,-225.27,-1688.6699999999998,-27244.89,-7037.325,-18374.67,-26228.07,-6073.92,1052.685
1764763589.720238,-222.66,-1683.72,-27237.735,-7029.99,-18370.485,-26224.965,-6071.04,1054.62
1764763589.720238,-221.895,-1683.72,-27237.915,-7030.755,-18370.395,-26223.75,-6070.724999999999,1055.61
1764763589.720238,-221.445,-1686.87,-27243.54,-7034.49,-18368.865,-26220.6,-6069.014999999999,1058.4
1764763589.720238,-223.65,-1691.1,-27249.075,-7037.91,-18370.665,-26221.455,-6069.78,1057.095
1764763589.720238,-224.64,-1691.82,-27249.03,-7038.764999999999,-18373.05,-26223.975,-6070.95,1056.42
1764763589.720238,-225.99,-1692.945,-27250.38,-7040.79,-18376.155,-26227.665,-6072.255,1054.62
1764763589.720238,-221.445,-1687.32,-27245.07,-7034.49,-18371.07,-26223.075,-6069.33,1058.805
1764763589.720238,-221.67,-1687.23,-27243.99,-7032.69,-18370.8,-26221.905,-6069.42,1057.77
1764763589.720238,-223.515,-1688.13,-27245.7,-7034.355,-18373.05,-26224.2,-6071.445,1055.655
1764763589.720238,-220.95,-1685.2949999999998,-27242.865,-7032.33,-18371.835,-26223.48,-6070.724999999999,1057.41
1764763589.720238,-222.615,-1686.24,-27242.685,-7033.815,-18373.77,-26226.27,-6071.445,1055.655
1764763589.720238,-220.32,-1683.405,-27239.175,-7030.53,-18370.395,-26223.3,-6069.78,1057.77
1764763589.720238,-220.275,-1682.82,-27240.255,-7031.429999999999,-18370.62,-26223.57,-6068.52,1058.67
1764763589.721253,-217.08,-1681.0649999999998,-27238.41,-7028.955,-18368.055,-26220.78,-6066.54,1061.73
1764763589.721253,-218.025,-1683.09,-27239.67,-7030.17,-18369.18,-26221.905,-6067.755,1060.425
1764763589.721253,-217.665,-1680.66,-27236.43,-7027.605,-18367.74,-26221.005,-6067.215,1060.74
1764763589.721253,-220.095,-1684.53,-27239.94,-7030.575,-18370.17,-26223.165,-6067.8,1058.445
1764763589.721253,-219.87,-1686.015,-27241.38,-7031.565,-18368.865,-26221.275,-6067.62,1058.985
1764763589.721253,-223.02,-1688.355,-27243.63,-7033.41,-18369.675,-26222.67,-6069.24,1055.52
1764763589.721253,-220.905,-1685.2949999999998,-27240.885,-7030.259999999999,-18367.515,-26220.645,-6068.16,1057.68
1764763589.721253,-215.145,-1679.49,-27233.955,-7024.679999999999,-18362.52,-26215.56,-6064.155,1063.98
1764763589.721253,-216.135,-1681.11,-27235.845,-7026.84,-18364.905,-26217.135,-6065.955,1062.675
1764763589.721253,-217.89,-1684.125,-27239.58,-7029.945,-18367.92,-26218.71,-6067.08,1061.55
1764763589.7712717,-220.005,-1686.15,-27242.1,-7031.745,-18369.0,-26219.925,-6067.71,1059.93
1764763589.7712717,-223.11,-1688.8049999999998,-27244.26,-7034.985,-18371.655,-26222.265,-6070.005,1056.87
1764763589.7712717,-223.965,-1689.3,-27245.745,-7036.29,-18372.15,-26222.94,-6070.139999999999,1056.78
1764763589.7712717,-223.02,-1688.6699999999998,-27244.98,-7035.615,-18372.645,-26222.58,-6069.33,1057.635
1764763589.7712717,-223.065,-1688.355,-27245.205,-7036.335,-18374.58,-26224.83,-6070.59,1056.42
1764763589.7712717,-223.605,-1687.59,-27244.44,-7035.075,-18374.805,-26225.415,-6071.04,1054.575
1764763589.7712717,-222.075,-1684.62,-27240.435,-7030.665,-18370.98,-26222.265,-6070.455,1056.285
1764763589.7712717,-225.045,-1687.05,-27242.325,-7032.735,-18373.005,-26225.37,-6071.715,1053.36
1764763589.7712717,-225.81,-1689.165,-27245.52,-7036.29,-18374.445,-26226.09,-6072.389999999999,1053.72
1764763589.7712717,-222.435,-1687.725,-27244.665,-7035.48,-18371.25,-26221.95,-6069.78,1058.535
1764763589.772285,-223.605,-1688.895,-27246.24,-7038.045,-18375.255,-26225.145,-6071.13,1057.41
1764763589.772285,-228.33,-1691.685,-27249.93,-7042.59,-18380.565,-26230.455,-6075.09,1052.955
1764763589.772285,-225.495,-1688.49,-27245.97,-7039.259999999999,-18377.28,-26228.07,-6073.605,1055.385
1764763589.772285,-225.99,-1690.02,-27245.61,-7038.405,-18377.19,-26227.98,-6073.38,1053.585
1764763589.772285,-223.47,-1685.2949999999998,-27239.58,-7032.195,-18374.13,-26225.28,-6071.535,1054.53
1764763589.772285,-219.78,-1680.7949999999998,-27233.82,-7026.48,-18369.9,-26221.32,-6069.24,1056.69
1764763589.772285,-217.17,-1676.655,-27230.175,-7021.935,-18364.59,-26216.46,-6067.08,1059.57
1764763589.772285,-217.215,-1677.465,-27231.075,-7021.485,-18363.69,-26215.56,-6065.82,1060.38
1764763589.772285,-220.905,-1682.73,-27237.96,-7028.73,-18367.785,-26218.53,-6067.889999999999,1058.13
1764763589.772285,-224.73,-1689.165,-27246.555,-7037.865,-18374.355,-26222.49,-6070.5,1056.015
1764763589.772285,-227.295,-1694.61,-27254.16,-7044.344999999999,-18378.9,-26225.145,-6071.804999999999,1054.08
1764763589.772285,-228.195,-1694.745,-27254.565,-7044.884999999999,-18380.655,-26228.205,-6073.245,1052.055
1764763589.8153298,-224.28,-1690.2,-27248.58,-7038.99,-18377.19,-26224.56,-6070.59,1055.655
1764763589.8153298,-226.395,-1691.955,-27250.065,-7040.16,-18379.215,-26227.305,-6071.94,1053.765
1764763589.8153298,-224.55,-1688.445,-27246.195,-7036.92,-18376.65,-26225.145,-6070.815,1055.07
1764763589.8153298,-222.705,-1686.5549999999998,-27243.18,-7034.264999999999,-18373.365,-26222.67,-6068.835,1057.32
1764763589.8153298,-220.815,-1684.845,-27240.93,-7032.375,-18371.34,-26220.87,-6067.665,1058.715
1764763589.8153298,-223.02,-1686.105,-27242.37,-7034.264999999999,-18373.815,-26223.435,-6070.41,1056.105
1764763589.8153298,-228.06,-1692.3149999999998,-27248.265,-7040.745,-18379.44,-26227.71,-6072.929999999999,1051.65
1764763589.8153298,-226.575,-1691.145,-27248.94,-7040.655,-18377.955,-26225.955,-6070.724999999999,1053.99
1764763589.8153298,-221.355,-1685.115,-27242.775,-7034.625,-18373.23,-26221.815,-6067.17,1059.165
1764763589.8165996,-223.47,-1688.085,-27244.395,-7036.245,-18375.615,-26225.055,-6068.88,1056.645
1764763589.8165996,-227.07,-1692.0449999999998,-27248.76,-7040.34,-18379.62,-26228.745,-6070.905,1052.64
1764763589.8165996,-225.72,-1690.0649999999998,-27247.455,-7037.82,-18378.0,-26227.215,-6070.59,1053.63
1764763589.8165996,-220.95,-1685.4299999999998,-27241.515,-7032.645,-18373.86,-26223.255,-6068.16,1058.04
1764763589.8165996,-219.645,-1683.945,-27239.49,-7030.71,-18371.88,-26221.77,-6067.349999999999,1058.58
1764763589.8165996,-218.745,-1681.9199999999998,-27236.025,-7027.38,-18369.495,-26220.735,-6066.764999999999,1058.94
1764763589.8165996,-218.295,-1681.515,-27235.305,-7027.335,-18368.73,-26220.24,-6066.27,1059.795
1764763589.8165996,-223.83,-1688.8049999999998,-27244.395,-7035.615,-18374.625,-26225.145,-6069.105,1055.79
1764763589.8171084,-227.205,-1692.765,-27249.39,-7040.655,-18379.89,-26229.195,-6072.21,1052.19
1764763589.8171084,-223.65,-1689.255,-27245.43,-7037.415,-18376.65,-26225.82,-6070.365,1055.025
1764763589.8171084,-226.08,-1691.73,-27247.68,-7039.349999999999,-18378.855,-26227.17,-6071.264999999999,1053.855
1764763589.8171084,-228.825,-1695.24,-27252.135,-7044.12,-18382.995,-26230.86,-6072.48,1051.695
1764763589.8171084,-228.78,-1694.79,-27251.505,-7043.715,-18383.175,-26230.86,-6072.57,1051.47
1764763589.8171084,-227.34,-1692.63,-27249.435,-7042.32,-18381.69,-26229.33,-6072.344999999999,1052.595
1764763589.8171084,-223.29,-1689.345,-27245.97,-7038.36,-18376.965,-26225.595,-6069.645,1055.43
1764763589.8605394,-226.215,-1691.685,-27248.22,-7040.429999999999,-18379.17,-26227.935,-6071.49,1052.37
1764763589.8605394,-223.65,-1688.445,-27245.34,-7037.639999999999,-18376.515,-26225.37,-6070.23,1055.835
1764763589.8605394,-225.63,-1689.705,-27247.59,-7039.259999999999,-18378.855,-26226.99,-6071.625,1054.845
1764763589.8605394,-226.935,-1691.595,-27249.03,-7040.07,-18379.845,-26228.16,-6072.344999999999,1052.505
1764763589.8605394,-223.83,-1688.22,-27244.98,-7036.695,-18375.75,-26225.28,-6070.905,1054.935
1764763589.8605394,-227.07,-1690.56,-27246.015,-7038.495,-18378.36,-26228.34,-6072.389999999999,1051.335
1764763589.8605394,-226.485,-1689.435,-27245.565,-7037.145,-18378.18,-26227.665,-6072.03,1051.83
1764763589.8605394,-225.0,-1688.535,-27244.44,-7036.02,-18376.47,-26226.225,-6072.03,1053.36
1764763589.8605394,-222.39,-1686.195,-27241.65,-7034.849999999999,-18374.67,-26223.795,-6070.724999999999,1056.42
1764763589.8615537,-222.255,-1685.7,-27241.065,-7034.895,-18374.94,-26224.2,-6069.915,1056.555
1764763589.8615537,-223.155,-1685.385,-27241.695,-7035.03,-18375.3,-26224.695,-6070.455,1055.205
1764763589.8615537,-225.225,-1687.095,-27242.73,-7035.795,-18377.415,-26228.115,-6072.3,1052.055
1764763589.8615537,-224.64,-1685.34,-27240.165,-7033.139999999999,-18375.795,-26226.765,-6072.075,1052.145
1764763589.8615537,-220.995,-1680.84,-27234.63,-7027.065,-18371.205,-26223.3,-6069.33,1055.61
1764763589.8615537,-218.79,-1678.725,-27232.92,-7025.895,-18368.46,-26219.655,-6066.54,1059.615
1764763589.8615537,-222.975,-1684.98,-27241.74,-7034.264999999999,-18373.905,-26223.435,-6069.014999999999,1056.87
1764763589.8615537,-229.14,-1694.205,-27252.54,-7044.12,-18381.78,-26229.42,-6073.02,1051.83
1764763589.8615537,-226.89,-1692.135,-27250.245,-7041.825,-18380.115,-26226.99,-6073.065,1053.945
1764763589.862059,-228.42,-1692.945,-27251.64,-7043.04,-18380.79,-26227.17,-6073.38,1052.055
1764763589.862059,-229.77,-1693.4399999999998,-27251.28,-7043.94,-18382.545,-26230.185,-6074.73,1049.265
1764763589.862059,-226.755,-1688.6699999999998,-27244.845,-7039.259999999999,-18380.115,-26229.6,-6073.29,1051.2
1764763589.862059,-224.73,-1686.4199999999998,-27241.38,-7036.02,-18377.595,-26227.035,-6071.625,1053.9
1764763589.862059,-223.29,-1687.8149999999998,-27244.215,-7037.415,-18375.615,-26224.2,-6070.455,1055.43
1764763589.862059,-222.795,-1688.535,-27246.78,-7039.259999999999,-18376.425,-26224.29,-6068.745,1055.88
1764763589.9081209,-222.615,-1685.79,-27242.82,-7035.389999999999,-18375.93,-26224.065,-6067.215,1056.6
1764763589.9081209,-224.865,-1687.23,-27243.27,-7035.57,-18376.695,-26225.46,-6069.554999999999,1054.665
1764763589.9081209,-228.87,-1692.72,-27249.165,-7041.465,-18379.845,-26227.44,-6071.355,1052.055
1764763589.9081209,-234.405,-1699.245,-27257.445,-7048.755,-18384.255,-26230.59,-6073.605,1047.825
1764763589.9081209,-236.565,-1701.45,-27260.865,-7051.139999999999,-18385.92,-26231.04,-6074.639999999999,1046.835
1764763589.9081209,-233.46,-1697.04,-27256.32,-7046.865,-18382.815,-26228.205,-6072.795,1048.995
1764763589.9081209,-229.905,-1692.585,-27251.595,-7043.04,-18380.97,-26227.53,-6071.625,1051.38
1764763589.9081209,-226.395,-1689.12,-27247.545,-7039.304999999999,-18377.685,-26226.09,-6069.51,1053.18
1764763589.9081209,-221.49,-1684.845,-27241.605,-7034.13,-18373.005,-26222.805,-6066.675,1057.32
1764763589.9081209,-220.68,-1683.495,-27240.615,-7033.32,-18372.87,-26222.4,-6065.55,1058.49
1764763589.9081209,-220.095,-1682.28,-27241.245,-7033.365,-18373.275,-26221.23,-6065.19,1060.155
1764763589.9081209,-223.29,-1685.07,-27243.945,-7035.57,-18375.48,-26223.21,-6067.53,1057.005
1764763589.9081209,-225.495,-1686.6899999999998,-27244.89,-7037.19,-18377.145,-26226.0,-6068.474999999999,1054.485
1764763589.9081209,-226.62,-1688.6699999999998,-27247.545,-7039.575,-18378.225,-26227.08,-6069.06,1054.305
1764763589.9081209,-227.7,-1692.0449999999998,-27249.93,-7041.42,-18378.18,-26227.125,-6069.195,1053.18
1764763589.9081209,-226.125,-1690.74,-27248.625,-7039.844999999999,-18377.01,-26225.415,-6069.195,1054.17
1764763589.9091623,-222.435,-1686.33,-27243.63,-7035.255,-18372.825,-26221.14,-6066.855,1057.41
1764763589.9091623,-222.12,-1686.78,-27242.64,-7034.264999999999,-18373.005,-26221.41,-6065.865,1057.635
1764763589.9091623,-223.695,-1687.365,-27244.08,-7036.785,-18375.345,-26223.39,-6066.675,1056.555
1764763589.9091623,-222.705,-1686.5549999999998,-27243.0,-7036.245,-18375.705,-26224.155,-6065.054999999999,1056.96
1764763589.9091623,-217.98,-1680.255,-27236.205,-7030.71,-18369.63,-26219.115,-6060.96,1061.82
1764763589.9091623,-218.97,-1679.8049999999998,-27236.07,-7030.62,-18369.09,-26220.105,-6062.445,1061.235
1764763589.9558709,-221.13,-1683.495,-27239.13,-7033.094999999999,-18371.655,-26221.32,-6064.11,1058.67
1764763589.9563785,-223.38,-1686.015,-27241.785,-7035.344999999999,-18373.77,-26222.175,-6064.29,1056.465
1764763589.9563785,-221.49,-1684.62,-27240.615,-7034.13,-18372.15,-26219.295,-6062.625,1058.58
1764763589.9563785,-223.695,-1686.78,-27243.27,-7035.974999999999,-18374.31,-26221.365,-6064.335,1056.195
1764763589.9563785,-219.96,-1682.415,-27238.815,-7032.554999999999,-18372.195,-26220.195,-6063.75,1059.075
1764763589.9563785,-219.465,-1681.695,-27236.16,-7031.115,-18372.915,-26222.265,-6064.11,1058.31
1764763589.9563785,-216.765,-1676.745,-27230.4,-7024.545,-18369.765,-26219.655,-6062.625,1060.245
1764763589.9563785,-212.85,-1673.46,-27226.17,-7020.81,-18366.48,-26216.28,-6059.474999999999,1064.25
1764763589.9563785,-216.9,-1681.155,-27236.79,-7030.575,-18371.52,-26219.925,-6060.78,1061.73
1764763589.9563785,-223.83,-1691.1899999999998,-27249.615,-7041.554999999999,-18376.92,-26223.21,-6063.929999999999,1058.31
1764763589.9563785,-226.35,-1694.115,-27252.27,-7043.355,-18378.495,-26223.795,-6066.045,1056.195
1764763589.9563785,-224.865,-1690.695,-27247.455,-7040.115,-18377.1,-26223.435,-6065.955,1056.06
1764763589.9563785,-224.055,-1688.625,-27244.98,-7037.415,-18375.93,-26223.57,-6064.92,1055.655
1764763589.9563785,-218.61,-1682.55,-27237.645,-7030.485,-18370.125,-26219.115,-6062.13,1060.56
1764763589.9563785,-219.555,-1682.505,-27236.34,-7030.035,-18370.305,-26220.915,-6063.075,1059.12
1764763589.9563785,-215.37,-1677.4199999999998,-27230.76,-7025.759999999999,-18367.29,-26217.72,-6060.96,1062.18
1764763589.9563785,-215.37,-1677.6,-27231.93,-7027.065,-18370.08,-26219.115,-6062.04,1061.505
1764763589.9563785,-215.19,-1678.095,-27233.73,-7028.37,-18368.37,-26217.315,-6059.655,1063.395
1764763589.9563785,-218.115,-1682.64,-27238.815,-7031.205,-18368.415,-26217.495,-6059.969999999999,1061.91
1764763589.9563785,-224.685,-1689.48,-27246.465,-7038.179999999999,-18375.165,-26222.535,-6064.514999999999,1055.97
1764763589.9563785,-220.365,-1684.395,-27240.66,-7034.264999999999,-18373.545,-26221.23,-6062.985,1059.885
1764763589.9563785,-220.365,-1685.16,-27241.875,-7036.065,-18375.3,-26221.455,-6063.12,1060.56
1764763589.9563785,-226.08,-1691.28,-27249.66,-7042.59,-18379.755,-26225.145,-6066.36,1054.935
1764763589.9563785,-223.47,-1687.365,-27245.16,-7037.82,-18376.2,-26222.805,-6064.92,1056.195
1764763590.0007112,-226.08,-1690.02,-27248.04,-7040.429999999999,-18378.405,-26225.28,-6065.594999999999,1053.0
1764763590.0007112,-225.45,-1687.77,-27245.97,-7038.405,-18376.695,-26223.615,-6064.605,1054.26
1764763590.0007112,-220.545,-1682.28,-27238.77,-7032.96,-18372.69,-26220.915,-6062.264999999999,1058.49
1764763590.0007112,-216.18,-1678.275,-27233.19,-7027.469999999999,-18369.09,-26217.54,-6058.62,1061.595
1764763590.0007112,-213.39,-1676.4299999999998,-27230.625,-7025.49,-18367.425,-26215.965,-6056.28,1064.34
1764763590.0007112,-220.455,-1685.4299999999998,-27241.155,-7036.245,-18373.725,-26222.22,-6060.915,1058.535
1764763590.0007112,-222.3,-1689.525,-27246.375,-7039.98,-18374.715,-26222.13,-6061.545,1057.68
1764763590.0007112,-225.405,-1691.325,-27247.815,-7041.375,-18376.245,-26223.12,-6062.76,1055.07
1764763590.0007112,-222.39,-1686.96,-27243.63,-7037.775,-18373.5,-26220.285,-6062.085,1057.995
1764763590.0007112,-223.02,-1686.915,-27243.675,-7037.415,-18373.86,-26220.87,-6062.4,1057.14
1764763590.0007112,-226.35,-1689.48,-27245.97,-7039.98,-18375.885,-26223.255,-6064.965,1052.91
1764763590.0007112,-221.04,-1683.765,-27240.12,-7033.59,-18370.44,-26218.98,-6061.815,1057.05
1764763590.0007112,-221.04,-1683.495,-27239.445,-7032.915,-18371.475,-26219.88,-6061.679999999999,1056.96
1764763590.0007112,-219.42,-1682.0549999999998,-27238.32,-7031.88,-18371.205,-26219.655,-6060.87,1058.085
1764763590.0007112,-218.115,-1680.255,-27235.575,-7029.36,-18369.72,-26219.16,-6060.014999999999,1058.58
1764763590.0017192,-221.715,-1683.99,-27238.68,-7032.42,-18373.23,-26221.32,-6062.264999999999,1055.835
1764763590.0017192,-221.13,-1684.755,-27241.425,-7035.165,-18374.265,-26221.185,-6061.77,1057.275
1764763590.0017192,-225.945,-1690.65,-27248.49,-7041.465,-18378.18,-26225.055,-6064.2,1052.865
1764763590.0017192,-226.845,-1691.595,-27249.21,-7041.87,-18377.64,-26225.415,-6064.469999999999,1052.055
1764763590.0017192,-225.675,-1690.155,-27247.635,-7041.24,-18377.685,-26225.1,-6064.065,1053.135
1764763590.0017192,-224.775,-1688.715,-27247.005,-7040.52,-18378.63,-26225.82,-6064.875,1053.63
1764763590.0017192,-223.515,-1687.05,-27245.43,-7039.575,-18378.18,-26225.46,-6065.054999999999,1054.305
1764763590.0017192,-220.635,-1683.765,-27241.74,-7035.705,-18374.31,-26222.265,-6062.355,1057.005
1764763590.0017192,-222.975,-1685.79,-27243.945,-7037.865,-18376.56,-26224.155,-6063.3,1055.07
1764763590.0477426,-220.005,-1682.865,-27240.84,-7035.075,-18372.69,-26220.42,-6060.645,1058.67
1764763590.0477426,-222.39,-1685.7,-27243.27,-7036.065,-18374.355,-26222.445,-6062.58,1056.69
1764763590.0477426,-221.04,-1684.215,-27241.515,-7033.86,-18372.915,-26221.59,-6061.185,1056.915
1764763590.0482686,-219.24,-1681.74,-27240.03,-7032.645,-18371.475,-26220.645,-6060.24,1058.445
1764763590.0482686,-223.065,-1684.62,-27243.09,-7035.974999999999,-18375.705,-26224.425,-6062.76,1055.43
1764763590.0482686,-222.795,-1684.1699999999998,-27241.65,-7035.12,-18375.93,-26224.515,-6064.02,1054.8
1764763590.0482686,-219.69,-1682.1,-27239.4,-7032.645,-18372.825,-26221.185,-6062.76,1057.59
1764763590.0482686,-221.4,-1683.1799999999998,-27239.13,-7032.87,-18373.005,-26221.545,-6061.679999999999,1056.735
1764763590.0482686,-223.605,-1685.025,-27241.065,-7034.625,-18375.48,-26223.525,-6062.804999999999,1054.485
1764763590.0482686,-226.08,-1688.49,-27245.61,-7038.54,-18377.82,-26225.1,-6063.3,1053.36
1764763590.0482686,-223.155,-1686.33,-27244.395,-7036.2,-18374.445,-26221.905,-6061.32,1057.05
1764763590.0482686,-223.92,-1686.645,-27243.63,-7035.974999999999,-18374.805,-26223.345,-6062.264999999999,1055.61
1764763590.0482686,-225.045,-1687.77,-27245.07,-7038.224999999999,-18378.135,-26226.225,-6064.245,1054.485
1764763590.0482686,-224.955,-1688.76,-27246.06,-7040.52,-18382.05,-26229.015,-6066.179999999999,1053.495
1764763590.0482686,-228.69,-1691.82,-27249.12,-7044.03,-18385.335,-26232.57,-6068.115,1049.31
1764763590.0482686,-227.565,-1690.83,-27248.31,-7042.41,-18382.905,-26230.14,-6066.63,1049.985
1764763590.0482686,-224.685,-1687.95,-27245.25,-7039.304999999999,-18379.755,-26226.72,-6065.145,1053.36
1764763590.0482686,-227.97,-1691.01,-27247.77,-7042.365,-18382.635,-26229.24,-6067.215,1050.48
1764763590.0482686,-225.45,-1688.04,-27244.62,-7039.665,-18379.395,-26226.99,-6065.28,1053.54
1764763590.0482686,-224.1,-1686.825,-27243.36,-7038.45,-18378.225,-26226.315,-6064.2,1053.945
1764763590.0482686,-225.72,-1688.58,-27245.34,-7040.205,-18380.61,-26229.015,-6065.55,1052.055
1764763590.0482686,-231.21,-1694.34,-27251.415,-7045.38,-18385.965,-26234.73,-6069.465,1047.42
1764763590.0916982,-230.31,-1692.675,-27249.615,-7042.995,-18383.715,-26232.3,-6068.429999999999,1048.455
1764763590.0916982,-224.325,-1686.915,-27242.235,-7035.795,-18378.18,-26226.495,-6064.245,1053.27
1764763590.0927734,-225.9,-1687.905,-27242.82,-7036.514999999999,-18379.485,-26228.115,-6064.335,1051.38
1764763590.0927734,-222.75,-1683.0449999999998,-27238.14,-7032.554999999999,-18376.56,-26225.415,-6063.12,1054.305
1764763590.0927734,-223.515,-1683.855,-27238.86,-7033.995,-18378.54,-26227.98,-6064.695,1054.08
1764763590.0927734,-226.53,-1687.5449999999998,-27244.08,-7039.215,-18383.49,-26232.075,-6067.395,1050.165
1764763590.0927734,-225.585,-1687.77,-27244.53,-7039.215,-18382.32,-26230.365,-6065.594999999999,1051.965
1764763590.0927734,-226.665,-1689.705,-27245.565,-7039.304999999999,-18381.42,-26229.42,-6063.974999999999,1051.425
1764763590.0927734,-224.955,-1686.105,-27241.515,-7036.11,-18377.685,-26227.035,-6062.715,1053.9
1764763590.0927734,-226.89,-1688.4,-27243.495,-7037.685,-18379.26,-26228.79,-6064.2,1050.93
1764763590.0927734,-223.155,-1686.105,-27241.875,-7035.255,-18375.48,-26223.345,-6060.825,1054.755
1764763590.0927734,-224.28,-1688.445,-27244.665,-7037.28,-18376.83,-26222.625,-6060.599999999999,1054.53
1764763590.0927734,-228.015,-1692.225,-27249.3,-7042.275,-18381.285,-26227.44,-6063.75,1050.57
1764763590.0927734,-225.945,-1690.515,-27249.705,-7042.995,-18380.655,-26226.72,-6063.705,1052.955
1764763590.0927734,-227.97,-1691.64,-27251.055,-7044.84,-18383.22,-26228.88,-6064.965,1050.885
1764763590.0927734,-230.67,-1694.97,-27252.945,-7046.955,-18386.145,-26232.57,-6066.9,1047.555
1764763590.0927734,-229.635,-1693.62,-27250.335,-7044.705,-18384.255,-26230.95,-6066.135,1047.915
1764763590.0927734,-229.59,-1692.0,-27248.31,-7043.445,-18382.905,-26229.735,-6065.235,1048.77
1764763590.0927734,-227.43,-1689.3,-27246.465,-7040.655,-18380.295,-26226.945,-6063.84,1052.01
1764763590.0927734,-228.96,-1690.515,-27248.445,-7042.094999999999,-18381.645,-26228.43,-6065.099999999999,1050.3
1764763590.0927734,-228.465,-1689.9299999999998,-27247.59,-7041.509999999999,-18381.285,-26229.015,-6065.28,1050.885
1764763590.0927734,-226.755,-1688.535,-27245.295,-7039.44,-18380.655,-26227.845,-6063.929999999999,1051.74
1764763590.0927734,-228.105,-1689.66,-27245.43,-7040.384999999999,-18382.365,-26229.645,-6064.335,1049.85
1764763590.0927734,-222.255,-1683.495,-27237.96,-7034.085,-18377.01,-26223.525,-6060.285,1055.61
1764763590.1431894,-221.445,-1681.47,-27237.195,-7032.96,-18375.705,-26222.13,-6059.25,1056.15
1764763590.1431894,-221.58,-1683.27,-27239.94,-7035.795,-18377.01,-26222.805,-6059.655,1056.06
1764763590.1431894,-225.0,-1687.905,-27245.61,-7040.835,-18379.845,-26225.505,-6061.545,1053.585
1764763590.1431894,-226.53,-1689.255,-27247.275,-7042.094999999999,-18380.52,-26226.09,-6062.085,1053.225
1764763590.1431894,-228.195,-1691.145,-27249.255,-7044.165,-18383.265,-26228.43,-6063.75,1051.515
1764763590.1431894,-233.73,-1696.05,-27255.195,-7049.655,-18389.07,-26235.27,-6068.474999999999,1045.98
1764763590.1431894,-231.57,-1693.395,-27251.73,-7046.46,-18386.415,-26233.11,-6067.575,1047.33
1764763590.1431894,-226.845,-1688.8049999999998,-27246.465,-7041.105,-18381.24,-26227.845,-6064.2,1051.605
1764763590.1431894,-227.07,-1689.03,-27247.095,-7041.87,-18382.14,-26227.98,-6064.38,1050.435
1764763590.1431894,-230.49,-1692.1799999999998,-27249.66,-7044.615,-18385.38,-26231.4,-6066.0,1047.105
1764763590.1431894,-229.41,-1690.0649999999998,-27247.14,-7042.32,-18383.94,-26230.005,-6065.099999999999,1048.725
1764763590.1431894,-227.205,-1686.33,-27243.45,-7038.315,-18380.97,-26227.305,-6062.67,1051.83
1764763590.1431894,-225.18,-1684.53,-27241.155,-7035.84,-18379.395,-26226.36,-6061.32,1053.585
1764763590.1431894,-221.58,-1681.965,-27238.59,-7032.78,-18376.065,-26222.715,-6059.115,1057.545
1764763590.1431894,-222.705,-1685.4299999999998,-27242.685,-7036.83,-18377.64,-26224.155,-6058.98,1057.05
1764763590.1431894,-229.185,-1692.45,-27250.56,-7044.615,-18384.345,-26230.095,-6062.804999999999,1051.155
1764763590.1448014,-227.07,-1689.615,-27247.77,-7042.094999999999,-18382.32,-26228.295,-6062.67,1052.955
1764763590.1448014,-228.78,-1690.83,-27250.02,-7043.715,-18385.74,-26230.995,-6064.605,1050.615
1764763590.1448014,-229.59,-1691.46,-27250.29,-7044.255,-18388.17,-26233.11,-6066.045,1049.355
1764763590.1448014,-229.68,-1691.46,-27249.75,-7043.94,-18387.675,-26232.165,-6065.73,1049.175
1764763590.1448014,-230.22,-1691.955,-27250.56,-7044.435,-18387.315,-26232.57,-6066.495,1048.365
1764763590.1448014,-228.78,-1690.11,-27248.22,-7042.455,-18385.245,-26231.265,-6064.965,1050.21
1764763590.1448014,-228.735,-1689.255,-27247.77,-7042.275,-18384.75,-26230.545,-6064.695,1050.66
1764763590.1448014,-226.26,-1687.23,-27245.34,-7039.889999999999,-18382.005,-26228.34,-6062.715,1053.405
1764763590.1875842,-227.295,-1688.175,-27246.69,-7040.34,-18383.085,-26229.645,-6063.615,1051.785
1764763590.1875842,-231.84,-1692.99,-27251.055,-7044.974999999999,-18386.82,-26234.325,-6066.54,1046.385
1764763590.1875842,-234.27,-1696.455,-27254.835,-7047.99,-18389.88,-26236.08,-6068.52,1044.495
1764763590.1875842,-234.27,-1695.465,-27253.755,-7047.27,-18389.79,-26235.495,-6068.79,1044.585
1764763590.1875842,-231.975,-1692.0449999999998,-27248.445,-7042.59,-18387.18,-26234.19,-6068.025,1045.53
1764763590.1875842,-229.815,-1689.255,-27244.98,-7040.34,-18385.65,-26233.02,-6066.315,1047.87
1764763590.1875842,-226.53,-1686.87,-27243.72,-7040.565,-18385.065,-26231.895,-6064.469999999999,1051.2
1764763590.1875842,-227.52,-1689.075,-27247.14,-7044.165,-18386.685,-26232.84,-6064.245,1051.47
1764763590.1875842,-228.69,-1689.84,-27248.31,-7045.155,-18388.53,-26235.18,-6065.73,1049.535
1764763590.1875842,-229.275,-1689.03,-27247.14,-7042.77,-18386.955,-26234.82,-6066.179999999999,1048.455
1764763590.1875842,-234.405,-1695.33,-27253.845,-7048.08,-18391.23,-26239.14,-6069.554999999999,1043.64
1764763590.1875842,-240.795,-1702.485,-27260.73,-7055.054999999999,-18395.1,-26242.92,-6072.795,1039.005
1764763590.1875842,-238.32,-1700.28,-27259.02,-7052.4,-18391.32,-26238.78,-6071.04,1041.39
1764763590.1875842,-238.635,-1701.0449999999998,-27259.695,-7052.804999999999,-18393.165,-26239.77,-6071.76,1039.68
1764763590.1875842,-236.07,-1698.12,-27256.905,-7050.06,-18390.78,-26237.7,-6070.635,1042.605
1764763590.1875842,-237.015,-1699.38,-27259.29,-7052.715,-18393.615,-26239.005,-6070.905,1042.38
1764763590.1875842,-238.815,-1702.26,-27261.405,-7056.315,-18398.07,-26243.37,-6073.29,1039.545
1764763590.1875842,-235.305,-1697.22,-27255.33,-7050.465,-18393.75,-26239.95,-6071.535,1042.875
1764763590.1875842,-238.005,-1699.02,-27257.355,-7051.905,-18396.315,-26242.56,-6073.335,1039.815
1764763590.1875842,-234.945,-1696.095,-27254.07,-7048.71,-18392.445,-26238.96,-6070.32,1042.56
1764763590.1875842,-230.715,-1691.73,-27249.165,-7043.49,-18387.405,-26235.0,-6067.575,1046.025
1764763590.1875842,-231.66,-1691.37,-27248.085,-7042.094999999999,-18387.585,-26235.855,-6068.205,1044.27
1764763590.234431,-234.99,-1694.655,-27251.46,-7044.884999999999,-18390.42,-26238.06,-6069.915,1041.48
1764763590.234431,-230.805,-1691.73,-27248.76,-7041.78,-18386.415,-26233.47,-6066.945,1045.935
1764763590.235474,-231.615,-1693.665,-27250.155,-7043.759999999999,-18387.315,-26233.11,-6066.495,1045.395
1764763590.235474,-234.225,-1695.78,-27253.125,-7047.045,-18390.825,-26236.89,-6068.88,1042.065
1764763590.235474,-234.9,-1696.14,-27254.205,-7048.125,-18392.13,-26238.465,-6070.32,1041.57
1764763590.235474,-236.115,-1698.57,-27257.805,-7051.005,-18393.39,-26239.095,-6070.32,1042.695
1764763590.235474,-234.045,-1697.22,-27257.58,-7050.509999999999,-18392.94,-26238.33,-6069.014999999999,1044.63
1764763590.235474,-233.46,-1695.645,-27255.78,-7048.665,-18394.065,-26239.14,-6068.25,1044.09
1764763590.235474,-228.51,-1689.66,-27247.77,-7041.915,-18388.485,-26233.515,-6065.099999999999,1048.5
1764763590.235474,-228.69,-1689.39,-27246.42,-7040.835,-18388.125,-26234.28,-6065.505,1047.96
1764763590.235474,-230.265,-1692.81,-27250.695,-7044.12,-18389.16,-26234.595,-6065.37,1047.375
1764763590.235474,-233.46,-1697.6699999999998,-27255.6,-7047.855,-18389.745,-26235.315,-6066.27,1044.585
1764763590.235474,-237.33,-1701.54,-27259.38,-7052.804999999999,-18394.695,-26240.535,-6069.69,1040.22
1764763590.235474,-238.23,-1703.115,-27261.765,-7055.145,-18394.785,-26240.085,-6070.59,1040.76
1764763590.235474,-234.09,-1697.4,-27254.88,-7047.764999999999,-18389.115,-26234.82,-6068.115,1044.855
1764763590.235474,-232.695,-1694.205,-27250.515,-7044.48,-18388.215,-26235.36,-6067.08,1044.855
1764763590.235474,-236.205,-1698.255,-27256.275,-7051.139999999999,-18394.515,-26241.255,-6069.69,1041.48
1764763590.235474,-236.475,-1698.7949999999998,-27258.3,-7053.03,-18395.82,-26240.76,-6068.745,1042.11
1764763590.235474,-232.245,-1696.365,-27256.275,-7050.69,-18391.905,-26236.305,-6065.28,1046.16
1764763590.235474,-232.605,-1695.87,-27254.43,-7049.745,-18392.76,-26238.15,-6066.9,1044.855
1764763590.235474,-232.92,-1695.915,-27253.215,-7048.53,-18392.4,-26238.42,-6067.08,1043.595
1764763590.235474,-237.105,-1700.415,-27257.085,-7052.58,-18394.605,-26241.12,-6069.42,1039.455
1764763590.235474,-237.465,-1700.145,-27257.355,-7052.67,-18395.37,-26241.57,-6070.545,1039.23
1764763590.235474,-238.32,-1702.35,-27260.37,-7054.469999999999,-18396.585,-26241.57,-6070.635,1039.05
1764763590.2825613,-236.43,-1701.63,-27261.09,-7053.435,-18392.94,-26237.565,-6068.25,1042.2
1764763590.2825613,-234.18,-1698.615,-27256.995,-7050.15,-18391.185,-26236.755,-6066.495,1043.73
1764763590.2825613,-233.1,-1696.8149999999998,-27254.79,-7048.755,-18390.465,-26237.16,-6066.045,1044.72
1764763590.2825613,-231.615,-1695.015,-27253.35,-7047.54,-18389.79,-26235.765,-6063.929999999999,1046.16
1764763590.2825613,-230.355,-1693.1699999999998,-27252.27,-7046.73,-18390.015,-26236.08,-6063.615,1047.195
1764763590.2825613,-231.165,-1693.35,-27252.72,-7047.855,-18390.915,-26237.52,-6064.785,1046.655
1764763590.2825613,-229.95,-1691.865,-27249.48,-7045.425,-18389.925,-26236.485,-6062.804999999999,1046.925
1764763590.2825613,-230.085,-1692.0449999999998,-27249.84,-7045.38,-18389.79,-26236.395,-6063.435,1046.88
1764763590.2825613,-229.545,-1692.27,-27251.01,-7046.415,-18390.42,-26236.305,-6063.165,1048.095
1764763590.2825613,-227.97,-1690.245,-27249.57,-7044.974999999999,-18389.115,-26234.325,-6061.95,1050.255
1764763590.2825613,-232.47,-1696.095,-27255.69,-7050.42,-18393.435,-26237.925,-6064.155,1046.295
1764763590.2825613,-233.055,-1698.48,-27258.345,-7052.67,-18394.065,-26238.555,-6064.514999999999,1045.8
1764763590.2825613,-232.155,-1696.905,-27256.14,-7050.42,-18392.94,-26238.645,-6064.514999999999,1045.755
1764763590.2825613,-227.88,-1692.495,-27250.74,-7045.155,-18388.395,-26233.965,-6061.905,1049.22
1764763590.2825613,-227.925,-1692.0449999999998,-27250.065,-7044.48,-18387.495,-26233.605,-6061.59,1049.535
1764763590.2825613,-230.58,-1694.025,-27251.505,-7045.74,-18388.98,-26235.225,-6062.445,1048.005
1764763590.2825613,-235.215,-1698.84,-27256.545,-7050.599999999999,-18393.84,-26239.05,-6064.74,1043.37
1764763590.2825613,-234.99,-1696.86,-27255.06,-7049.745,-18394.74,-26240.04,-6065.505,1043.37
1764763590.2825613,-230.625,-1692.675,-27251.145,-7045.469999999999,-18391.77,-26236.89,-6063.84,1047.69
1764763590.2825613,-232.02,-1695.24,-27254.52,-7047.99,-18392.085,-26236.35,-6064.514999999999,1046.97
1764763590.2825613,-234.315,-1699.0649999999998,-27258.165,-7051.32,-18393.795,-26237.205,-6065.46,1045.44
1764763590.2825613,-235.125,-1698.255,-27256.32,-7049.295,-18392.76,-26237.115,-6065.594999999999,1044.495
1764763590.2825613,-236.205,-1698.615,-27254.97,-7048.665,-18392.805,-26238.915,-6066.9,1042.29
1764763590.2825613,-237.195,-1698.66,-27254.97,-7048.395,-18393.48,-26239.77,-6066.81,1041.48
1764763590.3282948,-232.155,-1693.3049999999998,-27249.165,-7042.32,-18388.35,-26235.225,-6062.849999999999,1046.925
1764763590.3282948,-231.03,-1692.27,-27247.815,-7041.105,-18389.025,-26235.09,-6063.03,1046.835
1764763590.3282948,-233.37,-1692.855,-27248.76,-7042.905,-18391.095,-26237.52,-6064.605,1044.405
1764763590.3282948,-233.46,-1693.665,-27249.75,-7044.705,-18392.355,-26237.88,-6065.955,1043.505
1764763590.3282948,-234.09,-1696.5449999999998,-27253.8,-7048.665,-18396.0,-26240.355,-6066.675,1042.695
1764763590.3282948,-235.485,-1699.965,-27257.85,-7052.804999999999,-18399.195,-26242.38,-6067.035,1042.695
1764763590.329311,-236.115,-1700.82,-27258.165,-7052.58,-18397.71,-26240.76,-6066.36,1042.785
1764763590.329311,-234.765,-1699.02,-27255.915,-7049.295,-18394.11,-26238.33,-6064.02,1043.685
1764763590.329311,-235.17,-1699.65,-27256.005,-7049.745,-18394.29,-26238.42,-6063.344999999999,1043.82
1764763590.329311,-234.945,-1699.29,-27255.78,-7049.655,-18394.38,-26238.645,-6063.929999999999,1043.55
1764763590.329311,-233.505,-1696.8149999999998,-27253.26,-7047.9,-18394.02,-26239.23,-6065.594999999999,1044.405
1764763590.329311,-236.43,-1699.425,-27255.96,-7052.58,-18400.05,-26244.945,-6069.24,1041.255
1764763590.329311,-240.75,-1704.015,-27260.865,-7057.575,-18405.315,-26250.03,-6071.31,1037.25
1764763590.329311,-241.47,-1705.5449999999998,-27262.53,-7058.115,-18405.09,-26248.725,-6070.995,1037.115
1764763590.329311,-238.41,-1702.395,-27259.155,-7053.57,-18400.995,-26244.855,-6069.554999999999,1039.41
1764763590.329311,-236.61,-1698.705,-27253.845,-7048.755,-18398.25,-26243.865,-6069.195,1038.555
1764763590.3303108,-231.3,-1691.1899999999998,-27244.215,-7040.295,-18391.5,-26238.465,-6064.74,1043.415
1764763590.3303108,-235.8,-1697.445,-27252.0,-7048.215,-18396.99,-26243.1,-6066.27,1040.31
1764763590.3303108,-242.055,-1707.3,-27265.59,-7059.735,-18402.75,-26246.16,-6068.655,1038.15
1764763590.3303108,-236.205,-1702.62,-27260.595,-7053.525,-18396.405,-26240.085,-6064.74,1043.955
1764763590.3303108,-232.74,-1698.03,-27253.305,-7047.9,-18394.29,-26240.265,-6064.38,1044.945
1764763590.3303108,-236.115,-1698.84,-27252.765,-7048.44,-18397.305,-26245.395,-6067.98,1040.085
1764763590.3737466,-236.7,-1698.9299999999998,-27253.17,-7047.719999999999,-18395.415,-26244.09,-6068.295,1038.915
1764763590.3737466,-237.6,-1701.9,-27256.365,-7050.735,-18397.53,-26244.09,-6068.655,1038.375
1764763590.3737466,-241.29,-1708.65,-27265.545,-7057.889999999999,-18400.68,-26244.675,-6069.195,1037.385
1764763590.3737466,-242.55,-1710.945,-27267.48,-7059.105,-18400.455,-26244.045,-6069.06,1037.7
1764763590.3737466,-240.165,-1707.7949999999998,-27263.34,-7055.73,-18398.295,-26242.83,-6068.61,1039.68
1764763590.3737466,-234.63,-1701.81,-27256.545,-7050.69,-18394.515,-26239.23,-6065.01,1045.08
1764763590.3737466,-235.44,-1702.845,-27258.705,-7052.715,-18396.945,-26241.66,-6066.179999999999,1044.585
1764763590.3751917,-235.485,-1702.665,-27258.84,-7052.445,-18397.53,-26241.93,-6065.865,1044.81
1764763590.3751917,-235.44,-1701.81,-27258.255,-7051.679999999999,-18398.61,-26242.785,-6066.585,1044.09
1764763590.3751917,-235.35,-1702.1699999999998,-27258.03,-7051.275,-18398.25,-26242.74,-6066.495,1043.415
1764763590.3751917,-236.34,-1702.53,-27258.48,-7051.995,-18398.565,-26243.775,-6066.405,1042.11
1764763590.3751917,-236.565,-1701.945,-27257.58,-7050.465,-18397.89,-26242.47,-6064.965,1042.2
1764763590.3751917,-230.49,-1696.455,-27251.46,-7044.21,-18391.905,-26236.62,-6061.05,1047.51
1764763590.3751917,-228.87,-1695.105,-27249.795,-7043.085,-18391.365,-26236.305,-6060.465,1048.77
1764763590.3751917,-229.995,-1695.375,-27249.75,-7042.815,-18391.005,-26236.89,-6060.915,1048.14
1764763590.3751917,-230.355,-1695.24,-27249.705,-7043.445,-18390.555,-26236.935,-6060.24,1047.735
1764763590.3751917,-231.57,-1696.455,-27251.505,-7044.705,-18391.725,-26237.34,-6060.014999999999,1046.745
1764763590.3751917,-232.605,-1697.265,-27252.36,-7045.695,-18392.04,-26237.925,-6060.33,1045.665
1764763590.3751917,-229.41,-1693.3049999999998,-27247.005,-7040.655,-18388.17,-26234.685,-6058.62,1048.635
1764763590.3751917,-232.605,-1696.635,-27250.02,-7043.715,-18392.355,-26239.365,-6061.275,1044.225
1764763590.3751917,-233.64,-1697.58,-27251.865,-7045.695,-18393.795,-26240.265,-6062.49,1042.695
1764763590.3751917,-233.865,-1698.435,-27252.99,-7045.965,-18392.94,-26238.555,-6062.13,1043.28
1764763590.3751917,-233.955,-1699.9199999999998,-27254.07,-7046.73,-18392.58,-26237.655,-6061.635,1044.0
1764763590.3751917,-229.365,-1695.51,-27249.03,-7042.77,-18388.395,-26233.74,-6059.205,1048.14
1764763590.4220877,-229.815,-1696.86,-27250.92,-7042.95,-18389.205,-26233.515,-6058.665,1048.185
1764763590.4220877,-231.615,-1697.9399999999998,-27252.36,-7045.245,-18392.175,-26235.315,-6059.295,1047.645
1764763590.4220877,-233.415,-1699.38,-27255.15,-7047.224999999999,-18395.865,-26239.005,-6061.139999999999,1045.665
1764763590.4220877,-231.345,-1697.49,-27253.305,-7043.804999999999,-18392.94,-26236.575,-6059.25,1046.7
1764763590.4220877,-226.8,-1691.82,-27245.79,-7037.099999999999,-18386.64,-26230.995,-6055.92,1050.57
1764763590.4220877,-227.655,-1690.83,-27244.845,-7037.235,-18387.99,-26232.615,-6057.315,1049.31
1764763590.4220877,-227.16,-1689.84,-27243.225,-7036.245,-18387.945,-26232.705,-6056.505,1050.165
1764763590.4220877,-227.52,-1691.505,-27244.44,-7037.054999999999,-18388.575,-26232.705,-6056.639999999999,1049.355
1764763590.4220877,-233.055,-1699.695,-27254.88,-7047.045,-18396.18,-26238.555,-6059.295,1044.135
1764763590.4220877,-234.72,-1703.61,-27259.875,-7051.365,-18398.79,-26239.455,-6059.88,1043.235
1764763590.4220877,-233.46,-1700.505,-27257.58,-7049.34,-18398.07,-26239.59,-6060.15,1043.595
1764763590.4220877,-231.795,-1698.255,-27254.295,-7046.82,-18396.63,-26238.915,-6058.889999999999,1045.485
1764763590.4220877,-233.415,-1700.64,-27256.86,-7049.429999999999,-18397.665,-26239.86,-6059.429999999999,1044.855
1764763590.4220877,-232.83,-1700.145,-27255.78,-7047.45,-18395.685,-26238.915,-6059.115,1045.71
1764763590.4220877,-229.365,-1696.005,-27251.145,-7042.77,-18391.14,-26234.865,-6057.224999999999,1048.815
1764763590.4220877,-231.795,-1696.275,-27251.955,-7043.849999999999,-18394.065,-26237.79,-6059.969999999999,1046.385
1764763590.4220877,-233.145,-1695.105,-27249.525,-7042.545,-18397.17,-26241.885,-6061.59,1043.235
1764763590.4220877,-231.03,-1690.9199999999998,-27243.045,-7036.245,-18393.93,-26240.715,-6060.554999999999,1043.46
1764763590.4231198,-228.15,-1687.995,-27238.68,-7032.33,-18390.6,-26238.78,-6059.115,1045.305
1764763590.4231198,-227.61,-1690.965,-27243.585,-7035.974999999999,-18389.745,-26234.955,-6057.45,1048.59
1764763590.4231198,-238.365,-1707.03,-27264.915,-7054.469999999999,-18398.61,-26239.455,-6061.094999999999,1042.65
1764763590.4231198,-237.6,-1707.12,-27266.445,-7055.28,-18397.62,-26237.7,-6059.745,1044.405
1764763590.4694908,-234.63,-1702.755,-27260.46,-7050.24,-18395.865,-26237.88,-6058.889999999999,1044.855
1764763590.4694908,-234.765,-1700.64,-27257.715,-7048.935,-18396.315,-26239.545,-6059.07,1043.505
1764763590.4694908,-231.165,-1696.635,-27252.855,-7045.245,-18394.11,-26237.88,-6057.315,1046.835
1764763590.4694908,-234.99,-1701.1799999999998,-27257.355,-7049.384999999999,-18398.295,-26241.75,-6059.655,1042.47
1764763590.4694908,-232.335,-1698.12,-27254.97,-7047.045,-18395.55,-26239.545,-6056.91,1045.305
1764763590.4694908,-226.62,-1691.55,-27246.78,-7039.62,-18389.565,-26234.685,-6053.04,1050.255
1764763590.4694908,-229.14,-1694.385,-27248.67,-7040.88,-18391.815,-26237.025,-6055.065,1047.555
1764763590.4694908,-230.67,-1696.365,-27250.38,-7042.05,-18393.21,-26237.43,-6056.639999999999,1045.62
1764763590.4694908,-229.77,-1695.6899999999998,-27249.93,-7041.825,-18392.22,-26236.215,-6056.145,1046.745
1764763590.4694908,-228.195,-1694.79,-27250.11,-7041.735,-18390.375,-26233.29,-6053.895,1049.67
1764763590.4694908,-231.255,-1697.715,-27253.17,-7044.705,-18394.065,-26236.215,-6053.985,1047.78
1764763590.4694908,-226.035,-1691.595,-27244.89,-7037.099999999999,-18388.44,-26231.985,-6051.285,1052.955
1764763590.4694908,-225.09,-1690.11,-27242.73,-7035.929999999999,-18388.98,-26233.56,-6051.51,1052.055
1764763590.4694908,-231.3,-1696.455,-27250.515,-7044.165,-18395.595,-26239.455,-6055.514999999999,1046.025
1764763590.4694908,-233.37,-1700.46,-27255.645,-7047.81,-18396.0,-26238.285,-6055.605,1044.945
1764763590.4694908,-231.795,-1698.615,-27253.62,-7045.875,-18394.38,-26236.62,-6055.065,1045.62
1764763590.4694908,-230.13,-1696.905,-27250.74,-7042.995,-18391.995,-26234.505,-6054.03,1047.015
1764763590.4694908,-226.665,-1692.81,-27247.23,-7038.54,-18387.63,-26231.49,-6051.915,1050.03
1764763590.4694908,-228.42,-1694.835,-27248.715,-7040.745,-18389.565,-26233.74,-6052.59,1047.825
1764763590.4694908,-226.08,-1692.945,-27247.545,-7039.395,-18387.495,-26230.635,-6050.429999999999,1050.66
1764763590.4694908,-229.23,-1694.88,-27250.155,-7042.679999999999,-18390.915,-26234.73,-6052.679999999999,1048.005
1764763590.4694908,-227.655,-1693.395,-27248.94,-7042.77,-18390.645,-26234.595,-6052.41,1050.3
1764763590.4694908,-228.015,-1695.195,-27250.92,-7044.795,-18391.905,-26236.215,-6051.87,1050.48
1764763590.4694908,-229.365,-1696.86,-27252.72,-7046.054999999999,-18394.335,-26238.24,-6053.625,1048.59
1764763590.5142632,-228.555,-1695.87,-27251.64,-7044.884999999999,-18393.255,-26237.25,-6052.995,1048.68
1764763590.5142632,-227.79,-1694.835,-27250.2,-7042.995,-18391.23,-26235.315,-6052.23,1049.85
1764763590.5142632,-226.395,-1692.9,-27247.815,-7040.61,-18389.655,-26234.19,-6051.105,1050.435
1764763590.5142632,-225.72,-1691.55,-27246.645,-7038.9,-18389.25,-26233.47,-6051.33,1050.255
1764763590.5142632,-228.465,-1693.4399999999998,-27248.13,-7040.565,-18391.455,-26235.135,-6052.77,1047.78
1764763590.5142632,-226.17,-1691.28,-27245.205,-7037.46,-18388.485,-26232.345,-6050.34,1049.985
1764763590.5142632,-224.82,-1690.65,-27245.025,-7038.045,-18386.82,-26230.635,-6048.719999999999,1052.685
1764763590.5142632,-228.15,-1695.06,-27249.525,-7043.31,-18392.13,-26235.63,-6051.195,1048.41
1764763590.5142632,-223.74,-1691.0549999999998,-27245.205,-7038.9,-18387.54,-26231.58,-6048.179999999999,1052.28
1764763590.5142632,-224.595,-1691.865,-27246.915,-7039.98,-18388.845,-26232.57,-6048.9,1051.47
1764763590.5142632,-223.29,-1689.975,-27244.665,-7038.0,-18387.855,-26231.445,-6048.045,1052.145
1764763590.5142632,-220.41,-1685.07,-27237.465,-7032.285,-18384.39,-26228.925,-6045.885,1054.215
1764763590.5142632,-219.285,-1681.47,-27231.615,-7027.38,-18382.41,-26229.33,-6045.3,1053.63
1764763590.5142632,-215.64,-1676.52,-27225.09,-7020.99,-18378.045,-26225.55,-6043.139999999999,1056.15
1764763590.5142632,-213.39,-1676.025,-27226.305,-7020.63,-18375.57,-26221.77,-6040.395,1059.795
1764763590.5142632,-223.155,-1690.38,-27244.755,-7036.695,-18383.625,-26225.955,-6044.13,1054.98
1764763590.5142632,-230.895,-1700.55,-27256.995,-7047.9,-18390.375,-26231.13,-6048.045,1048.995
1764763590.5142632,-227.295,-1696.995,-27253.44,-7044.389999999999,-18387.9,-26229.33,-6047.01,1052.145
1764763590.5142632,-231.795,-1700.37,-27256.815,-7047.945,-18391.545,-26233.965,-6051.014999999999,1047.645
1764763590.5142632,-236.43,-1704.78,-27259.245,-7051.139999999999,-18396.54,-26239.68,-6055.065,1041.525
1764763590.515269,-235.08,-1701.72,-27255.24,-7047.495,-18393.615,-26237.43,-6054.21,1043.01
1764763590.515269,-231.885,-1697.58,-27251.28,-7043.625,-18390.465,-26234.19,-6052.455,1045.98
1764763590.5627356,-226.62,-1693.08,-27247.77,-7039.755,-18387.495,-26231.13,-6049.44,1051.02
1764763590.5627356,-225.855,-1693.4399999999998,-27247.545,-7039.755,-18387.855,-26231.67,-6049.53,1051.65
1764763590.5627356,-224.325,-1691.145,-27243.945,-7036.605,-18386.505,-26230.635,-6047.505,1052.595
1764763590.5627356,-224.19,-1689.39,-27241.92,-7035.84,-18386.82,-26231.355,-6047.28,1052.685
1764763590.5627356,-226.98,-1693.35,-27246.69,-7039.755,-18390.33,-26234.73,-6049.17,1049.085
1764763590.5627356,-226.53,-1694.475,-27247.725,-7039.889999999999,-18389.115,-26233.29,-6048.63,1049.76
1764763590.5627356,-225.585,-1692.585,-27246.195,-7038.27,-18386.595,-26230.05,-6046.65,1052.955
1764763590.5627356,-232.74,-1699.965,-27255.42,-7047.179999999999,-18394.515,-26237.07,-6052.815,1046.25
1764763590.5627356,-238.77,-1705.365,-27260.865,-7052.535,-18399.915,-26242.605,-6056.46,1040.895
1764763590.5627356,-236.34,-1702.935,-27257.22,-7048.304999999999,-18396.495,-26239.05,-6054.84,1043.46
1764763590.5627356,-238.455,-1705.23,-27259.38,-7050.014999999999,-18397.98,-26240.94,-6055.965,1040.04
1764763590.5627356,-233.01,-1700.0549999999998,-27253.8,-7044.389999999999,-18392.625,-26235.765,-6051.96,1044.405
1764763590.5627356,-232.2,-1699.695,-27253.35,-7043.895,-18392.805,-26235.27,-6051.105,1045.395
1764763590.5627356,-233.46,-1700.955,-27254.43,-7045.2,-18393.795,-26238.015,-6052.005,1043.73
1764763590.5627356,-231.705,-1698.975,-27251.865,-7043.219999999999,-18391.275,-26237.295,-6050.655,1045.44
1764763590.5627356,-225.54,-1691.64,-27243.72,-7035.615,-18385.155,-26232.3,-6045.84,1051.875
1764763590.5627356,-222.705,-1687.14,-27238.5,-7030.259999999999,-18381.78,-26229.96,-6042.87,1054.215
1764763590.5627356,-224.82,-1688.49,-27238.275,-7030.8,-18383.265,-26231.715,-6043.815,1050.57
1764763590.5627356,-222.48,-1685.745,-27234.54,-7027.245,-18380.25,-26228.475,-6042.105,1052.46
1764763590.5627356,-222.03,-1686.735,-27238.23,-7029.719999999999,-18380.565,-26226.855,-6040.71,1055.655
1764763590.563733,-227.565,-1696.185,-27251.55,-7041.24,-18388.215,-26231.355,-6043.905,1052.595
1764763590.563733,-232.695,-1701.495,-27256.365,-7046.865,-18392.805,-26235.81,-6048.45,1047.105
1764763590.563733,-232.56,-1699.38,-27254.07,-7044.21,-18391.905,-26234.955,-6048.495,1047.375
1764763590.563733,-229.905,-1695.465,-27250.29,-7040.429999999999,-18389.295,-26233.155,-6046.875,1049.76
1764763590.608119,-224.46,-1690.425,-27244.35,-7035.929999999999,-18384.795,-26230.59,-6042.78,1054.71
1764763590.608119,-220.41,-1686.375,-27239.355,-7031.07,-18381.15,-26227.08,-6039.135,1058.58
1764763590.608119,-217.665,-1684.215,-27237.87,-7028.594999999999,-18378.54,-26224.02,-6035.895,1061.91
1764763590.608119,-220.545,-1687.185,-27241.2,-7032.24,-18382.005,-26226.99,-6038.82,1059.75
1764763590.608119,-221.22,-1687.32,-27241.155,-7032.42,-18382.14,-26227.755,-6039.855,1058.085
1764763590.608119,-220.995,-1687.365,-27240.075,-7031.745,-18383.4,-26228.745,-6040.08,1056.195
1764763590.608119,-225.225,-1690.83,-27242.19,-7034.085,-18385.965,-26231.49,-6042.87,1051.92
1764763590.608119,-225.54,-1692.1799999999998,-27243.855,-7035.389999999999,-18385.425,-26229.69,-6042.15,1052.685
1764763590.608119,-224.595,-1692.72,-27244.845,-7036.065,-18383.355,-26226.99,-6040.53,1054.98
1764763590.608119,-227.61,-1696.005,-27249.165,-7040.655,-18386.505,-26230.41,-6042.195,1052.505
1764763590.608119,-224.595,-1693.53,-27247.095,-7037.82,-18384.255,-26227.89,-6040.44,1054.71
1764763590.608119,-225.36,-1692.99,-27246.735,-7037.415,-18384.84,-26229.42,-6040.755,1053.585
1764763590.608119,-222.075,-1689.345,-27243.36,-7034.31,-18381.6,-26227.035,-6038.73,1056.51
1764763590.608119,-225.0,-1692.495,-27246.33,-7037.73,-18385.74,-26230.41,-6040.71,1053.54
1764763590.608119,-221.265,-1688.265,-27241.965,-7033.365,-18382.59,-26227.215,-6038.639999999999,1057.455
1764763590.608119,-220.455,-1685.79,-27238.995,-7031.25,-18381.915,-26227.125,-6038.91,1057.32
1764763590.608119,-220.455,-1683.9,-27235.62,-7028.594999999999,-18382.005,-26228.205,-6039.63,1056.375
1764763590.608119,-216.765,-1679.445,-27231.165,-7023.33,-18378.0,-26224.695,-6037.29,1059.255
1764763590.608119,-221.76,-1686.285,-27240.03,-7031.205,-18383.58,-26228.79,-6040.844999999999,1054.935
1764763590.608119,-225.99,-1694.5649999999998,-27250.155,-7039.44,-18387.315,-26230.455,-6041.745,1052.28
1764763590.608119,-226.17,-1695.96,-27251.955,-7039.62,-18386.505,-26229.285,-6040.44,1052.64
1764763590.608119,-219.915,-1689.48,-27244.125,-7033.365,-18380.07,-26223.12,-6036.03,1059.12
1764763590.608119,-217.62,-1686.915,-27240.885,-7030.259999999999,-18378.18,-26221.68,-6033.645,1061.055
1764763590.608119,-217.08,-1685.655,-27239.625,-7029.315,-18378.81,-26222.805,-6034.094999999999,1060.605
1764763590.6519916,-219.6,-1687.59,-27241.245,-7031.295,-18382.95,-26226.63,-6036.3,1057.05
1764763590.6519916,-218.655,-1686.825,-27240.03,-7030.08,-18381.87,-26225.415,-6035.58,1057.77
1764763590.6519916,-215.1,-1683.495,-27236.835,-7025.94,-18377.1,-26220.69,-6032.25,1061.91
1764763590.6519916,-214.92,-1683.495,-27237.78,-7026.075,-18376.11,-26219.07,-6031.53,1062.495
1764763590.6519916,-216.99,-1685.115,-27239.715,-7028.054999999999,-18378.045,-26220.555,-6033.014999999999,1061.055
1764763590.6519916,-219.105,-1686.78,-27241.02,-7030.62,-18382.23,-26225.82,-6035.58,1057.905
1764763590.6519916,-216.315,-1682.955,-27235.71,-7025.985,-18379.665,-26224.83,-6034.185,1059.885
1764763590.6519916,-212.04,-1676.79,-27227.79,-7019.19,-18375.345,-26221.455,-6030.99,1062.315
1764763590.6519916,-212.67,-1675.89,-27227.79,-7019.91,-18376.785,-26222.715,-6032.474999999999,1062.045
1764763590.6519916,-221.94,-1686.78,-27239.58,-7030.889999999999,-18386.37,-26230.905,-6038.73,1054.26
1764763590.6519916,-226.035,-1694.07,-27248.445,-7038.63,-18391.185,-26232.795,-6041.295,1052.19
1764763590.6519916,-224.865,-1694.745,-27250.965,-7039.395,-18389.52,-26230.365,-6040.215,1055.295
1764763590.6519916,-223.74,-1692.1799999999998,-27248.13,-7035.57,-18386.91,-26228.43,-6038.639999999999,1055.52
1764763590.6519916,-225.315,-1692.1799999999998,-27245.835,-7034.31,-18387.945,-26230.545,-6039.81,1052.37
1764763590.6519916,-222.345,-1689.255,-27241.785,-7031.295,-18385.515,-26228.295,-6039.224999999999,1055.34
1764763590.6519916,-223.155,-1691.0549999999998,-27245.16,-7034.849999999999,-18387.495,-26229.555,-6039.9,1055.025
1764763590.6519916,-224.865,-1692.855,-27247.86,-7037.325,-18389.295,-26231.175,-6040.755,1053.855
1764763590.6519916,-224.685,-1692.765,-27247.545,-7037.685,-18389.475,-26231.49,-6040.26,1053.855
1764763590.6519916,-220.77,-1688.22,-27244.035,-7034.67,-18387.855,-26230.86,-6038.594999999999,1056.465
1764763590.6519916,-224.28,-1691.1,-27246.105,-7036.514999999999,-18391.23,-26234.865,-6042.33,1051.83
1764763590.6519916,-222.795,-1688.8049999999998,-27242.865,-7033.59,-18389.34,-26233.065,-6041.34,1052.955
1764763590.6519916,-217.62,-1682.685,-27235.98,-7026.84,-18383.13,-26227.17,-6037.065,1057.545
1764763590.6519916,-219.42,-1684.3049999999998,-27236.88,-7027.155,-18383.175,-26226.945,-6036.344999999999,1056.42
1764763590.6519916,-222.21,-1689.345,-27243.945,-7033.905,-18387.495,-26229.33,-6038.054999999999,1054.935
1764763590.6988008,-223.335,-1691.865,-27248.04,-7037.325,-18387.81,-26228.07,-6038.37,1055.925
1764763590.6988008,-225.405,-1693.35,-27248.265,-7038.045,-18389.61,-26231.895,-6039.675,1052.955
1764763590.6993823,-222.84,-1688.85,-27242.82,-7032.96,-18386.955,-26230.905,-6037.83,1055.07
1764763590.6993823,-221.13,-1687.995,-27243.09,-7032.509999999999,-18386.01,-26228.97,-6036.57,1056.42
1764763590.6993823,-217.08,-1685.655,-27241.47,-7030.62,-18382.23,-26223.885,-6033.285,1060.56
1764763590.6993823,-217.62,-1687.275,-27242.865,-7031.925,-18382.68,-26223.435,-6033.195,1059.885
1764763590.6993823,-219.555,-1690.0649999999998,-27244.98,-7034.849999999999,-18384.48,-26224.38,-6033.87,1058.715
1764763590.6993823,-223.47,-1693.845,-27247.815,-7038.719999999999,-18387.855,-26228.7,-6036.344999999999,1054.755
1764763590.6993823,-223.605,-1692.495,-27247.365,-7037.235,-18386.37,-26228.61,-6035.895,1054.035
1764763590.6993823,-223.02,-1691.0549999999998,-27245.43,-7034.94,-18384.93,-26227.35,-6035.219999999999,1054.845
1764763590.6993823,-221.13,-1688.445,-27241.335,-7031.969999999999,-18383.445,-26226.18,-6034.635,1055.97
1764763590.6993823,-215.955,-1683.3149999999998,-27235.44,-7026.57,-18378.855,-26221.815,-6031.8,1060.875
1764763590.6993823,-209.97,-1677.105,-27229.545,-7021.755,-18375.93,-26217.855,-6027.255,1067.085
1764763590.6993823,-212.67,-1680.66,-27234.315,-7027.605,-18381.33,-26222.625,-6029.19,1063.08
1764763590.6993823,-210.645,-1680.39,-27233.415,-7025.49,-18376.515,-26218.35,-6026.849999999999,1065.825
1764763590.6993823,-213.795,-1681.695,-27234.765,-7026.12,-18377.82,-26221.545,-6029.46,1063.215
1764763590.6993823,-219.24,-1687.185,-27240.3,-7031.745,-18383.805,-26226.765,-6034.005,1057.14
1764763590.6993823,-221.22,-1690.0649999999998,-27243.405,-7034.175,-18384.975,-26227.71,-6034.77,1056.06
1764763590.6993823,-217.575,-1685.52,-27238.14,-7028.639999999999,-18380.565,-26223.39,-6032.52,1059.3
1764763590.6993823,-217.17,-1683.99,-27237.555,-7027.335,-18379.755,-26222.22,-6031.98,1059.435
1764763590.747909,-221.04,-1688.4,-27241.29,-7030.485,-18381.87,-26225.28,-6033.78,1056.015
1764763590.747909,-225.855,-1693.395,-27246.645,-7035.525,-18386.82,-26230.005,-6037.695,1051.155
1764763590.747909,-227.16,-1696.23,-27250.965,-7039.17,-18389.88,-26231.58,-6038.505,1049.715
1764763590.747909,-226.89,-1696.095,-27250.965,-7039.665,-18388.845,-26231.13,-6037.605,1051.155
1764763590.747909,-223.695,-1692.495,-27246.33,-7036.425,-18386.82,-26229.465,-6036.525,1053.09
1764763590.747909,-226.215,-1695.105,-27248.94,-7039.215,-18390.915,-26233.065,-6039.045,1050.48
1764763590.747909,-225.225,-1694.07,-27248.49,-7038.495,-18389.34,-26230.995,-6037.245,1052.955
1764763590.747909,-226.17,-1694.79,-27249.12,-7038.81,-18390.06,-26232.075,-6037.74,1051.425
1764763590.747909,-229.14,-1697.895,-27251.505,-7041.42,-18393.57,-26236.71,-6041.25,1047.645
1764763590.747909,-230.13,-1697.625,-27251.505,-7041.15,-18393.93,-26236.44,-6042.014999999999,1046.61
1764763590.747909,-231.255,-1698.255,-27251.73,-7042.23,-18394.515,-26236.71,-6043.5,1045.08
1764763590.747909,-228.33,-1696.005,-27248.355,-7038.405,-18390.555,-26233.38,-6041.115,1048.185
1764763590.747909,-227.7,-1695.375,-27247.185,-7037.325,-18390.465,-26234.19,-6041.07,1048.23
1764763590.747909,-229.635,-1696.995,-27249.345,-7039.17,-18392.04,-26235.99,-6041.88,1045.755
1764763590.747909,-227.205,-1693.755,-27245.97,-7036.335,-18389.295,-26233.2,-6039.54,1048.545
1764763590.747909,-230.76,-1697.85,-27249.93,-7041.42,-18394.155,-26238.24,-6042.825,1044.225
1764763590.747909,-231.435,-1699.11,-27252.27,-7042.995,-18395.685,-26239.905,-6044.04,1043.1
1764763590.747909,-231.795,-1699.875,-27253.755,-7042.634999999999,-18395.19,-26239.5,-6044.13,1042.785
1764763590.747909,-230.445,-1697.625,-27251.325,-7040.34,-18392.94,-26236.44,-6043.23,1045.44
1764763590.747909,-234.54,-1701.765,-27255.24,-7043.445,-18394.155,-26237.205,-6044.085,1042.785
1764763590.747909,-232.065,-1700.0549999999998,-27253.17,-7041.105,-18391.14,-26234.955,-6042.554999999999,1044.0
1764763590.747909,-234.945,-1701.765,-27255.285,-7043.445,-18394.875,-26239.545,-6044.849999999999,1041.345
1764763590.747909,-231.705,-1699.02,-27253.26,-7042.41,-18395.46,-26238.87,-6044.49,1044.81
1764763590.747909,-232.155,-1699.83,-27253.44,-7043.175,-18395.82,-26239.725,-6043.815,1044.315
1764763590.747909,-229.68,-1696.23,-27248.58,-7039.53,-18391.59,-26236.755,-6041.745,1046.745
1764763590.747909,-234.81,-1700.0549999999998,-27252.54,-7042.905,-18395.865,-26241.03,-6045.255,1040.85
1764763590.7952907,-238.05,-1705.23,-27258.345,-7047.405,-18397.62,-26241.84,-6046.469999999999,1039.635
1764763590.7952907,-236.655,-1703.88,-27257.58,-7046.865,-18397.305,-26240.895,-6045.615,1041.84
1764763590.7952907,-235.08,-1703.5649999999998,-27257.445,-7048.665,-18402.84,-26245.035,-6047.37,1040.67
1764763590.7952907,-230.085,-1698.7949999999998,-27252.315,-7043.715,-18399.915,-26241.21,-6044.175,1044.72
1764763590.7952907,-230.355,-1698.345,-27250.515,-7042.185,-18397.215,-26239.005,-6042.87,1044.54
1764763590.7952907,-231.39,-1699.245,-27252.135,-7043.13,-18396.765,-26239.365,-6043.185,1043.505
1764763590.7952907,-234.315,-1703.025,-27256.68,-7047.179999999999,-18400.59,-26242.965,-6045.389999999999,1041.165
1764763590.7952907,-234.945,-1704.375,-27257.04,-7047.585,-18402.57,-26244.81,-6045.389999999999,1039.77
1764763590.7952907,-230.355,-1699.29,-27251.505,-7041.78,-18397.17,-26239.59,-6042.195,1044.315
1764763590.7952907,-232.74,-1701.225,-27254.205,-7044.615,-18399.105,-26241.165,-6044.175,1042.695
1764763590.7952907,-237.69,-1706.355,-27259.38,-7048.844999999999,-18402.615,-26244.99,-6047.19,1037.835
1764763590.7952907,-237.42,-1704.5549999999998,-27256.5,-7045.695,-18400.32,-26243.82,-6046.875,1037.25
1764763590.7952907,-235.125,-1701.855,-27252.765,-7042.86,-18398.7,-26242.605,-6046.38,1039.455
1764763590.7952907,-233.73,-1701.135,-27253.665,-7043.4,-18397.89,-26240.625,-6045.389999999999,1042.155
1764763590.7952907,-236.43,-1704.78,-27256.77,-7046.73,-18402.93,-26245.035,-6047.415,1038.33
1764763590.7952907,-235.71,-1703.025,-27253.665,-7043.94,-18401.13,-26244.99,-6047.46,1038.645
1764763590.7952907,-232.29,-1699.515,-27249.345,-7039.98,-18397.665,-26242.11,-6045.705,1041.84
1764763590.7952907,-236.07,-1703.79,-27257.49,-7046.594999999999,-18401.715,-26244.81,-6046.695,1039.77
1764763590.7952907,-236.97,-1706.9399999999998,-27263.34,-7051.23,-18402.12,-26244.045,-6046.469999999999,1041.165
1764763590.7952907,-240.93,-1711.08,-27266.31,-7054.065,-18404.37,-26246.07,-6048.585,1037.745
1764763590.7952907,-243.405,-1712.52,-27267.39,-7056.045,-18407.655,-26249.76,-6050.925,1033.335
1764763590.7952907,-242.325,-1711.845,-27265.815,-7055.594999999999,-18407.79,-26249.895,-6050.61,1033.38
1764763590.8400187,-241.965,-1711.1699999999998,-27266.13,-7055.145,-18408.015,-26249.94,-6051.375,1033.56
1764763590.8400187,-238.86,-1708.74,-27263.295,-7052.4,-18405.99,-26246.52,-6049.62,1037.25
1764763590.8400187,-239.13,-1708.9199999999998,-27261.9,-7052.04,-18405.0,-26245.98,-6048.179999999999,1038.015
1764763590.8400187,-239.535,-1709.64,-27262.755,-7052.445,-18405.495,-26247.465,-6047.82,1037.61
1764763590.8400187,-240.84,-1709.64,-27263.205,-7052.804999999999,-18407.07,-26249.94,-6049.17,1034.91
1764763590.8400187,-235.935,-1703.34,-27256.905,-7045.92,-18401.13,-26244.99,-6045.389999999999,1039.68
1764763590.8400187,-235.44,-1703.88,-27256.005,-7045.65,-18400.32,-26243.865,-6044.264999999999,1039.365
1764763590.8400187,-238.455,-1707.48,-27259.38,-7049.88,-18403.83,-26246.205,-6046.38,1036.575
1764763590.8400187,-243.81,-1713.915,-27265.86,-7055.82,-18409.905,-26250.66,-6049.08,1032.39
1764763590.8400187,-244.755,-1715.85,-27268.2,-7057.08,-18410.985,-26251.29,-6049.304999999999,1032.3
1764763590.8400187,-240.975,-1710.945,-27262.755,-7051.724999999999,-18406.665,-26247.645,-6047.594999999999,1035.18
1764763590.8400187,-240.165,-1709.595,-27260.235,-7049.969999999999,-18405.72,-26247.555,-6046.74,1035.765
1764763590.8400187,-239.085,-1708.335,-27258.93,-7048.889999999999,-18404.91,-26247.33,-6046.155,1036.845
1764763590.8400187,-243.0,-1711.53,-27262.575,-7051.77,-18407.97,-26251.605,-6049.755,1032.795
1764763590.8400187,-243.675,-1712.205,-27263.295,-7051.77,-18408.285,-26251.47,-6050.429999999999,1031.625
1764763590.8400187,-242.19,-1710.81,-27261.54,-7050.554999999999,-18407.115,-26249.985,-6049.17,1033.155
1764763590.8400187,-239.94,-1708.74,-27258.525,-7049.565,-18404.595,-26247.42,-6047.955,1035.27
1764763590.8400187,-244.08,-1712.2949999999998,-27263.16,-7053.3,-18408.195,-26250.39,-6050.565,1031.445
1764763590.8400187,-240.345,-1708.47,-27259.47,-7049.295,-18404.955,-26246.97,-6047.639999999999,1034.145
1764763590.8400187,-240.03,-1707.39,-27257.58,-7046.955,-18403.38,-26246.34,-6046.065,1034.55
1764763590.8400187,-237.465,-1705.005,-27254.655,-7044.795,-18402.165,-26245.305,-6045.03,1035.045
1764763590.8400187,-234.36,-1702.755,-27253.215,-7044.795,-18404.64,-26246.745,-6045.48,1037.205
1764763590.8400187,-239.13,-1707.75,-27259.2,-7051.815,-18412.155,-26253.405,-6049.935,1033.47
1764763590.8400187,-241.515,-1711.395,-27264.105,-7055.685,-18413.82,-26254.08,-6050.655,1032.21
1764763590.887593,-240.48,-1711.395,-27265.77,-7055.955,-18412.515,-26252.235,-6050.07,1033.695
1764763590.887593,-239.94,-1710.1799999999998,-27265.005,-7055.73,-18411.66,-26251.47,-6049.17,1034.73
1764763590.887593,-237.645,-1706.85,-27260.505,-7052.535,-18409.995,-26251.515,-6047.46,1035.315
1764763590.887593,-238.995,-1707.12,-27261.045,-7052.804999999999,-18412.065,-26253.765,-6048.63,1033.335
1764763590.887593,-240.48,-1709.1,-27262.26,-7054.695,-18415.035,-26255.79,-6049.53,1031.22
1764763590.887593,-238.68,-1707.615,-27260.91,-7051.905,-18411.39,-26251.785,-6047.82,1033.47
1764763590.887593,-237.96,-1706.895,-27260.55,-7050.105,-18406.845,-26246.97,-6045.795,1036.53
1764763590.887593,-239.58,-1710.225,-27263.7,-7052.804999999999,-18407.79,-26247.69,-6047.01,1034.73
1764763590.887593,-239.22,-1710.0449999999998,-27263.745,-7052.759999999999,-18408.465,-26248.23,-6047.73,1035.27
1764763590.887593,-237.825,-1708.02,-27261.315,-7049.88,-18408.24,-26247.735,-6046.29,1036.44
1764763590.887593,-237.645,-1706.85,-27260.505,-7049.745,-18408.42,-26248.59,-6046.245,1036.395
1764763590.887593,-234.585,-1704.06,-27256.815,-7046.73,-18406.215,-26247.06,-6043.995,1038.915
1764763590.887593,-236.34,-1706.4,-27259.2,-7047.99,-18407.025,-26248.5,-6044.355,1037.205
1764763590.887593,-243.18,-1712.5649999999998,-27266.355,-7054.83,-18411.57,-26252.64,-6047.865,1032.12
1764763590.887593,-242.73,-1711.53,-27265.68,-7054.74,-18411.615,-26253.495,-6048.63,1032.12
1764763590.887593,-237.69,-1706.9399999999998,-27259.965,-7049.34,-18407.925,-26249.58,-6045.885,1036.215
1764763590.887593,-239.76,-1710.0449999999998,-27262.215,-7051.32,-18408.42,-26249.805,-6046.469999999999,1034.055
1764763590.887593,-245.745,-1715.355,-27267.21,-7055.82,-18411.885,-26253.45,-6049.17,1029.33
1764763590.887593,-244.26,-1713.915,-27265.14,-7053.795,-18410.625,-26252.055,-6049.17,1030.185
1764763590.887593,-239.715,-1709.1899999999998,-27261.225,-7049.745,-18406.395,-26247.24,-6046.02,1034.37
1764763590.887593,-241.38,-1711.035,-27263.25,-7052.625,-18408.555,-26249.76,-6047.639999999999,1032.21
1764763590.887593,-237.51,-1706.13,-27259.065,-7048.8,-18405.945,-26247.51,-6045.435,1035.99
1764763590.9310722,-237.51,-1706.31,-27258.12,-7048.215,-18405.225,-26247.33,-6045.615,1035.945
1764763590.9310722,-238.32,-1707.03,-27258.705,-7047.81,-18405.675,-26247.465,-6045.57,1034.595
1764763590.9310722,-240.75,-1710.1799999999998,-27262.125,-7050.915,-18410.58,-26253.855,-6047.505,1031.58
1764763590.9310722,-238.815,-1707.615,-27260.01,-7050.375,-18411.75,-26256.33,-6046.695,1033.92
1764763590.9310722,-235.575,-1704.5549999999998,-27258.525,-7049.88,-18411.255,-26256.105,-6045.615,1037.385
1764763590.9316032,-235.845,-1706.85,-27261.72,-7052.67,-18413.73,-26257.725,-6046.74,1036.485
1764763590.9316032,-240.075,-1711.755,-27266.625,-7057.08,-18417.69,-26260.74,-6049.035,1032.795
1764763590.9316032,-241.065,-1712.16,-27267.165,-7056.405,-18416.79,-26259.03,-6048.63,1032.75
1764763590.9316032,-241.335,-1712.115,-27266.715,-7057.215,-18417.465,-26258.625,-6049.755,1032.57
1764763590.9316032,-237.06,-1708.515,-27262.08,-7053.344999999999,-18415.98,-26254.44,-6046.83,1036.035
1764763590.9316032,-236.565,-1707.705,-27262.53,-7054.065,-18416.655,-26251.605,-6044.67,1037.205
1764763590.9316032,-244.035,-1715.13,-27268.92,-7061.715,-18420.075,-26257.095,-6049.665,1029.24
1764763590.9316032,-244.215,-1714.8149999999998,-27267.255,-7058.34,-18416.61,-26255.835,-6049.755,1028.88
1764763590.9316032,-239.085,-1709.01,-27259.785,-7048.98,-18407.52,-26249.58,-6045.03,1033.56
1764763590.9316032,-238.275,-1706.58,-27257.355,-7047.045,-18406.215,-26249.13,-6044.445,1034.595
1764763590.9316032,-238.23,-1707.12,-27258.705,-7048.259999999999,-18408.42,-26250.345,-6043.995,1035.135
1764763590.9316032,-243.27,-1713.195,-27264.87,-7054.605,-18413.37,-26254.08,-6046.514999999999,1030.86
1764763590.9316032,-242.55,-1713.015,-27264.15,-7054.469999999999,-18411.885,-26251.92,-6046.155,1031.85
1764763590.9316032,-239.355,-1709.505,-27261.045,-7050.78,-18408.42,-26249.445,-6045.03,1034.91
1764763590.9316032,-239.13,-1709.235,-27260.595,-7050.014999999999,-18409.32,-26250.66,-6044.4,1035.45
1764763590.9316032,-237.69,-1706.445,-27257.355,-7047.405,-18408.735,-26250.525,-6043.679999999999,1035.405
1764763590.9316032,-238.23,-1704.915,-27255.375,-7046.865,-18409.59,-26252.325,-6044.715,1034.145
1764763590.9316032,-241.065,-1706.49,-27257.13,-7047.9,-18412.065,-26256.24,-6046.875,1030.905
1764763590.9316032,-240.93,-1706.985,-27255.69,-7045.74,-18410.445,-26253.495,-6046.56,1031.085
1764763590.9782708,-241.65,-1709.595,-27258.345,-7047.764999999999,-18410.04,-26252.28,-6046.695,1030.77
1764763590.9782708,-242.19,-1710.63,-27261.45,-7050.69,-18410.67,-26251.83,-6045.165,1031.895
1764763590.9782708,-239.67,-1708.605,-27259.425,-7049.474999999999,-18409.635,-26250.12,-6043.41,1034.685
1764763590.9782708,-242.055,-1711.4399999999998,-27262.53,-7052.804999999999,-18413.55,-26254.08,-6045.255,1032.03
1764763590.9782708,-244.665,-1716.9299999999998,-27269.505,-7058.565,-18416.34,-26255.925,-6047.28,1030.23
1764763590.9782708,-241.965,-1715.31,-27268.29,-7056.045,-18411.57,-26251.425,-6044.58,1033.11
1764763590.9782708,-237.87,-1709.415,-27260.865,-7049.52,-18407.7,-26248.905,-6041.835,1035.855
1764763590.9782708,-239.04,-1708.785,-27259.785,-7048.259999999999,-18409.185,-26250.93,-6043.365,1033.83
1764763590.9782708,-239.355,-1708.2,-27259.155,-7047.764999999999,-18410.265,-26253.045,-6043.32,1032.39
1764763590.9782708,-235.845,-1704.105,-27254.745,-7044.344999999999,-18407.61,-26249.31,-6041.7,1035.81
1764763590.9782708,-238.41,-1707.84,-27259.2,-7048.44,-18411.255,-26250.795,-6043.59,1033.785
1764763590.9782708,-242.685,-1711.8,-27263.205,-7052.445,-18413.505,-26253.09,-6045.66,1030.995
1764763590.9782708,-244.215,-1712.07,-27262.755,-7052.355,-18415.215,-26256.42,-6047.01,1027.665
1764763590.9782708,-242.82,-1710.1799999999998,-27260.145,-7049.655,-18413.64,-26255.655,-6045.795,1029.105
1764763590.9782708,-241.245,-1707.12,-27255.33,-7044.389999999999,-18410.13,-26253.945,-6045.075,1030.14
1764763590.9782708,-238.95,-1704.33,-27251.955,-7041.42,-18406.845,-26252.01,-6043.41,1032.12
1764763590.9788127,-240.93,-1710.945,-27262.395,-7050.78,-18410.22,-26251.83,-6043.094999999999,1033.02
1764763590.9788127,-248.985,-1723.23,-27278.91,-7065.63,-18419.805,-26258.31,-6048.585,1027.485
1764763590.9788127,-250.965,-1725.705,-27280.755,-7068.78,-18424.035,-26261.865,-6051.195,1024.83
1764763590.9788127,-250.245,-1723.77,-27277.83,-7066.259999999999,-18423.945,-26262.45,-6050.565,1023.795
1764763590.9788127,-246.78,-1718.82,-27272.43,-7061.445,-18420.48,-26260.065,-6049.44,1026.9
1764763590.9788127,-248.805,-1720.08,-27273.87,-7062.344999999999,-18422.28,-26262.54,-6050.969999999999,1024.92
1764763591.0260096,-245.79,-1716.165,-27269.19,-7057.44,-18419.49,-26259.165,-6049.17,1028.115
1764763591.0260096,-245.655,-1715.6699999999998,-27268.515,-7056.719999999999,-18418.905,-26258.94,-6048.719999999999,1027.98
1764763591.0260096,-247.635,-1717.74,-27270.675,-7059.24,-18420.615,-26262.045,-6050.07,1025.685
1764763591.0260096,-241.92,-1712.4299999999998,-27264.78,-7052.67,-18414.225,-26255.655,-6045.12,1031.535
1764763591.0260096,-241.2,-1711.53,-27263.52,-7051.995,-18412.695,-26254.8,-6044.04,1031.49
1764763591.0260096,-245.745,-1717.38,-27270.405,-7059.554999999999,-18418.545,-26259.255,-6048.179999999999,1026.36
1764763591.0260096,-243.765,-1715.265,-27268.38,-7057.665,-18417.15,-26257.14,-6046.875,1029.285
1764763591.0260096,-242.91,-1714.8149999999998,-27266.85,-7056.27,-18416.43,-26256.78,-6045.929999999999,1029.735
1764763591.0260096,-246.69,-1717.785,-27270.0,-7058.655,-18420.345,-26260.695,-6048.315,1025.955
1764763591.0260096,-245.655,-1716.12,-27268.29,-7057.17,-18419.22,-26260.11,-6048.99,1025.505
1764763591.0270293,-244.62,-1714.455,-27265.815,-7054.92,-18417.06,-26258.76,-6047.28,1025.19
1764763591.0270293,-241.83,-1711.1699999999998,-27262.395,-7051.094999999999,-18413.1,-26255.43,-6044.31,1027.935
1764763591.0270293,-238.32,-1706.8049999999998,-27257.13,-7046.865,-18410.355,-26253.045,-6043.32,1031.085
1764763591.0270293,-241.155,-1711.08,-27261.945,-7052.49,-18414.855,-26256.51,-6045.48,1029.06
1764763591.0270293,-240.885,-1714.185,-27266.58,-7055.955,-18415.395,-26255.745,-6044.895,1030.68
1764763591.0270293,-242.235,-1716.345,-27269.955,-7058.655,-18417.42,-26258.22,-6046.605,1030.185
1764763591.0270293,-243.63,-1716.75,-27269.46,-7058.384999999999,-18418.32,-26259.39,-6047.46,1027.98
1764763591.0270293,-248.22,-1720.395,-27272.34,-7061.13,-18422.145,-26262.27,-6050.34,1023.705
1764763591.0270293,-246.87,-1719.675,-27271.89,-7060.275,-18419.58,-26259.48,-6049.665,1025.91
1764763591.0270293,-248.22,-1720.98,-27273.195,-7061.445,-18420.615,-26260.245,-6048.945,1025.64
1764763591.0270293,-244.26,-1716.03,-27266.85,-7055.505,-18415.665,-26255.79,-6045.84,1029.33
1764763591.0270293,-242.955,-1714.365,-27265.725,-7053.795,-18415.305,-26255.34,-6044.535,1030.77
1764763591.0270293,-242.505,-1714.6799999999998,-27265.905,-7054.2,-18416.385,-26256.105,-6044.219999999999,1030.86
1764763591.028541,-240.705,-1713.87,-27265.23,-7054.245,-18415.98,-26255.565,-6042.599999999999,1032.66
1764763591.0708256,-241.29,-1713.645,-27264.51,-7053.974999999999,-18415.8,-26255.205,-6042.15,1032.075
1764763591.0708256,-242.91,-1714.59,-27265.68,-7054.514999999999,-18417.24,-26257.32,-6043.365,1030.185
1764763591.0708256,-245.52,-1716.84,-27268.065,-7056.764999999999,-18420.255,-26260.875,-6045.12,1026.81
1764763591.0708256,-242.73,-1714.59,-27265.905,-7055.505,-18418.725,-26259.795,-6044.804999999999,1029.06
1764763591.0708256,-238.14,-1709.595,-27260.415,-7050.285,-18414.36,-26255.565,-6042.014999999999,1033.425
1764763591.0708256,-238.59,-1708.83,-27259.65,-7049.52,-18414.405,-26255.52,-6042.33,1033.11
1764763591.0708256,-242.73,-1714.095,-27265.68,-7054.38,-18416.97,-26256.825,-6042.78,1029.87
1764763591.0708256,-241.605,-1714.365,-27266.13,-7053.795,-18415.44,-26254.485,-6042.105,1031.535
1764763591.0708256,-241.83,-1713.96,-27264.915,-7053.48,-18417.33,-26256.645,-6043.094999999999,1030.86
1764763591.0708256,-241.11,-1712.745,-27263.655,-7053.48,-18419.085,-26259.12,-6043.455,1029.825
1764763591.0708256,-237.87,-1707.705,-27258.12,-7048.844999999999,-18414.765,-26256.195,-6041.34,1032.75
1764763591.0708256,-240.93,-1710.09,-27260.145,-7049.969999999999,-18415.575,-26257.365,-6043.275,1029.105
1764763591.0708256,-239.67,-1709.64,-27259.785,-7048.259999999999,-18413.82,-26254.89,-6042.105,1030.77
1764763591.0708256,-244.8,-1716.66,-27267.66,-7056.27,-18418.815,-26258.895,-6044.445,1026.315
1764763591.071355,-244.98,-1717.425,-27269.145,-7057.889999999999,-18419.085,-26258.04,-6045.3,1026.675
1764763591.071355,-247.59,-1721.97,-27274.095,-7062.48,-18423.27,-26261.145,-6046.83,1024.92
1764763591.071355,-247.32,-1721.52,-27275.04,-7065.179999999999,-18426.33,-26263.755,-6048.405,1026.045
1764763591.071355,-244.755,-1717.74,-27270.765,-7060.77,-18423.27,-26261.955,-6046.56,1028.205
1764763591.071355,-247.32,-1719.99,-27272.295,-7061.625,-18425.52,-26264.115,-6047.37,1024.245
1764763591.071355,-246.105,-1717.785,-27269.37,-7058.429999999999,-18422.28,-26261.775,-6045.615,1025.505
1764763591.071355,-243.81,-1714.41,-27265.77,-7055.325,-18419.04,-26258.94,-6043.365,1028.925
1764763591.071355,-248.355,-1719.945,-27271.44,-7061.264999999999,-18423.945,-26263.89,-6046.514999999999,1025.145
1764763591.071355,-249.57,-1721.34,-27273.285,-7063.245,-18424.395,-26264.7,-6047.505,1022.985
1764763591.071355,-248.49,-1720.3049999999998,-27271.98,-7061.445,-18423.0,-26264.16,-6047.505,1022.67
1764763591.116471,-246.78,-1717.155,-27268.47,-7056.855,-18420.705,-26261.505,-6046.469999999999,1024.155
1764763591.116471,-243.765,-1713.5549999999998,-27265.005,-7053.435,-18417.645,-26258.67,-6045.03,1027.08
1764763591.116471,-247.365,-1717.425,-27268.965,-7057.98,-18421.74,-26262.855,-6047.685,1023.93
1764763591.116471,-243.9,-1713.375,-27263.7,-7053.84,-18418.05,-26259.615,-6046.695,1027.305
1764763591.116471,-242.865,-1710.36,-27260.55,-7051.905,-18419.085,-26260.74,-6046.02,1027.53
1764763591.116471,-244.395,-1711.71,-27261.54,-7052.49,-18420.345,-26262.54,-6045.03,1026.135
1764763591.116471,-243.9,-1713.195,-27264.015,-7054.02,-18418.14,-26258.22,-6041.969999999999,1027.395
1764763591.116471,-249.885,-1721.385,-27273.15,-7061.4,-18421.965,-26261.595,-6044.219999999999,1023.48
1764763591.116989,-248.94,-1721.34,-27272.745,-7061.219999999999,-18422.19,-26262.27,-6044.804999999999,1023.75
1764763591.116989,-245.25,-1718.01,-27269.865,-7058.745,-18419.265,-26258.985,-6043.679999999999,1026.36
1764763591.116989,-246.105,-1719.0449999999998,-27271.8,-7060.545,-18422.055,-26260.29,-6044.264999999999,1025.91
1764763591.116989,-247.005,-1719.54,-27272.34,-7062.03,-18424.035,-26263.17,-6045.66,1026.045
1764763591.116989,-248.715,-1721.25,-27274.005,-7063.29,-18424.305,-26263.575,-6046.605,1024.695
1764763591.116989,-252.0,-1723.995,-27277.02,-7066.304999999999,-18428.04,-26266.185,-6049.035,1019.835
1764763591.116989,-251.235,-1721.4299999999998,-27274.68,-7064.505,-18427.545,-26266.14,-6048.99,1019.43
1764763591.116989,-248.265,-1716.705,-27269.64,-7059.87,-18425.07,-26264.52,-6046.92,1022.85
1764763591.116989,-242.685,-1710.72,-27262.17,-7052.31,-18419.4,-26259.3,-6042.78,1028.43
1764763591.116989,-242.235,-1710.855,-27262.395,-7052.94,-18419.445,-26259.66,-6043.32,1028.655
1764763591.116989,-247.365,-1717.38,-27270.945,-7060.094999999999,-18423.0,-26261.595,-6044.76,1025.595
1764763591.116989,-252.135,-1722.24,-27275.895,-7063.65,-18425.79,-26264.295,-6046.56,1021.365
1764763591.116989,-249.795,-1719.0449999999998,-27271.89,-7060.545,-18424.89,-26263.98,-6046.74,1022.085
1764763591.116989,-247.23,-1715.49,-27266.4,-7055.235,-18421.785,-26261.64,-6045.48,1023.48
1764763591.1629164,-245.79,-1713.6899999999998,-27263.745,-7053.255,-18420.48,-26260.695,-6045.525,1024.74
1764763591.1629164,-240.84,-1708.605,-27259.65,-7049.79,-18418.095,-26257.545,-6042.554999999999,1030.185
1764763591.1629164,-243.9,-1713.33,-27266.94,-7056.09,-18422.1,-26260.83,-6043.815,1028.07
1764763591.1629164,-250.065,-1723.5449999999998,-27278.64,-7064.685,-18425.565,-26263.395,-6044.895,1023.93
1764763591.1629164,-247.275,-1720.665,-27275.445,-7060.545,-18420.57,-26258.67,-6042.915,1026.63
1764763591.1629164,-245.7,-1718.01,-27271.665,-7057.755,-18419.49,-26259.075,-6042.87,1026.54
1764763591.1629164,-245.205,-1717.245,-27269.73,-7056.36,-18419.04,-26259.03,-6042.87,1026.9
1764763591.1629164,-245.745,-1718.325,-27269.82,-7057.08,-18419.4,-26258.805,-6042.87,1026.27
1764763591.1629164,-244.62,-1717.83,-27270.27,-7058.969999999999,-18422.145,-26260.515,-6043.139999999999,1026.63
1764763591.1629164,-243.72,-1717.38,-27269.91,-7058.88,-18423.72,-26261.64,-6043.094999999999,1027.35
1764763591.1629164,-244.98,-1718.28,-27270.45,-7059.645,-18423.945,-26262.99,-6044.219999999999,1025.865
1764763591.1629164,-247.185,-1719.3149999999998,-27272.07,-7060.365,-18424.935,-26263.845,-6045.57,1024.335
1764763591.1629164,-250.92,-1722.87,-27276.48,-7065.315,-18430.875,-26269.425,-6048.945,1020.06
1764763591.1629164,-246.6,-1719.9,-27272.34,-7061.04,-18426.915,-26266.095,-6045.57,1023.255
1764763591.1629164,-242.55,-1715.58,-27267.525,-7055.46,-18420.705,-26261.055,-6041.79,1027.62
1764763591.1629164,-246.915,-1719.99,-27271.485,-7058.565,-18423.495,-26263.755,-6043.995,1023.885
1764763591.1629164,-245.655,-1718.82,-27270.045,-7056.54,-18421.83,-26260.92,-6042.465,1025.325
1764763591.1629164,-247.23,-1720.485,-27272.115,-7059.195,-18424.845,-26263.35,-6043.32,1023.48
1764763591.1629164,-246.555,-1719.27,-27270.72,-7058.925,-18424.98,-26263.62,-6042.24,1025.28
1764763591.1629164,-243.72,-1716.615,-27267.885,-7056.54,-18422.37,-26261.145,-6041.7,1027.845
1764763591.1629164,-244.755,-1717.605,-27269.595,-7058.745,-18423.99,-26262.54,-6043.455,1026.585
1764763591.1629164,-249.75,-1722.87,-27274.635,-7064.054999999999,-18429.93,-26267.85,-6046.92,1021.905
1764763591.1629164,-249.39,-1722.6,-27274.23,-7063.469999999999,-18430.245,-26268.03,-6047.415,1021.545
1764763591.1629164,-244.98,-1717.605,-27269.64,-7058.655,-18425.115,-26263.26,-6043.185,1025.775
1764763591.2124188,-239.805,-1712.97,-27264.015,-7053.21,-18419.625,-26258.355,-6038.685,1030.59
1764763591.2124188,-243.765,-1716.7949999999998,-27268.065,-7056.99,-18423.0,-26262.675,-6042.15,1027.08
1764763591.2124188,-242.325,-1715.04,-27265.68,-7055.145,-18420.66,-26261.37,-6041.565,1028.43
1764763591.2134607,-243.405,-1716.03,-27265.905,-7056.045,-18421.29,-26260.515,-6041.295,1027.53
1764763591.2134607,-242.595,-1715.9399999999998,-27266.085,-7055.594999999999,-18421.065,-26259.48,-6041.295,1027.17
1764763591.2134607,-241.965,-1715.355,-27265.545,-7054.83,-18420.165,-26259.12,-6040.53,1027.395
1764763591.2134607,-244.8,-1717.2,-27268.605,-7057.395,-18422.415,-26261.235,-6042.15,1025.145
1764763591.2134607,-248.58,-1720.485,-27271.845,-7060.5,-18426.15,-26264.79,-6044.04,1021.545
1764763591.2134607,-248.355,-1720.485,-27271.89,-7061.4,-18426.78,-26265.69,-6044.67,1022.085
1764763591.2134607,-246.195,-1718.775,-27269.145,-7059.509999999999,-18424.62,-26264.07,-6043.32,1023.84
1764763591.2134607,-243.405,-1715.6699999999998,-27265.41,-7055.685,-18420.84,-26260.83,-6040.575,1026.405
1764763591.2134607,-244.89,-1718.0549999999998,-27267.525,-7056.675,-18421.605,-26261.055,-6041.655,1024.245
1764763591.2134607,-248.85,-1722.735,-27271.44,-7060.23,-18425.88,-26263.98,-6044.175,1020.375
1764763591.2134607,-249.66,-1722.24,-27271.71,-7060.05,-18426.285,-26264.205,-6045.03,1019.88
1764763591.2134607,-248.985,-1721.025,-27271.08,-7059.915,-18426.105,-26263.98,-6044.804999999999,1020.87
1764763591.2144594,-243.765,-1716.075,-27267.255,-7055.865,-18422.37,-26260.785,-6043.139999999999,1025.325
1764763591.2144594,-245.385,-1717.425,-27268.785,-7057.259999999999,-18423.675,-26263.125,-6044.4,1023.75
1764763591.2144594,-248.4,-1720.53,-27270.72,-7059.96,-18425.97,-26265.6,-6044.94,1020.33
1764763591.2144594,-245.115,-1717.0649999999998,-27267.12,-7056.045,-18422.415,-26262.45,-6043.365,1023.48
1764763591.2144594,-244.305,-1715.715,-27265.815,-7055.46,-18422.505,-26262.72,-6043.094999999999,1024.245
1764763591.2144594,-243.495,-1715.265,-27265.77,-7055.55,-18422.82,-26263.44,-6042.465,1023.48
1764763591.2144594,-247.005,-1719.765,-27269.865,-7058.565,-18425.025,-26265.42,-6044.445,1020.195
1764763591.254584,-245.43,-1719.09,-27268.83,-7056.9,-18423.495,-26262.225,-6042.599999999999,1023.435
1764763591.254584,-248.85,-1722.78,-27273.015,-7061.49,-18429.48,-26266.68,-6044.895,1020.645
1764763591.254584,-248.94,-1722.4199999999998,-27273.69,-7062.57,-18431.235,-26268.21,-6046.65,1020.195
1764763591.254584,-247.095,-1719.945,-27271.62,-7059.195,-18427.455,-26265.555,-6045.389999999999,1020.735
1764763591.254584,-246.015,-1716.165,-27267.345,-7054.83,-18425.655,-26264.655,-6044.355,1021.185
1764763591.254584,-244.89,-1713.6899999999998,-27263.475,-7051.679999999999,-18424.26,-26264.16,-6043.905,1021.905
1764763591.254584,-242.865,-1711.1699999999998,-27260.865,-7049.115,-18422.82,-26264.25,-6043.635,1022.895
1764763591.254584,-238.77,-1707.84,-27257.895,-7047.315,-18420.795,-26261.775,-6040.08,1026.63
1764763591.254584,-237.33,-1708.515,-27259.515,-7048.62,-18418.815,-26258.94,-6038.37,1030.455
1764763591.254584,-244.44,-1720.89,-27273.915,-7061.219999999999,-18426.69,-26262.765,-6041.655,1025.865
1764763591.254584,-251.19,-1729.53,-27282.78,-7069.05,-18432.27,-26267.715,-6044.895,1019.43
1764763591.254584,-249.525,-1726.38,-27278.1,-7064.415,-18429.21,-26266.68,-6043.86,1020.78
1764763591.254584,-243.63,-1719.09,-27270.855,-7057.17,-18422.46,-26260.065,-6039.315,1026.81
1764763591.254584,-243.765,-1719.27,-27272.88,-7059.24,-18424.305,-26260.515,-6039.54,1026.945
1764763591.2556214,-246.24,-1721.34,-27275.13,-7060.59,-18426.105,-26261.73,-6041.25,1024.56
1764763591.2556214,-247.95,-1721.385,-27274.905,-7060.77,-18426.33,-26262.495,-6041.16,1022.895
1764763591.2556214,-245.43,-1718.235,-27271.71,-7057.395,-18424.17,-26260.83,-6040.17,1024.47
1764763591.2556214,-245.835,-1719.45,-27272.34,-7058.565,-18425.88,-26263.08,-6040.53,1022.805
1764763591.2556214,-241.155,-1715.9399999999998,-27269.19,-7056.09,-18424.755,-26262.18,-6038.145,1026.945
1764763591.2556214,-243.945,-1718.325,-27270.675,-7058.969999999999,-18427.365,-26264.34,-6039.585,1024.47
1764763591.2556214,-243.54,-1717.695,-27269.37,-7057.62,-18425.25,-26262.72,-6038.73,1025.46
1764763591.2556214,-238.14,-1713.015,-27264.465,-7051.634999999999,-18419.04,-26256.825,-6035.085,1030.995
1764763591.2556214,-239.04,-1714.275,-27265.86,-7052.445,-18419.76,-26257.545,-6035.13,1029.78
1764763591.2556214,-242.82,-1718.505,-27269.055,-7055.955,-18423.855,-26261.595,-6038.01,1026.09
1764763591.302054,-239.85,-1715.265,-27264.87,-7052.04,-18421.065,-26258.175,-6036.165,1029.465
1764763591.302054,-239.22,-1714.365,-27264.015,-7051.995,-18421.29,-26258.355,-6035.445,1030.41
1764763591.302054,-242.46,-1717.02,-27267.795,-7054.83,-18424.125,-26261.595,-6037.74,1027.215
1764763591.302054,-239.355,-1714.41,-27264.195,-7051.455,-18420.435,-26258.715,-6035.355,1030.365
1764763591.302054,-239.895,-1715.355,-27264.645,-7051.545,-18421.02,-26258.985,-6035.715,1029.555
1764763591.302054,-244.305,-1720.845,-27269.37,-7056.63,-18427.005,-26264.655,-6039.045,1024.11
1764763591.302054,-243.225,-1720.26,-27268.695,-7056.495,-18426.6,-26264.16,-6038.054999999999,1025.19
1764763591.302583,-238.545,-1714.95,-27264.33,-7050.554999999999,-18420.705,-26257.365,-6034.23,1031.13
1764763591.302583,-238.275,-1714.995,-27264.645,-7050.24,-18421.11,-26257.23,-6033.915,1031.58
1764763591.302583,-238.995,-1713.915,-27264.15,-7050.285,-18421.335,-26258.04,-6034.139999999999,1030.545
1764763591.302583,-238.23,-1712.2949999999998,-27262.305,-7048.53,-18420.075,-26257.365,-6033.33,1031.085
1764763591.302583,-239.58,-1712.88,-27261.225,-7047.945,-18419.355,-26258.4,-6032.655,1029.645
1764763591.302583,-239.985,-1712.34,-27259.47,-7045.695,-18418.14,-26257.545,-6032.25,1028.475
1764763591.302583,-237.6,-1710.0449999999998,-27256.14,-7042.815,-18414.855,-26253.585,-6030.27,1031.04
1764763591.302583,-234.18,-1706.715,-27254.745,-7040.34,-18411.975,-26249.625,-6028.2,1035.225
1764763591.302583,-237.69,-1713.195,-27261.9,-7047.81,-18417.555,-26253.945,-6031.575,1032.255
1764763591.302583,-243.72,-1719.09,-27269.28,-7056.179999999999,-18425.295,-26261.415,-6035.355,1027.125
1764763591.302583,-244.62,-1719.99,-27271.935,-7059.24,-18427.905,-26263.755,-6037.65,1025.55
1764763591.302583,-244.845,-1721.205,-27273.195,-7059.915,-18428.715,-26263.98,-6039.27,1024.56
1764763591.302583,-239.67,-1715.715,-27267.165,-7054.245,-18423.99,-26259.975,-6035.625,1029.285
1764763591.302583,-237.6,-1711.4399999999998,-27261.495,-7049.384999999999,-18420.975,-26257.905,-6033.33,1030.905
1764763591.302583,-240.705,-1712.7,-27260.19,-7049.16,-18423.045,-26261.1,-6034.905,1026.99
1764763591.302583,-238.59,-1707.66,-27254.34,-7042.86,-18419.085,-26258.445,-6033.42,1028.34
1764763591.302583,-231.03,-1699.56,-27245.115,-7033.679999999999,-18410.895,-26251.65,-6027.75,1034.235
1764763591.3488815,-232.74,-1702.62,-27250.29,-7037.594999999999,-18411.84,-26252.415,-6027.929999999999,1033.605
1764763591.3488815,-242.1,-1715.04,-27265.23,-7051.815,-18421.245,-26260.65,-6034.005,1026.45
1764763591.3488815,-242.73,-1716.12,-27268.11,-7056.134999999999,-18426.555,-26264.025,-6036.03,1025.82
1764763591.3488815,-239.04,-1713.33,-27265.68,-7053.84,-18424.845,-26261.145,-6034.139999999999,1029.51
1764763591.3488815,-243.945,-1720.1699999999998,-27273.195,-7059.645,-18427.32,-26261.82,-6035.715,1026.27
1764763591.3488815,-247.86,-1724.175,-27278.235,-7063.425,-18428.805,-26262.765,-6037.245,1025.055
1764763591.3493893,-248.85,-1724.13,-27278.145,-7063.74,-18430.155,-26265.69,-6039.45,1023.435
1764763591.3493893,-251.82,-1728.405,-27281.745,-7067.429999999999,-18434.43,-26270.505,-6041.745,1020.105
1764763591.3493893,-251.64,-1728.765,-27280.89,-7066.665,-18434.34,-26270.73,-6041.88,1019.61
1764763591.3493893,-247.77,-1725.21,-27276.12,-7062.165,-18430.02,-26266.23,-6037.785,1023.21
1764763591.3493893,-242.145,-1718.28,-27268.695,-7055.099999999999,-18423.45,-26259.795,-6033.24,1028.79
1764763591.3493893,-243.135,-1718.415,-27268.83,-7054.38,-18423.315,-26259.615,-6033.915,1027.53
1764763591.3493893,-242.82,-1717.875,-27268.47,-7053.66,-18423.405,-26259.57,-6033.69,1027.26
1764763591.3493893,-242.595,-1717.74,-27268.2,-7054.11,-18423.765,-26259.525,-6033.69,1027.485
1764763591.3493893,-244.17,-1718.955,-27270.045,-7056.0,-18425.655,-26261.37,-6035.219999999999,1025.955
1764763591.3493893,-247.95,-1722.285,-27274.05,-7060.365,-18430.425,-26265.195,-6037.965,1022.13
1764763591.3493893,-246.915,-1721.07,-27273.69,-7059.87,-18430.245,-26266.005,-6038.099999999999,1023.39
1764763591.3493893,-243.405,-1716.9299999999998,-27269.415,-7056.134999999999,-18428.265,-26263.935,-6037.065,1027.26
1764763591.3493893,-244.035,-1718.0549999999998,-27270.0,-7056.315,-18428.805,-26264.655,-6038.145,1026.36
1764763591.3493893,-242.19,-1715.445,-27266.265,-7051.815,-18425.475,-26262.18,-6036.03,1028.07
1764763591.3493893,-241.11,-1712.835,-27262.755,-7049.295,-18423.36,-26261.055,-6034.139999999999,1029.105
1764763591.3493893,-242.505,-1714.14,-27263.925,-7050.195,-18424.485,-26262.18,-6035.264999999999,1027.17
1764763591.395703,-245.745,-1718.595,-27268.515,-7055.009999999999,-18428.355,-26265.42,-6036.525,1023.21
1764763591.395703,-243.315,-1717.56,-27268.29,-7054.695,-18427.005,-26262.72,-6034.545,1026.585
1764763591.395703,-246.06,-1721.205,-27272.295,-7058.384999999999,-18429.705,-26263.98,-6036.389999999999,1025.055
1764763591.395703,-248.985,-1724.445,-27276.03,-7062.21,-18433.845,-26267.535,-6038.639999999999,1021.59
1764763591.395703,-247.23,-1721.4299999999998,-27273.51,-7060.005,-18433.53,-26267.805,-6038.91,1022.58
1764763591.395703,-241.695,-1715.13,-27266.895,-7053.165,-18427.995,-26262.45,-6034.995,1028.07
1764763591.395703,-240.615,-1713.105,-27264.6,-7051.005,-18426.06,-26261.685,-6033.87,1028.295
1764763591.395703,-240.255,-1712.835,-27264.015,-7050.69,-18425.025,-26261.19,-6032.88,1029.06
1764763591.395703,-240.795,-1713.78,-27264.69,-7050.78,-18425.295,-26261.28,-6032.79,1029.06
1764763591.395703,-242.055,-1716.345,-27266.805,-7052.4,-18426.285,-26262.18,-6033.915,1027.845
1764763591.395703,-243.495,-1719.09,-27270.855,-7056.224999999999,-18428.22,-26263.53,-6034.679999999999,1027.035
1764763591.395703,-246.87,-1722.06,-27273.465,-7059.96,-18432.45,-26267.355,-6037.02,1022.805
1764763591.395703,-246.06,-1720.575,-27271.26,-7057.665,-18430.875,-26266.545,-6036.344999999999,1023.12
1764763591.395703,-244.215,-1719.0449999999998,-27269.235,-7054.785,-18428.85,-26264.565,-6034.815,1024.785
1764763591.395703,-242.28,-1715.715,-27266.22,-7051.679999999999,-18426.195,-26262.315,-6033.78,1027.62
1764763591.395703,-243.405,-1717.875,-27267.795,-7053.389999999999,-18428.445,-26265.465,-6034.815,1026.045
1764763591.395703,-243.81,-1718.865,-27268.965,-7054.785,-18428.265,-26265.78,-6035.49,1026.72
1764763591.395703,-248.85,-1725.03,-27276.93,-7062.075,-18432.9,-26269.2,-6037.065,1023.12
1764763591.395703,-246.465,-1723.77,-27276.3,-7060.905,-18431.955,-26267.985,-6035.04,1025.73
1764763591.395703,-245.97,-1721.97,-27275.94,-7061.085,-18434.295,-26270.055,-6036.344999999999,1024.92
1764763591.395703,-245.295,-1720.395,-27274.32,-7059.599999999999,-18432.945,-26268.615,-6036.435,1025.01
1764763591.395703,-245.025,-1719.855,-27271.89,-7057.8,-18432.27,-26267.49,-6036.389999999999,1024.785
1764763591.3967247,-245.475,-1720.575,-27271.395,-7056.675,-18431.415,-26267.715,-6036.389999999999,1024.65
1764763591.3967247,-247.185,-1723.095,-27273.96,-7058.565,-18432.63,-26268.21,-6036.255,1023.57
1764763591.444355,-244.53,-1720.89,-27272.295,-7056.81,-18428.715,-26263.89,-6033.78,1026.63
1764763591.444355,-244.8,-1719.495,-27271.755,-7055.685,-18427.995,-26263.035,-6033.825,1026.72
1764763591.444355,-244.395,-1719.0,-27269.865,-7053.974999999999,-18428.04,-26263.62,-6034.005,1026.315
1764763591.4453738,-243.27,-1718.64,-27268.605,-7053.12,-18427.23,-26263.98,-6033.78,1026.225
1764763591.4453738,-243.63,-1718.325,-27268.425,-7053.84,-18427.905,-26264.745,-6033.645,1025.91
1764763591.4453738,-245.88,-1720.08,-27271.08,-7056.495,-18431.145,-26267.04,-6035.264999999999,1023.57
1764763591.4453738,-242.55,-1717.29,-27268.605,-7053.48,-18428.22,-26264.25,-6034.094999999999,1027.305
1764763591.4453738,-244.08,-1720.035,-27271.44,-7055.37,-18428.715,-26264.385,-6034.139999999999,1026.495
1764763591.4453738,-248.445,-1725.12,-27275.895,-7059.69,-18433.215,-26267.67,-6035.895,1021.725
1764763591.4453738,-245.52,-1720.935,-27270.72,-7054.56,-18430.02,-26265.06,-6033.42,1023.795
1764763591.4453738,-243.0,-1718.505,-27267.84,-7051.634999999999,-18427.86,-26264.115,-6032.025,1025.415
1764763591.4453738,-240.93,-1716.075,-27265.23,-7048.755,-18425.88,-26261.73,-6030.09,1027.17
1764763591.4467726,-242.055,-1718.1899999999998,-27268.155,-7051.365,-18427.23,-26262.315,-6031.349999999999,1026.495
1764763591.4467726,-240.39,-1718.37,-27269.73,-7053.075,-18426.015,-26260.605,-6030.764999999999,1028.385
1764763591.4467726,-241.605,-1720.98,-27271.62,-7054.785,-18426.285,-26261.1,-6029.955,1027.665
1764763591.4467726,-245.79,-1723.995,-27273.78,-7057.44,-18430.335,-26265.645,-6032.969999999999,1023.3
1764763591.4467726,-245.295,-1721.745,-27273.015,-7057.08,-18431.415,-26266.185,-6034.275,1023.435
1764763591.4473903,-242.64,-1718.82,-27269.19,-7053.255,-18428.04,-26262.945,-6032.88,1026.135
1764763591.4473903,-245.565,-1720.71,-27270.765,-7054.065,-18429.705,-26265.06,-6033.915,1022.175
1764763591.4473903,-243.225,-1718.37,-27267.57,-7049.745,-18426.195,-26262.045,-6031.349999999999,1023.21
1764763591.4473903,-241.29,-1716.165,-27265.365,-7047.045,-18423.99,-26260.38,-6030.54,1025.505
1764763591.4473903,-237.51,-1713.195,-27262.26,-7045.38,-18422.505,-26258.445,-6029.775,1029.105
1764763591.4473903,-244.17,-1720.935,-27270.675,-7054.155,-18429.165,-26263.755,-6032.34,1024.11
1764763591.4477818,-245.655,-1722.375,-27272.655,-7055.73,-18429.435,-26263.935,-6031.98,1023.66
1764763591.49084,-241.38,-1716.7949999999998,-27268.065,-7051.094999999999,-18425.97,-26261.37,-6030.63,1027.395
1764763591.49084,-238.23,-1714.185,-27266.49,-7052.31,-18429.075,-26265.15,-6031.17,1029.015
1764763591.49084,-241.11,-1715.895,-27267.03,-7053.3,-18430.38,-26267.445,-6031.8,1025.415
1764763591.49084,-243.18,-1716.705,-27264.78,-7050.599999999999,-18428.67,-26266.59,-6032.34,1023.84
1764763591.49084,-244.845,-1719.72,-27269.19,-7054.29,-18430.65,-26266.365,-6033.105,1023.345
1764763591.49084,-244.98,-1722.15,-27274.545,-7058.7,-18431.865,-26264.61,-6034.455,1024.695
1764763591.49084,-248.445,-1727.505,-27282.105,-7066.215,-18438.345,-26269.38,-6036.615,1021.68
1764763591.49084,-248.445,-1727.1899999999998,-27281.115,-7065.224999999999,-18438.84,-26270.055,-6036.389999999999,1021.095
1764763591.49084,-244.53,-1721.745,-27274.635,-7058.969999999999,-18434.52,-26267.265,-6033.645,1024.56
1764763591.49084,-243.99,-1720.53,-27273.645,-7057.665,-18435.015,-26268.93,-6033.825,1023.03
1764763591.49084,-240.93,-1717.515,-27269.28,-7053.165,-18431.01,-26264.97,-6031.44,1026.63
1764763591.49084,-241.875,-1719.0449999999998,-27270.63,-7055.054999999999,-18433.575,-26266.77,-6033.195,1026.27
1764763591.49084,-242.055,-1720.035,-27272.61,-7058.115,-18433.62,-26266.77,-6032.79,1026.045
1764763591.49084,-241.245,-1719.855,-27271.35,-7055.82,-18431.37,-26264.925,-6031.575,1025.865
1764763591.49084,-245.025,-1723.6799999999998,-27274.5,-7058.115,-18433.395,-26267.58,-6034.005,1021.59
1764763591.49084,-246.24,-1725.66,-27276.255,-7059.195,-18433.305,-26267.535,-6034.86,1021.095
1764763591.49084,-244.35,-1723.59,-27274.905,-7057.44,-18431.28,-26265.015,-6033.285,1022.985
1764763591.49084,-247.05,-1726.515,-27277.875,-7061.355,-18436.095,-26268.93,-6034.679999999999,1020.195
1764763591.49084,-246.465,-1725.75,-27277.47,-7060.905,-18436.185,-26269.83,-6035.13,1021.095
1764763591.49084,-243.765,-1721.7,-27272.565,-7056.585,-18433.575,-26268.345,-6033.33,1024.11
1764763591.49084,-239.445,-1715.355,-27265.545,-7050.554999999999,-18429.255,-26264.43,-6030.63,1028.88
1764763591.49084,-238.365,-1714.23,-27263.115,-7048.349999999999,-18427.725,-26263.17,-6030.63,1029.6
1764763591.537601,-239.85,-1716.57,-27265.095,-7049.25,-18427.5,-26262.765,-6030.27,1028.61
1764763591.537601,-243.63,-1722.24,-27272.565,-7055.28,-18429.795,-26264.16,-6031.485,1026.18
1764763591.537601,-244.08,-1723.32,-27274.68,-7057.035,-18430.92,-26264.61,-6031.665,1025.595
1764763591.537601,-242.325,-1719.63,-27270.495,-7053.615,-18430.02,-26265.06,-6031.665,1025.82
1764763591.5381153,-242.1,-1717.515,-27267.48,-7051.139999999999,-18430.605,-26266.815,-6033.24,1024.38
1764763591.5381153,-237.78,-1712.52,-27261.54,-7044.435,-18424.665,-26261.235,-6029.73,1028.025
1764763591.5381153,-242.055,-1717.83,-27267.255,-7049.655,-18427.23,-26262.405,-6030.405,1025.865
1764763591.5381153,-246.825,-1724.535,-27275.625,-7057.935,-18432.855,-26265.195,-6032.025,1022.805
1764763591.5381153,-246.78,-1724.8049999999998,-27276.705,-7058.34,-18431.64,-26264.115,-6032.115,1023.345
1764763591.5381153,-250.065,-1728.855,-27279.045,-7061.085,-18435.24,-26267.13,-6035.264999999999,1019.745
1764763591.5381153,-250.695,-1727.775,-27277.875,-7060.77,-18436.23,-26268.975,-6035.804999999999,1018.71
1764763591.5381153,-249.165,-1726.0649999999998,-27275.895,-7059.375,-18435.105,-26268.48,-6035.355,1019.88
1764763591.5381153,-245.43,-1722.5549999999998,-27272.835,-7057.035,-18435.015,-26267.58,-6034.995,1022.76
1764763591.5381153,-242.19,-1721.16,-27271.845,-7056.315,-18435.375,-26267.49,-6034.32,1024.785
1764763591.5381153,-243.855,-1724.175,-27274.905,-7059.014999999999,-18436.59,-26268.525,-6034.05,1023.795
1764763591.5381153,-246.51,-1727.415,-27277.38,-7061.355,-18439.245,-26270.955,-6034.455,1021.005
1764763591.5381153,-246.87,-1726.0649999999998,-27275.985,-7059.33,-18437.445,-26270.73,-6034.995,1020.285
1764763591.5381153,-244.305,-1722.6,-27272.025,-7055.235,-18433.755,-26267.4,-6032.474999999999,1022.805
1764763591.5381153,-239.67,-1718.46,-27267.255,-7050.42,-18429.165,-26262.765,-6029.054999999999,1027.395
1764763591.5381153,-244.17,-1723.5449999999998,-27272.565,-7055.639999999999,-18434.205,-26267.715,-6032.88,1022.76
1764763591.5381153,-244.71,-1724.445,-27274.095,-7056.764999999999,-18435.015,-26268.48,-6033.33,1022.4
1764763591.5381153,-241.155,-1720.215,-27270.45,-7053.255,-18431.82,-26265.105,-6031.17,1026.99
1764763591.5381153,-239.94,-1719.0449999999998,-27269.1,-7052.715,-18431.235,-26264.295,-6030.27,1027.71
1764763591.5381153,-239.04,-1718.64,-27267.84,-7050.554999999999,-18429.345,-26262.18,-6028.335,1028.115
1764763591.5850532,-240.705,-1720.035,-27269.28,-7052.264999999999,-18431.37,-26264.115,-6029.325,1026.945
1764763591.5850532,-246.69,-1726.65,-27276.3,-7059.599999999999,-18437.895,-26269.965,-6033.285,1021.23
1764763591.5850532,-248.94,-1730.4299999999998,-27280.845,-7063.2,-18439.785,-26271.09,-6035.49,1018.53
1764763591.5850532,-243.54,-1725.03,-27273.87,-7056.99,-18434.43,-26266.725,-6032.205,1023.255
1764763591.5850532,-243.18,-1723.5,-27272.07,-7054.965,-18433.665,-26266.68,-6031.035,1024.65
1764763591.5850532,-245.025,-1725.255,-27274.77,-7056.764999999999,-18436.23,-26269.29,-6032.565,1022.895
1764763591.5850532,-242.28,-1721.925,-27270.945,-7052.804999999999,-18432.405,-26266.095,-6030.495,1025.595
1764763591.5850532,-245.88,-1725.39,-27274.32,-7055.505,-18434.295,-26268.795,-6031.98,1021.995
1764763591.5850532,-246.24,-1725.48,-27273.78,-7055.73,-18434.295,-26268.615,-6031.889999999999,1021.59
1764763591.5850532,-243.9,-1721.925,-27269.37,-7051.995,-18432.225,-26266.68,-6030.179999999999,1023.795
1764763591.5850532,-240.57,-1717.515,-27265.05,-7047.27,-18428.445,-26262.54,-6027.929999999999,1026.315
1764763591.5850532,-242.64,-1718.955,-27266.175,-7048.395,-18430.155,-26265.24,-6029.19,1023.48
1764763591.5850532,-240.66,-1717.695,-27265.59,-7047.495,-18429.48,-26264.07,-6028.514999999999,1025.28
1764763591.5850532,-237.78,-1716.9299999999998,-27266.535,-7047.405,-18427.095,-26260.695,-6026.355,1028.61
1764763591.5850532,-240.975,-1721.07,-27270.72,-7050.645,-18428.985,-26262.675,-6027.48,1026.72
1764763591.586075,-243.27,-1722.51,-27270.9,-7051.32,-18431.28,-26264.745,-6029.054999999999,1024.2
1764763591.586075,-243.945,-1723.365,-27270.72,-7052.445,-18432.0,-26265.69,-6030.224999999999,1023.03
1764763591.586075,-243.9,-1723.365,-27272.52,-7054.695,-18434.43,-26267.49,-6031.08,1023.57
1764763591.586075,-244.08,-1725.03,-27276.165,-7057.259999999999,-18436.725,-26268.57,-6031.26,1023.12
1764763591.586075,-243.045,-1723.95,-27275.22,-7055.639999999999,-18434.745,-26267.31,-6029.955,1023.885
1764763591.586075,-242.01,-1721.07,-27271.305,-7051.995,-18432.18,-26264.88,-6028.469999999999,1024.47
1764763591.586075,-242.19,-1719.945,-27268.74,-7049.52,-18429.615,-26264.655,-6028.02,1023.795
1764763591.586075,-238.995,-1717.155,-27265.86,-7046.685,-18427.59,-26263.08,-6026.219999999999,1027.125
1764763591.586075,-241.29,-1719.945,-27269.235,-7049.969999999999,-18430.425,-26265.015,-6026.895,1025.235
1764763591.6295998,-242.865,-1723.365,-27273.645,-7054.155,-18430.965,-26264.34,-6028.2,1025.1
1764763591.6295998,-247.77,-1729.395,-27280.62,-7060.275,-18436.95,-26269.38,-6032.385,1020.555
1764763591.6295998,-245.115,-1726.83,-27277.515,-7057.844999999999,-18436.905,-26268.705,-6031.935,1021.995
1764763591.6295998,-247.95,-1728.855,-27279.09,-7058.969999999999,-18439.29,-26270.505,-6033.465,1019.295
1764763591.6295998,-248.13,-1727.145,-27278.37,-7057.844999999999,-18439.02,-26270.235,-6033.51,1019.565
1764763591.6295998,-247.545,-1726.56,-27277.695,-7057.44,-18438.615,-26270.055,-6032.565,1019.835
1764763591.6295998,-248.49,-1728.09,-27279.54,-7059.915,-18439.695,-26271.405,-6033.465,1018.755
1764763591.6295998,-247.095,-1726.785,-27278.73,-7058.79,-18438.39,-26270.145,-6032.565,1019.88
1764763591.6295998,-246.015,-1725.9299999999998,-27277.38,-7058.565,-18437.985,-26269.335,-6031.844999999999,1020.285
1764763591.6295998,-244.215,-1725.255,-27277.155,-7057.935,-18436.59,-26267.76,-6030.54,1022.67
1764763591.6295998,-243.36,-1725.165,-27277.29,-7057.349999999999,-18437.04,-26267.94,-6029.73,1023.705
1764763591.6301243,-244.89,-1725.48,-27276.795,-7057.44,-18438.03,-26269.83,-6031.575,1021.185
1764763591.6301243,-248.265,-1727.505,-27278.865,-7059.735,-18440.415,-26273.16,-6033.465,1017.81
1764763591.6301243,-248.085,-1726.695,-27276.84,-7058.88,-18439.785,-26272.89,-6033.78,1017.63
1764763591.6301243,-245.115,-1723.32,-27273.24,-7054.2,-18435.915,-26268.84,-6032.295,1020.195
1764763591.6301243,-245.34,-1725.255,-27274.545,-7055.325,-18436.185,-26268.93,-6032.88,1019.7
1764763591.6301243,-246.915,-1727.37,-27275.715,-7056.54,-18437.445,-26270.955,-6033.06,1017.945
1764763591.6301243,-243.045,-1722.24,-27270.63,-7051.365,-18433.62,-26266.995,-6029.73,1022.175
1764763591.6301243,-246.915,-1726.47,-27276.525,-7057.8,-18439.695,-26272.665,-6032.52,1019.205
1764763591.6301243,-248.31,-1730.655,-27282.015,-7062.525,-18441.72,-26273.205,-6031.755,1019.61
1764763591.6301243,-245.52,-1728.495,-27280.08,-7060.094999999999,-18439.245,-26270.01,-6030.315,1022.895
1764763591.6301243,-245.34,-1727.28,-27277.29,-7058.07,-18439.65,-26271.855,-6031.844999999999,1020.735
1764763591.675965,-247.275,-1728.09,-27277.29,-7057.889999999999,-18440.595,-26273.565,-6032.655,1017.99
1764763591.676478,-245.655,-1725.525,-27274.725,-7055.28,-18438.795,-26271.9,-6031.215,1019.835
1764763591.676478,-244.215,-1725.165,-27274.095,-7054.605,-18438.12,-26270.055,-6029.505,1021.23
1764763591.676478,-247.725,-1728.945,-27278.91,-7057.98,-18440.865,-26272.44,-6030.9,1018.98
1764763591.676478,-243.405,-1723.8149999999998,-27274.365,-7052.58,-18434.655,-26266.68,-6027.03,1024.47
1764763591.676478,-242.055,-1722.825,-27271.89,-7051.005,-18432.54,-26265.33,-6026.175,1025.19
1764763591.676478,-240.705,-1720.53,-27269.235,-7048.304999999999,-18431.73,-26265.42,-6027.075,1024.605
1764763591.676478,-239.715,-1718.64,-27265.545,-7044.705,-18429.84,-26265.015,-6026.58,1025.37
1764763591.676478,-240.21,-1718.955,-27265.455,-7045.65,-18431.1,-26265.465,-6026.715,1024.695
1764763591.676478,-246.645,-1727.415,-27277.74,-7057.17,-18440.01,-26271.0,-6030.63,1020.195
1764763591.676478,-252.9,-1735.47,-27287.595,-7065.764999999999,-18446.535,-26277.075,-6034.77,1015.02
1764763591.676478,-251.28,-1733.9399999999998,-27284.895,-7063.02,-18444.015,-26275.77,-6034.094999999999,1015.83
1764763591.676478,-245.115,-1727.28,-27276.975,-7056.0,-18437.715,-26270.505,-6030.63,1020.555
1764763591.676478,-244.62,-1726.02,-27275.175,-7054.38,-18436.455,-26268.165,-6028.514999999999,1021.68
1764763591.676478,-246.555,-1729.08,-27279.045,-7057.755,-18439.02,-26270.955,-6029.235,1019.835
1764763591.676478,-244.08,-1726.785,-27275.805,-7054.695,-18437.67,-26269.785,-6027.84,1022.13
1764763591.676478,-246.015,-1728.1799999999998,-27277.11,-7056.495,-18440.01,-26272.26,-6030.135,1019.97
1764763591.676478,-241.02,-1723.14,-27272.565,-7051.545,-18435.69,-26268.12,-6027.57,1024.335
1764763591.676478,-240.12,-1722.6899999999998,-27272.7,-7050.825,-18434.745,-26267.445,-6025.77,1024.695
1764763591.676478,-246.33,-1728.63,-27278.325,-7056.179999999999,-18440.325,-26272.53,-6029.505,1019.61
1764763591.676478,-245.34,-1726.74,-27277.02,-7055.235,-18438.975,-26271.54,-6029.415,1020.87
1764763591.676478,-242.01,-1723.005,-27272.745,-7051.545,-18435.42,-26267.94,-6027.389999999999,1023.885
1764763591.6769872,-244.08,-1723.905,-27273.195,-7052.445,-18436.59,-26269.155,-6028.785,1021.545
1764763591.6769872,-247.14,-1727.1,-27277.38,-7055.82,-18439.92,-26271.315,-6030.405,1018.845
1764763591.7237875,-248.49,-1729.215,-27280.62,-7057.349999999999,-18441.9,-26272.665,-6031.08,1017.63
1764763591.7237875,-246.645,-1727.82,-27278.955,-7056.045,-18440.505,-26271.315,-6030.45,1018.755
1764763591.7237875,-242.055,-1722.465,-27273.06,-7050.735,-18435.87,-26267.805,-6027.66,1021.185
1764763591.7237875,-241.875,-1721.97,-27271.755,-7050.15,-18435.87,-26269.02,-6027.57,1020.555
1764763591.7733142,-239.04,-1718.1899999999998,-27267.3,-7046.145,-18432.765,-26266.545,-6025.32,1024.065
1764763591.7733142,-243.495,-1723.95,-27273.24,-7051.455,-18437.805,-26271.495,-6029.19,1020.105
1764763591.7733142,-246.24,-1727.775,-27278.73,-7056.09,-18441.135,-26272.485,-6030.135,1019.295
1764763591.7733142,-248.22,-1731.6,-27283.14,-7060.724999999999,-18444.15,-26273.07,-6029.91,1018.305
1764763591.7733142,-248.13,-1731.51,-27283.59,-7060.005,-18443.61,-26273.07,-6030.495,1018.26
1764763591.7733142,-245.295,-1728.63,-27279.63,-7055.37,-18439.92,-26270.595,-6028.605,1020.33
1764763591.7733142,-240.795,-1723.77,-27274.32,-7049.835,-18434.835,-26266.32,-6025.5,1024.74
1764763591.7733142,-240.93,-1723.365,-27274.725,-7050.78,-18435.6,-26268.165,-6026.085,1024.02
1764763591.7733142,-241.29,-1723.6799999999998,-27275.085,-7050.33,-18436.455,-26268.3,-6026.355,1024.56
1764763591.7733142,-241.02,-1722.87,-27274.41,-7049.7,-18435.69,-26267.355,-6025.905,1026.0
1764763591.7733142,-240.345,-1723.455,-27274.23,-7049.565,-18436.005,-26267.985,-6025.815,1025.505
1764763591.7733142,-243.765,-1726.515,-27276.75,-7052.4,-18438.255,-26270.955,-6028.245,1022.085
1764763591.7733142,-246.285,-1728.0449999999998,-27278.64,-7055.054999999999,-18441.045,-26273.205,-6028.785,1018.98
1764763591.7733142,-244.8,-1726.9199999999998,-27278.145,-7053.255,-18440.37,-26271.81,-6027.705,1020.24
1764763591.773823,-241.92,-1724.22,-27275.445,-7050.554999999999,-18437.67,-26268.705,-6026.804999999999,1023.435
1764763591.773823,-241.11,-1723.59,-27274.68,-7050.69,-18436.815,-26267.94,-6025.679999999999,1023.615
1764763591.773823,-244.395,-1726.785,-27276.795,-7052.895,-18439.38,-26271.36,-6027.344999999999,1020.375
1764763591.773823,-242.82,-1726.11,-27275.985,-7051.545,-18438.84,-26270.145,-6025.59,1021.32
1764763591.773823,-239.805,-1723.095,-27272.925,-7048.844999999999,-18436.275,-26267.355,-6023.34,1024.605
1764763591.773823,-236.115,-1718.46,-27268.065,-7044.48,-18431.19,-26263.215,-6020.145,1029.015
1764763591.773823,-234.63,-1717.47,-27267.57,-7043.04,-18429.66,-26262.27,-6018.12,1030.86
1764763591.773823,-237.375,-1720.1699999999998,-27270.495,-7045.56,-18431.64,-26264.655,-6019.74,1028.07
1764763591.773823,-231.705,-1714.5449999999998,-27264.825,-7039.575,-18425.61,-26257.995,-6014.25,1033.92
1764763591.773823,-234.27,-1716.57,-27267.03,-7041.33,-18428.22,-26260.155,-6016.59,1031.58
1764763591.773823,-235.98,-1718.82,-27269.685,-7043.804999999999,-18430.515,-26262.855,-6019.425,1029.24
1764763591.773823,-235.44,-1717.965,-27268.875,-7043.31,-18430.11,-26262.18,-6019.02,1029.69
1764763591.773823,-237.6,-1718.775,-27270.09,-7044.974999999999,-18431.505,-26264.115,-6020.46,1028.07
1764763591.773823,-238.77,-1720.98,-27271.89,-7047.63,-18433.935,-26266.815,-6023.115,1026.405
1764763591.773823,-241.155,-1723.86,-27273.645,-7049.79,-18436.5,-26269.605,-6024.645,1024.335
1764763591.773823,-244.035,-1726.245,-27276.165,-7051.32,-18438.84,-26271.675,-6024.915,1022.445
1764763591.773823,-241.695,-1723.6799999999998,-27273.915,-7048.53,-18436.815,-26268.84,-6023.565,1024.56
1764763591.773823,-244.845,-1726.9199999999998,-27277.56,-7051.815,-18439.92,-26271.99,-6025.77,1021.32
1764763591.773823,-241.335,-1723.59,-27274.545,-7048.62,-18436.095,-26268.3,-6023.115,1024.65
1764763591.773823,-240.795,-1722.465,-27273.6,-7047.405,-18435.195,-26267.67,-6022.889999999999,1025.01
1764763591.773823,-241.065,-1723.32,-27273.96,-7048.935,-18435.915,-26267.715,-6023.88,1024.335
1764763591.773823,-242.91,-1724.6699999999998,-27275.49,-7050.33,-18437.805,-26268.75,-6025.005,1023.075
1764763591.773823,-246.195,-1727.415,-27279.99,-7053.974999999999,-18441.63,-26272.98,-6026.985,1019.16
1764763591.773823,-243.945,-1725.03,-27277.29,-7051.32,-18438.84,-26270.865,-6024.645,1021.275
1764763591.773823,-240.39,-1721.655,-27273.33,-7047.315,-18435.195,-26266.77,-6021.99,1025.145
1764763591.773823,-240.93,-1722.015,-27273.33,-7047.719999999999,-18436.095,-26267.85,-6021.945,1023.345
1764763591.773823,-239.535,-1719.675,-27270.315,-7045.065,-18433.53,-26265.915,-6021.179999999999,1025.01
1764763591.773823,-243.27,-1723.995,-27273.915,-7048.08,-18435.78,-26268.03,-6023.565,1021.275
1764763591.773823,-242.235,-1723.365,-27273.33,-7046.37,-18433.035,-26265.645,-6022.53,1022.76
1764763591.773823,-244.395,-1725.48,-27276.165,-7048.844999999999,-18435.465,-26267.49,-6023.88,1021.275
1764763591.8177917,-242.37,-1722.735,-27273.735,-7046.955,-18434.745,-26265.645,-6023.07,1022.265
1764763591.8177917,-244.305,-1724.445,-27275.085,-7047.99,-18435.6,-26267.265,-6023.025,1019.655
1764763591.8177917,-243.72,-1725.165,-27274.455,-7047.764999999999,-18433.89,-26266.32,-6022.304999999999,1020.285
1764763591.8177917,-244.665,-1726.245,-27277.695,-7051.59,-18437.94,-26269.92,-6024.42,1020.015
1764763591.8177917,-243.945,-1725.615,-27278.685,-7054.38,-18441.63,-26272.8,-6025.545,1020.645
1764763591.8177917,-240.84,-1722.6899999999998,-27276.39,-7053.255,-18441.045,-26272.035,-6023.52,1024.155
1764763591.8177917,-237.555,-1719.765,-27272.97,-7049.565,-18437.04,-26269.515,-6021.27,1027.08
1764763591.8177917,-240.75,-1722.5549999999998,-27274.275,-7049.969999999999,-18437.22,-26270.55,-6023.34,1023.435
1764763591.8177917,-237.78,-1718.865,-27269.145,-7043.445,-18431.82,-26263.71,-6019.965,1026.495
1764763591.8177917,-240.48,-1721.4299999999998,-27270.675,-7044.57,-18432.585,-26264.43,-6020.505,1023.12
1764763591.8177917,-239.265,-1720.4399999999998,-27270.0,-7043.49,-18431.055,-26263.44,-6020.235,1024.11
1764763591.8177917,-236.475,-1717.83,-27268.605,-7039.665,-18427.095,-26260.155,-6017.49,1028.115
1764763591.8177917,-238.725,-1720.1699999999998,-27271.62,-7043.67,-18431.055,-26263.305,-6019.02,1025.64
1764763591.8177917,-243.72,-1725.9299999999998,-27278.1,-7051.634999999999,-18439.065,-26270.1,-6023.34,1021.455
1764763591.8177917,-242.28,-1724.265,-27277.515,-7050.78,-18438.66,-26269.875,-6023.565,1023.795
1764763591.8177917,-242.595,-1725.12,-27277.695,-7050.78,-18437.715,-26269.605,-6022.665,1022.265
1764763591.8177917,-240.795,-1723.32,-27274.23,-7047.585,-18433.89,-26266.59,-6020.415,1023.3
1764763591.8177917,-244.62,-1727.37,-27278.415,-7051.995,-18436.815,-26268.615,-6023.61,1019.88
1764763591.8177917,-241.56,-1724.625,-27276.705,-7050.554999999999,-18435.69,-26266.59,-6022.8,1022.805
1764763591.8177917,-240.3,-1723.5449999999998,-27277.74,-7052.715,-18439.965,-26270.19,-6023.295,1023.57
1764763591.8182976,-243.045,-1727.145,-27282.195,-7057.53,-18445.995,-26275.635,-6026.264999999999,1019.97
1764763591.8182976,-241.785,-1725.345,-27279.81,-7054.29,-18441.63,-26271.81,-6025.05,1022.22
1764763591.864838,-241.92,-1724.535,-27277.785,-7052.085,-18439.65,-26270.55,-6024.51,1022.985
1764763591.864838,-241.965,-1723.095,-27276.165,-7049.88,-18437.535,-26268.57,-6022.889999999999,1023.48
1764763591.864838,-241.83,-1724.175,-27276.705,-7050.78,-18438.03,-26269.2,-6021.99,1022.805
1764763591.864838,-237.375,-1719.225,-27272.79,-7046.594999999999,-18435.24,-26266.275,-6019.02,1026.855
1764763591.864838,-238.05,-1719.225,-27273.555,-7046.325,-18436.365,-26267.445,-6019.29,1025.865
1764763591.864838,-243.99,-1725.345,-27279.225,-7052.849999999999,-18442.665,-26273.16,-6024.014999999999,1019.97
1764763591.864838,-245.205,-1726.65,-27280.98,-7054.469999999999,-18444.42,-26274.195,-6025.05,1019.52
1764763591.864838,-241.83,-1723.14,-27278.19,-7051.23,-18441.405,-26271.18,-6023.385,1023.345
1764763591.864838,-241.965,-1723.185,-27277.74,-7050.599999999999,-18440.865,-26271.225,-6022.98,1023.615
1764763591.864838,-244.125,-1726.0649999999998,-27279.99,-7052.804999999999,-18442.665,-26272.845,-6023.52,1020.735
1764763591.864838,-245.43,-1726.02,-27279.81,-7052.4,-18442.035,-26273.43,-6024.105,1019.61
1764763591.864838,-243.135,-1721.745,-27275.985,-7048.575,-18439.065,-26271.63,-6022.844999999999,1022.58
1764763591.864838,-238.77,-1717.605,-27271.395,-7043.94,-18435.105,-26268.12,-6020.82,1026.27
1764763591.864838,-237.06,-1715.355,-27269.1,-7041.195,-18433.26,-26266.365,-6019.335,1027.755
1764763591.864838,-237.24,-1716.345,-27271.305,-7043.31,-18434.88,-26267.805,-6018.75,1026.54
1764763591.864838,-243.315,-1724.9399999999998,-27280.935,-7052.759999999999,-18442.62,-26273.115,-6022.215,1021.185
1764763591.864838,-243.225,-1725.12,-27281.655,-7051.679999999999,-18440.37,-26271.63,-6021.764999999999,1022.67
1764763591.864838,-243.54,-1724.535,-27280.575,-7051.05,-18440.055,-26271.765,-6022.304999999999,1021.275
1764763591.864838,-237.96,-1718.0549999999998,-27271.98,-7043.94,-18436.275,-26268.21,-6020.28,1025.28
1764763591.864838,-236.205,-1714.095,-27265.545,-7038.81,-18433.35,-26266.545,-6018.885,1026.495
1764763591.864838,-232.155,-1709.955,-27260.73,-7033.815,-18429.57,-26263.395,-6017.94,1029.24
1764763591.864838,-237.24,-1715.58,-27268.29,-7041.42,-18436.815,-26270.145,-6021.315,1025.055
1764763591.864838,-238.635,-1718.685,-27272.115,-7045.335,-18439.695,-26271.27,-6022.17,1024.56
1764763591.864838,-242.73,-1724.895,-27279.135,-7052.13,-18442.71,-26273.115,-6023.52,1021.41
1764763591.9114552,-240.345,-1722.015,-27276.39,-7048.575,-18439.155,-26269.695,-6021.855,1023.345
1764763591.9114552,-242.055,-1723.95,-27276.795,-7048.98,-18440.055,-26271.54,-6023.655,1021.095
1764763591.9114552,-246.96,-1730.25,-27284.445,-7055.505,-18444.555,-26274.87,-6026.085,1017.405
1764763591.9114552,-250.38,-1734.03,-27288.945,-7059.69,-18446.85,-26276.04,-6027.885,1014.885
1764763591.9114552,-248.22,-1728.945,-27282.69,-7054.245,-18443.565,-26276.04,-6027.12,1016.64
