Timestamp,Channel1,Channel2,Channel3,Channel4,Channel5,Channel6,Channel7,Channel8
1764763277.7211025,-7838.19,-11604.915,1626.75,-5425.695,-14965.965,-27605.52,-12080.925,-9326.16
1764763277.7211025,-7840.755,-11608.47,1623.285,-5428.889999999999,-14969.52,-27608.985,-12083.715,-9328.905
1764763277.7211025,-7837.38,-11605.14,1626.9299999999998,-5425.38,-14966.055,-27605.43,-12079.665,-9325.395
1764763277.7211025,-7842.465,-11610.225,1621.755,-5430.15,-14970.735,-27610.155,-12084.615,-9330.615
1764763277.7211025,-7843.5,-11610.765,1620.585,-5431.23,-14971.455,-27611.505,-12086.01,-9331.2
1764763277.7211025,-7843.005,-11610.63,1620.36,-5431.094999999999,-14970.87,-27610.29,-12085.92,-9330.84
1764763277.7211025,-7838.73,-11606.67,1624.41,-5427.81,-14966.955,-27606.465,-12081.78,-9327.78
1764763277.7211025,-7839.764999999999,-11606.85,1624.86,-5427.764999999999,-14966.865,-27606.645,-12081.645,-9327.87
1764763277.7211025,-7838.82,-11606.4,1625.535,-5427.135,-14967.045,-27606.555,-12081.06,-9327.465
1764763277.7211025,-7838.865,-11607.12,1624.635,-5427.764999999999,-14968.755,-27607.32,-12082.14,-9328.185
1764763277.7211025,-7843.815,-11612.43,1619.82,-5432.355,-14972.535,-27612.09,-12087.405,-9333.405
1764763277.7211025,-7842.465,-11611.53,1620.3149999999998,-5431.905,-14971.455,-27611.415,-12086.46,-9333.18
1764763277.7211025,-7838.099999999999,-11606.265,1624.995,-5426.28,-14967.27,-27607.32,-12081.015,-9327.51
1764763277.7211025,-7839.09,-11607.345,1623.645,-5427.315,-14967.99,-27608.445,-12081.825,-9327.825
1764763277.7211025,-7841.61,-11609.145,1622.2949999999998,-5429.565,-14969.655,-27609.165,-12082.635,-9329.31
1764763277.7211025,-7845.615,-11613.285,1618.605,-5433.929999999999,-14973.39,-27612.945,-12086.73,-9333.945
1764763277.7211025,-7843.049999999999,-11610.315,1621.3049999999998,-5430.69,-14971.05,-27610.425,-12085.965,-9331.83
1764763277.7211025,-7845.84,-11613.015,1618.785,-5433.03,-14973.48,-27612.765,-12088.08,-9334.44
1764763277.7211025,-7842.33,-11609.865,1622.115,-5429.88,-14969.97,-27609.93,-12084.84,-9331.83
1764763277.7211025,-7843.005,-11609.82,1622.025,-5430.24,-14970.465,-27610.38,-12085.335,-9331.83
1764763277.7211025,-7843.005,-11610.54,1620.855,-5431.005,-14971.41,-27611.28,-12086.055,-9332.415
1764763277.7211025,-7842.285,-11610.045,1621.3049999999998,-5431.094999999999,-14971.59,-27610.47,-12086.145,-9331.83
1764763277.7694132,-7842.285,-11609.595,1621.71,-5430.78,-14971.32,-27610.65,-12085.02,-9331.65
1764763277.7694132,-7845.12,-11611.665,1619.505,-5432.895,-14973.885,-27612.72,-12086.82,-9333.945
1764763277.7694132,-7844.219999999999,-11610.09,1620.36,-5432.4,-14973.165,-27612.9,-12087.63,-9332.82
1764763277.7694132,-7846.785,-11613.15,1617.885,-5435.099999999999,-14975.235,-27615.375,-12090.015,-9335.43
1764763277.7694132,-7843.139999999999,-11609.91,1621.3049999999998,-5431.365,-14971.5,-27611.505,-12085.74,-9331.965
1764763277.7694132,-7842.285,-11608.83,1622.655,-5429.565,-14970.285,-27609.975,-12084.39,-9330.57
1764763277.7694132,-7846.65,-11612.7,1618.605,-5433.705,-14974.065,-27613.89,-12088.08,-9334.53
1764763277.7694132,-7842.24,-11608.38,1622.385,-5429.79,-14970.105,-27610.065,-12084.3,-9330.84
1764763277.7694132,-7841.384999999999,-11607.345,1622.97,-5429.385,-14970.015,-27609.345,-12084.21,-9330.66
1764763277.7694132,-7839.54,-11605.455,1624.635,-5427.764999999999,-14967.855,-27608.04,-12082.68,-9329.265
1764763277.7694132,-7840.215,-11606.355,1623.6,-5428.98,-14968.89,-27609.39,-12083.175,-9330.12
1764763277.7694132,-7845.84,-11611.62,1618.605,-5434.695,-14974.65,-27614.565,-12088.755,-9335.115
1764763277.7694132,-7843.679999999999,-11609.73,1620.81,-5432.264999999999,-14972.805,-27611.91,-12086.865,-9332.82
1764763277.7694132,-7845.615,-11612.295,1618.74,-5434.605,-14975.1,-27613.665,-12088.98,-9335.475
1764763277.7694132,-7843.049999999999,-11609.865,1620.9,-5431.59,-14971.23,-27609.84,-12085.92,-9332.055
1764763277.7694132,-7845.434999999999,-11612.52,1617.705,-5434.92,-14974.29,-27613.215,-12088.53,-9334.755
1764763277.7694132,-7846.875,-11613.015,1616.625,-5436.179999999999,-14975.235,-27614.115,-12088.89,-9335.565
1764763277.7694132,-7846.38,-11611.89,1617.705,-5434.785,-14974.515,-27612.99,-12087.72,-9333.945
1764763277.7694132,-7845.344999999999,-11610.36,1618.695,-5433.57,-14973.435,-27611.64,-12086.595,-9333.09
1764763277.7694132,-7844.04,-11608.965,1619.73,-5432.804999999999,-14972.895,-27610.38,-12086.595,-9332.37
1764763277.7694132,-7839.179999999999,-11604.42,1623.4199999999998,-5428.935,-14968.575,-27606.24,-12080.52,-9327.87
1764763277.7694132,-7840.53,-11606.265,1622.025,-5430.33,-14970.105,-27607.41,-12080.79,-9329.445
1764763277.7694132,-7841.745,-11606.94,1621.215,-5431.41,-14970.69,-27608.31,-12081.78,-9330.39
1764763277.7694132,-7845.57,-11610.045,1618.2,-5434.514999999999,-14973.21,-27611.28,-12084.435,-9333.585
1764763277.7694132,-7841.25,-11605.32,1622.34,-5429.655,-14968.71,-27609.165,-12086.595,-9329.895
1764763277.7694132,-7846.019999999999,-11610.54,1617.66,-5434.83,-14973.75,-27614.52,-12091.635,-9334.755
1764763277.814395,-7846.065,-11611.665,1616.445,-5435.73,-14974.29,-27614.565,-12090.24,-9334.89
1764763277.814395,-7842.24,-11607.39,1620.72,-5431.59,-14970.825,-27610.245,-12086.055,-9331.02
1764763277.814395,-7837.74,-11602.665,1625.895,-5427.179999999999,-14966.235,-27606.24,-12081.915,-9326.61
1764763277.814395,-7837.245,-11601.81,1627.0649999999998,-5426.594999999999,-14966.1,-27605.925,-12080.52,-9325.71
1764763277.814395,-7837.065,-11601.945,1627.695,-5426.28,-14966.055,-27606.42,-12080.025,-9324.945
1764763277.814395,-7839.54,-11605.005,1625.31,-5429.205,-14967.99,-27608.895,-12082.77,-9327.33
1764763277.814395,-7843.365,-11609.055,1621.3049999999998,-5433.3,-14972.49,-27612.495,-12086.505,-9332.01
1764763277.814395,-7840.259999999999,-11605.41,1624.32,-5430.69,-14969.79,-27609.435,-12083.265,-9329.4
1764763277.814395,-7839.269999999999,-11604.87,1624.95,-5429.969999999999,-14968.755,-27608.58,-12082.14,-9328.5
1764763277.814395,-7838.865,-11604.87,1625.445,-5429.61,-14968.44,-27608.355,-12082.005,-9327.78
1764763277.814395,-7839.495,-11605.77,1624.095,-5430.24,-14969.43,-27609.345,-12081.87,-9328.815
1764763277.814395,-7839.495,-11605.68,1623.96,-5430.24,-14968.935,-27609.03,-12081.285,-9329.265
1764763277.814395,-7842.42,-11608.695,1620.9,-5433.929999999999,-14972.58,-27612.09,-12084.795,-9332.505
1764763277.814395,-7840.844999999999,-11607.39,1622.34,-5432.58,-14971.32,-27610.83,-12083.4,-9330.57
1764763277.814395,-7835.264999999999,-11601.765,1627.47,-5427.495,-14966.28,-27606.33,-12079.44,-9325.89
1764763277.814395,-7836.795,-11602.44,1626.615,-5428.844999999999,-14968.35,-27607.59,-12081.06,-9327.195
1764763277.814395,-7838.325,-11604.555,1624.005,-5430.78,-14970.195,-27608.58,-12082.32,-9328.77
1764763277.814395,-7842.375,-11608.605,1620.1799999999998,-5434.65,-14974.02,-27612.045,-12086.01,-9333.09
1764763277.814395,-7838.775,-11605.095,1624.32,-5430.465,-14970.33,-27608.265,-12082.86,-9329.535
1764763277.814395,-7839.719999999999,-11605.77,1624.005,-5431.094999999999,-14970.915,-27608.94,-12083.085,-9329.715
1764763277.814395,-7844.49,-11610.315,1619.46,-5435.73,-14975.37,-27614.295,-12087.315,-9333.99
1764763277.814395,-7844.49,-11610.9,1619.0549999999998,-5435.505,-14975.415,-27614.34,-12087.45,-9333.99
1764763277.8613205,-7841.61,-11608.155,1621.035,-5432.985,-14972.715,-27611.505,-12084.525,-9331.47
1764763277.8613205,-7839.9,-11606.265,1622.205,-5431.094999999999,-14970.96,-27609.885,-12083.04,-9330.255
1764763277.8613205,-7838.865,-11604.78,1623.105,-5429.565,-14970.6,-27609.255,-12083.04,-9329.625
1764763277.8613205,-7845.255,-11611.17,1618.155,-5435.28,-14976.585,-27615.195,-12089.16,-9335.61
1764763277.8613205,-7843.184999999999,-11609.91,1620.0449999999998,-5434.245,-14974.47,-27613.845,-12086.955,-9334.35
1764763277.8613205,-7837.965,-11604.33,1625.31,-5428.304999999999,-14968.62,-27607.995,-12081.78,-9329.13
1764763277.8613205,-7837.965,-11604.24,1625.445,-5428.125,-14968.53,-27607.95,-12082.095,-9328.59
1764763277.8613205,-7838.28,-11604.915,1624.905,-5428.44,-14968.215,-27607.815,-12082.545,-9329.49
1764763277.8613205,-7838.054999999999,-11604.24,1625.085,-5428.755,-14968.305,-27608.22,-12082.275,-9330.48
1764763277.8613205,-7837.965,-11603.835,1625.085,-5428.349999999999,-14968.8,-27608.265,-12080.52,-9329.445
1764763277.8613205,-7839.495,-11605.41,1622.88,-5429.969999999999,-14970.915,-27610.515,-12081.15,-9330.93
1764763277.8613205,-7843.049999999999,-11608.605,1620.225,-5433.03,-14974.065,-27612.99,-12083.4,-9334.035
1764763277.8613205,-7838.639999999999,-11604.51,1624.905,-5428.935,-14969.7,-27609.345,-12083.13,-9329.76
1764763277.8613205,-7840.98,-11606.67,1622.655,-5432.04,-14971.365,-27613.305,-12090.15,-9332.505
1764763277.8613205,-7839.045,-11604.555,1624.6799999999998,-5429.565,-14969.52,-27610.155,-12085.155,-9330.345
1764763277.8613205,-7844.219999999999,-11609.01,1619.595,-5433.615,-14974.245,-27613.89,-12089.565,-9334.53
1764763277.8613205,-7844.219999999999,-11609.505,1619.73,-5433.48,-14973.615,-27614.07,-12089.565,-9334.845
1764763277.8613205,-7839.045,-11604.195,1624.86,-5428.665,-14969.16,-27609.57,-12084.39,-9329.67
1764763277.8613205,-7841.655,-11605.95,1622.4299999999998,-5431.59,-14972.22,-27611.91,-12087.18,-9331.875
1764763277.8613205,-7839.09,-11603.52,1624.86,-5429.115,-14970.33,-27609.795,-12084.885,-9329.265
1764763277.8613205,-7843.049999999999,-11607.705,1620.45,-5433.075,-14974.29,-27614.07,-12088.215,-9334.17
1764763277.8613205,-7841.79,-11606.67,1621.1699999999998,-5432.67,-14972.85,-27613.44,-12086.91,-9332.82
1764763277.8613205,-7837.469999999999,-11602.755,1624.905,-5429.25,-14968.62,-27609.48,-12082.815,-9328.995
1764763277.8613205,-7840.665,-11606.04,1622.97,-5432.4,-14971.68,-27611.37,-12084.12,-9331.875
1764763277.9050655,-7845.795,-11610.855,1617.57,-5437.215,-14977.305,-27616.725,-12088.665,-9337.005
1764763277.905616,-7844.804999999999,-11610.855,1617.48,-5437.349999999999,-14977.26,-27616.14,-12088.845,-9337.995
1764763277.905616,-7842.825,-11609.01,1619.685,-5434.695,-14973.66,-27613.44,-12088.35,-9336.69
1764763277.905616,-7840.44,-11605.815,1623.195,-5431.77,-14970.015,-27610.83,-12087.63,-9333.18
1764763277.9066763,-7836.795,-11602.08,1626.03,-5428.935,-14967.315,-27607.095,-12082.59,-9329.265
1764763277.9066763,-7836.434999999999,-11602.665,1625.6699999999998,-5428.53,-14967.9,-27607.365,-12082.41,-9328.905
1764763277.9066763,-7840.844999999999,-11606.94,1622.07,-5432.804999999999,-14971.995,-27610.74,-12086.235,-9333.27
1764763277.9066763,-7838.639999999999,-11604.825,1624.14,-5431.185,-14970.69,-27608.805,-12083.805,-9332.415
1764763277.9066763,-7834.365,-11600.19,1628.145,-5427.045,-14966.64,-27604.98,-12080.07,-9327.69
1764763277.9066763,-7837.965,-11603.52,1624.185,-5430.645,-14970.015,-27608.715,-12083.22,-9330.615
1764763277.9066763,-7833.915,-11599.605,1628.37,-5427.045,-14965.605,-27604.755,-12079.935,-9326.52
1764763277.9066763,-7836.389999999999,-11602.17,1626.165,-5429.835,-14968.17,-27608.265,-12084.075,-9329.13
1764763277.9066763,-7834.59,-11600.595,1628.0549999999998,-5427.855,-14965.875,-27605.745,-12082.14,-9326.79
1764763277.9066763,-7834.32,-11600.73,1628.685,-5427.27,-14966.145,-27605.115,-12082.365,-9326.43
1764763277.9066763,-7834.139999999999,-11599.74,1628.865,-5426.325,-14965.38,-27604.53,-12081.465,-9325.98
1764763277.9066763,-7833.735,-11598.795,1630.125,-5425.785,-14965.02,-27603.495,-12081.015,-9325.935
1764763277.9066763,-7834.905,-11599.56,1629.1799999999998,-5426.639999999999,-14965.92,-27604.53,-12081.6,-9327.015
1764763277.9066763,-7836.795,-11601.765,1626.84,-5428.62,-14967.63,-27607.23,-12083.85,-9329.04
1764763277.907085,-7832.384999999999,-11596.815,1631.25,-5423.895,-14963.175,-27603.09,-12078.54,-9323.505
1764763277.907085,-7834.32,-11598.615,1629.225,-5425.29,-14965.245,-27604.8,-12080.205,-9324.765
1764763277.907085,-7839.0,-11603.7,1624.41,-5430.645,-14969.835,-27609.57,-12084.93,-9329.85
1764763277.907085,-7838.82,-11603.88,1624.95,-5430.375,-14968.98,-27607.545,-12083.22,-9329.715
1764763277.954192,-7836.389999999999,-11601.72,1626.885,-5427.315,-14967.36,-27604.35,-12079.305,-9327.87
1764763277.954192,-7839.269999999999,-11604.555,1624.05,-5430.195,-14969.205,-27607.14,-12082.005,-9330.93
1764763277.954192,-7836.03,-11601.09,1627.515,-5426.91,-14965.92,-27604.17,-12079.35,-9327.15
1764763277.954192,-7832.924999999999,-11598.075,1630.26,-5423.76,-14963.13,-27604.395,-12083.49,-9323.865
1764763277.954192,-7833.33,-11598.3,1629.9,-5424.57,-14964.39,-27606.06,-12084.39,-9325.215
1764763277.954192,-7836.12,-11601.63,1626.975,-5426.775,-14966.82,-27608.355,-12083.625,-9328.455
1764763277.954192,-7831.98,-11597.715,1631.34,-5422.32,-14962.77,-27603.99,-12078.405,-9324.045
1764763277.954192,-7835.894999999999,-11602.17,1627.0649999999998,-5426.91,-14967.09,-27607.68,-12082.455,-9328.32
1764763277.954192,-7835.445,-11601.765,1627.2,-5426.37,-14966.415,-27607.545,-12082.815,-9328.095
1764763277.954192,-7831.575,-11597.895,1632.375,-5422.365,-14962.275,-27603.09,-12079.845,-9323.865
1764763277.954192,-7836.21,-11602.845,1627.38,-5426.639999999999,-14966.82,-27607.095,-12084.12,-9328.23
1764763277.954192,-7835.894999999999,-11602.17,1627.695,-5425.74,-14966.73,-27606.105,-12083.985,-9328.095
1764763277.954192,-7832.745,-11599.065,1630.755,-5422.365,-14963.445,-27603.54,-12082.05,-9324.765
1764763277.954192,-7836.75,-11603.07,1625.985,-5426.955,-14968.125,-27607.815,-12085.38,-9329.13
1764763277.954192,-7836.84,-11603.745,1625.31,-5427.54,-14968.845,-27608.175,-12085.65,-9329.805
1764763277.954192,-7831.304999999999,-11598.12,1631.025,-5421.33,-14962.815,-27602.55,-12079.44,-9324.18
1764763277.954192,-7829.505,-11596.68,1632.4199999999998,-5419.755,-14961.375,-27601.38,-12077.415,-9322.74
1764763277.954192,-7832.745,-11599.92,1629.72,-5422.41,-14963.895,-27604.17,-12080.115,-9325.215
1764763277.954192,-7834.769999999999,-11601.315,1628.28,-5424.165,-14964.705,-27605.07,-12083.085,-9327.24
1764763277.954192,-7836.929999999999,-11602.935,1626.66,-5426.639999999999,-14966.775,-27607.14,-12085.29,-9329.94
1764763277.954192,-7832.115,-11599.47,1631.5649999999998,-5422.23,-14962.59,-27602.82,-12080.565,-9325.08
1764763277.954192,-7830.224999999999,-11597.04,1633.6799999999998,-5419.395,-14960.43,-27600.705,-12078.09,-9322.875
1764763277.954192,-7831.889999999999,-11598.615,1632.195,-5421.15,-14961.735,-27602.46,-12080.43,-9324.315
1764763277.954192,-7836.344999999999,-11602.71,1627.605,-5424.84,-14966.145,-27606.51,-12084.705,-9327.78
1764763278.0031292,-7835.04,-11601.585,1628.46,-5423.895,-14965.65,-27605.7,-12083.985,-9326.97
1764763278.0031292,-7829.28,-11595.915,1633.77,-5419.215,-14960.295,-27600.345,-12078.99,-9321.93
1764763278.0031292,-7828.785,-11595.555,1634.085,-5418.855,-14960.43,-27601.155,-12078.54,-9321.345
1764763278.0031292,-7831.53,-11598.93,1631.475,-5421.599999999999,-14963.265,-27603.99,-12081.24,-9324.585
1764763278.0031292,-7836.929999999999,-11604.78,1625.445,-5427.179999999999,-14968.215,-27609.345,-12085.695,-9329.265
1764763278.0031292,-7836.389999999999,-11605.005,1625.175,-5426.91,-14967.495,-27608.22,-12084.795,-9329.13
1764763278.0031292,-7833.195,-11600.865,1629.54,-5422.59,-14963.67,-27604.8,-12085.65,-9326.52
1764763278.0031292,-7828.245,-11595.735,1634.535,-5418.315,-14958.945,-27600.3,-12080.43,-9321.57
1764763278.0031292,-7828.74,-11597.13,1633.995,-5418.764999999999,-14960.025,-27600.48,-12080.115,-9322.47
1764763278.0031292,-7829.415,-11597.85,1633.005,-5419.304999999999,-14961.015,-27601.245,-12080.79,-9323.595
1764763278.0031292,-7830.134999999999,-11598.165,1631.79,-5420.34,-14962.275,-27603.54,-12081.87,-9324.63
1764763278.0031292,-7831.08,-11599.065,1630.3049999999998,-5421.285,-14963.445,-27604.89,-12082.725,-9325.26
1764763278.0031292,-7826.67,-11594.115,1634.85,-5416.74,-14958.63,-27599.715,-12077.595,-9319.77
1764763278.0031292,-7827.929999999999,-11595.96,1632.78,-5418.36,-14960.745,-27601.83,-12079.35,-9322.065
1764763278.0031292,-7828.965,-11597.76,1631.205,-5419.53,-14962.185,-27603.135,-12080.7,-9324.27
1764763278.0031292,-7831.575,-11599.47,1628.685,-5422.185,-14964.48,-27604.215,-12083.13,-9327.285
1764763278.0031292,-7828.74,-11596.455,1631.61,-5419.575,-14961.195,-27601.065,-12080.88,-9323.28
1764763278.0031292,-7832.565,-11601.495,1627.785,-5423.175,-14966.01,-27605.43,-12084.345,-9327.915
1764763278.0031292,-7830.809999999999,-11599.785,1629.225,-5421.24,-14964.21,-27603.045,-12081.195,-9325.845
1764763278.0031292,-7833.465,-11602.08,1626.7949999999998,-5423.895,-14966.145,-27605.16,-12083.22,-9328.365
1764763278.0031292,-7833.96,-11601.855,1626.21,-5424.389999999999,-14966.64,-27606.105,-12082.635,-9328.5
1764763278.0031292,-7830.54,-11597.94,1629.585,-5421.42,-14963.13,-27604.395,-12082.905,-9324.765
1764763278.0031292,-7826.04,-11594.07,1634.445,-5417.46,-14960.34,-27602.64,-12084.255,-9320.94
1764763278.0031292,-7831.53,-11599.695,1628.505,-5423.13,-14965.29,-27606.78,-12086.64,-9326.565
1764763278.0473373,-7829.505,-11597.265,1630.62,-5421.105,-14962.95,-27604.53,-12083.58,-9324.45
1764763278.0473373,-7832.969999999999,-11600.955,1627.155,-5425.02,-14966.28,-27607.14,-12085.515,-9327.24
1764763278.0473373,-7829.099999999999,-11597.175,1631.2949999999998,-5420.385,-14961.555,-27602.28,-12080.835,-9322.83
1764763278.0473373,-7829.865,-11597.445,1630.98,-5421.105,-14961.15,-27601.38,-12080.97,-9323.235
1764763278.0473373,-7830.764999999999,-11598.255,1629.72,-5423.445,-14963.355,-27603.495,-12083.715,-9324.945
1764763278.0473373,-7833.915,-11601.945,1626.9299999999998,-5426.594999999999,-14967.855,-27608.535,-12088.17,-9328.365
1764763278.0473373,-7835.309999999999,-11602.98,1625.625,-5426.46,-14968.98,-27609.615,-12088.935,-9329.22
1764763278.0473373,-7833.554999999999,-11600.82,1627.875,-5424.57,-14966.64,-27607.005,-12086.01,-9327.285
1764763278.0483544,-7830.945,-11597.13,1631.655,-5421.42,-14963.22,-27603.18,-12082.14,-9324.18
1764763278.0483544,-7835.13,-11601.225,1627.695,-5425.38,-14967.18,-27607.68,-12086.46,-9328.365
1764763278.0483544,-7831.98,-11598.255,1629.99,-5422.32,-14963.985,-27604.215,-12084.075,-9325.755
1764763278.0483544,-7835.4,-11601.765,1626.525,-5425.469999999999,-14967.9,-27607.995,-12087.54,-9328.68
1764763278.0483544,-7835.67,-11601.945,1626.39,-5425.155,-14967.72,-27607.995,-12087.675,-9328.995
1764763278.0483544,-7831.125,-11598.165,1630.98,-5420.7,-14963.04,-27603.63,-12083.13,-9324.09
1764763278.0483544,-7833.15,-11600.82,1627.785,-5423.58,-14966.235,-27606.6,-12085.47,-9326.835
1764763278.0483544,-7830.495,-11597.85,1630.3049999999998,-5421.06,-14963.67,-27603.99,-12083.4,-9324.63
1764763278.0493596,-7832.519999999999,-11600.28,1628.91,-5423.895,-14965.47,-27606.645,-12086.01,-9327.24
1764763278.0493596,-7827.389999999999,-11595.69,1633.95,-5418.405,-14959.53,-27601.38,-12081.645,-9322.02
1764763278.0498266,-7826.445,-11594.835,1634.22,-5417.639999999999,-14959.35,-27600.795,-12080.79,-9321.075
1764763278.0498266,-7827.929999999999,-11595.33,1632.735,-5418.179999999999,-14961.06,-27601.875,-12082.455,-9322.155
1764763278.0498266,-7831.755,-11599.02,1629.765,-5421.87,-14963.94,-27605.295,-12086.055,-9326.205
1764763278.0498266,-7832.79,-11599.65,1629.135,-5422.679999999999,-14964.12,-27604.98,-12086.505,-9326.16
1764763278.0498266,-7830.99,-11598.03,1630.1699999999998,-5421.285,-14963.355,-27603.765,-12085.065,-9324.945
1764763278.0503514,-7827.12,-11594.34,1634.535,-5416.56,-14959.755,-27600.03,-12081.69,-9320.76
1764763278.0968692,-7830.405,-11597.58,1631.205,-5419.8,-14962.68,-27603.405,-12084.84,-9324.405
1764763278.0968692,-7828.2,-11594.655,1633.5,-5417.685,-14959.845,-27601.065,-12082.77,-9321.885
1764763278.0968692,-7832.115,-11598.57,1629.54,-5421.554999999999,-14963.985,-27604.665,-12086.145,-9325.62
1764763278.0968692,-7829.054999999999,-11596.41,1631.88,-5419.215,-14962.545,-27603.045,-12084.3,-9323.865
1764763278.0968692,-7825.41,-11593.215,1634.49,-5416.335,-14959.53,-27600.345,-12081.195,-9320.355
1764763278.0968692,-7829.235,-11597.31,1630.3049999999998,-5420.429999999999,-14962.905,-27603.72,-12086.055,-9323.91
1764763278.0968692,-7829.505,-11597.445,1630.8,-5420.16,-14963.4,-27603.855,-12085.425,-9323.37
1764763278.0968692,-7827.48,-11594.115,1633.5,-5417.28,-14960.97,-27601.425,-12083.31,-9321.255
1764763278.0968692,-7828.469999999999,-11595.24,1632.195,-5418.45,-14962.455,-27602.64,-12084.93,-9322.74
1764763278.0968692,-7830.809999999999,-11596.68,1630.035,-5420.655,-14964.93,-27604.665,-12086.55,-9325.305
1764763278.0968692,-7827.48,-11593.98,1632.87,-5417.325,-14961.15,-27601.29,-12083.265,-9322.02
1764763278.0968692,-7830.63,-11597.49,1629.225,-5420.474999999999,-14964.57,-27604.8,-12086.685,-9324.81
1764763278.0968692,-7827.255,-11593.665,1633.095,-5417.099999999999,-14960.79,-27601.29,-12081.825,-9321.525
1764763278.0968692,-7826.759999999999,-11592.81,1633.455,-5416.38,-14960.475,-27600.57,-12080.565,-9320.625
1764763278.0968692,-7829.144999999999,-11594.97,1631.97,-5418.945,-14962.95,-27602.415,-12081.735,-9322.965
1764763278.0968692,-7835.174999999999,-11601.27,1625.8049999999998,-5424.84,-14968.125,-27607.59,-12089.52,-9328.815
1764763278.0968692,-7833.465,-11599.065,1627.155,-5423.04,-14967.09,-27608.715,-12094.83,-9327.24
1764763278.0968692,-7832.295,-11599.29,1627.425,-5422.635,-14967.315,-27608.265,-12091.14,-9327.105
1764763278.0968692,-7829.955,-11597.04,1630.71,-5420.025,-14964.21,-27604.755,-12086.19,-9324.99
1764763278.0968692,-7833.644999999999,-11599.515,1627.56,-5423.355,-14967.225,-27606.375,-12088.935,-9327.69
1764763278.0968692,-7828.965,-11594.745,1632.06,-5418.27,-14962.545,-27602.505,-12088.215,-9323.685
1764763278.0968692,-7828.605,-11595.42,1631.655,-5418.36,-14962.815,-27603.405,-12087.81,-9324.135
1764763278.0968692,-7833.825,-11600.325,1626.12,-5423.715,-14968.53,-27609.12,-12091.14,-9328.815
1764763278.0968692,-7832.07,-11597.445,1628.505,-5421.78,-14966.055,-27607.5,-12088.71,-9326.52
1764763278.1418712,-7826.759999999999,-11592.36,1634.04,-5417.01,-14960.745,-27602.28,-12082.95,-9321.93
1764763278.1418712,-7828.605,-11594.205,1632.15,-5418.855,-14962.41,-27603.765,-12084.03,-9323.325
1764763278.1418712,-7830.405,-11595.555,1631.025,-5420.25,-14964.66,-27605.835,-12086.955,-9325.125
1764763278.1418712,-7833.465,-11599.02,1627.9199999999998,-5423.31,-14968.395,-27608.58,-12091.5,-9329.49
1764763278.1418712,-7832.655,-11597.94,1627.875,-5422.995,-14967.135,-27607.455,-12090.87,-9328.545
1764763278.1418712,-7828.155,-11592.81,1631.925,-5418.63,-14962.59,-27603.72,-12086.55,-9323.28
1764763278.1418712,-7830.36,-11594.97,1629.63,-5421.645,-14964.39,-27605.79,-12088.035,-9325.395
1764763278.1418712,-7826.894999999999,-11592.315,1632.645,-5418.764999999999,-14961.42,-27602.595,-12084.57,-9322.155
1764763278.1418712,-7831.215,-11596.59,1629.09,-5422.139999999999,-14966.01,-27606.915,-12087.99,-9326.52
1764763278.1418712,-7830.134999999999,-11596.185,1630.26,-5422.32,-14965.47,-27606.105,-12087.54,-9325.845
1764763278.1418712,-7827.075,-11593.62,1633.41,-5419.62,-14961.915,-27603.54,-12084.345,-9323.28
1764763278.1434171,-7831.08,-11597.265,1628.685,-5423.49,-14966.46,-27608.265,-12088.98,-9327.24
1764763278.1434171,-7828.29,-11593.755,1631.25,-5420.52,-14963.4,-27605.205,-12086.01,-9323.82
1764763278.1434171,-7827.929999999999,-11593.53,1632.6,-5419.17,-14962.32,-27604.53,-12085.245,-9323.865
1764763278.1434171,-7829.19,-11594.7,1631.655,-5420.745,-14963.04,-27605.205,-12086.055,-9324.36
1764763278.1434171,-7831.98,-11597.535,1628.73,-5424.795,-14966.595,-27608.04,-12089.79,-9327.555
1764763278.1434171,-7828.335,-11594.295,1631.925,-5421.33,-14963.715,-27605.52,-12086.37,-9324.54
1764763278.1434171,-7829.955,-11595.24,1630.71,-5422.094999999999,-14965.245,-27606.33,-12088.17,-9325.8
1764763278.1434171,-7825.905,-11591.82,1634.355,-5418.405,-14961.645,-27602.55,-12084.84,-9322.965
1764763278.1434171,-7824.69,-11589.93,1635.48,-5417.37,-14960.52,-27601.695,-12083.22,-9321.255
1764763278.1434171,-7824.599999999999,-11590.02,1634.76,-5418.045,-14960.835,-27602.325,-12082.905,-9321.57
1764763278.1434171,-7829.594999999999,-11595.465,1629.27,-5423.219999999999,-14965.74,-27606.825,-12088.485,-9326.655
1764763278.1434171,-7826.04,-11592.585,1633.095,-5419.485,-14962.005,-27603.09,-12085.83,-9323.325
1764763278.1434171,-7829.19,-11595.015,1630.71,-5421.06,-14964.3,-27605.52,-12087.855,-9325.845
1764763278.1916306,-7830.809999999999,-11595.51,1629.81,-5421.915,-14965.02,-27605.835,-12087.765,-9325.98
1764763278.1916306,-7829.73,-11595.24,1630.08,-5421.195,-14964.75,-27604.485,-12086.28,-9325.71
1764763278.1916306,-7824.915,-11590.38,1634.8049999999998,-5416.965,-14959.665,-27599.535,-12080.7,-9321.525
1764763278.1916306,-7825.365,-11590.605,1634.8049999999998,-5417.46,-14959.845,-27600.03,-12080.295,-9321.93
1764763278.1916306,-7829.415,-11594.43,1630.755,-5421.599999999999,-14963.625,-27605.115,-12084.615,-9325.485
1764763278.1926258,-7822.44,-11587.995,1636.74,-5415.84,-14957.46,-27601.2,-12084.57,-9319.32
1764763278.1926258,-7821.269999999999,-11586.645,1638.27,-5414.58,-14956.02,-27599.4,-12081.285,-9318.06
1764763278.1926258,-7822.08,-11588.22,1636.9199999999998,-5415.795,-14957.64,-27600.255,-12081.42,-9319.14
1764763278.1926258,-7822.755,-11589.03,1635.48,-5416.38,-14959.035,-27600.255,-12081.24,-9319.815
1764763278.1926258,-7824.915,-11591.055,1633.635,-5418.764999999999,-14961.24,-27602.01,-12082.815,-9321.615
1764763278.1926258,-7829.91,-11595.87,1628.145,-5423.94,-14965.965,-27607.14,-12088.215,-9327.735
1764763278.1926258,-7830.674999999999,-11596.86,1628.235,-5424.389999999999,-14965.83,-27607.41,-12088.755,-9327.69
1764763278.1926258,-7828.245,-11594.565,1631.2949999999998,-5422.094999999999,-14962.95,-27604.665,-12087.81,-9324.945
1764763278.1926258,-7823.25,-11588.22,1636.56,-5416.83,-14957.505,-27600.615,-12084.795,-9320.22
1764763278.1926258,-7825.365,-11590.785,1633.41,-5420.07,-14960.745,-27603.405,-12086.145,-9322.785
1764763278.1926258,-7822.44,-11587.815,1636.0649999999998,-5417.73,-14957.865,-27600.39,-12082.545,-9319.905
1764763278.1926258,-7823.745,-11588.85,1634.985,-5418.315,-14958.9,-27601.515,-12082.86,-9321.075
1764763278.1926258,-7830.045,-11595.915,1628.55,-5424.165,-14965.155,-27607.77,-12089.205,-9326.97
1764763278.1926258,-7829.684999999999,-11596.005,1629.1799999999998,-5423.849999999999,-14965.065,-27607.995,-12089.295,-9326.34
1764763278.1926258,-7827.12,-11592.72,1632.5549999999998,-5421.554999999999,-14961.6,-27605.205,-12086.28,-9323.595
1764763278.1926258,-7830.269999999999,-11595.33,1629.855,-5423.535,-14964.165,-27607.23,-12088.215,-9325.8
1764763278.1926258,-7832.565,-11597.355,1628.37,-5425.605,-14966.37,-27609.615,-12090.465,-9327.555
1764763278.2378268,-7828.83,-11594.52,1630.935,-5422.59,-14963.895,-27606.555,-12088.17,-9325.44
1764763278.2378268,-7831.844999999999,-11597.895,1627.155,-5425.29,-14967.54,-27609.435,-12091.095,-9328.77
1764763278.2378268,-7829.235,-11594.34,1630.26,-5423.13,-14964.12,-27606.33,-12087.945,-9325.665
1764763278.2378268,-7827.795,-11592.72,1631.88,-5422.32,-14962.545,-27604.8,-12086.73,-9323.73
1764763278.2378268,-7827.795,-11592.72,1632.06,-5421.69,-14961.915,-27605.295,-12085.83,-9322.92
1764763278.2378268,-7828.785,-11593.395,1631.4299999999998,-5422.545,-14962.95,-27606.195,-12086.865,-9324.0
1764763278.2378268,-7828.38,-11592.54,1632.06,-5421.78,-14963.625,-27605.7,-12086.775,-9323.91
1764763278.2378268,-7827.12,-11590.695,1633.095,-5420.745,-14962.86,-27604.71,-12086.685,-9323.19
1764763278.2378268,-7826.67,-11591.595,1633.5449999999998,-5420.52,-14961.78,-27604.035,-12085.965,-9322.83
1764763278.2378268,-7827.165,-11592.405,1632.735,-5421.645,-14962.365,-27605.07,-12087.09,-9323.415
1764763278.2378268,-7829.19,-11594.475,1630.125,-5423.535,-14964.12,-27606.915,-12088.71,-9325.26
1764763278.2378268,-7833.465,-11598.705,1626.12,-5427.63,-14967.855,-27611.235,-12092.31,-9329.22
1764763278.2378268,-7828.74,-11593.8,1630.485,-5423.355,-14963.67,-27606.555,-12088.44,-9324.405
1764763278.2378268,-7827.03,-11592.27,1632.24,-5421.645,-14962.275,-27605.34,-12086.82,-9322.605
1764763278.2378268,-7825.634999999999,-11591.055,1634.085,-5420.52,-14960.565,-27604.71,-12085.965,-9321.705
1764763278.2378268,-7830.36,-11595.69,1629.3149999999998,-5424.974999999999,-14965.56,-27609.165,-12090.555,-9326.16
1764763278.2383366,-7830.179999999999,-11595.15,1629.09,-5424.75,-14965.65,-27608.715,-12089.745,-9325.935
1764763278.2383366,-7826.715,-11592.405,1631.835,-5420.969999999999,-14961.555,-27605.43,-12086.82,-9323.19
1764763278.2383366,-7833.33,-11599.02,1625.4,-5427.315,-14967.27,-27610.02,-12091.14,-9329.49
1764763278.2383366,-7830.179999999999,-11595.42,1628.595,-5425.2,-14964.03,-27606.42,-12087.585,-9326.43
1764763278.2383366,-7828.514999999999,-11593.485,1631.16,-5423.67,-14962.545,-27605.115,-12085.29,-9324.405
1764763278.2383366,-7830.36,-11595.735,1629.1799999999998,-5425.335,-14963.715,-27606.195,-12086.64,-9325.71
1764763278.2809796,-7831.755,-11596.905,1628.01,-5427.179999999999,-14965.515,-27610.11,-12094.605,-9326.88
1764763278.2809796,-7826.355,-11591.595,1633.635,-5421.825,-14960.475,-27605.295,-12090.87,-9322.245
1764763278.2809796,-7827.344999999999,-11592.18,1633.185,-5422.365,-14961.105,-27605.835,-12089.565,-9322.47
1764763278.2809796,-7832.565,-11597.22,1627.74,-5427.179999999999,-14966.325,-27610.83,-12094.02,-9327.6
1764763278.2809796,-7828.965,-11593.755,1630.755,-5424.48,-14963.22,-27607.455,-12090.78,-9324.585
1764763278.2809796,-7829.415,-11594.07,1630.8,-5424.165,-14963.22,-27607.275,-12090.555,-9324.09
1764763278.2819989,-7833.195,-11598.075,1627.155,-5427.81,-14966.73,-27610.38,-12094.83,-9327.555
1764763278.2819989,-7829.775,-11594.34,1631.475,-5423.94,-14962.14,-27606.645,-12091.455,-9323.505
1764763278.2819989,-7833.24,-11597.625,1628.01,-5426.955,-14966.235,-27610.92,-12094.74,-9327.15
1764763278.2819989,-7834.365,-11598.255,1627.245,-5427.855,-14967.855,-27611.91,-12095.145,-9327.51
1764763278.2819989,-7829.415,-11592.99,1631.745,-5422.905,-14963.67,-27606.24,-12090.06,-9322.965
1764763278.2819989,-7828.605,-11591.775,1632.4199999999998,-5422.275,-14962.77,-27605.565,-12088.935,-9321.795
1764763278.2819989,-7832.205,-11594.655,1629.585,-5425.425,-14966.055,-27609.075,-12091.86,-9324.945
1764763278.2819989,-7837.92,-11599.965,1623.105,-5431.5,-14972.22,-27614.745,-12097.98,-9330.975
1764763278.2819989,-7837.155,-11600.055,1624.095,-5430.825,-14971.14,-27614.43,-12097.215,-9329.805
1764763278.2819989,-7834.769999999999,-11597.58,1627.11,-5428.53,-14968.35,-27611.055,-12095.235,-9327.735
1764763278.2819989,-7834.094999999999,-11596.41,1627.785,-5427.315,-14968.395,-27610.38,-12094.425,-9327.915
1764763278.2819989,-7834.86,-11598.57,1626.39,-5428.125,-14969.655,-27611.73,-12095.01,-9329.13
1764763278.2819989,-7833.915,-11598.39,1626.39,-5427.405,-14968.35,-27611.595,-12093.975,-9327.825
1764763278.2819989,-7829.009999999999,-11592.405,1631.655,-5422.23,-14963.04,-27606.465,-12088.845,-9322.02
1764763278.2819989,-7830.585,-11593.395,1630.395,-5423.445,-14965.065,-27608.67,-12090.06,-9323.64
1764763278.2819989,-7826.264999999999,-11589.39,1634.76,-5419.44,-14961.33,-27605.115,-12085.56,-9319.32
1764763278.2819989,-7823.969999999999,-11587.05,1636.74,-5418.045,-14959.08,-27603.09,-12083.22,-9317.52
1764763278.2819989,-7827.12,-11589.3,1634.22,-5420.61,-14961.105,-27605.205,-12086.28,-9320.175
1764763278.3312292,-7830.045,-11592.405,1631.5649999999998,-5423.219999999999,-14963.445,-27607.635,-12088.665,-9323.505
1764763278.3312292,-7834.995,-11597.76,1625.985,-5428.395,-14969.115,-27613.08,-12093.615,-9328.995
1764763278.3312292,-7834.905,-11597.94,1625.8049999999998,-5428.26,-14968.98,-27612.405,-12093.84,-9329.04
1764763278.3312292,-7833.509999999999,-11596.455,1628.1,-5427.135,-14967.0,-27610.695,-12093.48,-9327.6
1764763278.3312292,-7830.09,-11591.865,1632.465,-5422.95,-14963.085,-27607.365,-12089.655,-9323.19
1764763278.3312292,-7831.62,-11593.08,1630.89,-5424.615,-14965.11,-27608.895,-12090.465,-9324.54
1764763278.3312292,-7834.139999999999,-11595.015,1628.865,-5426.955,-14967.27,-27611.55,-12091.995,-9326.745
1764763278.3312292,-7834.455,-11595.825,1628.0549999999998,-5427.27,-14966.955,-27612.585,-12091.68,-9327.24
1764763278.3312292,-7833.599999999999,-11595.78,1628.82,-5426.82,-14966.91,-27612.54,-12090.825,-9326.88
1764763278.3312292,-7833.285,-11595.24,1629.63,-5425.29,-14965.605,-27611.82,-12091.905,-9326.97
1764763278.3312292,-7830.945,-11592.045,1632.15,-5422.815,-14963.49,-27610.2,-12091.905,-9324.855
1764763278.331596,-7831.44,-11593.305,1630.845,-5424.48,-14964.75,-27610.155,-12091.41,-9325.53
1764763278.331596,-7835.13,-11597.13,1626.885,-5428.98,-14968.53,-27613.665,-12095.46,-9329.355
1764763278.331596,-7834.365,-11595.825,1626.7949999999998,-5429.7,-14969.205,-27615.6,-12096.495,-9327.33
1764763278.331596,-7838.19,-11600.91,1623.87,-5431.724999999999,-14972.085,-27620.505,-12102.57,-9330.345
1764763278.331596,-7828.92,-11591.235,1633.32,-5420.565,-14959.44,-27606.825,-12091.995,-9323.37
1764763278.331596,-7830.0,-11592.54,1629.72,-5425.514999999999,-14963.265,-27608.175,-12089.565,-9323.91
1764763278.331596,-7827.795,-11589.66,1633.005,-5422.679999999999,-14961.33,-27607.23,-12087.945,-9321.525
1764763278.331596,-7828.245,-11589.615,1633.86,-5421.87,-14960.79,-27606.51,-12088.44,-9322.74
1764763278.331596,-7832.025,-11594.16,1630.1699999999998,-5426.37,-14965.065,-27611.055,-12091.635,-9325.305
1764763278.331596,-7828.155,-11590.605,1633.5,-5422.905,-14961.645,-27607.95,-12088.53,-9321.57
1764763278.331596,-7830.54,-11593.215,1631.52,-5425.38,-14963.715,-27609.66,-12091.23,-9324.45
1764763278.331596,-7827.03,-11590.02,1634.895,-5422.5,-14960.835,-27605.88,-12088.35,-9320.715
1764763278.331596,-7828.155,-11591.28,1633.5,-5423.085,-14962.23,-27607.68,-12089.79,-9322.02
1764763278.3748603,-7830.719999999999,-11594.655,1630.26,-5427.179999999999,-14965.605,-27611.64,-12092.67,-9325.17
1764763278.3748603,-7828.065,-11591.73,1633.32,-5423.67,-14962.23,-27607.86,-12089.835,-9321.57
1764763278.3748603,-7828.29,-11591.235,1632.96,-5424.075,-14962.725,-27608.22,-12089.79,-9321.48
1764763278.3748603,-7828.155,-11591.325,1632.87,-5424.84,-14963.22,-27608.625,-12089.835,-9321.885
1764763278.3748603,-7828.38,-11591.505,1632.735,-5425.155,-14963.49,-27608.94,-12089.655,-9321.705
1764763278.3748603,-7835.13,-11598.165,1626.705,-5431.32,-14969.16,-27615.96,-12096.18,-9328.365
1764763278.3748603,-7835.219999999999,-11597.85,1626.885,-5431.59,-14968.305,-27615.24,-12095.325,-9328.23
1764763278.3748603,-7832.88,-11595.015,1629.0449999999998,-5429.88,-14966.145,-27612.405,-12093.345,-9325.62
1764763278.3758748,-7828.65,-11591.64,1632.735,-5425.695,-14962.86,-27608.31,-12090.105,-9321.705
1764763278.3758748,-7830.585,-11592.36,1631.16,-5426.145,-14963.805,-27609.165,-12091.23,-9323.01
1764763278.3758748,-7833.24,-11594.925,1628.73,-5428.8,-14966.505,-27612.315,-12094.335,-9325.8
1764763278.3758748,-7829.505,-11590.74,1633.005,-5424.435,-14962.32,-27608.715,-12089.835,-9321.21
1764763278.3758748,-7829.235,-11590.92,1632.78,-5424.615,-14962.005,-27609.03,-12090.375,-9321.84
1764763278.3758748,-7829.82,-11591.55,1631.925,-5425.605,-14962.77,-27610.155,-12091.14,-9323.19
1764763278.3758748,-7831.215,-11593.575,1630.71,-5426.685,-14964.435,-27612.315,-12092.31,-9324.09
1764763278.3758748,-7832.835,-11596.005,1628.82,-5428.215,-14966.505,-27614.205,-12094.65,-9325.395
1764763278.3758748,-7832.519999999999,-11595.735,1628.595,-5428.665,-14966.73,-27614.16,-12094.425,-9325.44
1764763278.3758748,-7833.96,-11596.635,1627.155,-5430.33,-14968.08,-27615.285,-12095.595,-9327.33
1764763278.3758748,-7829.91,-11592.54,1631.16,-5425.785,-14963.58,-27610.515,-12091.995,-9324.045
1764763278.3758748,-7831.08,-11594.025,1630.575,-5426.865,-14965.065,-27611.235,-12093.075,-9324.9
1764763278.3758748,-7834.679999999999,-11597.94,1626.9299999999998,-5430.15,-14968.305,-27615.24,-12096.09,-9328.14
1764763278.37688,-7831.08,-11594.565,1630.26,-5426.73,-14964.345,-27612.18,-12093.075,-9324.495
1764763278.37688,-7831.799999999999,-11594.88,1630.26,-5427.54,-14964.525,-27612.495,-12093.705,-9325.17
1764763278.37688,-7832.61,-11595.33,1629.495,-5428.17,-14965.47,-27614.25,-12094.785,-9326.61
1764763278.4208963,-7827.795,-11590.11,1633.8149999999998,-5423.13,-14961.195,-27609.705,-12089.925,-9321.39
1764763278.4208963,-7828.785,-11591.235,1632.78,-5424.21,-14961.78,-27609.93,-12090.33,-9321.975
1764763278.4208963,-7830.945,-11593.08,1631.2949999999998,-5427.09,-14964.12,-27611.595,-12092.535,-9323.775
1764763278.4208963,-7834.545,-11596.5,1627.38,-5431.094999999999,-14967.54,-27615.33,-12096.9,-9327.51
1764763278.4208963,-7832.79,-11595.33,1629.135,-5429.925,-14965.92,-27614.205,-12096.54,-9326.07
1764763278.4208963,-7826.985,-11589.615,1634.6699999999998,-5424.3,-14960.16,-27609.075,-12090.735,-9320.085
1764763278.4208963,-7826.264999999999,-11589.75,1634.76,-5424.165,-14961.195,-27609.48,-12090.285,-9320.49
1764763278.4208963,-7830.54,-11594.07,1630.71,-5428.17,-14965.065,-27613.395,-12094.515,-9324.54
1764763278.4208963,-7826.49,-11590.38,1634.13,-5425.065,-14961.285,-27609.48,-12091.32,-9320.715
1764763278.4208963,-7825.545,-11589.12,1635.255,-5424.03,-14960.205,-27608.445,-12089.43,-9319.59
1764763278.4208963,-7825.634999999999,-11588.58,1635.345,-5423.985,-14960.25,-27609.165,-12089.25,-9318.87
1764763278.4208963,-7827.48,-11590.065,1633.32,-5426.594999999999,-14962.905,-27610.515,-12091.545,-9320.625
1764763278.4208963,-7829.235,-11592.045,1631.2949999999998,-5428.575,-14965.11,-27612.18,-12094.065,-9323.19
1764763278.4208963,-7832.519999999999,-11596.05,1628.235,-5431.59,-14968.305,-27615.15,-12096.27,-9326.115
1764763278.4208963,-7830.179999999999,-11593.71,1630.935,-5429.429999999999,-14965.695,-27612.315,-12093.705,-9323.415
1764763278.4208963,-7834.59,-11597.535,1626.39,-5433.344999999999,-14969.205,-27616.545,-12097.89,-9327.555
1764763278.4208963,-7834.275,-11597.895,1626.255,-5433.974999999999,-14969.88,-27616.77,-12097.89,-9327.96
1764763278.4208963,-7831.394999999999,-11595.375,1629.0449999999998,-5431.995,-14967.63,-27614.115,-12096.18,-9325.845
1764763278.4208963,-7827.03,-11591.145,1632.96,-5428.304999999999,-14963.49,-27610.155,-12092.13,-9321.615
1764763278.4208963,-7829.73,-11594.07,1629.63,-5430.599999999999,-14966.37,-27613.44,-12094.74,-9324.36
1764763278.4208963,-7825.769999999999,-11590.74,1633.995,-5426.145,-14962.095,-27609.795,-12090.78,-9320.67
1764763278.4208963,-7826.13,-11590.92,1633.635,-5426.865,-14962.5,-27610.425,-12090.42,-9321.12
1764763278.4704723,-7826.264999999999,-11590.695,1633.8149999999998,-5427.224999999999,-14962.59,-27609.975,-12090.555,-9320.94
1764763278.4704723,-7826.264999999999,-11589.84,1634.85,-5426.28,-14961.33,-27608.535,-12089.61,-9319.905
1764763278.4704723,-7827.389999999999,-11591.055,1633.5449999999998,-5427.54,-14961.915,-27609.705,-12090.465,-9321.435
1764763278.4704723,-7832.79,-11595.465,1629.27,-5432.04,-14967.27,-27614.205,-12095.19,-9326.025
1764763278.4704723,-7833.465,-11595.78,1629.09,-5432.219999999999,-14967.45,-27614.745,-12096.0,-9326.16
1764763278.4704723,-7831.62,-11593.98,1630.08,-5430.915,-14965.47,-27613.35,-12093.75,-9324.675
1764763278.4704723,-7828.155,-11590.695,1634.04,-5426.91,-14961.51,-27609.615,-12090.24,-9321.165
1764763278.4704723,-7829.73,-11592.99,1632.5549999999998,-5428.844999999999,-14963.49,-27612.315,-12092.49,-9323.19
1764763278.4704723,-7826.04,-11589.795,1636.155,-5426.01,-14960.295,-27608.805,-12089.52,-9319.365
1764763278.4704723,-7828.019999999999,-11590.695,1635.03,-5427.764999999999,-14961.375,-27609.525,-12091.005,-9320.625
1764763278.4709778,-7831.799999999999,-11594.61,1631.25,-5431.139999999999,-14965.56,-27613.35,-12094.65,-9325.125
1764763278.4709778,-7831.44,-11594.745,1630.755,-5431.275,-14965.155,-27613.215,-12094.965,-9325.035
1764763278.4709778,-7832.115,-11595.015,1630.71,-5430.599999999999,-14965.47,-27612.405,-12096.27,-9324.72
1764763278.4709778,-7832.07,-11594.655,1630.755,-5430.87,-14965.29,-27612.405,-12095.685,-9324.765
1764763278.4709778,-7827.48,-11589.975,1634.535,-5426.865,-14961.42,-27608.625,-12091.14,-9320.58
1764763278.4709778,-7830.315,-11592.63,1632.78,-5429.115,-14964.165,-27611.775,-12092.805,-9322.83
1764763278.4709778,-7827.48,-11590.56,1635.255,-5426.145,-14961.51,-27609.66,-12090.42,-9320.49
1764763278.4709778,-7825.23,-11588.22,1636.74,-5424.12,-14959.89,-27608.715,-12089.25,-9318.51
1764763278.4709778,-7824.644999999999,-11587.41,1637.145,-5423.58,-14959.125,-27608.22,-12087.945,-9318.015
1764763278.4709778,-7827.389999999999,-11589.705,1634.76,-5426.505,-14961.915,-27610.155,-12091.275,-9320.985
1764763278.4709778,-7833.059999999999,-11595.42,1629.225,-5431.77,-14967.495,-27615.465,-12096.765,-9327.6
1764763278.4709778,-7833.554999999999,-11595.555,1628.865,-5431.32,-14967.45,-27614.925,-12097.17,-9327.915
1764763278.4709778,-7829.37,-11591.55,1632.51,-5427.719999999999,-14963.13,-27610.92,-12093.345,-9323.46
1764763278.4709778,-7832.205,-11594.385,1630.395,-5429.969999999999,-14965.335,-27613.305,-12095.505,-9325.62
1764763278.5170362,-7828.695,-11591.235,1632.915,-5427.27,-14962.32,-27610.47,-12092.13,-9322.29
1764763278.5170362,-7829.009999999999,-11590.65,1633.41,-5426.505,-14962.095,-27610.11,-12092.04,-9322.155
1764763278.5170362,-7831.349999999999,-11592.18,1631.745,-5428.62,-14964.165,-27613.125,-12094.605,-9323.955
1764763278.5170362,-7833.735,-11594.79,1628.82,-5431.905,-14967.405,-27616.365,-12097.845,-9326.79
1764763278.5170362,-7829.82,-11590.965,1633.095,-5428.26,-14963.4,-27612.765,-12094.47,-9322.65
1764763278.5170362,-7830.09,-11591.685,1633.095,-5428.53,-14963.4,-27613.125,-12095.46,-9323.19
1764763278.5170362,-7830.045,-11592.45,1632.33,-5428.53,-14963.715,-27612.81,-12096.09,-9323.19
1764763278.5170362,-7831.44,-11593.215,1631.61,-5429.61,-14964.705,-27612.99,-12096.72,-9324.405
1764763278.5170362,-7832.565,-11594.655,1631.115,-5430.42,-14965.38,-27613.89,-12097.98,-9325.62
1764763278.5170362,-7835.715,-11598.48,1627.335,-5433.885,-14968.53,-27617.355,-12101.355,-9328.905
1764763278.5170362,-7832.745,-11595.195,1630.035,-5431.545,-14965.74,-27614.745,-12098.745,-9325.62
1764763278.5170362,-7834.23,-11597.04,1627.785,-5433.885,-14967.765,-27616.905,-12100.365,-9327.285
1764763278.5170362,-7831.259999999999,-11594.07,1630.935,-5430.42,-14965.02,-27613.575,-12096.54,-9323.865
1764763278.5170362,-7833.195,-11596.185,1628.685,-5432.76,-14967.18,-27616.365,-12098.385,-9325.395
1764763278.5170362,-7829.19,-11592.225,1632.645,-5429.295,-14963.265,-27612.54,-12094.965,-9320.895
1764763278.5170362,-7834.275,-11596.95,1627.785,-5433.75,-14968.665,-27617.76,-12099.735,-9325.62
1764763278.5170362,-7834.005,-11596.32,1627.9199999999998,-5432.804999999999,-14968.62,-27616.95,-12099.15,-9325.215
1764763278.5170362,-7830.945,-11592.81,1631.16,-5429.88,-14965.38,-27614.16,-12096.135,-9322.38
1764763278.5170362,-7834.724999999999,-11595.555,1628.145,-5432.985,-14968.665,-27616.86,-12099.285,-9325.395
1764763278.5170362,-7832.565,-11593.485,1630.035,-5430.105,-14966.01,-27614.655,-12097.62,-9323.28
1764763278.5170362,-7834.545,-11596.23,1626.525,-5433.03,-14968.755,-27617.76,-12100.905,-9325.71
1764763278.5180385,-7828.514999999999,-11590.605,1632.285,-5428.44,-14963.445,-27612.45,-12095.325,-9320.31
1764763278.563006,-7827.705,-11588.94,1633.95,-5427.135,-14961.87,-27611.37,-12093.975,-9319.05
1764763278.563006,-7825.95,-11587.14,1635.66,-5425.469999999999,-14959.755,-27609.615,-12091.005,-9316.845
1764763278.563006,-7826.535,-11587.725,1635.165,-5426.639999999999,-14961.015,-27610.335,-12091.545,-9317.88
1764763278.563006,-7830.54,-11592.0,1631.2949999999998,-5430.06,-14964.525,-27614.43,-12096.36,-9322.38
1764763278.563006,-7825.95,-11587.68,1634.9399999999998,-5425.74,-14960.25,-27609.57,-12092.04,-9318.285
1764763278.563006,-7826.535,-11588.94,1633.6799999999998,-5426.594999999999,-14961.87,-27610.065,-12093.705,-9319.995
1764763278.563006,-7831.17,-11593.53,1629.135,-5431.094999999999,-14966.685,-27613.935,-12098.205,-9324.945
1764763278.563006,-7830.54,-11593.125,1628.775,-5430.645,-14966.73,-27613.89,-12098.97,-9325.17
1764763278.563006,-7829.235,-11591.55,1630.8,-5429.429999999999,-14965.29,-27612.765,-12097.485,-9323.37
1764763278.563006,-7826.67,-11589.3,1633.86,-5426.639999999999,-14963.175,-27610.56,-12095.1,-9320.22
1764763278.563006,-7825.95,-11588.805,1634.355,-5425.425,-14962.32,-27610.695,-12093.615,-9319.32
1764763278.563006,-7823.519999999999,-11585.88,1636.9199999999998,-5422.995,-14960.34,-27608.58,-12090.735,-9317.16
1764763278.563006,-7823.79,-11585.205,1637.235,-5422.679999999999,-14960.115,-27609.39,-12091.005,-9316.395
1764763278.563006,-7826.849999999999,-11588.04,1634.49,-5426.099999999999,-14964.57,-27614.655,-12094.74,-9318.825
1764763278.563006,-7830.134999999999,-11592.09,1631.16,-5430.42,-14970.24,-27621.36,-12098.79,-9322.29
1764763278.563006,-7829.144999999999,-11590.38,1632.24,-5429.745,-14970.6,-27621.945,-12098.295,-9321.345
1764763278.563006,-7825.32,-11586.915,1635.12,-5426.099999999999,-14966.775,-27618.66,-12095.055,-9317.88
1764763278.563006,-7829.144999999999,-11591.19,1631.2949999999998,-5428.844999999999,-14963.715,-27613.125,-12095.775,-9321.84
1764763278.563006,-7825.32,-11587.365,1636.155,-5424.165,-14958.225,-27606.015,-12090.78,-9317.79
1764763278.563006,-7822.17,-11584.215,1639.53,-5420.34,-14954.805,-27603.495,-12087.945,-9314.325
1764763278.563006,-7822.665,-11585.115,1638.135,-5421.195,-14954.13,-27601.47,-12087.72,-9315.315
1764763278.563006,-7826.219999999999,-11588.445,1634.13,-5425.469999999999,-14959.71,-27607.32,-12092.355,-9319.23
1764763278.563006,-7823.295,-11584.62,1637.235,-5422.05,-14957.955,-27605.655,-12088.98,-9316.17
1764763278.563006,-7825.32,-11586.825,1635.975,-5424.12,-14961.195,-27609.39,-12090.375,-9318.105
1764763278.6099768,-7826.759999999999,-11587.545,1635.345,-5425.11,-14961.915,-27611.1,-12090.24,-9319.05
1764763278.6099768,-7829.865,-11591.37,1632.195,-5429.295,-14965.425,-27614.61,-12093.615,-9322.83
1764763278.6099768,-7826.58,-11587.545,1635.255,-5424.929999999999,-14960.07,-27608.265,-12091.86,-9319.59
1764763278.6099768,-7825.5,-11586.105,1636.38,-5422.995,-14957.82,-27606.69,-12090.6,-9318.24
1764763278.6099768,-7825.455,-11586.735,1635.7949999999998,-5424.344999999999,-14960.205,-27610.335,-12091.77,-9318.465
1764763278.6099768,-7824.87,-11586.42,1636.335,-5424.705,-14960.79,-27610.92,-12092.625,-9318.6
1764763278.6099768,-7828.019999999999,-11590.065,1633.185,-5427.675,-14965.02,-27614.475,-12096.09,-9322.11
1764763278.6099768,-7823.655,-11585.43,1637.1,-5422.815,-14960.115,-27607.5,-12091.23,-9317.61
1764763278.6099768,-7822.934999999999,-11584.485,1638.0449999999998,-5422.185,-14957.955,-27605.16,-12089.205,-9316.395
1764763278.6110108,-7824.195,-11586.105,1636.83,-5423.535,-14960.295,-27608.04,-12091.455,-9317.79
1764763278.6110108,-7827.705,-11589.48,1633.275,-5427.09,-14965.785,-27613.53,-12096.0,-9320.715
1764763278.6110108,-7823.969999999999,-11585.565,1637.1899999999998,-5423.67,-14964.345,-27613.08,-12092.445,-9317.115
1764763278.6110108,-7826.849999999999,-11589.165,1632.96,-5428.53,-14969.43,-27617.715,-12095.91,-9319.815
1764763278.6110108,-7827.21,-11590.38,1632.06,-5429.16,-14969.88,-27617.58,-12096.99,-9320.49
1764763278.6110108,-7826.49,-11589.03,1634.04,-5426.639999999999,-14963.265,-27612.315,-12094.965,-9320.04
1764763278.6110108,-7821.99,-11583.945,1639.71,-5419.844999999999,-14955.165,-27605.745,-12090.42,-9315.09
1764763278.6110108,-7822.08,-11583.54,1640.205,-5418.764999999999,-14954.22,-27604.575,-12089.745,-9314.28
1764763278.6110108,-7822.44,-11584.98,1638.99,-5419.395,-14955.84,-27604.8,-12089.655,-9315.045
1764763278.6110108,-7823.295,-11586.78,1637.145,-5422.139999999999,-14959.035,-27606.915,-12091.725,-9315.9
1764763278.6110108,-7828.29,-11591.46,1632.87,-5427.0,-14964.615,-27613.53,-12096.72,-9321.075
1764763278.6110108,-7825.005,-11587.95,1636.74,-5423.67,-14961.15,-27610.65,-12093.12,-9317.97
1764763278.6110108,-7827.165,-11590.2,1633.86,-5426.145,-14962.59,-27610.29,-12094.02,-9320.49
1764763278.6110108,-7824.87,-11587.545,1635.75,-5423.76,-14958.675,-27605.205,-12091.68,-9318.465
1764763278.6110108,-7825.634999999999,-11587.545,1635.12,-5423.895,-14959.665,-27607.995,-12093.3,-9318.645
1764763278.6558452,-7830.09,-11591.82,1631.25,-5427.675,-14964.21,-27613.89,-12097.395,-9322.605
1764763278.6558452,-7830.09,-11591.055,1632.06,-5427.855,-14963.94,-27614.07,-12097.44,-9322.92
1764763278.6558452,-7828.469999999999,-11589.93,1633.635,-5426.145,-14962.995,-27613.17,-12096.54,-9321.255
1764763278.6558452,-7822.44,-11583.765,1638.99,-5420.385,-14957.865,-27608.895,-12090.78,-9315.315
1764763278.6558452,-7823.384999999999,-11585.16,1638.09,-5422.5,-14960.79,-27612.54,-12092.625,-9315.81
1764763278.6558452,-7828.38,-11590.02,1633.005,-5426.91,-14966.685,-27618.39,-12098.205,-9320.985
1764763278.6558452,-7825.724999999999,-11587.68,1635.57,-5424.929999999999,-14964.525,-27614.565,-12095.235,-9318.555
1764763278.6558452,-7830.54,-11592.495,1631.34,-5428.53,-14965.425,-27614.025,-12098.385,-9323.55
1764763278.6558452,-7830.945,-11592.63,1630.575,-5429.115,-14965.29,-27611.415,-12097.845,-9323.505
1764763278.6558452,-7825.184999999999,-11586.69,1636.38,-5423.445,-14960.385,-27607.68,-12093.795,-9317.34
1764763278.6558452,-7826.13,-11587.95,1634.6699999999998,-5424.615,-14962.635,-27610.47,-12095.64,-9318.51
1764763278.6558452,-7823.88,-11585.295,1637.55,-5422.23,-14960.7,-27608.715,-12093.03,-9315.72
1764763278.6558452,-7823.655,-11584.665,1637.91,-5422.094999999999,-14960.115,-27608.445,-12092.22,-9315.135
1764763278.6558452,-7822.349999999999,-11583.225,1638.63,-5421.645,-14958.99,-27607.59,-12091.455,-9313.965
1764763278.6558452,-7821.764999999999,-11583.99,1638.3149999999998,-5422.77,-14960.295,-27608.58,-12091.23,-9313.56
1764763278.6558452,-7826.894999999999,-11589.795,1631.5649999999998,-5429.79,-14967.945,-27614.925,-12097.26,-9318.645
1764763278.6558452,-7823.88,-11586.87,1635.255,-5427.224999999999,-14966.1,-27612.225,-12095.01,-9315.405
1764763278.6558452,-7825.95,-11588.265,1633.6799999999998,-5428.665,-14968.08,-27614.97,-12098.115,-9318.24
1764763278.6558452,-7825.23,-11586.69,1636.47,-5424.705,-14962.32,-27611.73,-12096.54,-9317.925
1764763278.6558452,-7823.745,-11584.845,1638.405,-5421.554999999999,-14957.73,-27607.14,-12092.895,-9315.675
1764763278.6558452,-7826.67,-11587.635,1634.31,-5426.46,-14962.635,-27612.225,-12096.225,-9318.555
1764763278.6558452,-7825.815,-11587.725,1634.22,-5427.495,-14963.265,-27612.405,-12096.63,-9318.465
1764763278.7014143,-7826.49,-11588.175,1633.23,-5429.295,-14966.91,-27615.96,-12096.945,-9318.825
1764763278.7014143,-7824.735,-11586.24,1634.985,-5428.08,-14967.765,-27618.57,-12096.405,-9317.43
1764763278.7014143,-7819.2,-11581.47,1640.475,-5420.565,-14958.135,-27610.29,-12090.24,-9312.93
1764763278.7014143,-7821.134999999999,-11583.63,1639.08,-5421.014999999999,-14955.435,-27606.15,-12090.33,-9314.955
1764763278.7014143,-7821.945,-11584.17,1637.91,-5422.23,-14957.055,-27607.995,-12091.77,-9315.9
1764763278.7014143,-7825.365,-11587.77,1633.905,-5425.514999999999,-14958.315,-27607.32,-12093.93,-9318.6
1764763278.7014143,-7821.945,-11584.53,1637.28,-5422.32,-14956.38,-27603.72,-12090.87,-9315.27
1764763278.7014143,-7821.719999999999,-11584.44,1637.865,-5422.86,-14958.45,-27606.42,-12091.365,-9314.955
1764763278.7014143,-7823.025,-11586.24,1636.74,-5424.615,-14960.43,-27609.075,-12093.57,-9316.935
1764763278.7014143,-7827.21,-11590.155,1633.005,-5428.8,-14965.02,-27613.575,-12097.845,-9320.445
1764763278.7014143,-7827.389999999999,-11590.695,1632.6,-5429.205,-14966.415,-27615.915,-12098.115,-9320.805
1764763278.7014143,-7823.655,-11587.095,1636.47,-5425.83,-14962.995,-27614.205,-12094.695,-9316.89
1764763278.7014143,-7818.84,-11581.605,1641.51,-5421.105,-14958.18,-27609.705,-12089.88,-9311.4
1764763278.7014143,-7820.505,-11583.18,1639.665,-5422.5,-14959.215,-27611.19,-12091.095,-9313.29
1764763278.7014143,-7822.665,-11585.295,1637.595,-5424.165,-14958.54,-27608.445,-12091.14,-9315.495
1764763278.7024324,-7825.184999999999,-11587.905,1635.12,-5426.91,-14960.115,-27609.255,-12093.84,-9318.105
1764763278.7024324,-7829.415,-11591.91,1631.4299999999998,-5431.41,-14965.2,-27615.825,-12098.97,-9321.93
1764763278.7024324,-7826.49,-11589.48,1634.535,-5429.205,-14962.815,-27614.115,-12097.08,-9319.815
1764763278.7024324,-7821.764999999999,-11584.665,1639.26,-5424.66,-14958.63,-27610.425,-12092.67,-9315.9
1764763278.7024324,-7824.24,-11586.825,1636.155,-5427.179999999999,-14962.095,-27614.655,-12095.055,-9318.285
1764763278.7024324,-7821.405,-11583.405,1639.845,-5423.94,-14959.26,-27611.64,-12091.455,-9315.0
1764763278.7024324,-7822.44,-11584.98,1638.9,-5425.38,-14961.42,-27612.225,-12092.895,-9316.53
1764763278.7024324,-7817.849999999999,-11580.57,1642.6799999999998,-5421.105,-14956.92,-27605.97,-12088.755,-9311.985
1764763278.7024324,-7820.82,-11584.44,1638.405,-5424.525,-14959.35,-27608.085,-12091.23,-9315.18
1764763278.7487166,-7824.915,-11588.535,1634.355,-5428.304999999999,-14963.76,-27613.44,-12094.74,-9319.455
1764763278.7487166,-7821.99,-11584.98,1637.64,-5424.929999999999,-14960.295,-27610.155,-12091.59,-9315.63
1764763278.7487166,-7825.23,-11588.265,1634.22,-5427.99,-14963.535,-27613.08,-12094.695,-9318.33
1764763278.7487166,-7819.514999999999,-11583.18,1639.395,-5422.185,-14958.315,-27608.625,-12089.88,-9313.47
1764763278.7487166,-7818.884999999999,-11582.82,1639.1699999999998,-5422.455,-14957.82,-27608.49,-12089.565,-9313.785
1764763278.7487166,-7820.549999999999,-11584.395,1638.0,-5424.615,-14959.305,-27609.975,-12091.86,-9314.955
1764763278.7487166,-7824.915,-11588.94,1633.59,-5429.205,-14963.805,-27615.42,-12095.37,-9319.77
1764763278.7487166,-7823.745,-11588.22,1634.76,-5428.755,-14963.355,-27614.7,-12094.335,-9318.78
1764763278.7487166,-7818.57,-11582.505,1640.115,-5423.535,-14959.035,-27609.57,-12088.89,-9313.56
1764763278.7487166,-7819.019999999999,-11582.595,1639.4399999999998,-5422.86,-14959.35,-27609.39,-12088.89,-9314.145
1764763278.7487166,-7819.92,-11584.71,1636.965,-5424.48,-14960.745,-27611.01,-12091.59,-9315.63
1764763278.7487166,-7824.96,-11589.75,1632.51,-5430.014999999999,-14964.975,-27616.05,-12096.765,-9320.49
1764763278.7487166,-7821.855,-11586.33,1636.38,-5426.145,-14960.88,-27612.945,-12092.85,-9317.115
1764763278.7487166,-7823.07,-11586.555,1635.975,-5426.639999999999,-14961.555,-27613.44,-12093.795,-9318.105
1764763278.7487166,-7827.57,-11591.235,1631.4299999999998,-5431.545,-14966.415,-27618.03,-12098.34,-9322.605
1764763278.7487166,-7826.13,-11590.47,1632.51,-5430.33,-14965.425,-27617.04,-12097.215,-9321.615
1764763278.7487166,-7824.375,-11588.31,1634.085,-5428.304999999999,-14963.94,-27615.195,-12095.91,-9319.635
1764763278.7487166,-7820.054999999999,-11584.035,1637.0549999999998,-5424.84,-14960.25,-27611.28,-12092.13,-9315.405
1764763278.7487166,-7815.96,-11579.625,1641.15,-5420.745,-14956.38,-27606.915,-12087.99,-9311.445
1764763278.7487166,-7821.63,-11585.34,1636.245,-5426.505,-14961.465,-27612.405,-12093.75,-9316.8
1764763278.7487166,-7821.495,-11585.97,1636.38,-5426.099999999999,-14961.42,-27612.045,-12092.265,-9316.98
1764763278.7487166,-7816.815,-11580.75,1641.465,-5420.969999999999,-14956.605,-27607.23,-12088.08,-9312.435
1764763278.7952557,-7817.4,-11581.065,1642.005,-5420.61,-14956.83,-27609.255,-12089.34,-9312.165
1764763278.7952557,-7820.82,-11585.475,1637.685,-5425.605,-14960.88,-27614.115,-12093.435,-9316.305
1764763278.7952557,-7821.585,-11586.96,1636.83,-5426.639999999999,-14962.635,-27614.88,-12093.705,-9316.755
1764763278.7952557,-7820.73,-11586.42,1637.55,-5425.155,-14961.69,-27612.045,-12092.04,-9316.395
1764763278.7952557,-7820.37,-11585.88,1637.91,-5424.929999999999,-14960.115,-27608.355,-12090.24,-9315.765
1764763278.7952557,-7819.2,-11584.44,1639.3049999999998,-5423.849999999999,-14957.685,-27606.42,-12089.07,-9314.19
1764763278.7952557,-7816.094999999999,-11581.065,1642.8149999999998,-5420.655,-14955.705,-27605.565,-12086.955,-9310.995
1764763278.7952557,-7819.65,-11584.62,1638.945,-5423.804999999999,-14958.72,-27608.805,-12090.69,-9314.055
1764763278.7952557,-7825.005,-11590.29,1632.4199999999998,-5429.429999999999,-14964.84,-27614.115,-12095.64,-9320.625
1764763278.7952557,-7824.375,-11589.435,1632.645,-5428.665,-14964.12,-27614.025,-12094.38,-9320.445
1764763278.79627,-7822.98,-11588.76,1634.085,-5427.27,-14962.23,-27613.17,-12092.76,-9318.735
1764763278.79627,-7820.82,-11587.185,1635.885,-5425.335,-14960.295,-27611.73,-12092.805,-9317.07
1764763278.79627,-7819.875,-11585.88,1637.1,-5424.929999999999,-14959.125,-27610.965,-12092.85,-9316.44
1764763278.79627,-7816.545,-11581.29,1640.475,-5421.465,-14955.84,-27607.815,-12088.98,-9312.57
1764763278.79627,-7816.365,-11581.38,1640.16,-5421.465,-14955.705,-27607.815,-12088.53,-9312.84
1764763278.79627,-7815.78,-11581.29,1641.15,-5421.33,-14955.165,-27607.59,-12087.675,-9311.94
1764763278.79627,-7815.554999999999,-11580.48,1642.41,-5420.52,-14954.67,-27607.095,-12086.73,-9310.68
1764763278.7972684,-7817.535,-11582.505,1640.205,-5422.32,-14956.92,-27608.94,-12089.61,-9313.515
1764763278.7972684,-7820.054999999999,-11584.845,1637.685,-5423.985,-14959.125,-27610.92,-12091.725,-9315.63
1764763278.7972684,-7822.934999999999,-11587.815,1634.445,-5427.719999999999,-14962.14,-27614.385,-12094.74,-9318.465
1764763278.7972684,-7820.054999999999,-11584.62,1637.73,-5424.57,-14959.17,-27610.74,-12092.355,-9315.945
1764763278.7972684,-7823.88,-11589.705,1632.825,-5429.115,-14963.49,-27615.42,-12096.405,-9320.355
1764763278.7972684,-7824.014999999999,-11590.65,1631.61,-5429.835,-14964.48,-27616.545,-12097.62,-9320.895
1764763278.7972684,-7822.575,-11589.12,1632.51,-5428.575,-14963.13,-27615.195,-12096.765,-9319.32
1764763278.841345,-7822.485,-11588.13,1634.355,-5427.675,-14962.32,-27614.385,-12096.585,-9318.015
1764763278.841345,-7816.815,-11582.28,1639.935,-5421.87,-14956.335,-27608.58,-12090.645,-9311.985
1764763278.841345,-7817.58,-11584.305,1637.955,-5423.085,-14958.54,-27610.11,-12091.23,-9313.29
1764763278.841345,-7822.98,-11589.615,1632.87,-5428.8,-14964.66,-27616.32,-12097.08,-9320.355
1764763278.841345,-7819.29,-11585.565,1636.38,-5425.65,-14960.97,-27612.81,-12093.975,-9316.71
1764763278.841345,-7820.505,-11587.59,1635.3,-5427.495,-14962.23,-27613.53,-12095.37,-9317.97
1764763278.841345,-7816.769999999999,-11583.63,1639.08,-5422.724999999999,-14958.72,-27609.57,-12091.59,-9313.695
1764763278.841345,-7817.804999999999,-11584.395,1637.865,-5423.49,-14959.17,-27610.74,-12092.67,-9314.595
1764763278.841345,-7822.665,-11588.985,1633.6799999999998,-5428.17,-14963.22,-27615.15,-12096.315,-9319.14
1764763278.841345,-7822.259999999999,-11588.715,1633.635,-5427.855,-14963.265,-27615.465,-12095.775,-9318.33
1764763278.841345,-7818.165,-11585.25,1637.01,-5424.3,-14959.44,-27612.27,-12092.22,-9314.73
1764763278.841345,-7816.59,-11583.81,1637.55,-5423.219999999999,-14958.225,-27611.415,-12091.095,-9313.47
1764763278.842884,-7815.014999999999,-11581.695,1640.07,-5421.195,-14957.145,-27609.795,-12089.7,-9312.255
1764763278.842884,-7815.915,-11582.415,1640.025,-5421.599999999999,-14957.325,-27610.92,-12089.88,-9313.02
1764763278.842884,-7818.615,-11585.745,1636.56,-5424.795,-14960.475,-27613.89,-12092.355,-9315.765
1764763278.842884,-7816.905,-11583.27,1638.45,-5423.04,-14958.63,-27611.595,-12091.5,-9314.145
1764763278.842884,-7821.495,-11588.265,1634.445,-5427.495,-14963.13,-27615.6,-12096.18,-9318.465
1764763278.842884,-7822.304999999999,-11589.48,1633.41,-5428.665,-14963.76,-27616.23,-12096.45,-9319.14
1764763278.842884,-7818.434999999999,-11586.24,1636.38,-5425.875,-14961.6,-27613.89,-12094.065,-9316.44
1764763278.842884,-7813.934999999999,-11581.29,1641.645,-5421.195,-14956.74,-27609.12,-12089.475,-9311.445
1764763278.8904593,-7815.24,-11581.56,1641.06,-5421.87,-14957.28,-27609.3,-12089.655,-9312.12
1764763278.8904593,-7816.815,-11583.405,1639.035,-5423.895,-14959.125,-27610.83,-12091.815,-9314.37
1764763278.8904593,-7814.115,-11580.435,1641.96,-5420.969999999999,-14955.93,-27609.435,-12088.44,-9311.94
1764763278.8904593,-7816.275,-11582.73,1639.395,-5422.185,-14957.28,-27611.325,-12090.195,-9313.515
1764763278.8904593,-7817.4,-11583.72,1638.855,-5422.77,-14958.765,-27612.18,-12090.915,-9314.82
1764763278.8904593,-7818.705,-11584.89,1636.83,-5424.974999999999,-14960.16,-27613.755,-12091.995,-9316.395
1764763278.8904593,-7815.195,-11581.245,1640.745,-5421.24,-14957.1,-27610.875,-12089.565,-9312.39
1764763278.8904593,-7818.03,-11583.45,1638.09,-5423.895,-14960.655,-27614.7,-12093.39,-9315.045
1764763278.8904593,-7815.465,-11581.245,1639.71,-5421.599999999999,-14959.17,-27613.08,-12091.77,-9313.74
1764763278.8904593,-7818.389999999999,-11584.485,1636.74,-5424.615,-14962.23,-27615.69,-12095.055,-9316.89
1764763278.8904593,-7816.32,-11582.055,1639.485,-5422.32,-14959.305,-27611.1,-12091.545,-9313.65
1764763278.8904593,-7815.69,-11581.47,1639.485,-5422.59,-14957.505,-27608.625,-12089.745,-9313.245
1764763278.8904593,-7816.769999999999,-11582.415,1638.225,-5423.445,-14958.72,-27611.055,-12090.78,-9314.28
1764763278.8914616,-7822.125,-11587.365,1633.455,-5428.215,-14964.255,-27617.13,-12096.045,-9319.5
1764763278.8914616,-7817.804999999999,-11583.405,1637.46,-5424.615,-14961.375,-27614.565,-12092.355,-9315.315
1764763278.8914616,-7816.139999999999,-11582.145,1638.81,-5423.355,-14960.07,-27613.17,-12091.23,-9314.73
1764763278.8914616,-7819.514999999999,-11584.98,1635.66,-5425.965,-14963.22,-27616.635,-12094.83,-9317.925
1764763278.8914616,-7817.94,-11582.865,1637.73,-5423.445,-14959.44,-27612.63,-12092.805,-9315.09
1764763278.8914616,-7820.639999999999,-11585.475,1635.03,-5425.245,-14960.07,-27611.19,-12094.065,-9318.465
1764763278.8914616,-7817.759999999999,-11581.785,1638.72,-5422.094999999999,-14957.955,-27608.94,-12090.915,-9315.45
1764763278.8914616,-7819.695,-11584.17,1637.235,-5424.57,-14960.655,-27612.27,-12092.805,-9316.935
1764763278.8914616,-7815.059999999999,-11580.165,1641.4199999999998,-5420.565,-14956.56,-27608.445,-12088.755,-9312.435
1764763278.8914616,-7815.465,-11580.93,1640.835,-5421.96,-14957.685,-27609.525,-12089.565,-9313.065
1764763278.8914616,-7822.53,-11588.58,1632.87,-5428.755,-14964.84,-27617.13,-12096.27,-9320.895
1764763278.8914616,-7823.384999999999,-11589.39,1632.51,-5429.34,-14965.38,-27617.94,-12096.45,-9321.93
1764763278.8914616,-7819.83,-11586.78,1635.7949999999998,-5426.639999999999,-14962.545,-27614.34,-12093.84,-9319.455
1764763278.8914616,-7816.59,-11583.495,1639.215,-5423.264999999999,-14959.53,-27610.605,-12090.6,-9314.955
1764763278.8914616,-7820.19,-11586.465,1636.245,-5425.965,-14962.905,-27614.295,-12094.155,-9318.06
1764763278.93511,-7820.28,-11585.925,1636.65,-5426.46,-14964.48,-27617.355,-12094.56,-9318.105
1764763278.93511,-7815.599999999999,-11581.515,1640.655,-5422.635,-14961.645,-27615.015,-12090.87,-9313.965
1764763278.93511,-7819.065,-11585.07,1636.695,-5426.594999999999,-14966.865,-27621.315,-12095.01,-9317.565
1764763278.93511,-7817.264999999999,-11583.18,1638.3149999999998,-5425.605,-14964.165,-27618.435,-12093.48,-9316.08
1764763278.93511,-7813.08,-11579.49,1642.5449999999998,-5420.295,-14954.355,-27606.69,-12087.45,-9311.67
1764763278.93511,-7814.384999999999,-11581.47,1640.835,-5421.24,-14955.57,-27608.355,-12088.98,-9313.47
1764763278.93511,-7815.465,-11582.64,1639.035,-5422.139999999999,-14954.535,-27606.555,-12089.52,-9314.685
1764763278.93511,-7817.219999999999,-11583.765,1637.685,-5423.625,-14955.48,-27606.555,-12090.87,-9316.17
1764763278.93511,-7820.28,-11586.015,1635.84,-5426.91,-14960.07,-27611.325,-12093.93,-9318.6
1764763278.93511,-7816.275,-11582.91,1639.395,-5423.355,-14956.785,-27608.85,-12090.825,-9314.19
1764763278.93511,-7815.554999999999,-11583.36,1639.4399999999998,-5422.995,-14957.595,-27610.245,-12091.32,-9314.595
1764763278.93511,-7816.679999999999,-11584.305,1638.72,-5423.94,-14958.765,-27611.415,-12091.905,-9314.865
1764763278.9363656,-7819.92,-11588.31,1635.345,-5427.54,-14962.5,-27615.195,-12095.325,-9318.645
1764763278.9363656,-7817.804999999999,-11586.33,1637.01,-5425.965,-14960.88,-27613.845,-12093.435,-9317.295
1764763278.9363656,-7813.98,-11582.865,1639.845,-5421.87,-14958.09,-27610.515,-12089.7,-9313.965
1764763278.9363656,-7820.91,-11589.615,1632.645,-5429.295,-14965.695,-27617.31,-12098.07,-9320.67
1764763278.9363656,-7821.54,-11589.57,1633.095,-5430.105,-14965.695,-27617.13,-12098.34,-9320.58
1764763278.9363656,-7816.545,-11584.62,1637.82,-5424.615,-14960.7,-27612.18,-12093.075,-9315.225
1764763278.9363656,-7816.995,-11584.53,1637.73,-5424.795,-14960.7,-27612.36,-12093.57,-9315.045
1764763278.9363656,-7820.639999999999,-11588.625,1633.365,-5429.429999999999,-14964.57,-27616.005,-12098.07,-9319.455
1764763278.9363656,-7819.695,-11587.59,1633.86,-5429.025,-14964.705,-27616.095,-12097.44,-9319.14
1764763278.9363656,-7816.094999999999,-11584.845,1637.1899999999998,-5426.01,-14962.635,-27614.43,-12094.2,-9316.08
1764763278.9363656,-7811.955,-11580.345,1642.14,-5421.24,-14958.36,-27610.83,-12089.745,-9310.905
1764763278.9363656,-7812.269999999999,-11580.525,1641.5549999999998,-5421.78,-14959.17,-27611.235,-12090.105,-9311.58
1764763278.984545,-7810.74,-11579.445,1642.14,-5420.655,-14956.83,-27609.345,-12088.62,-9310.77
1764763278.984545,-7813.215,-11581.875,1639.845,-5422.815,-14955.705,-27607.23,-12088.98,-9312.885
1764763278.984545,-7815.825,-11583.63,1638.09,-5424.255,-14957.82,-27609.93,-12091.185,-9314.37
1764763278.984545,-7820.37,-11587.995,1633.5,-5427.855,-14962.635,-27615.645,-12096.585,-9318.24
1764763278.984545,-7816.094999999999,-11583.9,1638.135,-5424.03,-14958.225,-27611.1,-12092.13,-9314.055
1764763278.984545,-7814.565,-11582.91,1638.585,-5423.13,-14957.415,-27610.47,-12090.825,-9313.11
1764763278.984545,-7817.13,-11586.06,1635.885,-5426.235,-14961.15,-27614.79,-12094.47,-9316.17
1764763278.984545,-7812.719999999999,-11582.19,1639.665,-5422.005,-14956.92,-27612.99,-12091.545,-9312.84
1764763278.984545,-7812.63,-11582.145,1639.26,-5421.87,-14957.505,-27613.755,-12092.04,-9313.605
1764763278.984545,-7812.495,-11581.83,1639.53,-5421.645,-14958.18,-27612.855,-12092.22,-9313.605
1764763278.984545,-7812.855,-11581.965,1639.755,-5422.139999999999,-14958.72,-27612.18,-12091.635,-9313.965
1764763278.9850502,-7819.245,-11588.355,1632.87,-5429.115,-14963.49,-27614.88,-12096.72,-9319.32
1764763278.9850502,-7817.804999999999,-11586.78,1634.355,-5427.945,-14961.33,-27613.575,-12095.415,-9318.555
1764763278.9850502,-7812.495,-11581.785,1639.125,-5422.23,-14956.695,-27609.93,-12090.96,-9313.38
1764763278.9850502,-7815.644999999999,-11585.385,1636.245,-5426.054999999999,-14960.655,-27614.205,-12094.02,-9316.665
1764763278.9850502,-7814.07,-11583.99,1638.0449999999998,-5424.615,-14961.195,-27614.475,-12094.245,-9315.315
1764763278.9850502,-7817.49,-11586.24,1634.445,-5428.889999999999,-14964.975,-27618.885,-12098.295,-9318.42
1764763278.9850502,-7816.905,-11585.295,1634.535,-5428.62,-14963.985,-27618.12,-12098.025,-9317.97
1764763278.9850502,-7812.0,-11580.975,1640.025,-5422.77,-14955.975,-27610.02,-12091.905,-9312.705
1764763278.9850502,-7808.804999999999,-11578.635,1641.735,-5422.275,-14957.55,-27610.38,-12089.97,-9309.915
1764763279.031805,-7809.57,-11579.31,1639.1699999999998,-5425.2,-14964.48,-27616.86,-12092.13,-9311.4
1764763279.031805,-7814.519999999999,-11584.395,1634.985,-5430.735,-14969.475,-27622.215,-12097.62,-9315.855
1764763279.031805,-7811.415,-11581.425,1639.755,-5423.94,-14956.92,-27610.29,-12091.995,-9313.11
1764763279.031805,-7813.08,-11582.91,1639.26,-5421.645,-14949.765,-27602.145,-12089.88,-9315.9
1764763279.031805,-7811.19,-11580.885,1641.375,-5419.889999999999,-14951.475,-27603.99,-12088.665,-9313.155
1764763279.031805,-7813.844999999999,-11583.9,1636.695,-5426.054999999999,-14960.385,-27614.07,-12093.165,-9315.315
1764763279.0738432,-7817.67,-11588.895,1631.385,-5433.255,-14971.5,-27626.22,-12099.105,-9319.14
1764763279.0738432,-7816.815,-11586.24,1633.635,-5432.31,-14975.505,-27630.27,-12098.745,-9317.745
1764763279.0738432,-7812.99,-11581.965,1638.54,-5426.82,-14967.945,-27625.23,-12094.965,-9314.055
1764763279.0738432,-7814.295,-11583.09,1639.1699999999998,-5423.4,-14959.35,-27613.17,-12092.355,-9316.485
1764763279.0738432,-7808.759999999999,-11577.555,1644.57,-5416.065,-14948.55,-27601.38,-12085.2,-9310.77
1764763279.0738432,-7811.594999999999,-11580.705,1641.735,-5421.105,-14957.055,-27616.5,-12090.915,-9313.38
1764763279.0738432,-7810.424999999999,-11579.895,1642.635,-5421.87,-14959.305,-27618.615,-12089.025,-9310.995
1764763279.0738432,-7811.594999999999,-11581.065,1639.485,-5425.74,-14965.605,-27619.515,-12092.13,-9312.75
1764763279.0738432,-7814.565,-11584.485,1636.74,-5429.565,-14970.015,-27621.99,-12096.945,-9316.215
1764763279.0738432,-7813.035,-11582.685,1641.06,-5421.69,-14953.14,-27601.695,-12088.935,-9313.47
1764763279.0738432,-7815.195,-11583.45,1641.195,-5417.594999999999,-14940.9,-27595.035,-12088.62,-9315.09
1764763279.0738432,-7812.045,-11580.615,1642.6799999999998,-5416.29,-14941.98,-27597.78,-12086.055,-9312.3
1764763279.0738432,-7812.09,-11581.155,1640.655,-5420.655,-14951.88,-27601.02,-12086.955,-9312.48
1764763279.0738432,-7811.73,-11580.615,1641.33,-5420.16,-14953.005,-27604.44,-12087.54,-9312.075
1764763279.0738432,-7814.34,-11583.63,1638.36,-5423.085,-14956.2,-27609.255,-12090.735,-9314.73
1764763279.0738432,-7818.929999999999,-11587.545,1634.49,-5426.685,-14959.845,-27614.745,-12095.685,-9319.14
1764763279.0738432,-7815.195,-11583.855,1638.27,-5423.445,-14956.245,-27611.82,-12092.895,-9315.45
1764763279.0738432,-7814.115,-11582.595,1638.855,-5423.13,-14955.93,-27610.605,-12092.445,-9313.965
1764763279.0738432,-7816.094999999999,-11584.485,1636.605,-5425.514999999999,-14958.45,-27612.81,-12093.3,-9315.9
1764763279.0738432,-7819.019999999999,-11588.49,1632.105,-5432.219999999999,-14969.25,-27624.645,-12098.88,-9319.635
1764763279.0738432,-7814.655,-11585.115,1634.22,-5432.67,-14973.165,-27629.01,-12098.655,-9316.845
1764763279.0738432,-7817.985,-11588.49,1630.71,-5436.36,-14979.915,-27636.03,-12102.705,-9320.49
1764763279.0738432,-7815.599999999999,-11585.205,1635.48,-5430.465,-14972.49,-27631.53,-12099.87,-9317.88
1764763279.0738432,-7813.394999999999,-11583.09,1639.71,-5422.32,-14951.925,-27606.645,-12089.07,-9314.595
1764763279.0738432,-7815.554999999999,-11584.845,1638.09,-5422.32,-14949.18,-27602.28,-12088.125,-9316.26
1764763279.0738432,-7820.19,-11589.93,1633.185,-5428.08,-14957.415,-27612.54,-12094.605,-9321.165
1764763279.0738432,-7816.049999999999,-11585.7,1636.605,-5425.965,-14957.235,-27614.07,-12092.76,-9316.89
1764763279.0738432,-7818.705,-11587.77,1634.31,-5427.81,-14960.52,-27617.31,-12095.19,-9319.23
1764763279.0738432,-7815.915,-11584.485,1636.965,-5425.38,-14957.415,-27613.62,-12092.13,-9316.125
1764763279.0738432,-7817.58,-11586.33,1635.075,-5428.889999999999,-14958.855,-27612.675,-12093.03,-9317.79
1764763279.0738432,-7822.215,-11592.045,1629.495,-5434.245,-14964.39,-27619.74,-12098.61,-9322.56
1764763279.0738432,-7818.075,-11587.59,1633.86,-5430.285,-14962.815,-27620.01,-12095.325,-9319.095
1764763279.0738432,-7819.38,-11588.355,1633.095,-5431.23,-14966.145,-27623.475,-12097.89,-9320.94
1764763279.0738432,-7822.44,-11591.37,1630.08,-5434.56,-14968.395,-27625.23,-12101.04,-9324.18
1764763279.0738432,-7820.054999999999,-11589.3,1631.79,-5431.679999999999,-14962.41,-27615.915,-12096.09,-9321.12
1764763279.0738432,-7820.955,-11590.65,1629.81,-5434.469999999999,-14966.865,-27618.57,-12097.845,-9322.2
1764763279.0738432,-7821.674999999999,-11592.0,1628.28,-5436.495,-14970.285,-27622.845,-12099.375,-9323.415
1764763279.0738432,-7821.045,-11590.83,1629.675,-5435.37,-14968.89,-27622.98,-12098.88,-9322.425
1764763279.0738432,-7824.195,-11593.305,1628.28,-5435.594999999999,-14966.775,-27623.97,-12101.625,-9325.395
1764763279.0738432,-7825.23,-11593.53,1628.01,-5435.775,-14966.145,-27622.53,-12101.76,-9326.745
1764763279.0738432,-7823.79,-11593.305,1627.605,-5437.17,-14968.035,-27624.24,-12102.165,-9325.53
1764763279.0738432,-7819.695,-11589.705,1630.935,-5434.514999999999,-14967.9,-27625.815,-12099.78,-9321.795
1764763279.125578,-7817.445,-11585.925,1632.96,-5433.255,-14969.385,-27627.12,-12097.665,-9318.24
1764763279.125578,-7820.009999999999,-11587.86,1630.8,-5437.395,-14973.165,-27630.045,-12099.78,-9320.4
1764763279.125578,-7815.69,-11584.035,1635.525,-5431.635,-14964.84,-27621.315,-12094.155,-9315.855
1764763279.125578,-7817.94,-11586.69,1633.995,-5431.094999999999,-14957.73,-27612.63,-12093.795,-9319.275
1764763279.125578,-7823.295,-11591.82,1629.81,-5434.965,-14963.445,-27618.57,-12098.565,-9323.865
1764763279.125578,-7822.394999999999,-11591.415,1629.63,-5435.55,-14966.55,-27621.72,-12099.015,-9323.865
1764763279.125578,-7821.674999999999,-11590.29,1630.845,-5435.685,-14967.315,-27623.16,-12099.105,-9322.695
1764763279.125578,-7819.74,-11588.13,1633.23,-5433.389999999999,-14964.84,-27623.43,-12098.52,-9320.22
1764763279.125578,-7817.58,-11585.79,1635.48,-5431.23,-14962.5,-27622.08,-12096.045,-9318.24
1764763279.125578,-7811.639999999999,-11579.85,1640.205,-5426.73,-14961.015,-27621.0,-12092.805,-9313.695
1764763279.125578,-7812.674999999999,-11580.75,1639.26,-5428.26,-14961.96,-27620.595,-12093.48,-9314.64
1764763279.125578,-7815.96,-11584.665,1635.39,-5431.995,-14963.175,-27619.47,-12095.325,-9318.195
1764763279.125578,-7813.394999999999,-11582.055,1637.775,-5428.755,-14957.595,-27613.665,-12091.455,-9315.855
1764763279.125578,-7819.065,-11587.95,1632.645,-5434.74,-14964.165,-27620.19,-12097.395,-9321.255
1764763279.125578,-7818.84,-11587.365,1633.095,-5434.605,-14964.345,-27622.08,-12098.07,-9320.445
1764763279.125578,-7820.325,-11589.03,1631.835,-5434.74,-14962.005,-27618.39,-12098.205,-9321.12
1764763279.125578,-7817.58,-11586.375,1634.31,-5432.219999999999,-14961.285,-27616.5,-12095.91,-9318.645
1764763279.125578,-7811.82,-11581.02,1639.53,-5428.304999999999,-14959.35,-27616.77,-12093.255,-9312.885
1764763279.125578,-7815.059999999999,-11584.755,1636.02,-5432.67,-14963.535,-27623.07,-12096.405,-9316.62
1764763279.125578,-7816.905,-11585.97,1635.255,-5432.94,-14963.04,-27623.295,-12096.63,-9318.105
1764763279.125578,-7814.745,-11584.665,1637.1899999999998,-5430.15,-14957.73,-27615.6,-12092.355,-9316.08
1764763279.125578,-7815.195,-11585.43,1636.515,-5431.545,-14960.115,-27618.03,-12093.66,-9316.62
1764763279.125578,-7810.74,-11580.3,1640.7,-5427.495,-14956.875,-27615.78,-12090.735,-9313.02
1764763279.125578,-7811.325,-11580.165,1640.205,-5428.17,-14957.865,-27615.78,-12091.365,-9313.605
1764763279.1700912,-7813.394999999999,-11582.64,1637.91,-5430.465,-14958.27,-27614.79,-12092.13,-9314.73
1764763279.1700912,-7815.24,-11584.665,1635.9299999999998,-5432.04,-14959.62,-27617.715,-12093.885,-9316.575
1764763279.1700912,-7811.054999999999,-11579.535,1640.5649999999998,-5428.26,-14955.705,-27614.295,-12090.735,-9313.02
1764763279.1700912,-7813.98,-11583.0,1636.785,-5432.67,-14959.035,-27618.12,-12094.74,-9316.35
1764763279.1700912,-7811.639999999999,-11581.065,1639.485,-5429.969999999999,-14957.055,-27616.77,-12092.265,-9313.245
1764763279.1700912,-7811.73,-11581.605,1638.855,-5429.969999999999,-14958.945,-27618.21,-12092.58,-9313.605
1764763279.1700912,-7815.599999999999,-11585.43,1634.4,-5434.83,-14963.895,-27624.555,-12097.26,-9317.88
1764763279.1700912,-7814.07,-11584.17,1635.03,-5434.38,-14963.355,-27624.015,-12095.46,-9316.89
1764763279.1700912,-7809.75,-11579.355,1639.08,-5429.79,-14959.035,-27618.885,-12090.51,-9312.255
1764763279.1700912,-7812.674999999999,-11582.55,1635.9299999999998,-5432.445,-14959.89,-27617.625,-12092.67,-9314.82
1764763279.1700912,-7815.42,-11585.97,1632.5549999999998,-5435.865,-14962.635,-27620.19,-12095.64,-9317.745
1764763279.1700912,-7812.0,-11582.595,1636.0649999999998,-5432.175,-14960.115,-27618.975,-12093.345,-9314.91
1764763279.1700912,-7815.24,-11585.07,1633.725,-5433.57,-14962.185,-27622.305,-12097.305,-9317.97
1764763279.1700912,-7812.495,-11581.965,1637.235,-5430.24,-14959.62,-27621.27,-12094.245,-9314.865
1764763279.1700912,-7813.98,-11583.855,1635.12,-5432.67,-14963.535,-27624.915,-12095.28,-9316.08
1764763279.1700912,-7816.815,-11586.33,1631.655,-5435.73,-14967.765,-27628.38,-12099.42,-9318.42
1764763279.1700912,-7812.09,-11581.11,1636.875,-5430.285,-14959.395,-27619.695,-12093.66,-9313.02
1764763279.1700912,-7810.019999999999,-11579.625,1638.495,-5428.665,-14953.455,-27612.63,-12089.7,-9311.535
1764763279.1700912,-7810.155,-11579.715,1637.82,-5428.935,-14956.425,-27615.69,-12090.51,-9311.625
1764763279.17163,-7815.915,-11585.835,1632.285,-5434.83,-14963.265,-27622.395,-12096.72,-9316.395
1764763279.17163,-7816.184999999999,-11585.25,1632.96,-5434.514999999999,-14963.085,-27622.08,-12097.305,-9315.63
1764763279.17163,-7813.035,-11582.37,1635.885,-5431.95,-14959.98,-27618.84,-12094.695,-9313.155
1764763279.17163,-7809.299999999999,-11578.995,1639.08,-5428.665,-14957.775,-27616.23,-12091.68,-9309.78
1764763279.17163,-7813.665,-11584.08,1634.445,-5433.66,-14963.76,-27622.485,-12096.27,-9314.235
1764763279.2157538,-7812.54,-11583.27,1635.255,-5432.715,-14962.68,-27622.89,-12095.595,-9313.245
1764763279.2157538,-7817.4,-11587.59,1630.935,-5436.045,-14965.605,-27627.345,-12100.815,-9317.565
1764763279.2157538,-7818.795,-11588.355,1630.98,-5435.235,-14963.445,-27625.545,-12101.13,-9319.32
1764763279.2157538,-7817.355,-11587.275,1632.285,-5434.245,-14963.22,-27624.195,-12098.16,-9317.79
1764763279.2157538,-7812.405,-11582.64,1636.695,-5431.275,-14963.625,-27621.99,-12094.47,-9311.805
1764763279.2157538,-7813.98,-11583.855,1634.49,-5432.804999999999,-14965.38,-27624.06,-12096.585,-9313.965
1764763279.2157538,-7818.389999999999,-11588.22,1629.54,-5436.945,-14967.315,-27627.435,-12100.995,-9318.78
1764763279.2157538,-7817.715,-11587.275,1630.755,-5435.145,-14962.23,-27621.405,-12098.745,-9317.43
1764763279.2157538,-7813.08,-11582.1,1635.9299999999998,-5431.005,-14959.53,-27617.535,-12094.335,-9312.48
1764763279.2157538,-7811.91,-11581.155,1636.155,-5430.735,-14960.835,-27618.57,-12094.02,-9312.03
1764763279.2157538,-7812.674999999999,-11581.695,1635.39,-5430.599999999999,-14961.375,-27620.64,-12094.74,-9312.12
1764763279.2157538,-7813.125,-11581.47,1635.48,-5429.655,-14959.395,-27620.955,-12094.965,-9313.02
1764763279.2169492,-7811.684999999999,-11580.57,1637.01,-5427.495,-14957.28,-27619.425,-12094.065,-9312.12
1764763279.2169492,-7810.11,-11579.22,1638.09,-5426.865,-14958.63,-27621.675,-12094.02,-9311.13
1764763279.2169492,-7810.155,-11579.85,1637.37,-5426.955,-14958.9,-27621.225,-12093.615,-9310.905
1764763279.2169492,-7813.755,-11584.17,1633.59,-5431.139999999999,-14961.15,-27622.035,-12096.765,-9314.28
1764763279.2169492,-7817.985,-11588.175,1629.72,-5434.695,-14964.57,-27624.33,-12099.6,-9317.835
1764763279.2169492,-7817.13,-11586.87,1631.205,-5433.66,-14964.66,-27623.115,-12097.665,-9317.025
1764763279.2169492,-7820.054999999999,-11589.525,1628.46,-5437.08,-14969.07,-27628.785,-12102.075,-9320.58
1764763279.2169492,-7818.299999999999,-11588.4,1629.495,-5434.92,-14967.09,-27627.345,-12101.175,-9319.41
1764763279.2169492,-7814.79,-11584.62,1634.265,-5430.24,-14960.34,-27619.515,-12095.865,-9315.405
1764763279.2169492,-7816.455,-11585.34,1633.455,-5431.365,-14961.87,-27621.225,-12097.665,-9316.71
1764763279.2638035,-7819.065,-11588.805,1629.45,-5434.514999999999,-14967.45,-27627.84,-12101.445,-9319.95
1764763279.2638035,-7813.62,-11583.99,1633.59,-5430.014999999999,-14965.29,-27625.23,-12097.53,-9315.09
1764763279.2638035,-7812.179999999999,-11582.325,1635.21,-5428.98,-14965.245,-27625.545,-12096.675,-9312.615
1764763279.2638035,-7812.63,-11583.945,1633.77,-5429.969999999999,-14965.335,-27626.49,-12097.17,-9313.335
1764763279.3084824,-7817.67,-11589.03,1629.495,-5434.469999999999,-14965.965,-27624.78,-12100.005,-9316.8
1764763279.3084824,-7816.679999999999,-11587.815,1630.935,-5433.075,-14965.65,-27624.87,-12099.015,-9315.675
1764763279.3084824,-7812.179999999999,-11582.28,1637.37,-5425.335,-14957.955,-27619.02,-12094.425,-9312.48
1764763279.3084824,-7815.465,-11585.07,1634.76,-5427.09,-14956.74,-27616.815,-12095.775,-9315.945
1764763279.3084824,-7813.035,-11583.63,1635.975,-5425.65,-14956.155,-27615.87,-12094.11,-9313.695
1764763279.3084824,-7815.96,-11586.375,1632.78,-5430.195,-14962.95,-27623.565,-12099.15,-9316.665
1764763279.3084824,-7816.32,-11586.735,1633.32,-5430.105,-14963.805,-27624.825,-12101.04,-9317.115
1764763279.3084824,-7813.485,-11583.09,1637.685,-5425.29,-14954.58,-27613.98,-12095.325,-9313.335
1764763279.3084824,-7810.065,-11579.445,1639.845,-5423.219999999999,-14952.465,-27609.075,-12090.195,-9309.015
1764763279.3084824,-7816.32,-11586.15,1633.185,-5430.195,-14959.845,-27616.95,-12096.27,-9315.09
1764763279.3084824,-7816.545,-11586.645,1633.41,-5430.105,-14961.465,-27619.065,-12097.215,-9314.415
1764763279.3084824,-7811.594999999999,-11581.02,1640.205,-5421.195,-14954.985,-27616.14,-12093.795,-9309.69
1764763279.3084824,-7814.924999999999,-11583.54,1638.45,-5421.33,-14956.65,-27619.92,-12098.115,-9313.965
1764763279.3084824,-7812.719999999999,-11581.605,1639.62,-5421.51,-14958.72,-27619.38,-12096.315,-9312.03
1764763279.30938,-7815.465,-11584.8,1636.0649999999998,-5424.66,-14960.34,-27621.855,-12099.105,-9315.18
1764763279.30938,-7811.82,-11581.29,1639.215,-5420.295,-14952.735,-27613.08,-12094.965,-9311.58
1764763279.30938,-7812.09,-11581.74,1639.1699999999998,-5421.15,-14953.005,-27614.115,-12094.965,-9311.94
1764763279.30938,-7811.46,-11581.245,1639.98,-5420.565,-14954.445,-27616.815,-12094.38,-9311.13
1764763279.30938,-7809.615,-11579.76,1641.195,-5420.52,-14956.83,-27618.165,-12093.885,-9309.285
1764763279.30938,-7811.91,-11582.37,1639.1699999999998,-5422.545,-14959.845,-27620.64,-12096.855,-9311.13
1764763279.30938,-7816.769999999999,-11586.33,1635.21,-5426.415,-14963.355,-27622.305,-12100.59,-9314.91
1764763279.30938,-7812.585,-11581.515,1639.3049999999998,-5421.51,-14956.38,-27614.07,-12094.695,-9310.14
1764763279.30938,-7811.865,-11581.245,1639.98,-5420.115,-14952.87,-27610.965,-12094.47,-9310.275
1764763279.30938,-7812.224999999999,-11582.415,1638.495,-5420.969999999999,-14954.13,-27613.53,-12095.955,-9311.895
1764763279.30938,-7815.735,-11586.15,1634.715,-5424.75,-14959.305,-27619.83,-12100.905,-9316.17
1764763279.30938,-7815.24,-11584.62,1636.38,-5422.77,-14958.18,-27618.84,-12099.915,-9314.64
1764763279.30938,-7811.054999999999,-11580.66,1639.935,-5418.63,-14953.905,-27614.7,-12095.055,-9310.59
1764763279.30938,-7810.2,-11579.49,1640.88,-5417.19,-14951.7,-27608.265,-12091.41,-9308.655
1764763279.30938,-7811.28,-11580.3,1640.07,-5417.55,-14953.59,-27610.065,-12092.58,-9309.24
1764763279.30938,-7817.67,-11586.69,1634.58,-5423.895,-14960.115,-27617.175,-12099.24,-9315.135
1764763279.30938,-7813.889999999999,-11583.54,1636.605,-5421.33,-14957.28,-27614.43,-12096.09,-9311.265
1764763279.30938,-7816.005,-11585.205,1634.31,-5423.355,-14960.07,-27616.095,-12098.16,-9313.11
1764763279.30938,-7815.15,-11584.08,1635.345,-5421.599999999999,-14958.99,-27615.24,-12098.745,-9312.615
1764763279.30938,-7811.28,-11579.895,1640.4299999999998,-5416.425,-14954.22,-27611.73,-12096.18,-9309.645
1764763279.30938,-7814.835,-11583.585,1637.505,-5418.99,-14956.065,-27614.835,-12098.655,-9313.695
1764763279.30938,-7816.455,-11584.755,1635.21,-5420.115,-14957.775,-27615.87,-12099.915,-9314.19
1764763279.30938,-7815.195,-11583.63,1636.245,-5419.53,-14957.145,-27615.375,-12098.79,-9312.795
1764763279.30938,-7809.03,-11577.87,1642.185,-5414.264999999999,-14951.88,-27609.705,-12093.12,-9307.485
1764763279.30938,-7809.03,-11577.555,1642.41,-5414.58,-14951.97,-27609.75,-12092.355,-9306.945
1764763279.30938,-7814.205,-11582.955,1636.83,-5419.349999999999,-14957.415,-27614.565,-12098.295,-9312.525
1764763279.30938,-7814.34,-11582.595,1637.235,-5418.945,-14956.92,-27613.89,-12097.71,-9311.805
1764763279.30938,-7815.87,-11583.945,1636.02,-5419.98,-14957.775,-27615.96,-12099.42,-9312.975
1764763279.355734,-7816.455,-11584.53,1634.58,-5420.565,-14958.36,-27616.635,-12100.32,-9313.74
1764763279.355734,-7815.33,-11584.44,1634.895,-5419.71,-14957.46,-27615.42,-12100.23,-9313.515
1764763279.355734,-7812.09,-11580.93,1639.035,-5416.02,-14954.625,-27611.865,-12096.99,-9310.095
1764763279.355734,-7816.365,-11584.665,1634.8049999999998,-5419.71,-14958.225,-27615.375,-12100.815,-9312.705
1764763279.355734,-7815.78,-11584.575,1634.31,-5420.07,-14958.18,-27615.825,-12100.005,-9312.84
1764763279.355734,-7812.09,-11581.29,1637.235,-5417.505,-14955.57,-27612.99,-12096.18,-9309.15
1764763279.355734,-7807.139999999999,-11576.43,1642.185,-5412.465,-14950.62,-27608.49,-12091.455,-9304.74
1764763279.355734,-7808.625,-11577.87,1641.105,-5412.735,-14951.565,-27609.255,-12093.165,-9306.495
1764763279.355734,-7810.74,-11578.86,1639.845,-5413.635,-14952.06,-27610.065,-12094.155,-9307.89
1764763279.355734,-7815.42,-11583.9,1635.435,-5418.495,-14957.415,-27615.285,-12098.925,-9312.93
1764763279.3567436,-7811.235,-11580.435,1639.575,-5414.849999999999,-14953.185,-27611.46,-12095.46,-9308.745
1764763279.3567436,-7811.054999999999,-11579.67,1639.53,-5414.264999999999,-14952.465,-27611.64,-12095.415,-9308.835
1764763279.3567436,-7815.105,-11583.945,1635.12,-5418.179999999999,-14955.705,-27615.285,-12098.745,-9312.57
1764763279.3567436,-7813.53,-11582.145,1637.01,-5416.29,-14954.04,-27612.855,-12097.575,-9311.22
1764763279.3567436,-7808.985,-11577.465,1641.735,-5411.52,-14949.99,-27609.03,-12093.345,-9306.315
1764763279.3567436,-7807.094999999999,-11576.205,1643.13,-5410.44,-14948.64,-27607.5,-12092.4,-9303.615
1764763279.3567436,-7807.815,-11577.42,1641.825,-5411.835,-14950.44,-27609.84,-12094.02,-9304.74
1764763279.3567436,-7812.99,-11582.37,1636.515,-5417.19,-14957.505,-27617.13,-12098.835,-9310.275
1764763279.3567436,-7810.469999999999,-11580.165,1639.1699999999998,-5415.075,-14956.065,-27615.555,-12097.26,-9308.295
1764763279.3567436,-7813.98,-11583.495,1635.615,-5418.405,-14958.585,-27617.58,-12100.545,-9312.075
1764763279.3567436,-7814.115,-11582.64,1636.11,-5416.695,-14952.735,-27610.335,-12098.205,-9311.13
1764763279.3577435,-7812.09,-11580.705,1638.405,-5414.58,-14950.89,-27607.95,-12095.82,-9309.105
1764763279.3577435,-7808.13,-11576.88,1642.41,-5411.295,-14949.0,-27607.275,-12092.94,-9305.595
1764763279.3577435,-7811.19,-11580.21,1639.125,-5415.165,-14953.995,-27613.44,-12096.045,-9308.205
1764763279.4011204,-7812.9,-11580.84,1637.955,-5417.28,-14957.46,-27617.265,-12097.17,-9309.375
1764763279.4011204,-7811.594999999999,-11579.445,1638.99,-5416.56,-14958.54,-27621.36,-12097.17,-9308.34
1764763279.4011204,-7807.59,-11575.62,1642.995,-5412.195,-14954.49,-27618.075,-12093.84,-9303.48
1764763279.4011204,-7809.434999999999,-11576.88,1641.105,-5413.23,-14952.735,-27613.35,-12094.29,-9305.505
1764763279.4011204,-7810.245,-11577.87,1639.53,-5414.625,-14955.03,-27614.43,-12096.045,-9306.585
1764763279.4011204,-7814.655,-11582.685,1634.445,-5418.495,-14953.32,-27609.615,-12096.99,-9310.95
1764763279.4011204,-7814.79,-11583.225,1634.355,-5417.55,-14949.225,-27604.8,-12094.605,-9310.68
1764763279.4011204,-7809.21,-11578.23,1639.98,-5413.41,-14947.965,-27605.205,-12091.545,-9305.64
1764763279.4011204,-7808.445,-11576.79,1641.24,-5413.905,-14949.81,-27607.68,-12091.59,-9305.01
1764763279.4011204,-7809.66,-11578.095,1640.025,-5415.66,-14951.07,-27610.245,-12092.94,-9305.505
1764763279.4011204,-7811.009999999999,-11579.445,1638.135,-5418.179999999999,-14953.005,-27612.54,-12094.605,-9306.81
1764763279.4026608,-7812.63,-11580.66,1636.83,-5418.764999999999,-14954.49,-27613.845,-12096.045,-9308.16
1764763279.4026608,-7807.455,-11575.845,1641.825,-5413.59,-14950.17,-27609.255,-12091.365,-9303.615
1764763279.4026608,-7809.165,-11577.555,1639.575,-5415.795,-14952.15,-27611.82,-12093.12,-9306.09
1764763279.4026608,-7812.855,-11581.65,1636.38,-5420.16,-14955.795,-27615.96,-12096.81,-9309.51
1764763279.4026608,-7809.075,-11578.365,1640.2949999999998,-5417.235,-14952.915,-27612.315,-12093.795,-9306.315
1764763279.4026608,-7809.21,-11578.725,1639.485,-5418.09,-14953.455,-27612.45,-12094.29,-9306.0
1764763279.4026608,-7813.62,-11582.46,1635.525,-5422.815,-14958.225,-27616.275,-12097.755,-9310.23
1764763279.403731,-7808.94,-11577.555,1639.4399999999998,-5419.395,-14955.165,-27613.935,-12094.245,-9306.27
1764763279.403731,-7808.264999999999,-11576.97,1640.88,-5417.82,-14954.94,-27616.995,-12095.325,-9307.17
1764763279.4486053,-7809.884999999999,-11577.69,1640.61,-5418.09,-14955.615,-27618.75,-12096.405,-9308.52
1764763279.4486053,-7810.74,-11578.815,1639.71,-5418.719999999999,-14956.065,-27619.605,-12096.18,-9308.745
1764763279.4486053,-7811.73,-11579.58,1637.955,-5419.26,-14953.275,-27616.14,-12095.73,-9309.15
1764763279.4486053,-7816.005,-11583.945,1633.725,-5423.219999999999,-14956.155,-27618.03,-12099.42,-9313.02
1764763279.4486053,-7811.505,-11579.13,1638.1799999999998,-5419.215,-14953.815,-27615.51,-12095.37,-9308.655
1764763279.4486053,-7812.855,-11580.885,1637.325,-5420.79,-14955.885,-27617.58,-12097.395,-9310.005
1764763279.4486053,-7817.894999999999,-11586.195,1632.915,-5425.605,-14959.665,-27621.63,-12102.66,-9314.685
1764763279.449617,-7817.04,-11584.98,1632.87,-5424.344999999999,-14958.9,-27620.685,-12102.39,-9314.775
1764763279.449617,-7816.32,-11583.945,1634.175,-5424.03,-14957.91,-27620.685,-12100.905,-9313.38
1764763279.449617,-7814.61,-11582.19,1636.425,-5422.365,-14956.2,-27619.155,-12099.33,-9311.13
1764763279.449617,-7810.559999999999,-11578.59,1640.34,-5418.135,-14953.455,-27615.915,-12095.82,-9306.99
1764763279.449617,-7809.165,-11577.51,1640.52,-5417.19,-14952.69,-27615.555,-12095.37,-9305.73
1764763279.449617,-7809.434999999999,-11577.735,1640.475,-5416.92,-14952.24,-27615.285,-12095.01,-9306.315
1764763279.449617,-7812.99,-11580.75,1637.46,-5420.79,-14955.57,-27618.525,-12098.565,-9310.32
1764763279.449617,-7816.139999999999,-11584.665,1632.78,-5424.615,-14959.665,-27622.305,-12101.715,-9314.64
1764763279.449617,-7812.99,-11581.785,1636.0649999999998,-5421.15,-14956.65,-27619.695,-12099.195,-9311.67
1764763279.449617,-7812.179999999999,-11581.155,1636.245,-5420.655,-14955.165,-27618.84,-12098.88,-9310.815
1764763279.449617,-7811.505,-11580.255,1636.9199999999998,-5419.889999999999,-14953.545,-27617.805,-12097.395,-9309.825
1764763279.449617,-7815.78,-11583.63,1633.8149999999998,-5423.535,-14957.73,-27621.63,-12101.085,-9313.425
1764763279.449617,-7815.735,-11583.405,1634.04,-5423.355,-14957.865,-27621.54,-12101.58,-9312.57
1764763279.449617,-7814.295,-11582.82,1635.075,-5422.365,-14956.92,-27620.955,-12101.13,-9311.58
1764763279.449617,-7808.535,-11577.465,1640.88,-5416.469999999999,-14952.105,-27615.33,-12095.37,-9306.225
1764763279.449617,-7807.23,-11576.745,1640.97,-5416.56,-14951.25,-27614.43,-12094.515,-9306.18
1764763279.449617,-7812.945,-11581.83,1635.7949999999998,-5421.915,-14956.38,-27619.515,-12099.645,-9311.355
1764763279.449617,-7810.559999999999,-11578.815,1638.27,-5420.025,-14954.175,-27617.265,-12097.215,-9309.015
1764763279.449617,-7814.115,-11582.01,1634.49,-5423.04,-14957.235,-27620.55,-12101.04,-9312.885
1764763279.492987,-7814.969999999999,-11582.865,1634.4,-5422.815,-14956.92,-27620.595,-12101.49,-9312.975
1764763279.492987,-7813.889999999999,-11582.19,1635.7949999999998,-5421.78,-14956.92,-27620.37,-12100.59,-9312.165
1764763279.492987,-7813.755,-11581.2,1636.56,-5421.645,-14956.92,-27621.54,-12100.455,-9311.715
1764763279.492987,-7813.08,-11581.11,1637.325,-5420.655,-14956.245,-27621.585,-12100.185,-9311.445
1764763279.492987,-7812.54,-11580.615,1637.91,-5420.295,-14955.255,-27621.0,-12100.005,-9310.77
1764763279.492987,-7811.865,-11579.805,1638.135,-5419.215,-14952.465,-27618.03,-12098.745,-9309.78
1764763279.492987,-7807.275,-11575.62,1642.995,-5414.445,-14947.56,-27612.225,-12093.84,-9304.83
1764763279.492987,-7809.48,-11577.96,1641.375,-5416.469999999999,-14951.745,-27615.78,-12096.27,-9306.54
1764763279.492987,-7810.559999999999,-11579.085,1639.845,-5418.179999999999,-14952.105,-27615.69,-12097.035,-9308.16
1764763279.492987,-7811.19,-11579.175,1639.485,-5418.315,-14950.935,-27613.395,-12096.225,-9308.88
1764763279.492987,-7811.82,-11580.12,1638.585,-5418.945,-14952.465,-27615.42,-12097.26,-9310.545
1764763279.492987,-7813.755,-11582.595,1636.155,-5421.465,-14954.895,-27618.165,-12099.915,-9313.02
1764763279.492987,-7816.995,-11585.475,1633.905,-5424.3,-14958.045,-27621.855,-12103.2,-9315.765
1764763279.492987,-7813.44,-11582.19,1637.145,-5420.7,-14955.165,-27618.975,-12099.375,-9312.03
1764763279.4940228,-7815.599999999999,-11584.215,1634.13,-5424.21,-14958.09,-27621.675,-12101.265,-9314.19
1764763279.4940228,-7810.469999999999,-11578.86,1639.4399999999998,-5419.665,-14953.005,-27615.915,-12096.54,-9309.015
1764763279.4940228,-7809.929999999999,-11578.23,1639.89,-5418.945,-14952.735,-27615.825,-12097.215,-9309.015
1764763279.4940228,-7815.195,-11583.585,1635.975,-5422.995,-14956.245,-27621.585,-12102.705,-9314.82
1764763279.4940228,-7816.275,-11583.855,1635.21,-5423.175,-14955.48,-27621.315,-12103.155,-9315.405
1764763279.4940228,-7813.035,-11580.975,1638.135,-5420.429999999999,-14953.59,-27618.615,-12100.455,-9312.48
1764763279.4940228,-7816.275,-11584.35,1634.6699999999998,-5423.715,-14957.595,-27621.765,-12103.29,-9315.54
1764763279.4940228,-7812.719999999999,-11581.245,1638.945,-5420.25,-14954.805,-27618.795,-12100.365,-9312.12
1764763279.4940228,-7812.224999999999,-11579.895,1640.07,-5418.945,-14954.085,-27617.67,-12099.825,-9310.86
1764763279.4940228,-7812.495,-11579.76,1638.945,-5419.8,-14954.67,-27618.3,-12100.59,-9310.995
1764763279.539904,-7814.655,-11582.55,1636.38,-5422.77,-14959.35,-27623.565,-12102.66,-9312.84
1764763279.539904,-7816.815,-11585.295,1634.085,-5425.92,-14964.84,-27629.595,-12106.17,-9315.63
1764763279.539904,-7812.224999999999,-11581.02,1638.585,-5420.969999999999,-14960.79,-27626.49,-12102.93,-9310.905
1764763279.539904,-7813.575,-11582.91,1636.74,-5421.69,-14959.71,-27625.365,-12103.92,-9312.255
1764763279.539904,-7817.804999999999,-11587.41,1632.24,-5425.29,-14959.53,-27622.665,-12105.585,-9316.71
1764763279.5404298,-7816.23,-11584.98,1633.86,-5423.67,-14958.09,-27620.46,-12103.875,-9314.505
1764763279.5404298,-7811.82,-11580.57,1638.81,-5418.99,-14954.445,-27618.345,-12100.95,-9310.77
1764763279.5404298,-7813.71,-11582.865,1636.875,-5420.295,-14954.22,-27618.84,-12102.345,-9313.335
1764763279.5404298,-7810.74,-11580.57,1638.99,-5418.495,-14955.075,-27620.955,-12100.68,-9311.04
1764763279.5404298,-7814.88,-11583.315,1635.7949999999998,-5421.87,-14958.72,-27625.185,-12104.28,-9314.595
1764763279.5404298,-7812.63,-11581.515,1637.145,-5419.98,-14957.37,-27620.955,-12100.635,-9311.895
1764763279.5404298,-7814.34,-11582.64,1636.335,-5421.915,-14960.655,-27622.35,-12101.715,-9312.48
1764763279.5404298,-7810.245,-11578.5,1641.105,-5416.245,-14949.675,-27610.65,-12095.37,-9307.89
1764763279.5404298,-7810.155,-11578.905,1641.645,-5414.804999999999,-14948.775,-27609.3,-12096.45,-9308.88
1764763279.5404298,-7812.315,-11580.975,1638.63,-5416.965,-14950.89,-27611.82,-12098.205,-9311.04
1764763279.5404298,-7812.269999999999,-11581.65,1636.785,-5418.81,-14953.635,-27615.24,-12099.78,-9311.895
1764763279.5404298,-7812.945,-11582.55,1636.335,-5418.945,-14955.3,-27617.04,-12100.77,-9313.515
1764763279.5404298,-7816.815,-11585.835,1633.455,-5422.23,-14958.495,-27621.09,-12104.19,-9317.115
1764763279.5404298,-7816.275,-11585.97,1634.625,-5422.5,-14958.945,-27622.44,-12104.235,-9316.26
1764763279.5404298,-7813.53,-11583.27,1636.695,-5421.465,-14957.73,-27620.685,-12101.625,-9313.74
1764763279.5404298,-7809.255,-11578.995,1640.835,-5417.01,-14954.175,-27616.545,-12097.53,-9308.97
1764763279.5404298,-7807.995,-11577.78,1641.96,-5415.705,-14952.555,-27614.52,-12095.37,-9307.935
1764763279.5869014,-7809.48,-11578.725,1640.88,-5416.155,-14952.42,-27613.17,-12095.775,-9308.88
1764763279.5869014,-7814.34,-11583.54,1636.56,-5419.98,-14955.48,-27618.165,-12101.94,-9313.74
1764763279.5869014,-7812.045,-11580.975,1639.215,-5416.65,-14952.915,-27616.68,-12099.6,-9311.265
1764763279.5869014,-7812.405,-11581.155,1639.35,-5417.145,-14952.78,-27617.265,-12099.465,-9310.905
1764763279.5869014,-7816.049999999999,-11584.665,1636.245,-5420.429999999999,-14956.38,-27620.955,-12103.605,-9314.595
1764763279.5869014,-7816.59,-11585.925,1635.345,-5421.014999999999,-14957.145,-27621.495,-12103.695,-9315.54
1764763279.5869014,-7815.33,-11584.53,1636.02,-5419.889999999999,-14956.695,-27620.595,-12101.31,-9314.19
1764763279.5869014,-7809.795,-11578.545,1641.735,-5413.905,-14951.205,-27615.555,-12096.09,-9308.16
1764763279.5869014,-7809.705,-11578.365,1642.32,-5413.815,-14951.745,-27617.805,-12096.855,-9307.44
1764763279.5869014,-7809.75,-11578.545,1641.96,-5415.165,-14954.265,-27621.495,-12098.295,-9308.205
1764763279.5869014,-7810.965,-11579.265,1640.835,-5417.099999999999,-14957.145,-27624.15,-12099.465,-9309.33
1764763279.5869014,-7813.889999999999,-11583.135,1637.505,-5420.25,-14958.495,-27623.745,-12101.805,-9312.57
1764763279.5879407,-7811.415,-11580.255,1640.07,-5417.235,-14950.08,-27613.44,-12096.18,-9308.97
1764763279.5879407,-7809.075,-11578.365,1642.23,-5414.804999999999,-14947.695,-27610.695,-12094.38,-9306.99
1764763279.5879407,-7807.679999999999,-11577.24,1644.12,-5412.24,-14945.265,-27609.57,-12094.515,-9306.495
1764763279.5879407,-7809.84,-11579.67,1641.5549999999998,-5413.545,-14947.785,-27611.055,-12095.37,-9308.115
1764763279.5879407,-7814.16,-11584.215,1636.83,-5418.945,-14955.615,-27618.12,-12100.32,-9312.93
1764763279.5879407,-7813.755,-11584.08,1636.245,-5421.06,-14957.415,-27619.65,-12100.815,-9312.93
1764763279.5879407,-7809.75,-11580.165,1638.63,-5420.474999999999,-14955.975,-27617.13,-12096.945,-9308.115
1764763279.5879407,-7808.715,-11579.445,1639.1699999999998,-5420.025,-14955.57,-27616.545,-12096.135,-9306.81
1764763279.5879407,-7808.309999999999,-11578.905,1641.105,-5417.594999999999,-14954.265,-27617.49,-12096.36,-9307.305
1764763279.5879407,-7811.415,-11580.3,1641.195,-5416.245,-14953.59,-27621.99,-12101.355,-9310.77
1764763279.5879407,-7816.769999999999,-11584.89,1636.29,-5420.07,-14953.635,-27622.8,-12104.37,-9315.09
1764763279.5879407,-7812.855,-11582.1,1638.405,-5417.594999999999,-14949.36,-27616.59,-12099.42,-9310.77
1764763279.635467,-7811.099999999999,-11580.165,1639.26,-5417.73,-14953.005,-27618.3,-12098.745,-9308.97
1764763279.635467,-7811.91,-11580.93,1638.135,-5419.17,-14955.48,-27620.595,-12099.87,-9310.05
1764763279.635467,-7811.775,-11581.47,1640.205,-5417.55,-14955.525,-27619.83,-12099.78,-9310.68
1764763279.635467,-7814.88,-11583.54,1637.775,-5418.855,-14954.76,-27616.14,-12100.005,-9313.29
1764763279.635467,-7813.98,-11583.945,1637.235,-5419.26,-14953.59,-27616.59,-12099.87,-9313.245
1764763279.635467,-7809.75,-11580.615,1640.4299999999998,-5417.28,-14951.88,-27616.905,-12097.71,-9309.78
1764763279.635467,-7808.58,-11578.545,1641.645,-5415.435,-14950.665,-27616.185,-12096.225,-9308.52
1764763279.635467,-7809.795,-11579.85,1639.26,-5417.28,-14952.33,-27617.985,-12097.53,-9309.69
1764763279.635467,-7811.46,-11580.93,1638.405,-5418.405,-14953.68,-27619.83,-12098.88,-9310.995
1764763279.635467,-7812.9,-11582.505,1636.74,-5420.34,-14955.93,-27621.765,-12100.185,-9312.93
1764763279.635467,-7816.094999999999,-11585.61,1633.6799999999998,-5423.715,-14959.305,-27624.69,-12103.245,-9315.63
1764763279.635467,-7812.09,-11581.38,1637.955,-5419.44,-14956.83,-27622.845,-12100.455,-9310.995
1764763279.635467,-7811.639999999999,-11581.245,1637.505,-5420.025,-14958.72,-27625.95,-12101.58,-9310.095
1764763279.635467,-7816.005,-11585.43,1633.6799999999998,-5424.48,-14964.165,-27632.205,-12105.81,-9314.37
1764763279.6359768,-7814.745,-11584.395,1635.66,-5422.32,-14959.62,-27627.255,-12104.145,-9313.02
1764763279.6359768,-7809.705,-11579.4,1640.97,-5417.235,-14951.295,-27617.13,-12097.53,-9307.98
1764763279.6359768,-7809.03,-11578.14,1641.375,-5416.965,-14951.79,-27618.165,-12097.845,-9307.395
1764763279.6359768,-7812.315,-11581.74,1638.45,-5419.62,-14951.97,-27617.67,-12099.915,-9310.41
1764763279.6359768,-7815.014999999999,-11585.745,1634.6699999999998,-5422.905,-14954.94,-27620.19,-12102.165,-9313.38
1764763279.6359768,-7811.594999999999,-11581.515,1638.0449999999998,-5419.395,-14953.365,-27619.47,-12100.14,-9309.6
1764763279.6359768,-7811.955,-11581.695,1639.1699999999998,-5420.025,-14954.49,-27621.315,-12100.77,-9308.43
1764763279.6359768,-7811.684999999999,-11581.065,1639.935,-5419.485,-14954.175,-27621.045,-12099.6,-9307.89
1764763279.6359768,-7811.46,-11581.155,1640.115,-5418.855,-14952.015,-27617.265,-12098.655,-9308.52
1764763279.6359768,-7810.469999999999,-11580.795,1639.62,-5418.54,-14951.97,-27615.78,-12098.34,-9308.79
1764763279.6811826,-7809.48,-11579.715,1640.07,-5418.675,-14952.6,-27617.58,-12097.755,-9308.43
1764763279.6811826,-7808.13,-11578.41,1641.5549999999998,-5417.865,-14951.745,-27617.04,-12097.08,-9306.765
1764763279.6811826,-7808.894999999999,-11579.85,1640.4299999999998,-5419.08,-14953.59,-27617.535,-12098.205,-9307.305
1764763279.6811826,-7814.745,-11586.15,1634.715,-5424.165,-14960.115,-27622.89,-12104.64,-9313.02
1764763279.6811826,-7814.34,-11584.53,1635.75,-5422.905,-14958.63,-27622.44,-12104.145,-9312.345
1764763279.6811826,-7810.245,-11580.345,1639.98,-5419.08,-14954.265,-27619.47,-12100.5,-9308.7
1764763279.6811826,-7812.764999999999,-11583.63,1636.56,-5423.04,-14958.09,-27621.81,-12102.525,-9310.59
1764763279.6811826,-7807.679999999999,-11579.04,1639.665,-5421.285,-14955.84,-27617.445,-12097.62,-9305.28
1764763279.6811826,-7807.995,-11579.445,1638.675,-5422.86,-14958.225,-27618.21,-12097.17,-9304.38
1764763279.681706,-7809.75,-11579.94,1638.72,-5421.69,-14957.82,-27618.84,-12099.42,-9306.945
1764763279.681706,-7809.344999999999,-11577.78,1642.86,-5415.075,-14951.7,-27618.66,-12100.995,-9307.125
1764763279.681706,-7812.36,-11580.705,1641.33,-5415.615,-14949.495,-27618.03,-12103.2,-9310.005
1764763279.681706,-7809.21,-11578.635,1643.13,-5414.849999999999,-14948.37,-27614.7,-12098.295,-9306.27
1764763279.681706,-7812.54,-11582.235,1638.45,-5419.71,-14954.67,-27620.145,-12101.67,-9309.645
1764763279.681706,-7808.804999999999,-11579.175,1640.835,-5417.82,-14954.445,-27620.055,-12098.88,-9306.045
1764763279.681706,-7813.53,-11583.09,1636.245,-5423.04,-14960.88,-27628.56,-12104.46,-9310.365
1764763279.681706,-7814.565,-11583.315,1636.605,-5422.679999999999,-14962.32,-27632.43,-12106.35,-9311.445
1764763279.681706,-7814.115,-11582.82,1637.91,-5419.349999999999,-14957.865,-27627.39,-12105.765,-9311.715
1764763279.681706,-7813.44,-11582.55,1638.3149999999998,-5417.955,-14953.365,-27620.505,-12103.38,-9310.77
1764763279.681706,-7812.585,-11581.965,1638.675,-5417.415,-14948.64,-27611.73,-12098.79,-9308.97
1764763279.681706,-7808.355,-11577.51,1643.265,-5414.355,-14946.3,-27608.94,-12094.155,-9304.02
1764763279.681706,-7807.545,-11576.655,1643.895,-5413.185,-14947.965,-27612.63,-12094.74,-9303.39
1764763279.681706,-7807.769999999999,-11577.24,1643.085,-5413.95,-14949.585,-27614.655,-12096.18,-9303.84
1764763279.681706,-7810.92,-11580.48,1639.755,-5417.73,-14954.265,-27618.84,-12100.095,-9307.755
1764763279.7311394,-7812.134999999999,-11581.83,1638.495,-5419.62,-14956.695,-27620.91,-12101.67,-9310.14
1764763279.7311394,-7814.79,-11584.08,1636.02,-5422.59,-14959.44,-27623.88,-12104.145,-9312.48
1764763279.7311394,-7811.82,-11580.84,1639.935,-5418.63,-14954.085,-27619.29,-12101.445,-9309.33
1764763279.7311394,-7811.955,-11582.19,1639.4399999999998,-5418.81,-14952.645,-27617.265,-12102.345,-9309.87
1764763279.7311394,-7812.54,-11583.18,1638.54,-5419.304999999999,-14954.49,-27619.47,-12103.92,-9310.95
1764763279.7311394,-7813.125,-11583.855,1638.36,-5419.755,-14954.58,-27620.28,-12103.65,-9310.95
1764763279.7311394,-7813.304999999999,-11583.45,1637.865,-5419.755,-14955.345,-27621.18,-12103.65,-9311.355
1764763279.7311394,-7811.28,-11582.595,1639.3049999999998,-5418.54,-14954.58,-27620.28,-12102.93,-9309.69
1764763279.7311394,-7811.009999999999,-11582.325,1639.395,-5418.99,-14955.93,-27622.215,-12102.975,-9309.6
1764763279.7311394,-7812.45,-11583.18,1638.09,-5419.53,-14957.325,-27624.645,-12104.64,-9310.995
1764763279.7311394,-7812.54,-11582.505,1638.0449999999998,-5419.26,-14957.415,-27624.375,-12104.19,-9311.175
1764763279.7311394,-7816.769999999999,-11587.86,1633.5,-5424.525,-14961.06,-27626.22,-12107.475,-9315.045
1764763279.7311394,-7816.275,-11588.4,1633.59,-5424.21,-14958.495,-27622.485,-12106.8,-9315.27
1764763279.7311394,-7815.42,-11587.05,1634.895,-5422.679999999999,-14958.585,-27622.62,-12106.17,-9313.965
1764763279.7311394,-7812.315,-11583.81,1638.0449999999998,-5419.44,-14956.56,-27620.955,-12103.47,-9310.005
1764763279.7311394,-7815.87,-11586.825,1633.995,-5423.13,-14959.755,-27624.915,-12106.89,-9312.795
1764763279.7311394,-7816.139999999999,-11586.735,1634.85,-5423.13,-14959.35,-27625.23,-12106.89,-9312.345
1764763279.7311394,-7813.98,-11584.62,1636.785,-5421.014999999999,-14957.595,-27623.655,-12105.225,-9311.04
1764763279.7311394,-7808.985,-11579.265,1641.285,-5416.155,-14952.87,-27618.795,-12100.365,-9306.45
1764763279.7311394,-7810.469999999999,-11581.515,1639.71,-5417.82,-14953.545,-27620.91,-12102.795,-9308.52
1764763279.7311394,-7810.74,-11581.92,1639.665,-5418.27,-14953.23,-27620.28,-12103.155,-9307.98
1764763279.7311394,-7808.759999999999,-11579.535,1642.095,-5416.065,-14951.295,-27618.57,-12100.905,-9305.82
1764763279.7311394,-7808.355,-11579.265,1641.915,-5414.849999999999,-14950.44,-27617.625,-12100.365,-9305.55
1764763279.7311394,-7807.23,-11578.23,1642.59,-5414.31,-14949.27,-27616.59,-12099.33,-9304.335
1764763279.777346,-7808.894999999999,-11579.355,1641.24,-5415.974999999999,-14950.485,-27618.705,-12100.635,-9306.18
1764763279.7783608,-7811.28,-11582.415,1639.485,-5418.495,-14953.23,-27622.125,-12104.19,-9308.925
1764763279.7783608,-7808.219999999999,-11579.94,1642.005,-5415.525,-14950.665,-27618.795,-12100.86,-9305.46
1764763279.7783608,-7811.594999999999,-11582.865,1638.405,-5418.36,-14953.68,-27621.045,-12102.57,-9307.89
1764763279.7783608,-7807.094999999999,-11577.87,1643.535,-5414.219999999999,-14950.305,-27616.95,-12098.205,-9303.165
1764763279.7783608,-7807.724999999999,-11578.59,1643.22,-5414.49,-14950.035,-27617.985,-12099.465,-9303.615
1764763279.7783608,-7811.505,-11582.505,1638.45,-5419.304999999999,-14954.355,-27622.035,-12102.66,-9307.44
1764763279.7783608,-7808.67,-11580.84,1640.7,-5418.179999999999,-14954.58,-27621.0,-12100.68,-9305.865
1764763279.7783608,-7804.665,-11577.42,1644.705,-5414.895,-14952.735,-27619.245,-12098.07,-9301.59
1764763279.7783608,-7806.195,-11579.04,1642.635,-5416.92,-14956.245,-27623.295,-12100.275,-9303.435
1764763279.7783608,-7802.955,-11575.53,1646.955,-5412.195,-14950.665,-27620.325,-12097.44,-9300.195
1764763279.7783608,-7808.13,-11580.93,1641.51,-5416.155,-14949.54,-27617.805,-12101.04,-9305.37
1764763279.7783608,-7808.625,-11581.02,1641.105,-5417.19,-14951.61,-27620.415,-12102.075,-9305.46
1764763279.7783608,-7805.565,-11577.555,1644.3,-5413.815,-14947.11,-27617.355,-12098.52,-9302.265
1764763279.7783608,-7806.42,-11578.14,1643.13,-5414.04,-14944.5,-27614.97,-12099.24,-9303.705
1764763279.7783608,-7812.269999999999,-11584.89,1636.9199999999998,-5421.195,-14951.565,-27620.235,-12105.0,-9309.87
1764763279.7783608,-7812.54,-11585.52,1636.74,-5422.05,-14952.645,-27619.83,-12105.045,-9310.095
1764763279.7783608,-7810.469999999999,-11582.415,1639.62,-5418.27,-14951.97,-27619.47,-12103.065,-9307.17
1764763279.7783608,-7813.17,-11584.98,1636.515,-5421.69,-14959.53,-27627.615,-12106.8,-9310.32
1764763279.7783608,-7808.894999999999,-11580.57,1640.385,-5417.505,-14955.12,-27624.6,-12103.875,-9306.27
1764763279.7783608,-7807.545,-11579.67,1641.105,-5416.92,-14954.4,-27623.565,-12102.165,-9304.92
1764763279.7783608,-7808.264999999999,-11580.12,1641.375,-5416.02,-14948.775,-27615.735,-12099.915,-9305.19
1764763279.821452,-7808.49,-11580.255,1641.96,-5416.065,-14947.155,-27612.045,-12098.565,-9304.92
1764763279.821452,-7808.174999999999,-11578.995,1641.96,-5415.84,-14949.09,-27616.005,-12099.6,-9303.795
1764763279.821452,-7809.615,-11581.11,1640.07,-5418.179999999999,-14951.07,-27619.56,-12101.22,-9305.775
1764763279.821452,-7814.34,-11584.98,1635.66,-5423.219999999999,-14955.57,-27624.555,-12106.44,-9310.5
1764763279.821452,-7812.315,-11582.82,1637.955,-5420.79,-14953.365,-27621.9,-12103.965,-9307.71
1764763279.821452,-7807.905,-11578.365,1642.41,-5416.469999999999,-14948.64,-27617.22,-12099.645,-9303.03
1764763279.821452,-7807.679999999999,-11578.635,1641.78,-5416.74,-14948.595,-27617.04,-12100.32,-9303.21
1764763279.821452,-7806.69,-11578.41,1642.185,-5416.38,-14947.92,-27616.725,-12099.42,-9302.76
1764763279.821452,-7807.184999999999,-11578.68,1642.5449999999998,-5416.469999999999,-14948.37,-27617.58,-12098.97,-9302.895
1764763279.821452,-7807.41,-11579.22,1642.32,-5416.335,-14948.73,-27618.255,-12098.835,-9302.715
1764763279.821452,-7811.415,-11583.54,1638.405,-5420.25,-14953.095,-27623.565,-12102.84,-9306.675
1764763279.821452,-7808.445,-11581.245,1640.2949999999998,-5418.495,-14951.835,-27621.495,-12101.22,-9305.055
1764763279.821452,-7805.16,-11577.24,1644.57,-5414.804999999999,-14947.65,-27617.715,-12097.665,-9301.365
1764763279.821452,-7810.29,-11582.325,1639.665,-5419.215,-14951.745,-27622.125,-12102.93,-9306.045
1764763279.821452,-7810.38,-11583.27,1639.755,-5419.98,-14952.465,-27622.98,-12103.155,-9306.27
1764763279.821452,-7809.615,-11581.92,1640.88,-5418.675,-14950.845,-27621.72,-12101.535,-9305.37
1764763279.821452,-7804.844999999999,-11576.835,1645.83,-5414.219999999999,-14945.58,-27616.275,-12096.945,-9300.51
1764763279.821452,-7805.79,-11577.24,1644.03,-5414.94,-14946.48,-27616.995,-12098.07,-9300.78
1764763279.821452,-7807.005,-11578.05,1643.04,-5415.84,-14947.56,-27618.84,-12098.79,-9302.22
1764763279.821452,-7805.474999999999,-11576.79,1644.39,-5414.085,-14946.48,-27617.895,-12097.89,-9301.68
1764763279.821452,-7805.835,-11577.555,1643.8049999999998,-5414.04,-14946.615,-27617.94,-12097.755,-9302.355
1764763279.821452,-7806.915,-11579.445,1642.77,-5415.66,-14949.09,-27619.245,-12099.69,-9303.615
1764763279.821452,-7807.094999999999,-11580.21,1641.015,-5416.83,-14950.575,-27620.91,-12100.545,-9304.2
1764763279.821452,-7810.83,-11583.45,1637.505,-5419.755,-14954.67,-27625.14,-12104.055,-9306.765
1764763279.8713334,-7807.59,-11579.805,1641.96,-5416.155,-14950.845,-27620.955,-12100.725,-9302.805
1764763279.8713334,-7811.054999999999,-11583.0,1638.855,-5419.8,-14954.67,-27624.33,-12103.695,-9306.675
1764763279.8713334,-7810.74,-11582.505,1638.0449999999998,-5420.07,-14953.905,-27623.385,-12103.425,-9306.765
1764763279.8713334,-7811.325,-11583.09,1637.73,-5419.665,-14951.565,-27621.495,-12102.57,-9307.17
1764763279.8713334,-7810.065,-11582.055,1638.495,-5418.315,-14951.025,-27621.675,-12101.715,-9306.225
1764763279.8713334,-7805.025,-11576.655,1644.7949999999998,-5412.24,-14945.265,-27617.715,-12097.845,-9300.87
1764763279.8713334,-7807.139999999999,-11577.915,1643.445,-5413.365,-14946.255,-27619.155,-12099.645,-9302.445
1764763279.8713334,-7803.54,-11574.27,1646.1,-5410.304999999999,-14943.735,-27614.655,-12095.01,-9298.215
1764763279.8713334,-7803.855,-11575.035,1645.785,-5411.969999999999,-14946.705,-27617.895,-12095.955,-9299.115
1764763279.8713334,-7810.469999999999,-11581.155,1639.3049999999998,-5418.54,-14954.58,-27627.345,-12103.65,-9305.505
1764763279.8713334,-7811.955,-11582.145,1637.775,-5419.889999999999,-14957.145,-27630.945,-12105.225,-9306.9
1764763279.8713334,-7808.58,-11579.04,1641.5549999999998,-5415.615,-14952.015,-27625.995,-12102.615,-9304.11
1764763279.8713334,-7804.17,-11575.26,1646.145,-5410.215,-14943.105,-27614.745,-12096.315,-9299.43
1764763279.8713334,-7803.63,-11574.99,1646.55,-5409.405,-14943.69,-27614.16,-12095.82,-9299.295
1764763279.8713334,-7806.33,-11578.59,1643.04,-5412.195,-14943.96,-27611.64,-12096.585,-9302.355
1764763279.8713334,-7810.83,-11583.405,1638.495,-5416.965,-14947.875,-27616.815,-12101.13,-9306.45
1764763279.872341,-7811.415,-11583.585,1637.82,-5417.594999999999,-14949.945,-27621.0,-12102.48,-9306.72
1764763279.872341,-7806.42,-11578.185,1642.995,-5412.42,-14945.31,-27616.995,-12098.205,-9301.005
1764763279.872341,-7805.205,-11577.78,1644.435,-5412.24,-14945.22,-27616.68,-12097.8,-9300.375
1764763279.872341,-7810.155,-11583.765,1638.135,-5417.955,-14950.305,-27622.17,-12103.56,-9305.955
1764763279.872341,-7810.875,-11584.62,1636.83,-5418.09,-14950.8,-27622.17,-12104.865,-9306.09
1764763279.8728502,-7810.29,-11583.18,1637.28,-5417.099999999999,-14950.17,-27621.09,-12104.325,-9305.865
1764763279.91872,-7806.059999999999,-11578.455,1641.78,-5413.59,-14946.075,-27616.14,-12100.455,-9302.22
1764763279.91872,-7808.309999999999,-11581.11,1639.845,-5416.02,-14948.955,-27619.515,-12102.84,-9304.335
1764763279.91872,-7805.835,-11578.455,1642.365,-5413.545,-14947.245,-27617.49,-12099.735,-9301.905
1764763279.9192305,-7807.679999999999,-11580.3,1640.52,-5415.974999999999,-14948.505,-27620.145,-12100.995,-9303.795
1764763279.9192305,-7806.644999999999,-11579.58,1640.745,-5415.57,-14948.145,-27620.37,-12101.67,-9303.39
1764763279.9192305,-7804.844999999999,-11577.645,1642.8149999999998,-5413.23,-14946.39,-27618.345,-12099.915,-9301.14
1764763279.9192305,-7801.92,-11575.665,1645.56,-5410.44,-14943.42,-27615.465,-12097.485,-9297.99
1764763279.9192305,-7804.259999999999,-11578.95,1643.175,-5412.87,-14946.705,-27618.48,-12099.87,-9300.51
1764763279.9192305,-7805.7,-11580.165,1641.4199999999998,-5414.13,-14947.92,-27619.65,-12100.995,-9301.365
1764763279.9192305,-7806.285,-11580.57,1640.25,-5415.075,-14947.785,-27619.29,-12102.03,-9303.165
1764763279.9192305,-7808.04,-11582.955,1638.1799999999998,-5416.56,-14950.44,-27621.99,-12105.27,-9305.82
1764763279.9192305,-7805.969999999999,-11581.515,1639.4399999999998,-5415.075,-14950.89,-27623.115,-12104.1,-9304.245
1764763279.9192305,-7803.99,-11579.445,1641.825,-5412.735,-14950.44,-27622.08,-12102.345,-9301.77
1764763279.9192305,-7807.545,-11582.505,1638.855,-5416.065,-14955.03,-27626.715,-12105.495,-9304.695
1764763279.9192305,-7805.969999999999,-11580.57,1640.385,-5413.724999999999,-14950.035,-27622.62,-12103.02,-9302.94
1764763279.9192305,-7806.87,-11581.47,1639.485,-5414.535,-14947.785,-27618.435,-12102.57,-9303.795
1764763279.9192305,-7800.974999999999,-11575.845,1645.47,-5409.855,-14943.825,-27614.385,-12097.485,-9298.17
1764763279.9192305,-7805.7,-11580.93,1641.465,-5412.87,-14944.5,-27615.15,-12100.23,-9302.31
1764763279.9192305,-7804.304999999999,-11579.04,1643.445,-5410.665,-14940.765,-27610.83,-12097.89,-9300.015
1764763279.9197366,-7804.394999999999,-11578.365,1643.85,-5410.44,-14942.745,-27612.54,-12099.105,-9300.33
1764763279.9197366,-7807.005,-11581.515,1639.98,-5413.905,-14947.38,-27617.04,-12102.3,-9303.48
1764763279.9197366,-7802.325,-11577.915,1643.085,-5410.8,-14944.05,-27613.71,-12098.07,-9299.745
1764763279.9197366,-7801.514999999999,-11577.465,1643.76,-5411.7,-14943.96,-27613.845,-12098.565,-9299.205
1764763279.9197366,-7806.24,-11581.245,1639.71,-5415.03,-14948.19,-27618.12,-12103.245,-9303.39
1764763279.9197366,-7807.139999999999,-11581.2,1640.16,-5413.77,-14948.145,-27618.795,-12104.1,-9304.65
1764763279.9197366,-7800.929999999999,-11575.17,1646.82,-5407.469999999999,-14941.53,-27612.495,-12097.845,-9298.755
1764763279.962452,-7798.545,-11573.37,1648.575,-5405.67,-14940.36,-27611.145,-12096.36,-9295.74
1764763279.962452,-7803.764999999999,-11579.13,1643.49,-5411.429999999999,-14945.535,-27616.59,-12101.58,-9300.69
1764763279.962452,-7800.21,-11575.44,1647.135,-5408.46,-14942.16,-27613.44,-12097.575,-9297.36
1764763279.962452,-7800.12,-11575.485,1647.405,-5408.415,-14942.205,-27613.8,-12097.395,-9297.405
1764763279.962452,-7803.495,-11578.86,1643.9399999999998,-5410.889999999999,-14946.03,-27617.625,-12101.4,-9300.105
1764763279.962452,-7806.285,-11581.965,1639.98,-5414.445,-14949.18,-27620.775,-12104.865,-9303.57
1764763279.962452,-7802.82,-11577.87,1643.985,-5410.98,-14944.32,-27615.33,-12101.49,-9299.43
1764763279.962452,-7799.264999999999,-11573.37,1648.485,-5406.345,-14937.39,-27607.14,-12096.405,-9294.84
1764763279.962452,-7798.545,-11572.74,1648.35,-5405.58,-14937.795,-27607.995,-12096.045,-9294.75
1764763279.962452,-7797.96,-11572.875,1648.1699999999998,-5405.67,-14938.38,-27610.155,-12095.505,-9294.48
1764763279.962452,-7797.42,-11572.245,1649.34,-5405.445,-14937.615,-27610.02,-12094.02,-9292.86
1764763279.962452,-7799.13,-11574.0,1647.27,-5408.145,-14942.115,-27614.52,-12096.72,-9295.155
1764763279.962452,-7800.165,-11575.305,1646.145,-5409.764999999999,-14944.365,-27616.68,-12098.565,-9296.55
1764763279.962452,-7802.82,-11578.05,1643.8049999999998,-5412.014999999999,-14946.66,-27619.515,-12101.13,-9299.385
1764763279.962452,-7800.705,-11575.845,1646.01,-5408.325,-14940.315,-27612.27,-12097.98,-9297.315
1764763279.962452,-7805.115,-11579.805,1643.265,-5411.115,-14941.665,-27611.955,-12099.015,-9300.465
1764763279.962452,-7804.665,-11579.445,1643.445,-5411.925,-14943.15,-27614.7,-12100.005,-9300.105
1764763279.962452,-7804.665,-11579.4,1643.13,-5411.925,-14943.6,-27615.69,-12100.23,-9300.195
1764763279.962452,-7805.429999999999,-11579.265,1643.31,-5411.835,-14943.555,-27616.23,-12100.095,-9299.34
1764763279.962452,-7803.179999999999,-11577.24,1645.515,-5409.495,-14941.62,-27614.655,-12098.745,-9297.765
1764763279.962452,-7799.355,-11574.54,1648.8,-5406.525,-14938.695,-27612.495,-12095.955,-9294.57
1764763279.962452,-7803.764999999999,-11578.005,1644.705,-5410.8,-14943.195,-27617.895,-12099.87,-9299.115
1764763280.0097582,-7800.57,-11574.405,1648.3049999999998,-5406.615,-14939.64,-27614.745,-12096.54,-9295.2
1764763280.0097582,-7803.224999999999,-11577.6,1644.84,-5410.665,-14942.25,-27617.22,-12099.96,-9297.945
1764763280.0097582,-7801.155,-11575.665,1646.46,-5408.639999999999,-14939.415,-27612.135,-12097.53,-9296.325
1764763280.0097582,-7805.519999999999,-11580.075,1641.96,-5413.139999999999,-14943.015,-27614.295,-12100.815,-9300.69
1764763280.0097582,-7805.34,-11579.085,1643.13,-5412.06,-14943.06,-27615.555,-12100.32,-9300.555
1764763280.0097582,-7801.469999999999,-11574.81,1646.235,-5408.19,-14939.955,-27612.945,-12096.18,-9296.055
1764763280.0107722,-7805.16,-11578.14,1642.905,-5411.115,-14943.15,-27617.625,-12099.915,-9299.16
1764763280.0107722,-7803.54,-11576.295,1644.525,-5409.719999999999,-14941.395,-27615.915,-12098.205,-9297.765
1764763280.0107722,-7800.705,-11573.28,1647.405,-5407.245,-14939.01,-27613.305,-12094.83,-9294.615
1764763280.0107722,-7807.184999999999,-11580.12,1640.25,-5414.985,-14946.255,-27619.515,-12101.805,-9301.95
1764763280.0107722,-7807.005,-11579.625,1640.4299999999998,-5414.895,-14945.985,-27619.29,-12101.13,-9301.635
1764763280.0107722,-7803.405,-11575.845,1644.435,-5410.665,-14942.025,-27615.195,-12097.89,-9297.855
1764763280.0107722,-7805.924999999999,-11578.68,1642.5449999999998,-5411.655,-14943.555,-27617.355,-12101.355,-9300.915
1764763280.0107722,-7806.554999999999,-11579.67,1642.185,-5411.565,-14943.24,-27616.995,-12101.895,-9300.87
1764763280.0107722,-7805.655,-11579.265,1642.14,-5411.745,-14944.095,-27619.155,-12102.03,-9300.69
1764763280.0107722,-7801.965,-11575.17,1646.235,-5407.695,-14941.305,-27617.085,-12098.475,-9297.27
1764763280.0117767,-7802.19,-11575.035,1645.38,-5409.045,-14941.98,-27618.12,-12098.88,-9297.675
1764763280.0117767,-7801.469999999999,-11574.495,1646.235,-5408.28,-14940.405,-27615.735,-12097.71,-9296.685
1764763280.0117767,-7801.424999999999,-11574.675,1646.28,-5407.38,-14937.3,-27610.65,-12095.64,-9296.145
