Timestamp,Channel1,Channel2,Channel3,Channel4,Channel5,Channel6,Channel7,Channel8
1764763901.4995475,-8213.355,-14851.665,-1452.69,-7717.139999999999,-18682.74,-27492.705,-11641.68,-8869.455
1764763901.4995475,-8216.865,-14854.905,-1456.065,-7720.559999999999,-18685.89,-27495.99,-11645.19,-8872.965
1764763901.4995475,-8216.01,-14853.645,-1455.255,-7719.165,-18684.99,-27495.72,-11644.605,-8871.39
1764763901.4995475,-8211.105,-14849.28,-1450.395,-7714.44,-18679.86,-27491.22,-11639.34,-8866.395
1764763901.4995475,-8213.895,-14851.89,-1452.645,-7716.059999999999,-18681.705,-27493.965,-11641.59,-8868.779999999999
1764763901.4995475,-8215.83,-14854.77,-1455.075,-7719.344999999999,-18685.17,-27496.44,-11644.515,-8871.525
1764763901.4995475,-8211.824999999999,-14850.405,-1450.845,-7715.79,-18681.39,-27492.165,-11641.14,-8867.34
1764763901.4995475,-8213.355,-14852.205,-1451.745,-7717.365,-18682.425,-27493.47,-11642.715,-8868.869999999999
1764763901.4995475,-8209.89,-14848.515,-1448.505,-7713.99,-18679.14,-27490.365,-11639.115,-8865.99
1764763901.4995475,-8210.565,-14848.965,-1449.54,-7714.349999999999,-18679.455,-27490.635,-11638.755,-8866.17
1764763901.4995475,-8210.205,-14848.65,-1449.27,-7714.215,-18679.545,-27490.095,-11639.7,-8865.945
1764763901.4995475,-8210.97,-14848.83,-1449.765,-7714.349999999999,-18679.41,-27489.915,-11640.33,-8865.99
1764763901.4995475,-8214.705,-14852.34,-1453.23,-7717.59,-18683.01,-27494.01,-11642.94,-8868.555
1764763901.4995475,-8210.34,-14847.84,-1448.955,-7713.405,-18679.68,-27490.86,-11638.17,-8864.505
1764763901.4995475,-8214.435,-14851.8,-1452.87,-7716.915,-18683.64,-27495.315,-11642.67,-8869.095
1764763901.4995475,-8215.515,-14851.89,-1453.5449999999998,-7717.679999999999,-18683.325,-27495.765,-11643.48,-8869.14
1764763901.4995475,-8213.895,-14850.99,-1451.97,-7716.915,-18682.56,-27494.46,-11641.995,-8867.654999999999
1764763901.4995475,-8210.654999999999,-14848.065,-1448.82,-7713.405,-18679.725,-27491.67,-11639.565,-8865.09
1764763901.4995475,-8213.13,-14850.495,-1450.845,-7715.295,-18681.48,-27493.965,-11641.77,-8867.43
1764763901.5449138,-8209.395,-14846.805,-1446.975,-7712.054999999999,-18677.97,-27490.185,-11637.855,-8863.92
1764763901.5449138,-8208.539999999999,-14845.545,-1446.3,-7711.559999999999,-18676.845,-27488.88,-11637.315,-8863.244999999999
1764763901.5449138,-8210.07,-14846.67,-1447.155,-7712.415,-18677.835,-27490.815,-11638.755,-8864.73
1764763901.5449138,-8213.445,-14850.18,-1450.35,-7715.745,-18680.67,-27494.01,-11642.265,-8867.925
1764763901.5449138,-8210.07,-14846.49,-1447.155,-7712.37,-18676.89,-27490.545,-11638.755,-8863.74
1764763901.5449138,-8214.164999999999,-14850.405,-1451.34,-7716.735,-18680.715,-27494.415,-11642.715,-8867.52
1764763901.5449138,-8210.385,-14846.085,-1447.38,-7713.405,-18677.52,-27491.49,-11639.07,-8863.65
1764763901.5449138,-8210.07,-14845.5,-1447.29,-7713.269999999999,-18677.25,-27491.49,-11639.565,-8863.425
1764763901.5449138,-8211.6,-14846.67,-1449.135,-7714.755,-18678.96,-27493.92,-11641.095,-8864.955
1764763901.5449138,-8214.795,-14850.18,-1452.15,-7717.23,-18681.615,-27495.675,-11643.705,-8868.33
1764763901.5449138,-8212.815,-14848.245,-1451.205,-7715.429999999999,-18679.815,-27493.515,-11642.4,-8866.529999999999
1764763901.5449138,-8207.414999999999,-14842.62,-1445.76,-7710.165,-18674.415,-27488.52,-11636.955,-8861.039999999999
1764763901.5449138,-8206.965,-14842.305,-1444.59,-7710.03,-18674.55,-27488.655,-11636.46,-8860.635
1764763901.5449138,-8204.985,-14839.425,-1442.475,-7708.094999999999,-18673.065,-27486.99,-11634.75,-8859.15
1764763901.545925,-8203.994999999999,-14838.75,-1441.845,-7707.105,-18672.21,-27486.405,-11633.355,-8857.935
1764763901.545925,-8207.865,-14842.755,-1445.22,-7710.57,-18675.36,-27490.05,-11637.045,-8861.31
1764763901.545925,-8210.07,-14845.23,-1448.19,-7713.719999999999,-18677.745,-27492.66,-11639.34,-8863.785
1764763901.545925,-8205.029999999999,-14841.495,-1444.05,-7709.58,-18674.415,-27488.34,-11635.605,-8859.51
1764763901.545925,-8207.369999999999,-14844.24,-1446.615,-7711.965,-18677.34,-27490.725,-11638.215,-8862.435
1764763901.545925,-8206.74,-14843.205,-1445.6699999999998,-7711.695,-18676.125,-27490.005,-11637.0,-8861.355
1764763901.545925,-8210.744999999999,-14846.265,-1449.765,-7715.295,-18679.815,-27493.47,-11640.24,-8864.82
1764763901.545925,-8210.025,-14845.005,-1448.505,-7714.215,-18678.42,-27492.12,-11639.61,-8864.055
1764763901.5922072,-8206.02,-14841.18,-1444.77,-7710.255,-18674.235,-27487.98,-11636.19,-8860.005
1764763901.5922072,-8208.945,-14844.24,-1447.65,-7713.809999999999,-18677.34,-27490.905,-11639.655,-8863.065
1764763901.5922072,-8206.515,-14841.99,-1445.8049999999998,-7711.74,-18675.585,-27489.015,-11637.135,-8860.904999999999
1764763901.5922072,-8211.96,-14848.29,-1451.88,-7717.995,-18681.84,-27495.585,-11642.58,-8867.25
1764763901.5922072,-8211.869999999999,-14847.885,-1452.015,-7717.815,-18681.255,-27496.35,-11642.04,-8866.8
1764763901.5922072,-8208.27,-14843.79,-1447.965,-7713.54,-18677.07,-27492.66,-11639.07,-8863.289999999999
1764763901.5922072,-8207.145,-14843.295,-1447.38,-7713.045,-18676.89,-27491.895,-11638.62,-8862.48
1764763901.5922072,-8207.55,-14843.88,-1448.19,-7713.54,-18676.53,-27492.3,-11638.98,-8862.255
1764763901.5922072,-8209.305,-14845.005,-1450.395,-7715.565,-18678.375,-27493.92,-11640.33,-8864.369999999999
1764763901.5922072,-8213.445,-14848.695,-1454.535,-7719.165,-18682.155,-27497.34,-11644.965,-8868.645
1764763901.5922072,-8211.105,-14846.895,-1452.195,-7716.69,-18680.85,-27495.9,-11642.85,-8866.395
1764763901.5922072,-8211.69,-14848.38,-1452.645,-7716.915,-18681.345,-27496.575,-11644.065,-8866.755
1764763901.5922072,-8208.27,-14844.24,-1448.37,-7712.91,-18677.565,-27493.245,-11639.52,-8861.85
1764763901.5922072,-8211.555,-14847.21,-1451.115,-7716.87,-18681.03,-27496.575,-11643.48,-8865.135
1764763901.5922072,-8208.404999999999,-14843.655,-1448.595,-7714.394999999999,-18678.735,-27494.505,-11640.195,-8863.154999999999
1764763901.5922072,-8212.23,-14846.895,-1452.69,-7718.174999999999,-18682.695,-27498.87,-11643.48,-8866.8
1764763901.5922072,-8211.33,-14846.805,-1451.97,-7717.365,-18681.255,-27497.655,-11643.345,-8866.395
1764763901.5922072,-8206.289999999999,-14842.575,-1447.29,-7712.46,-18675.495,-27492.165,-11639.205,-8861.31
1764763901.5922072,-8208.72,-14844.375,-1449.81,-7715.16,-18678.915,-27494.37,-11641.095,-8863.154999999999
1764763901.5922072,-8205.93,-14840.55,-1447.11,-7711.74,-18674.82,-27490.86,-11638.665,-8859.6
1764763901.5922072,-8208.494999999999,-14843.25,-1449.09,-7713.809999999999,-18676.845,-27493.065,-11640.465,-8862.615
1764763901.5922072,-8205.93,-14840.64,-1446.165,-7710.389999999999,-18674.595,-27490.68,-11637.585,-8860.23
1764763901.5922072,-8205.345,-14840.01,-1445.49,-7710.344999999999,-18673.695,-27491.04,-11637.36,-8859.914999999999
1764763901.5922072,-8207.82,-14843.43,-1448.415,-7713.764999999999,-18677.07,-27495.045,-11640.375,-8861.715
1764763901.5922072,-8212.095,-14848.245,-1452.6,-7718.445,-18682.2,-27499.41,-11644.29,-8865.99
1764763901.5922072,-8211.869999999999,-14847.165,-1452.015,-7718.445,-18681.705,-27499.23,-11644.47,-8865.539999999999
1764763901.6400635,-8207.414999999999,-14842.53,-1447.875,-7714.62,-18677.205,-27495.495,-11640.42,-8861.085
1764763901.6400635,-8206.74,-14842.17,-1446.975,-7713.269999999999,-18675.54,-27493.245,-11639.565,-8860.365
1764763901.6400635,-8210.52,-14846.13,-1451.205,-7717.545,-18680.895,-27496.89,-11642.58,-8865.404999999999
1764763901.6400635,-8210.025,-14845.095,-1451.16,-7717.184999999999,-18680.49,-27496.26,-11642.535,-8864.73
1764763901.6400635,-8208.63,-14843.16,-1449.945,-7715.835,-18678.51,-27494.73,-11641.68,-8863.289999999999
1764763901.6400635,-8203.095,-14837.31,-1444.005,-7709.94,-18672.795,-27488.34,-11636.145,-8856.99
1764763901.6400635,-8202.24,-14836.5,-1443.24,-7709.67,-18673.02,-27489.015,-11635.29,-8856.855
1764763901.6400635,-8206.289999999999,-14841.0,-1447.155,-7713.495,-18676.89,-27493.065,-11637.99,-8860.05
1764763901.6400635,-8210.744999999999,-14845.815,-1451.52,-7717.634999999999,-18681.255,-27497.88,-11641.32,-8864.73
1764763901.6400635,-8208.09,-14842.89,-1448.955,-7714.62,-18679.32,-27494.865,-11639.205,-8861.445
1764763901.6400635,-8207.91,-14843.34,-1449.945,-7715.295,-18679.635,-27494.82,-11639.565,-8861.715
1764763901.6400635,-8211.105,-14846.355,-1453.41,-7718.715,-18682.515,-27498.555,-11643.3,-8865.494999999999
1764763901.6400635,-8211.24,-14846.355,-1453.275,-7718.355,-18682.695,-27499.05,-11643.165,-8865.449999999999
1764763901.6400635,-8209.215,-14844.015,-1451.34,-7716.059999999999,-18680.265,-27496.665,-11641.14,-8863.02
1764763901.6400635,-8204.67,-14839.38,-1446.255,-7711.514999999999,-18675.225,-27491.445,-11636.325,-8857.935
1764763901.6400635,-8202.24,-14836.68,-1443.5549999999998,-7708.995,-18672.345,-27488.88,-11634.57,-8855.73
1764763901.6400635,-8200.529999999999,-14836.005,-1442.565,-7707.915,-18671.49,-27488.43,-11632.815,-8854.289999999999
1764763901.6400635,-8202.779999999999,-14838.345,-1444.725,-7710.255,-18673.875,-27490.905,-11635.965,-8856.855
1764763901.6400635,-8204.67,-14840.64,-1446.7949999999998,-7712.73,-18676.62,-27494.19,-11637.27,-8859.6
1764763901.6400635,-8206.83,-14843.25,-1449.675,-7715.924999999999,-18679.68,-27496.17,-11639.34,-8862.39
1764763901.6400635,-8202.779999999999,-14838.84,-1445.49,-7711.559999999999,-18675.675,-27492.48,-11635.695,-8857.935
1764763901.6400635,-8203.545,-14839.65,-1446.12,-7712.91,-18676.035,-27492.345,-11636.595,-8860.05
1764763901.6400635,-8206.83,-14843.16,-1449.675,-7715.384999999999,-18679.32,-27495.45,-11640.465,-8863.47
1764763901.6400635,-8202.735,-14838.48,-1444.725,-7711.469999999999,-18673.965,-27490.365,-11637.045,-8859.15
1764763901.6867146,-8202.465,-14838.93,-1444.86,-7711.65,-18673.92,-27490.95,-11636.325,-8859.465
1764763901.6867146,-8201.16,-14837.67,-1444.32,-7710.389999999999,-18672.57,-27490.365,-11635.245,-8857.619999999999
1764763901.6867146,-8200.485,-14836.905,-1443.78,-7709.849999999999,-18671.985,-27489.375,-11634.615,-8856.225
1764763901.6867146,-8203.005,-14839.56,-1445.445,-7712.054999999999,-18674.1,-27492.12,-11637.0,-8858.565
1764763901.6867146,-8208.855,-14844.555,-1450.935,-7717.59,-18679.635,-27498.33,-11642.67,-8864.1
1764763901.6867146,-8208.539999999999,-14842.935,-1450.26,-7716.69,-18678.465,-27497.115,-11641.905,-8862.435
1764763901.6867146,-8204.715,-14839.245,-1446.57,-7712.865,-18675.675,-27493.515,-11638.08,-8859.06
1764763901.6867146,-8207.414999999999,-14841.675,-1449.0449999999998,-7715.61,-18678.375,-27495.99,-11641.32,-8861.85
1764763901.6867146,-8203.365,-14837.31,-1443.78,-7710.525,-18673.2,-27490.86,-11637.225,-8857.89
1764763901.6867146,-8202.645,-14836.545,-1442.97,-7709.67,-18671.67,-27489.645,-11635.83,-8856.855
1764763901.6867146,-8204.13,-14838.57,-1445.625,-7712.28,-18674.1,-27492.345,-11637.765,-8858.295
1764763901.6872382,-8206.335,-14841.315,-1448.28,-7715.025,-18677.25,-27495.765,-11640.24,-8860.815
1764763901.6872382,-8202.96,-14837.445,-1444.77,-7711.469999999999,-18674.19,-27492.255,-11637.855,-8857.484999999999
1764763901.6872382,-8209.17,-14843.07,-1450.62,-7717.275,-18680.49,-27498.465,-11643.705,-8863.47
1764763901.6872382,-8208.18,-14842.755,-1449.1799999999998,-7716.87,-18678.645,-27498.015,-11642.445,-8862.57
1764763901.6872382,-8203.635,-14838.255,-1445.58,-7712.82,-18673.155,-27493.2,-11638.8,-8858.115
1764763901.6872382,-8203.455,-14838.75,-1446.165,-7713.63,-18675.09,-27494.82,-11639.25,-8859.105
1764763901.6872382,-8207.279999999999,-14843.115,-1449.855,-7717.455,-18679.14,-27498.015,-11644.155,-8862.66
1764763901.6872382,-8207.505,-14843.34,-1449.855,-7717.32,-18678.285,-27497.52,-11643.57,-8862.3
1764763901.6872382,-8203.41,-14839.065,-1446.255,-7713.045,-18674.73,-27494.28,-11639.25,-8858.205
1764763901.6872382,-8203.59,-14839.065,-1445.94,-7713.63,-18675.135,-27495.045,-11639.79,-8858.295
1764763901.6872382,-8204.49,-14839.695,-1446.9299999999998,-7714.665,-18675.9,-27495.405,-11640.825,-8858.699999999999
1764763901.733279,-8200.845,-14835.375,-1442.115,-7710.165,-18671.49,-27490.41,-11636.055,-8854.335
1764763901.733279,-8203.23,-14838.57,-1444.59,-7713.0,-18674.73,-27493.515,-11639.205,-8857.08
1764763901.7343,-8207.324999999999,-14842.62,-1449.1799999999998,-7717.049999999999,-18678.735,-27497.79,-11642.85,-8860.994999999999
1764763901.7343,-8205.975,-14839.965,-1447.47,-7715.07,-18676.71,-27495.9,-11641.41,-8859.105
1764763901.7343,-8208.9,-14842.98,-1449.945,-7717.365,-18679.635,-27498.87,-11644.245,-8861.805
1764763901.734893,-8206.65,-14840.865,-1448.28,-7715.205,-18676.98,-27495.405,-11642.355,-8859.914999999999
1764763901.734893,-8205.705,-14839.605,-1446.9299999999998,-7713.945,-18675.315,-27493.515,-11640.87,-8858.07
1764763901.734893,-8205.975,-14839.965,-1447.065,-7714.17,-18675.54,-27495.0,-11640.915,-8858.565
1764763901.734893,-8203.32,-14837.49,-1444.77,-7711.695,-18673.695,-27493.605,-11638.845,-8856.494999999999
1764763901.734893,-8206.289999999999,-14840.37,-1448.46,-7715.205,-18677.025,-27496.755,-11641.23,-8858.52
1764763901.734893,-8201.744999999999,-14835.645,-1444.455,-7710.795,-18672.57,-27492.21,-11637.18,-8854.065
1764763901.734893,-8203.365,-14837.04,-1445.76,-7711.559999999999,-18674.145,-27493.83,-11638.575,-8855.46
1764763901.734893,-8206.695,-14840.82,-1448.865,-7714.755,-18678.15,-27497.7,-11641.275,-8858.744999999999
1764763901.734893,-8203.185,-14836.68,-1445.8049999999998,-7711.695,-18673.92,-27493.875,-11638.35,-8854.875
1764763901.734893,-8206.695,-14840.595,-1449.855,-7716.105,-18678.465,-27498.42,-11642.49,-8859.195
1764763901.734893,-8206.74,-14841.09,-1449.99,-7716.014999999999,-18678.24,-27498.555,-11643.165,-8859.105
1764763901.734893,-8205.795,-14840.145,-1449.495,-7715.429999999999,-18676.89,-27496.575,-11642.67,-8857.529999999999
1764763901.734893,-8204.22,-14837.715,-1447.245,-7713.54,-18674.64,-27493.92,-11640.06,-8855.1
1764763901.734893,-8201.43,-14834.565,-1443.4199999999998,-7710.525,-18672.3,-27491.985,-11636.73,-8852.355
1764763901.734893,-8200.98,-14833.665,-1442.34,-7710.48,-18670.86,-27491.67,-11636.055,-8851.68
1764763901.734893,-8200.35,-14833.485,-1441.98,-7710.255,-18671.49,-27491.715,-11634.84,-8850.914999999999
1764763901.734893,-8201.699999999999,-14834.655,-1443.15,-7711.38,-18672.885,-27493.56,-11636.82,-8852.22
1764763901.778588,-8206.02,-14839.29,-1447.245,-7715.205,-18676.035,-27497.655,-11640.78,-8855.685
1764763901.778588,-8203.095,-14836.59,-1445.04,-7712.865,-18673.47,-27494.505,-11638.53,-8853.795
1764763901.778588,-8204.805,-14839.02,-1447.74,-7715.205,-18675.945,-27496.17,-11640.825,-8856.855
1764763901.778588,-8203.725,-14838.48,-1446.525,-7714.035,-18674.595,-27495.765,-11639.745,-8855.64
1764763901.778588,-8203.275,-14837.58,-1445.535,-7713.54,-18674.73,-27495.855,-11639.7,-8854.47
1764763901.778588,-8198.91,-14832.99,-1441.1699999999998,-7708.679999999999,-18669.69,-27491.13,-11636.055,-8849.565
1764763901.778588,-8199.945,-14833.08,-1441.755,-7708.815,-18670.05,-27491.67,-11636.505,-8850.105
1764763901.778588,-8202.42,-14834.88,-1443.6,-7711.514999999999,-18672.39,-27494.01,-11638.35,-8852.625
1764763901.778588,-8199.63,-14832.315,-1440.99,-7709.67,-18670.14,-27492.39,-11635.47,-8849.835
1764763901.778588,-8205.255,-14838.615,-1446.84,-7714.799999999999,-18675.765,-27498.015,-11640.915,-8855.324999999999
1764763901.778588,-8205.795,-14838.975,-1447.02,-7715.25,-18676.44,-27497.97,-11641.545,-8855.775
1764763901.779616,-8204.49,-14837.76,-1446.12,-7713.9,-18675.81,-27496.935,-11640.915,-8853.93
1764763901.779616,-8202.33,-14835.465,-1444.5449999999998,-7712.28,-18674.19,-27495.63,-11639.61,-8852.31
1764763901.779616,-8197.605,-14830.695,-1439.685,-7707.87,-18669.375,-27490.86,-11634.795,-8848.125
1764763901.779616,-8198.505,-14832.045,-1441.1699999999998,-7708.365,-18669.645,-27491.22,-11635.74,-8848.89
1764763901.779616,-8201.52,-14835.24,-1444.32,-7711.155,-18672.84,-27494.01,-11639.61,-8851.635
1764763901.7801363,-8198.595,-14832.045,-1441.62,-7708.545,-18670.185,-27491.67,-11636.73,-8848.755
1764763901.7801363,-8200.8,-14834.385,-1444.5,-7711.875,-18672.795,-27494.865,-11639.745,-8851.725
1764763901.7801363,-8198.82,-14832.27,-1442.52,-7709.94,-18670.995,-27493.155,-11637.315,-8848.89
1764763901.7801363,-8202.33,-14836.095,-1446.255,-7713.495,-18675.045,-27497.79,-11641.23,-8852.4
1764763901.7801363,-8198.46,-14832.09,-1442.2949999999998,-7709.535,-18671.13,-27494.01,-11636.955,-8848.619999999999
1764763901.7801363,-8198.505,-14832.0,-1441.08,-7709.264999999999,-18670.545,-27493.425,-11636.775,-8848.17
1764763901.7801363,-8199.135,-14832.54,-1441.1699999999998,-7709.49,-18670.95,-27493.83,-11636.865,-8848.71
1764763901.7801363,-8199.63,-14832.765,-1442.115,-7709.58,-18670.68,-27493.155,-11638.44,-8849.16
1764763901.8266935,-8200.529999999999,-14833.53,-1443.015,-7709.894999999999,-18671.58,-27494.145,-11638.35,-8849.34
1764763901.8266935,-8200.529999999999,-14833.755,-1442.385,-7709.94,-18670.905,-27493.605,-11638.53,-8849.34
1764763901.8266935,-8200.89,-14833.665,-1443.105,-7711.019999999999,-18671.265,-27494.505,-11638.845,-8849.565
1764763901.8266935,-8200.845,-14833.305,-1442.34,-7710.165,-18670.905,-27494.01,-11639.07,-8850.105
1764763901.8266935,-8202.735,-14834.925,-1444.32,-7711.695,-18673.29,-27495.81,-11640.825,-8851.59
1764763901.8266935,-8206.244999999999,-14838.3,-1447.9199999999998,-7716.105,-18677.205,-27500.31,-11643.255,-8855.1
1764763901.8266935,-8201.205,-14833.44,-1442.97,-7711.559999999999,-18672.3,-27496.305,-11638.26,-8850.465
1764763901.8266935,-8201.744999999999,-14832.81,-1443.06,-7711.38,-18671.805,-27496.215,-11638.755,-8850.645
1764763901.8266935,-8206.74,-14838.39,-1448.955,-7716.915,-18677.97,-27501.84,-11642.85,-8855.955
1764763901.8266935,-8206.83,-14838.165,-1448.505,-7716.644999999999,-18677.655,-27500.535,-11642.58,-8855.685
1764763901.8266935,-8206.515,-14838.255,-1447.9199999999998,-7716.105,-18676.53,-27499.815,-11642.715,-8855.055
1764763901.8266935,-8205.435,-14836.995,-1446.7949999999998,-7714.665,-18674.82,-27498.33,-11642.04,-8853.57
1764763901.8266935,-8203.59,-14835.105,-1445.22,-7713.405,-18673.47,-27497.88,-11640.69,-8852.039999999999
1764763901.8266935,-8200.215,-14831.19,-1441.845,-7709.804999999999,-18670.05,-27494.37,-11637.72,-8847.9
1764763901.8266935,-8200.98,-14831.91,-1442.52,-7711.155,-18671.355,-27496.44,-11637.945,-8848.17
1764763901.8266935,-8202.6,-14834.34,-1444.815,-7712.91,-18673.83,-27499.545,-11639.88,-8850.779999999999
1764763901.8266935,-8202.195,-14834.295,-1444.77,-7712.82,-18672.975,-27499.005,-11639.655,-8851.14
1764763901.8266935,-8201.97,-14833.89,-1444.6799999999998,-7712.37,-18672.03,-27497.34,-11640.33,-8851.05
1764763901.8266935,-8203.005,-14834.745,-1445.76,-7713.09,-18672.57,-27497.43,-11640.24,-8851.949999999999
1764763901.8279655,-8202.735,-14834.745,-1445.355,-7712.415,-18672.705,-27497.115,-11639.835,-8851.994999999999
1764763901.8279655,-8203.23,-14834.835,-1446.12,-7713.09,-18673.74,-27497.25,-11640.645,-8852.715
1764763901.8279655,-8206.02,-14838.705,-1449.27,-7716.644999999999,-18676.215,-27500.58,-11644.245,-8855.775
1764763901.8279655,-8205.66,-14838.57,-1448.46,-7715.79,-18676.215,-27501.03,-11644.065,-8855.279999999999
1764763901.8279655,-8203.725,-14836.095,-1446.975,-7714.844999999999,-18674.595,-27500.265,-11641.905,-8852.805
1764763901.8750844,-8199.18,-14831.415,-1442.745,-7711.38,-18670.545,-27496.395,-11637.9,-8848.89
1764763901.8750844,-8203.455,-14836.14,-1447.38,-7715.474999999999,-18674.37,-27500.715,-11642.535,-8852.94
1764763901.8750844,-8201.115,-14833.755,-1445.625,-7712.46,-18671.76,-27498.69,-11639.295,-8850.465
1764763901.8750844,-8202.824999999999,-14835.42,-1447.245,-7713.405,-18672.795,-27500.04,-11641.725,-8851.545
1764763901.8750844,-8207.91,-14840.865,-1452.15,-7718.894999999999,-18678.51,-27505.17,-11647.08,-8856.945
1764763901.8750844,-8207.279999999999,-14840.055,-1451.745,-7718.355,-18677.745,-27504.18,-11646.99,-8857.619999999999
1764763901.8750844,-8205.84,-14838.66,-1451.025,-7717.769999999999,-18677.07,-27504.18,-11645.145,-8856.315
1764763901.8750844,-8204.58,-14837.13,-1448.55,-7715.655,-18674.505,-27502.47,-11644.02,-8853.615
1764763901.8750844,-8208.63,-14841.495,-1452.33,-7719.389999999999,-18678.51,-27506.475,-11648.115,-8857.395
1764763901.8750844,-8205.255,-14837.805,-1449.9,-7716.644999999999,-18676.26,-27503.865,-11644.965,-8854.47
1764763901.8750844,-8200.845,-14833.215,-1445.445,-7712.684999999999,-18671.4,-27499.005,-11640.69,-8850.24
1764763901.8750844,-8202.06,-14833.395,-1446.255,-7713.269999999999,-18672.03,-27500.58,-11641.95,-8850.914999999999
1764763901.8750844,-8203.77,-14835.51,-1447.515,-7714.844999999999,-18673.605,-27502.965,-11644.11,-8852.265
1764763901.8750844,-8208.18,-14841.36,-1452.4199999999998,-7720.019999999999,-18679.095,-27507.87,-11648.97,-8856.765
1764763901.8750844,-8207.82,-14841.315,-1452.465,-7719.705,-18678.78,-27507.015,-11648.43,-8856.63
1764763901.8750844,-8206.605,-14839.92,-1450.575,-7718.49,-18676.485,-27504.72,-11646.765,-8855.01
1764763901.8750844,-8202.869999999999,-14835.645,-1445.625,-7714.394999999999,-18672.84,-27500.58,-11642.895,-8850.6
1764763901.8750844,-8201.699999999999,-14835.195,-1444.6799999999998,-7713.495,-18670.455,-27499.455,-11642.04,-8849.744999999999
1764763901.8750844,-8205.75,-14838.255,-1447.695,-7716.33,-18673.965,-27502.83,-11644.875,-8852.355
1764763901.8750844,-8208.27,-14839.74,-1450.62,-7719.299999999999,-18677.97,-27505.845,-11647.305,-8854.965
1764763901.8750844,-8204.49,-14836.635,-1447.875,-7715.79,-18674.37,-27502.29,-11644.38,-8852.039999999999
1764763901.8750844,-8208.63,-14841.135,-1452.6,-7720.335,-18678.51,-27507.555,-11649.105,-8856.359999999999
1764763901.8750844,-8205.119999999999,-14838.12,-1449.0449999999998,-7717.769999999999,-18675.585,-27505.035,-11646.72,-8852.58
1764763901.8750844,-8203.994999999999,-14837.175,-1447.695,-7716.465,-18673.56,-27503.325,-11645.415,-8851.949999999999
1764763901.9186308,-8204.175,-14837.265,-1448.19,-7716.059999999999,-18673.56,-27504.18,-11645.37,-8851.815
1764763901.9186308,-8206.695,-14839.245,-1450.44,-7718.849999999999,-18676.125,-27506.43,-11647.125,-8854.109999999999
1764763901.9186308,-8209.395,-14841.855,-1453.05,-7721.73,-18678.69,-27508.32,-11649.6,-8856.63
1764763901.9186308,-8205.21,-14838.21,-1449.27,-7717.32,-18675.315,-27504.27,-11646.18,-8852.76
1764763901.9186308,-8204.715,-14837.805,-1448.685,-7716.825,-18675.45,-27504.81,-11645.415,-8852.4
1764763901.9186308,-8202.645,-14836.32,-1447.47,-7715.565,-18674.595,-27504.9,-11644.29,-8851.14
1764763901.9186308,-8201.97,-14835.015,-1446.57,-7714.665,-18672.75,-27503.415,-11643.345,-8850.285
1764763901.9186308,-8203.365,-14836.05,-1447.515,-7715.745,-18674.1,-27504.27,-11644.695,-8851.23
1764763901.9186308,-8207.595,-14839.56,-1450.62,-7719.434999999999,-18677.745,-27508.095,-11647.53,-8854.38
1764763901.9186308,-8203.32,-14834.97,-1446.75,-7715.025,-18673.29,-27504.18,-11642.895,-8849.744999999999
1764763901.9186308,-8204.625,-14835.69,-1447.515,-7714.575,-18673.47,-27504.27,-11643.795,-8850.195
1764763901.9186308,-8208.63,-14839.29,-1451.16,-7718.309999999999,-18677.61,-27508.23,-11648.16,-8854.289999999999
1764763901.9186308,-8207.235,-14838.345,-1450.395,-7717.139999999999,-18675.9,-27507.15,-11646.855,-8852.13
1764763901.9186308,-8202.195,-14834.295,-1446.48,-7713.855,-18672.255,-27503.055,-11642.58,-8848.619999999999
1764763901.9186308,-8202.779999999999,-14834.925,-1447.38,-7714.71,-18673.47,-27503.73,-11642.985,-8849.43
1764763901.9186308,-8201.565,-14832.045,-1445.04,-7712.28,-18671.49,-27501.3,-11641.59,-8847.675
1764763901.9186308,-8202.6,-14833.755,-1446.525,-7713.945,-18672.615,-27503.415,-11642.04,-8848.71
1764763901.9186308,-8206.38,-14838.03,-1451.115,-7718.535,-18676.08,-27508.095,-11645.73,-8851.994999999999
1764763901.9186308,-8203.59,-14834.43,-1447.65,-7715.205,-18673.29,-27504.945,-11642.625,-8848.755
1764763901.9186308,-8205.885,-14837.13,-1450.125,-7717.995,-18676.26,-27507.915,-11645.505,-8851.815
1764763901.9196503,-8206.38,-14837.625,-1450.89,-7718.804999999999,-18677.025,-27508.32,-11645.73,-8852.355
1764763901.9196503,-8206.065,-14837.805,-1450.755,-7718.535,-18676.8,-27507.825,-11645.91,-8851.994999999999
1764763901.9196503,-8205.93,-14837.265,-1449.855,-7717.455,-18675.855,-27507.285,-11645.325,-8851.5
1764763901.9196503,-8204.445,-14835.645,-1447.9199999999998,-7715.115,-18673.425,-27504.585,-11644.155,-8849.97
1764763901.967116,-8202.06,-14832.945,-1445.355,-7712.73,-18671.265,-27502.605,-11641.14,-8847.494999999999
1764763901.967116,-8201.789999999999,-14832.405,-1445.085,-7712.865,-18671.805,-27503.595,-11640.915,-8847.315
1764763901.967116,-8202.105,-14833.44,-1445.625,-7713.719999999999,-18673.38,-27504.765,-11642.4,-8848.215
1764763901.967116,-8206.965,-14837.94,-1449.675,-7717.634999999999,-18677.115,-27509.94,-11646.9,-8852.355
1764763901.967116,-8205.975,-14837.58,-1449.1799999999998,-7716.554999999999,-18676.035,-27509.265,-11645.955,-8851.365
1764763901.967116,-8205.029999999999,-14836.455,-1448.19,-7716.195,-18675.315,-27507.06,-11644.425,-8849.88
1764763901.967116,-8204.85,-14835.735,-1447.965,-7715.969999999999,-18675.405,-27506.43,-11644.2,-8848.98
1764763901.967116,-8200.44,-14830.515,-1443.6,-7711.065,-18670.545,-27501.435,-11640.015,-8844.255
1764763901.967116,-8200.215,-14831.145,-1443.4199999999998,-7711.74,-18670.365,-27501.795,-11640.015,-8844.525
1764763901.967116,-8205.705,-14836.5,-1448.955,-7716.33,-18675.27,-27507.33,-11644.65,-8850.105
1764763901.967116,-8206.83,-14837.67,-1449.36,-7717.455,-18676.125,-27508.905,-11645.865,-8851.5
1764763901.967116,-8205.795,-14836.905,-1448.145,-7716.915,-18675.765,-27508.14,-11645.91,-8851.095
1764763901.967116,-8202.779999999999,-14834.295,-1446.12,-7714.259999999999,-18673.38,-27505.53,-11643.705,-8848.395
1764763901.967116,-8207.369999999999,-14838.165,-1451.2949999999998,-7718.894999999999,-18677.97,-27510.705,-11648.16,-8852.4
1764763901.967116,-8205.84,-14836.365,-1450.44,-7718.67,-18676.62,-27509.22,-11646.54,-8850.555
1764763901.967116,-8202.914999999999,-14832.855,-1447.155,-7714.934999999999,-18674.37,-27506.34,-11643.39,-8847.27
1764763901.967116,-8205.39,-14835.195,-1449.54,-7716.375,-18675.54,-27507.555,-11646.045,-8849.07
1764763901.967116,-8201.654999999999,-14831.685,-1444.905,-7712.19,-18671.355,-27502.83,-11642.67,-8845.47
1764763901.967116,-8202.645,-14832.315,-1445.265,-7713.45,-18672.615,-27504.18,-11643.12,-8846.91
1764763901.967116,-8203.545,-14833.665,-1446.345,-7715.115,-18674.055,-27506.205,-11644.155,-8847.72
1764763902.0098386,-8203.86,-14833.08,-1446.075,-7713.719999999999,-18673.065,-27505.125,-11644.245,-8846.82
1764763902.0098386,-8202.105,-14831.37,-1444.905,-7712.144999999999,-18672.12,-27503.55,-11642.805,-8845.065
1764763902.0098386,-8202.015,-14832.18,-1445.94,-7713.269999999999,-18673.245,-27504.945,-11643.615,-8845.02
1764763902.0098386,-8204.94,-14835.555,-1448.73,-7716.105,-18675.855,-27507.69,-11647.215,-8847.36
1764763902.0098386,-8201.16,-14831.01,-1444.59,-7712.549999999999,-18672.345,-27504.54,-11642.805,-8843.625
1764763902.0098386,-8201.789999999999,-14831.73,-1445.04,-7712.82,-18673.065,-27505.035,-11643.39,-8844.345
1764763902.0098386,-8206.199999999999,-14836.05,-1449.54,-7717.679999999999,-18678.015,-27509.22,-11646.855,-8848.98
1764763902.0098386,-8204.49,-14834.97,-1448.19,-7716.285,-18676.215,-27507.375,-11645.595,-8847.72
1764763902.0098386,-8199.135,-14829.66,-1442.88,-7711.245,-18670.725,-27501.93,-11641.275,-8842.185
1764763902.0098386,-8198.73,-14829.75,-1442.97,-7711.38,-18670.725,-27502.29,-11641.5,-8842.545
1764763902.0098386,-8202.465,-14833.17,-1446.48,-7714.755,-18674.64,-27506.07,-11644.965,-8846.369999999999
1764763902.0098386,-8201.654999999999,-14832.225,-1445.58,-7713.224999999999,-18672.975,-27504.72,-11643.075,-8845.335
1764763902.0098386,-8199.9,-14830.02,-1443.195,-7711.2,-18670.725,-27502.83,-11640.69,-8842.365
1764763902.0098386,-8204.85,-14834.745,-1447.74,-7716.825,-18676.485,-27507.69,-11645.19,-8847.18
1764763902.0110111,-8204.94,-14834.835,-1447.74,-7717.094999999999,-18676.215,-27508.14,-11645.505,-8847.855
1764763902.0110111,-8202.555,-14831.37,-1445.445,-7713.99,-18672.615,-27504.72,-11642.535,-8844.795
1764763902.0110111,-8206.56,-14835.915,-1449.63,-7717.95,-18677.16,-27508.995,-11646.855,-8848.529999999999
1764763902.0110111,-8206.515,-14835.915,-1449.72,-7717.95,-18677.34,-27508.59,-11647.35,-8848.935
1764763902.0110111,-8203.05,-14832.27,-1446.075,-7715.295,-18673.92,-27505.62,-11642.94,-8845.244999999999
1764763902.0110111,-8205.39,-14834.7,-1449.405,-7717.905,-18676.755,-27508.905,-11645.64,-8847.539999999999
1764763902.0110111,-8205.39,-14834.385,-1449.0449999999998,-7717.634999999999,-18676.395,-27508.05,-11645.415,-8846.865
1764763902.0110111,-8201.52,-14830.29,-1444.77,-7713.269999999999,-18672.075,-27504.27,-11641.095,-8842.77
1764763902.0110111,-8201.97,-14830.83,-1445.94,-7714.259999999999,-18673.65,-27505.395,-11642.49,-8843.445
1764763902.0110111,-8204.445,-14832.63,-1447.965,-7716.78,-18676.53,-27507.78,-11644.965,-8845.289999999999
1764763902.060898,-8206.83,-14834.745,-1450.125,-7719.66,-18678.33,-27509.805,-11647.395,-8847.675
1764763902.060898,-8204.895,-14832.99,-1448.595,-7717.5,-18675.81,-27507.015,-11645.37,-8844.93
1764763902.060898,-8208.494999999999,-14837.4,-1453.23,-7720.695,-18679.32,-27511.2,-11648.295,-8848.529999999999
1764763902.060898,-8205.615,-14834.565,-1450.26,-7717.275,-18676.305,-27508.545,-11645.955,-8845.47
1764763902.060898,-8203.635,-14832.72,-1448.0549999999998,-7715.88,-18673.695,-27506.34,-11645.01,-8844.119999999999
1764763902.0621195,-8203.23,-14832.18,-1447.74,-7715.519999999999,-18672.84,-27505.44,-11644.38,-8843.49
1764763902.0621195,-8205.39,-14834.25,-1450.08,-7717.365,-18675.315,-27507.915,-11646.405,-8845.065
1764763902.0621195,-8206.154999999999,-14834.205,-1449.675,-7717.634999999999,-18675.72,-27507.915,-11646.45,-8844.75
1764763902.0621195,-8205.074999999999,-14833.53,-1449.54,-7716.599999999999,-18674.73,-27507.24,-11645.64,-8843.625
1764763902.0621195,-8206.515,-14835.195,-1451.16,-7717.995,-18676.305,-27509.13,-11647.53,-8844.885
1764763902.0621195,-8210.475,-14839.02,-1454.94,-7722.224999999999,-18679.995,-27513.99,-11651.355,-8848.89
1764763902.0621195,-8208.539999999999,-14837.715,-1454.22,-7721.505,-18678.96,-27512.55,-11650.095,-8847.27
1764763902.0621195,-8204.895,-14833.89,-1450.125,-7717.724999999999,-18675.36,-27509.22,-11646.045,-8843.895
1764763902.0621195,-8204.625,-14833.62,-1449.54,-7716.735,-18674.73,-27509.13,-11645.37,-8843.445
1764763902.0621195,-8206.83,-14835.465,-1451.475,-7718.535,-18676.53,-27510.84,-11647.08,-8845.695
1764763902.0621195,-8206.335,-14834.655,-1451.07,-7718.264999999999,-18676.62,-27510.795,-11646.99,-8845.289999999999
1764763902.0621195,-8204.355,-14832.855,-1449.1799999999998,-7716.87,-18675.315,-27509.22,-11645.955,-8843.715
1764763902.0621195,-8199.045,-14828.04,-1443.69,-7711.695,-18670.14,-27503.91,-11641.05,-8838.539999999999
1764763902.0621195,-8200.755,-14828.895,-1444.6799999999998,-7713.134999999999,-18670.86,-27505.08,-11641.815,-8839.395
1764763902.0621195,-8202.914999999999,-14830.83,-1447.38,-7716.014999999999,-18673.065,-27507.645,-11645.415,-8841.42
1764763902.0621195,-8205.48,-14834.34,-1450.485,-7719.434999999999,-18676.665,-27511.83,-11648.205,-8844.345
1764763902.0621195,-8203.05,-14831.595,-1448.325,-7716.599999999999,-18674.055,-27509.4,-11645.775,-8841.779999999999
1764763902.0621195,-8206.74,-14835.105,-1451.7,-7719.84,-18677.16,-27512.145,-11648.655,-8844.885
1764763902.0621195,-8203.545,-14830.74,-1448.325,-7716.509999999999,-18673.65,-27508.995,-11645.28,-8841.69
1764763902.10505,-8206.289999999999,-14833.89,-1451.025,-7719.12,-18676.17,-27511.38,-11648.205,-8844.93
1764763902.10505,-8203.994999999999,-14832.045,-1448.55,-7716.735,-18673.335,-27508.185,-11645.955,-8841.69
1764763902.1065989,-8204.49,-14832.855,-1449.09,-7717.95,-18674.505,-27509.715,-11645.955,-8842.275
1764763902.1065989,-8203.635,-14832.315,-1449.0449999999998,-7717.139999999999,-18674.46,-27510.255,-11645.91,-8842.59
1764763902.1065989,-8201.34,-14829.93,-1447.29,-7715.655,-18671.76,-27507.96,-11644.155,-8840.97
1764763902.1065989,-8202.105,-14831.28,-1448.46,-7716.24,-18672.795,-27508.635,-11645.145,-8841.24
1764763902.1065989,-8203.545,-14832.045,-1448.865,-7716.599999999999,-18673.155,-27510.3,-11646.09,-8842.005
1764763902.1065989,-8206.965,-14834.88,-1451.25,-7719.165,-18676.17,-27513.315,-11649.24,-8845.199999999999
1764763902.1065989,-8210.654999999999,-14839.02,-1455.57,-7723.08,-18679.995,-27516.42,-11652.48,-8849.52
1764763902.1065989,-8205.48,-14833.845,-1450.62,-7718.4,-18675.315,-27511.47,-11647.395,-8844.39
1764763902.1065989,-8203.14,-14831.73,-1447.785,-7716.509999999999,-18672.93,-27508.77,-11645.685,-8841.869999999999
1764763902.1065989,-8202.869999999999,-14831.46,-1448.145,-7716.78,-18672.615,-27509.04,-11646.405,-8842.23
1764763902.1065989,-8203.095,-14831.73,-1449.1799999999998,-7717.905,-18673.335,-27510.255,-11646.495,-8843.039999999999
1764763902.1065989,-8201.744999999999,-14829.795,-1447.515,-7715.924999999999,-18671.715,-27508.005,-11644.92,-8841.195
1764763902.1065989,-8200.935,-14829.66,-1446.525,-7714.799999999999,-18671.13,-27507.06,-11643.48,-8840.43
1764763902.1065989,-8203.365,-14832.81,-1449.495,-7718.13,-18674.145,-27510.84,-11646.675,-8843.49
1764763902.1065989,-8198.145,-14827.095,-1444.365,-7712.955,-18669.465,-27506.52,-11641.5,-8838.675
1764763902.1065989,-8200.08,-14828.58,-1445.31,-7714.53,-18671.445,-27508.23,-11642.94,-8839.44
1764763902.1065989,-8204.805,-14833.62,-1451.34,-7719.389999999999,-18675.855,-27513.0,-11648.745,-8844.39
1764763902.1065989,-8202.015,-14830.245,-1448.1,-7716.375,-18672.525,-27509.67,-11645.775,-8841.015
1764763902.1065989,-8202.645,-14830.605,-1448.145,-7717.23,-18672.93,-27509.895,-11646.45,-8841.69
1764763902.1065989,-8205.48,-14833.62,-1451.2949999999998,-7719.705,-18675.675,-27512.82,-11649.825,-8844.975
1764763902.1065989,-8201.789999999999,-14831.01,-1448.145,-7716.24,-18672.57,-27510.3,-11646.405,-8841.24
1764763902.1065989,-8202.779999999999,-14832.45,-1449.45,-7717.679999999999,-18673.65,-27511.74,-11647.665,-8841.285
1764763902.1506658,-8197.47,-14827.05,-1444.23,-7712.46,-18668.34,-27506.79,-11642.625,-8835.164999999999
1764763902.1506658,-8202.914999999999,-14832.405,-1449.72,-7718.535,-18674.19,-27513.18,-11647.665,-8841.195
1764763902.1506658,-8202.555,-14832.09,-1448.955,-7718.264999999999,-18673.515,-27512.28,-11647.665,-8839.89
1764763902.1506658,-8200.26,-14828.895,-1447.47,-7715.969999999999,-18670.995,-27509.13,-11644.695,-8836.605
1764763902.1506658,-8197.56,-14825.52,-1444.815,-7712.28,-18667.845,-27506.115,-11641.635,-8834.445
1764763902.1506658,-8200.845,-14829.345,-1448.415,-7716.014999999999,-18671.58,-27509.67,-11645.28,-8838.27
1764763902.1506658,-8199.63,-14828.58,-1447.38,-7715.115,-18671.13,-27509.085,-11645.28,-8837.595
1764763902.1506658,-8196.39,-14825.205,-1443.645,-7711.965,-18667.845,-27505.935,-11641.95,-8834.895
1764763902.1506658,-8200.17,-14828.355,-1447.605,-7716.195,-18671.22,-27509.715,-11644.92,-8837.955
1764763902.1506658,-8200.529999999999,-14828.445,-1447.245,-7715.969999999999,-18671.22,-27509.67,-11644.875,-8837.19
1764763902.1506658,-8194.68,-14823.72,-1441.98,-7710.255,-18665.82,-27504.72,-11639.655,-8832.195
1764763902.1506658,-8198.145,-14827.14,-1445.445,-7714.62,-18669.78,-27508.095,-11643.75,-8835.75
1764763902.1506658,-8201.43,-14830.065,-1448.505,-7717.95,-18673.605,-27511.515,-11646.99,-8838.99
1764763902.1506658,-8198.64,-14827.41,-1445.8049999999998,-7715.25,-18670.545,-27508.77,-11643.93,-8835.66
1764763902.1506658,-8199.27,-14827.815,-1446.075,-7715.655,-18670.5,-27508.77,-11643.885,-8836.065
1764763902.1506658,-8201.115,-14829.165,-1447.38,-7715.745,-18670.95,-27509.85,-11644.83,-8837.865
1764763902.1506658,-8204.039999999999,-14832.54,-1450.35,-7719.165,-18674.28,-27512.55,-11647.755,-8841.195
1764763902.1506658,-8203.005,-14831.415,-1449.45,-7718.894999999999,-18673.11,-27511.38,-11647.935,-8839.44
1764763902.1506658,-8200.035,-14828.31,-1446.48,-7715.384999999999,-18669.645,-27507.555,-11644.74,-8835.795
1764763902.1506658,-8194.725,-14824.035,-1441.89,-7710.84,-18665.145,-27503.415,-11639.475,-8831.16
1764763902.1506658,-8194.005,-14823.045,-1440.9,-7711.019999999999,-18664.38,-27503.01,-11638.665,-8830.755
1764763902.1506658,-8197.02,-14825.925,-1443.645,-7713.764999999999,-18666.945,-27506.43,-11640.735,-8833.68
1764763902.1970189,-8201.385,-14829.84,-1448.145,-7717.769999999999,-18671.94,-27511.29,-11645.325,-8837.82
1764763902.1970189,-8197.425,-14826.015,-1444.05,-7713.719999999999,-18667.53,-27507.465,-11642.31,-8833.545
1764763902.1970189,-8197.56,-14826.195,-1443.69,-7714.485,-18667.71,-27508.095,-11642.85,-8834.94
1764763902.1970189,-8201.475,-14830.155,-1448.0549999999998,-7718.625,-18671.715,-27512.055,-11646.81,-8838.63
1764763902.1970189,-8198.73,-14828.265,-1445.13,-7715.835,-18668.655,-27509.265,-11644.605,-8835.93
1764763902.1970189,-8198.64,-14827.815,-1444.77,-7714.575,-18668.43,-27508.545,-11644.515,-8835.119999999999
1764763902.1970189,-8198.324999999999,-14827.14,-1443.825,-7714.08,-18668.07,-27508.41,-11644.065,-8834.175
1764763902.1970189,-8199.09,-14827.095,-1444.59,-7714.485,-18668.43,-27508.995,-11643.93,-8835.029999999999
1764763902.1970189,-8198.865,-14826.78,-1445.4,-7714.349999999999,-18668.97,-27509.94,-11644.425,-8834.31
1764763902.1970189,-8199.765,-14828.22,-1446.9299999999998,-7716.644999999999,-18670.77,-27511.11,-11646.315,-8835.57
1764763902.1970189,-8199.36,-14828.715,-1446.7949999999998,-7716.644999999999,-18670.725,-27511.29,-11646.225,-8835.57
1764763902.1970189,-8200.305,-14828.76,-1446.48,-7716.644999999999,-18670.995,-27511.515,-11646.45,-8835.975
1764763902.1970189,-8200.935,-14829.345,-1446.7949999999998,-7716.78,-18671.175,-27512.415,-11646.99,-8836.965
1764763902.1970189,-8204.49,-14832.765,-1450.125,-7719.705,-18674.28,-27515.655,-11649.51,-8839.619999999999
1764763902.1970189,-8203.86,-14832.405,-1450.215,-7719.389999999999,-18673.515,-27513.945,-11648.79,-8838.539999999999
1764763902.1970189,-8199.135,-14827.995,-1445.445,-7715.655,-18669.195,-27509.715,-11644.47,-8833.949999999999
1764763902.1970189,-8197.92,-14826.825,-1444.59,-7715.655,-18668.115,-27509.04,-11644.155,-8833.095
1764763902.1970189,-8198.279999999999,-14826.24,-1444.5449999999998,-7714.98,-18667.71,-27509.31,-11644.605,-8832.779999999999
1764763902.1970189,-8196.615,-14826.645,-1444.23,-7714.08,-18667.62,-27509.265,-11643.03,-8831.789999999999
1764763902.1970189,-8197.965,-14827.77,-1445.22,-7714.53,-18668.79,-27510.345,-11644.74,-8833.095
1764763902.1970189,-8200.935,-14830.155,-1447.56,-7717.724999999999,-18672.03,-27513.54,-11646.495,-8835.615
1764763902.1970189,-8203.994999999999,-14833.53,-1451.565,-7721.639999999999,-18675.045,-27516.96,-11650.14,-8838.63
1764763902.1970189,-8201.88,-14831.82,-1449.495,-7720.019999999999,-18673.425,-27514.26,-11649.24,-8836.515
1764763902.1970189,-8198.055,-14828.535,-1446.345,-7715.79,-18669.96,-27510.165,-11646.18,-8832.869999999999
1764763902.2440133,-8200.44,-14830.515,-1448.145,-7718.219999999999,-18671.895,-27512.64,-11648.16,-8834.805
1764763902.2440133,-8198.279999999999,-14827.455,-1445.58,-7716.195,-18669.69,-27510.93,-11646.09,-8832.869999999999
1764763902.2440133,-8200.26,-14829.48,-1447.47,-7717.275,-18671.13,-27512.82,-11647.89,-8834.715
1764763902.2440133,-8195.355,-14825.205,-1443.465,-7712.865,-18666.45,-27508.545,-11643.705,-8830.529999999999
1764763902.2440133,-8193.69,-14824.125,-1442.4299999999998,-7712.37,-18665.865,-27507.78,-11642.76,-8829.675
1764763902.2440133,-8195.265,-14825.79,-1444.455,-7714.53,-18667.98,-27509.895,-11644.38,-8830.755
1764763902.2440133,-8198.369999999999,-14828.76,-1447.11,-7717.59,-18671.22,-27512.865,-11646.945,-8833.095
1764763902.2440133,-8197.965,-14828.85,-1447.245,-7717.905,-18671.085,-27512.775,-11646.72,-8833.455
1764763902.2440133,-8196.93,-14827.32,-1446.165,-7716.644999999999,-18670.32,-27511.29,-11646.405,-8832.195
1764763902.2440133,-8195.805,-14825.7,-1444.77,-7714.53,-18667.89,-27508.455,-11644.695,-8830.574999999999
1764763902.2440133,-8195.039999999999,-14824.98,-1444.365,-7714.394999999999,-18667.575,-27508.5,-11644.02,-8830.26
1764763902.2440133,-8194.455,-14824.08,-1443.285,-7713.719999999999,-18666.945,-27507.915,-11644.245,-8829.72
1764763902.2440133,-8192.34,-14821.92,-1441.395,-7711.155,-18664.29,-27505.755,-11640.78,-8826.615
1764763902.2440133,-8191.665,-14820.885,-1440.855,-7710.884999999999,-18663.345,-27505.53,-11640.465,-8826.345
1764763902.2440133,-8192.789999999999,-14822.37,-1442.34,-7712.144999999999,-18664.47,-27507.195,-11642.355,-8828.055
1764763902.2440133,-8198.369999999999,-14827.77,-1448.0549999999998,-7717.634999999999,-18670.23,-27513.495,-11647.395,-8833.5
1764763902.2440133,-8197.244999999999,-14826.42,-1446.975,-7717.094999999999,-18669.24,-27512.685,-11645.955,-8831.789999999999
1764763902.2440133,-8193.105,-14822.505,-1442.61,-7713.269999999999,-18664.83,-27508.23,-11641.995,-8827.289999999999
1764763902.2440133,-8192.744999999999,-14822.325,-1443.195,-7712.955,-18664.92,-27508.32,-11642.04,-8827.065
1764763902.2440133,-8193.105,-14822.595,-1444.005,-7712.73,-18665.28,-27508.59,-11642.22,-8827.02
1764763902.2440133,-8195.58,-14825.52,-1446.345,-7715.565,-18667.215,-27510.615,-11644.965,-8829.63
1764763902.2440133,-8191.215,-14821.155,-1441.89,-7711.245,-18662.895,-27506.43,-11640.735,-8825.13
1764763902.2909164,-8190.719999999999,-14820.705,-1441.395,-7709.94,-18662.13,-27505.665,-11639.835,-8824.455
1764763902.2909164,-8191.304999999999,-14821.74,-1442.2949999999998,-7711.605,-18663.75,-27507.24,-11640.42,-8824.994999999999
1764763902.2909164,-8192.34,-14823.45,-1443.87,-7713.9,-18664.92,-27509.67,-11642.805,-8826.255
1764763902.2909164,-8197.785,-14828.31,-1449.135,-7718.985,-18670.68,-27514.53,-11647.62,-8831.07
1764763902.2909164,-8196.255,-14826.285,-1447.11,-7716.825,-18668.565,-27513.045,-11645.865,-8829.72
1764763902.2909164,-8192.43,-14822.505,-1443.51,-7711.92,-18664.515,-27508.905,-11642.355,-8825.985
1764763902.2909164,-8194.32,-14824.305,-1444.905,-7712.955,-18665.82,-27510.255,-11643.345,-8827.38
1764763902.2909164,-8195.94,-14826.87,-1446.48,-7715.429999999999,-18666.945,-27511.74,-11646.99,-8829.27
1764763902.2909164,-8192.925,-14823.405,-1443.4199999999998,-7712.505,-18663.84,-27508.995,-11643.75,-8825.805
1764763902.2909164,-8193.33,-14822.505,-1443.33,-7712.865,-18664.2,-27509.085,-11644.38,-8825.895
1764763902.2920072,-8197.289999999999,-14826.825,-1447.335,-7717.094999999999,-18668.34,-27513.27,-11648.7,-8830.395
1764763902.2920072,-8195.49,-14825.61,-1446.03,-7715.88,-18666.81,-27512.415,-11646.72,-8829.045
1764763902.2920072,-8191.215,-14821.2,-1442.52,-7712.28,-18663.03,-27508.905,-11642.13,-8824.59
1764763902.2920072,-8194.59,-14824.305,-1446.075,-7715.835,-18666.405,-27512.055,-11645.73,-8828.055
1764763902.2920072,-8191.844999999999,-14821.74,-1442.61,-7712.19,-18663.3,-27509.265,-11643.12,-8825.13
1764763902.2920072,-8194.86,-14825.07,-1445.625,-7715.745,-18666.81,-27512.73,-11646.45,-8828.955
1764763902.2930064,-8194.32,-14824.53,-1444.995,-7714.755,-18666.0,-27511.2,-11645.28,-8827.605
1764763902.2930064,-8199.36,-14830.02,-1450.1699999999998,-7719.165,-18671.355,-27515.655,-11650.365,-8831.97
1764763902.2930064,-8197.38,-14828.805,-1448.82,-7717.634999999999,-18669.645,-27514.395,-11648.97,-8830.98
1764763902.2930064,-8192.789999999999,-14822.955,-1444.5449999999998,-7712.775,-18665.01,-27509.58,-11644.47,-8826.705
1764763902.2930064,-8193.735,-14822.595,-1444.995,-7713.45,-18665.055,-27509.94,-11644.245,-8827.199999999999
1764763902.2937877,-8196.75,-14825.565,-1446.9299999999998,-7716.375,-18667.53,-27512.55,-11647.08,-8829.09
1764763902.2937877,-8191.71,-14821.155,-1442.34,-7712.594999999999,-18664.11,-27508.905,-11642.67,-8824.365
1764763902.2937877,-8192.925,-14822.73,-1444.905,-7713.945,-18665.73,-27511.02,-11644.38,-8825.67
1764763902.3415856,-8196.75,-14826.87,-1448.73,-7717.679999999999,-18669.195,-27515.025,-11647.62,-8830.17
1764763902.3415856,-8192.295,-14822.46,-1444.86,-7713.63,-18664.785,-27510.75,-11644.155,-8825.445
1764763902.3415856,-8192.115,-14822.415,-1445.355,-7714.304999999999,-18664.38,-27510.795,-11644.56,-8825.31
1764763902.3415856,-8196.435,-14826.105,-1449.0449999999998,-7717.724999999999,-18668.115,-27514.17,-11648.745,-8828.505
1764763902.3415856,-8194.5,-14824.395,-1445.85,-7715.205,-18665.19,-27511.92,-11646.045,-8825.805
1764763902.3415856,-8197.154999999999,-14827.14,-1448.64,-7717.724999999999,-18667.845,-27514.53,-11648.79,-8829.045
1764763902.3415856,-8195.67,-14826.195,-1448.415,-7716.014999999999,-18667.71,-27513.855,-11648.565,-8828.279999999999
1764763902.3415856,-8191.485,-14822.82,-1444.23,-7712.775,-18663.705,-27511.02,-11645.73,-8824.23
1764763902.3415856,-8187.929999999999,-14819.535,-1439.865,-7710.165,-18660.285,-27507.69,-11642.58,-8820.585
1764763902.3415856,-8191.98,-14822.37,-1442.88,-7713.09,-18663.435,-27510.84,-11645.64,-8824.005
1764763902.3415856,-8198.145,-14827.95,-1448.415,-7718.94,-18669.42,-27517.545,-11651.085,-8829.539999999999
1764763902.3415856,-8196.255,-14825.61,-1446.705,-7717.139999999999,-18667.62,-27515.655,-11648.97,-8827.83
1764763902.3415856,-8191.17,-14820.795,-1442.115,-7712.054999999999,-18662.895,-27510.255,-11644.155,-8822.43
1764763902.342747,-8191.17,-14820.525,-1442.475,-7713.045,-18662.49,-27509.58,-11644.065,-8823.24
1764763902.342747,-8191.304999999999,-14820.75,-1443.24,-7713.945,-18663.03,-27509.265,-11644.47,-8823.195
1764763902.342747,-8192.97,-14823.135,-1444.725,-7715.79,-18665.28,-27512.01,-11646.72,-8824.32
1764763902.342747,-8196.975,-14827.23,-1448.64,-7719.03,-18669.87,-27516.87,-11650.77,-8828.55
1764763902.342747,-8192.654999999999,-14822.55,-1444.725,-7715.115,-18666.045,-27513.72,-11646.315,-8824.904999999999
1764763902.342747,-8191.934999999999,-14822.01,-1444.5449999999998,-7714.934999999999,-18665.64,-27513.315,-11644.785,-8824.455
1764763902.342747,-8198.955,-14828.085,-1450.755,-7720.92,-18671.895,-27519.705,-11651.805,-8830.755
1764763902.342747,-8199.0,-14828.265,-1450.71,-7720.605,-18671.49,-27519.705,-11652.21,-8829.99
1764763902.342747,-8197.515,-14827.455,-1449.1799999999998,-7718.804999999999,-18669.78,-27517.905,-11650.59,-8828.279999999999
1764763902.3849106,-8191.215,-14821.83,-1444.005,-7713.36,-18664.29,-27511.965,-11644.74,-8822.88
1764763902.3849106,-8190.495,-14820.345,-1442.97,-7712.865,-18662.985,-27510.345,-11643.84,-8822.07
1764763902.3849106,-8191.349999999999,-14820.66,-1442.745,-7713.99,-18663.39,-27510.84,-11644.245,-8822.88
1764763902.3849106,-8191.98,-14821.2,-1444.095,-7714.62,-18664.155,-27512.055,-11644.65,-8823.42
1764763902.3849106,-8191.844999999999,-14821.515,-1443.87,-7714.889999999999,-18664.245,-27512.595,-11643.93,-8823.24
1764763902.3849106,-8189.955,-14819.76,-1441.53,-7713.09,-18661.95,-27510.48,-11642.715,-8821.17
1764763902.3849106,-8189.054999999999,-14818.59,-1440.1799999999998,-7712.054999999999,-18660.555,-27509.625,-11641.86,-8819.73
1764763902.3849106,-8191.53,-14821.785,-1442.835,-7714.485,-18664.065,-27513.405,-11643.93,-8821.98
1764763902.3849106,-8192.115,-14822.01,-1443.6,-7714.53,-18664.29,-27513.99,-11644.425,-8822.115
1764763902.3849106,-8192.744999999999,-14822.415,-1444.365,-7715.519999999999,-18665.055,-27514.395,-11645.415,-8823.15
1764763902.3849106,-8195.67,-14825.475,-1447.56,-7718.58,-18667.845,-27516.96,-11648.205,-8825.895
1764763902.3849106,-8195.085,-14824.26,-1446.345,-7717.545,-18666.09,-27515.205,-11646.99,-8824.994999999999
1764763902.3849106,-8199.27,-14827.995,-1450.1699999999998,-7720.83,-18670.32,-27519.345,-11650.815,-8828.82
1764763902.3849106,-8197.695,-14826.42,-1448.64,-7719.615,-18668.52,-27517.545,-11649.33,-8827.47
1764763902.3849106,-8192.34,-14821.245,-1443.6,-7714.575,-18663.93,-27512.505,-11644.83,-8822.52
1764763902.3849106,-8191.035,-14819.895,-1442.79,-7713.179999999999,-18662.355,-27511.605,-11643.705,-8821.215
1764763902.3849106,-8190.495,-14819.67,-1441.845,-7712.505,-18661.725,-27511.515,-11642.895,-8820.404999999999
1764763902.3849106,-8196.57,-14825.835,-1448.19,-7718.58,-18667.845,-27517.41,-11648.79,-8826.255
1764763902.3849106,-8196.029999999999,-14825.43,-1447.245,-7718.174999999999,-18667.125,-27517.14,-11648.7,-8825.67
1764763902.3849106,-8193.105,-14823.045,-1445.4,-7716.15,-18664.965,-27514.44,-11645.955,-8822.699999999999
1764763902.3849106,-8188.514999999999,-14818.365,-1441.1699999999998,-7712.144999999999,-18660.645,-27510.075,-11641.905,-8818.065
1764763902.3849106,-8189.82,-14819.355,-1442.25,-7713.36,-18661.41,-27510.21,-11642.4,-8818.74
1764763902.3849106,-8193.105,-14823.18,-1445.175,-7716.465,-18664.425,-27514.125,-11646.765,-8822.295
1764763902.3849106,-8192.025,-14821.875,-1443.69,-7714.394999999999,-18663.48,-27512.73,-11645.64,-8821.44
1764763902.43112,-8195.58,-14824.665,-1446.615,-7717.455,-18666.765,-27515.565,-11648.34,-8824.59
1764763902.43112,-8192.205,-14821.38,-1443.735,-7714.934999999999,-18663.075,-27512.55,-11644.785,-8821.215
1764763902.43112,-8191.71,-14820.795,-1443.645,-7714.889999999999,-18662.94,-27512.685,-11644.47,-8820.63
1764763902.43112,-8196.119999999999,-14825.835,-1448.325,-7719.21,-18668.115,-27517.95,-11649.6,-8824.635
1764763902.432126,-8194.32,-14823.81,-1446.84,-7717.545,-18666.225,-27516.24,-11647.89,-8822.25
1764763902.432126,-8196.57,-14826.33,-1449.765,-7720.155,-18669.15,-27519.075,-11651.22,-8824.904999999999
1764763902.432126,-8192.835,-14822.955,-1445.715,-7716.105,-18665.64,-27515.61,-11647.62,-8820.765
1764763902.432126,-8195.445,-14825.565,-1447.83,-7718.085,-18667.305,-27517.68,-11649.645,-8823.779999999999
1764763902.432126,-8195.13,-14824.665,-1447.02,-7717.365,-18666.63,-27517.005,-11648.655,-8822.61
1764763902.432126,-8190.134999999999,-14820.255,-1442.4299999999998,-7712.505,-18661.815,-27511.29,-11643.975,-8816.445
1764763902.432126,-8190.585,-14820.3,-1442.655,-7712.505,-18662.22,-27511.965,-11644.65,-8817.345
1764763902.432126,-8193.33,-14822.73,-1445.355,-7715.745,-18664.74,-27515.205,-11647.35,-8819.955
1764763902.432126,-8189.46,-14818.5,-1441.665,-7711.695,-18660.69,-27511.065,-11643.57,-8815.545
1764763902.432126,-8193.69,-14823.045,-1445.31,-7716.735,-18665.235,-27515.88,-11647.305,-8820.404999999999
1764763902.432126,-8193.555,-14822.595,-1444.995,-7716.42,-18664.83,-27516.105,-11647.17,-8820.225
1764763902.432126,-8193.06,-14822.28,-1445.535,-7716.24,-18664.965,-27515.745,-11646.54,-8820.63
1764763902.432126,-8192.97,-14822.01,-1445.895,-7715.969999999999,-18664.65,-27515.205,-11646.9,-8820.72
1764763902.432126,-8189.144999999999,-14818.23,-1442.61,-7712.325,-18660.645,-27511.74,-11643.57,-8816.715
1764763902.432126,-8189.775,-14818.68,-1443.105,-7713.09,-18660.69,-27512.055,-11643.84,-8817.074999999999
1764763902.432126,-8193.465,-14822.64,-1446.9299999999998,-7716.87,-18665.055,-27515.97,-11647.305,-8820.72
1764763902.432126,-8192.744999999999,-14821.83,-1446.165,-7715.79,-18665.28,-27515.07,-11646.585,-8819.865
1764763902.432126,-8187.84,-14816.52,-1440.225,-7710.389999999999,-18659.79,-27510.21,-11641.77,-8814.465
1764763902.432126,-8187.705,-14816.34,-1440.225,-7710.705,-18660.24,-27511.245,-11641.815,-8814.555
1764763902.432126,-8192.07,-14821.245,-1444.905,-7715.115,-18665.775,-27515.7,-11646.0,-8818.875
1764763902.4776886,-8191.035,-14820.435,-1444.6799999999998,-7714.665,-18664.875,-27515.43,-11646.18,-8818.38
1764763902.4776886,-8189.054999999999,-14817.735,-1442.2949999999998,-7712.684999999999,-18662.04,-27512.865,-11644.2,-8816.355
1764763902.4776886,-8185.995,-14813.955,-1438.965,-7709.445,-18658.665,-27508.905,-11640.825,-8812.44
1764763902.4776886,-8188.2,-14816.655,-1441.71,-7711.29,-18661.59,-27511.065,-11642.985,-8815.815
1764763902.4776886,-8185.769999999999,-14814.63,-1439.415,-7709.04,-18659.115,-27508.815,-11640.87,-8814.06
1764763902.4776886,-8187.974999999999,-14816.925,-1441.215,-7711.2,-18660.195,-27510.66,-11642.58,-8815.815
1764763902.4776886,-8186.219999999999,-14815.62,-1440.54,-7710.165,-18658.575,-27509.58,-11641.455,-8813.654999999999
1764763902.4776886,-8190.09,-14819.67,-1444.725,-7713.945,-18662.94,-27513.945,-11644.965,-8817.48
1764763902.4776886,-8187.389999999999,-14816.43,-1441.485,-7711.155,-18660.015,-27511.29,-11641.905,-8814.105
1764763902.4776886,-8190.405,-14819.715,-1443.6,-7713.945,-18663.21,-27514.395,-11644.65,-8817.525
1764763902.4776886,-8193.914999999999,-14822.865,-1447.155,-7717.95,-18666.765,-27517.905,-11648.34,-8821.215
1764763902.4776886,-8193.6,-14822.1,-1446.705,-7717.905,-18666.72,-27517.095,-11648.07,-8820.99
1764763902.4776886,-8191.844999999999,-14820.57,-1445.085,-7715.88,-18664.695,-27514.8,-11646.45,-8819.324999999999
1764763902.4776886,-8188.38,-14816.745,-1441.665,-7711.65,-18660.465,-27511.47,-11643.39,-8815.68
1764763902.4776886,-8191.08,-14818.77,-1444.23,-7714.349999999999,-18662.94,-27513.9,-11646.09,-8818.11
1764763902.478953,-8188.245,-14817.105,-1442.205,-7712.325,-18661.32,-27512.37,-11644.695,-8816.039999999999
1764763902.478953,-8188.469999999999,-14816.97,-1442.475,-7712.549999999999,-18661.86,-27512.955,-11644.605,-8816.175
1764763902.478953,-8189.28,-14817.42,-1442.925,-7713.405,-18662.985,-27514.08,-11645.415,-8816.85
1764763902.478953,-8188.38,-14816.79,-1442.25,-7713.269999999999,-18661.905,-27513.81,-11644.38,-8815.59
1764763902.478953,-8189.865,-14817.87,-1443.5549999999998,-7714.17,-18663.345,-27515.115,-11645.01,-8816.31
1764763902.478953,-8190.045,-14818.14,-1443.5549999999998,-7714.44,-18664.065,-27515.565,-11645.28,-8816.67
1764763902.478953,-8190.09,-14818.68,-1444.365,-7714.394999999999,-18664.605,-27514.755,-11645.955,-8817.255
1764763902.478953,-8191.394999999999,-14819.445,-1445.85,-7715.61,-18665.91,-27516.06,-11647.305,-8818.289999999999
1764763902.478953,-8195.039999999999,-14822.685,-1448.955,-7718.94,-18668.745,-27519.255,-11651.04,-8821.17
1764763902.5248792,-8190.764999999999,-14818.545,-1445.22,-7714.934999999999,-18664.83,-27514.71,-11646.315,-8817.029999999999
1764763902.5248792,-8189.73,-14816.655,-1443.78,-7713.315,-18663.3,-27512.865,-11644.515,-8815.32
1764763902.525383,-8189.549999999999,-14816.565,-1443.915,-7713.405,-18663.12,-27513.54,-11644.515,-8815.455
1764763902.525383,-8187.344999999999,-14814.855,-1442.115,-7712.19,-18661.32,-27512.19,-11643.48,-8813.835
1764763902.525383,-8187.57,-14814.495,-1441.35,-7711.92,-18660.96,-27512.055,-11642.76,-8813.34
1764763902.525383,-8191.799999999999,-14818.545,-1445.58,-7716.33,-18665.37,-27516.105,-11646.315,-8817.3
1764763902.525383,-8188.155,-14814.675,-1441.98,-7712.325,-18661.275,-27512.055,-11643.39,-8813.744999999999
1764763902.525383,-8188.92,-14814.99,-1442.655,-7712.46,-18661.455,-27512.685,-11644.515,-8813.925
1764763902.525383,-8192.52,-14818.77,-1446.255,-7716.24,-18665.505,-27516.735,-11648.115,-8817.345
1764763902.525383,-8193.824999999999,-14820.345,-1447.425,-7717.23,-18666.225,-27517.05,-11649.465,-8819.055
1764763902.5258937,-8193.824999999999,-14820.39,-1447.155,-7716.69,-18666.18,-27516.33,-11649.78,-8819.01
1764763902.5258937,-8192.34,-14818.725,-1445.265,-7715.429999999999,-18664.74,-27515.34,-11648.925,-8817.255
1764763902.5258937,-8188.875,-14815.035,-1441.26,-7711.83,-18660.555,-27511.785,-11645.82,-8813.34
1764763902.5258937,-8191.98,-14818.14,-1443.96,-7715.07,-18663.345,-27515.025,-11649.33,-8816.67
1764763902.5258937,-8188.785,-14815.575,-1441.44,-7712.415,-18660.915,-27512.955,-11645.955,-8813.97
1764763902.5258937,-8190.179999999999,-14816.43,-1442.655,-7713.045,-18661.095,-27513.945,-11647.305,-8814.465
1764763902.5258937,-8190.855,-14817.51,-1442.745,-7713.63,-18661.68,-27514.62,-11647.17,-8814.914999999999
1764763902.5258937,-8193.33,-14820.84,-1445.985,-7716.644999999999,-18665.145,-27517.095,-11648.295,-8818.065
1764763902.5258937,-8193.51,-14821.65,-1446.975,-7716.87,-18665.595,-27517.365,-11648.655,-8818.83
1764763902.5258937,-8193.779999999999,-14821.38,-1446.48,-7716.33,-18665.1,-27517.005,-11651.625,-8819.46
1764763902.526899,-8190.945,-14817.735,-1443.69,-7713.99,-18662.04,-27514.215,-11648.745,-8816.58
1764763902.526899,-8190.54,-14816.88,-1443.465,-7713.269999999999,-18661.725,-27514.08,-11647.485,-8815.815
1764763902.5730774,-8189.505,-14817.24,-1443.06,-7713.0,-18661.725,-27513.9,-11644.38,-8814.195
1764763902.5730774,-8190.315,-14818.995,-1445.13,-7715.07,-18662.94,-27514.62,-11643.255,-8814.42
1764763902.5730774,-8186.759999999999,-14814.405,-1440.54,-7711.245,-18659.07,-27511.74,-11641.77,-8810.279999999999
1764763902.5730774,-8190.315,-14817.915,-1444.6799999999998,-7713.99,-18662.04,-27515.7,-11644.695,-8813.43
1764763902.573585,-8190.269999999999,-14818.365,-1444.6799999999998,-7714.215,-18662.67,-27516.375,-11645.415,-8814.06
1764763902.573585,-8189.594999999999,-14817.87,-1443.825,-7713.945,-18662.13,-27515.745,-11645.145,-8813.97
1764763902.573585,-8188.65,-14818.05,-1444.185,-7712.865,-18661.095,-27514.98,-11644.695,-8813.565
1764763902.573585,-8190.134999999999,-14818.995,-1444.59,-7713.585,-18661.995,-27515.745,-11645.775,-8813.789999999999
1764763902.573585,-8193.33,-14821.875,-1447.38,-7717.139999999999,-18665.37,-27518.94,-11649.465,-8817.345
1764763902.573585,-8189.594999999999,-14818.32,-1444.14,-7714.215,-18661.77,-27516.015,-11646.315,-8814.105
1764763902.573585,-8192.52,-14821.155,-1447.47,-7717.139999999999,-18664.74,-27519.525,-11649.33,-8816.535
1764763902.573585,-8191.394999999999,-14820.48,-1446.705,-7716.15,-18663.795,-27518.94,-11649.105,-8815.77
1764763902.573585,-8186.13,-14814.315,-1440.72,-7710.344999999999,-18658.89,-27513.315,-11643.255,-8809.785
1764763902.573585,-8188.019999999999,-14816.16,-1442.2949999999998,-7713.495,-18661.365,-27515.205,-11644.605,-8812.17
1764763902.573585,-8191.53,-14820.075,-1445.13,-7716.42,-18664.695,-27518.67,-11647.89,-8815.86
1764763902.573585,-8187.929999999999,-14816.79,-1442.565,-7712.505,-18661.32,-27515.07,-11645.235,-8812.26
1764763902.573585,-8187.84,-14816.205,-1442.25,-7712.505,-18660.555,-27514.53,-11645.1,-8811.855
1764763902.573585,-8190.36,-14818.545,-1444.005,-7714.259999999999,-18662.67,-27516.24,-11647.125,-8813.654999999999
1764763902.573585,-8193.779999999999,-14822.64,-1447.74,-7718.264999999999,-18666.18,-27520.155,-11650.095,-8817.84
1764763902.573585,-8192.744999999999,-14821.425,-1446.57,-7716.644999999999,-18664.245,-27518.58,-11649.105,-8816.58
1764763902.573585,-8188.245,-14817.33,-1442.79,-7712.684999999999,-18660.42,-27515.115,-11645.1,-8812.619999999999
1764763902.573585,-8187.615,-14817.195,-1442.88,-7713.224999999999,-18660.555,-27515.61,-11645.64,-8812.755
1764763902.6160989,-8187.344999999999,-14816.745,-1442.655,-7713.09,-18660.51,-27515.295,-11645.55,-8812.17
1764763902.6160989,-8191.755,-14820.39,-1446.12,-7717.545,-18665.1,-27519.165,-11649.24,-8816.22
1764763902.6160989,-8187.615,-14816.43,-1442.4299999999998,-7713.99,-18660.96,-27514.755,-11644.695,-8812.395
1764763902.6160989,-8187.165,-14816.295,-1442.565,-7713.405,-18660.24,-27514.26,-11644.02,-8812.619999999999
1764763902.6160989,-8190.63,-14819.445,-1445.445,-7716.554999999999,-18663.48,-27517.77,-11647.485,-8816.175
1764763902.6160989,-8187.57,-14815.8,-1441.755,-7712.594999999999,-18659.43,-27513.855,-11644.2,-8813.07
1764763902.6160989,-8190.0,-14818.59,-1445.175,-7716.24,-18662.4,-27517.005,-11646.72,-8815.455
1764763902.6160989,-8188.469999999999,-14816.88,-1443.4199999999998,-7714.665,-18661.095,-27515.205,-11645.145,-8813.789999999999
1764763902.6160989,-8191.71,-14819.31,-1446.21,-7717.59,-18663.57,-27517.905,-11647.665,-8816.4
1764763902.6160989,-8187.434999999999,-14815.44,-1442.34,-7713.09,-18659.655,-27513.945,-11643.705,-8811.81
1764763902.6160989,-8188.469999999999,-14816.79,-1442.97,-7713.405,-18661.14,-27514.395,-11644.515,-8812.529999999999
1764763902.6166024,-8191.08,-14818.77,-1445.265,-7715.61,-18663.75,-27517.545,-11647.305,-8814.824999999999
1764763902.6166024,-8190.719999999999,-14818.095,-1444.995,-7715.115,-18662.94,-27516.825,-11646.675,-8814.105
1764763902.6166024,-8194.41,-14822.595,-1449.855,-7719.75,-18666.495,-27520.38,-11650.185,-8817.75
1764763902.6166024,-8192.97,-14821.245,-1447.965,-7718.849999999999,-18664.65,-27519.12,-11649.915,-8816.58
1764763902.6166024,-8187.48,-14816.475,-1442.79,-7713.269999999999,-18659.61,-27514.17,-11644.965,-8811.449999999999
1764763902.6166024,-8187.795,-14816.925,-1442.61,-7713.315,-18659.295,-27513.72,-11645.19,-8810.64
1764763902.6166024,-8188.065,-14817.15,-1443.4199999999998,-7713.179999999999,-18659.565,-27513.765,-11645.685,-8811.404999999999
1764763902.6166024,-8188.965,-14817.465,-1444.6799999999998,-7713.585,-18659.88,-27514.755,-11646.225,-8811.494999999999
1764763902.6166024,-8190.405,-14818.41,-1445.715,-7715.429999999999,-18661.005,-27516.105,-11646.855,-8812.44
1764763902.6166024,-8186.94,-14814.585,-1442.115,-7711.424999999999,-18657.72,-27513.225,-11643.345,-8809.11
1764763902.6166024,-8188.605,-14816.475,-1444.095,-7713.269999999999,-18659.34,-27515.205,-11644.83,-8810.64
1764763902.6166024,-8189.144999999999,-14816.61,-1444.77,-7714.08,-18659.835,-27515.34,-11644.605,-8810.505
1764763902.6166024,-8190.09,-14817.465,-1445.445,-7714.665,-18660.105,-27516.42,-11645.415,-8811.09
1764763902.6166024,-8192.43,-14820.435,-1448.0549999999998,-7717.005,-18662.445,-27519.21,-11648.07,-8813.744999999999
1764763902.6166024,-8188.83,-14816.025,-1443.87,-7713.09,-18658.305,-27514.53,-11644.605,-8810.279999999999
1764763902.6660173,-8190.45,-14817.78,-1445.58,-7714.98,-18660.015,-27516.87,-11647.125,-8812.485
1764763902.6660173,-8187.344999999999,-14814.63,-1442.655,-7712.37,-18656.775,-27513.855,-11644.47,-8809.289999999999
1764763902.6660173,-8189.054999999999,-14816.295,-1445.175,-7714.08,-18659.295,-27515.79,-11646.675,-8812.215
1764763902.6660173,-8184.285,-14811.705,-1440.675,-7709.219999999999,-18654.48,-27511.11,-11641.365,-8806.994999999999
1764763902.6660173,-8184.195,-14811.705,-1440.315,-7709.309999999999,-18654.48,-27511.425,-11640.87,-8806.59
1764763902.6660173,-8189.054999999999,-14817.645,-1446.255,-7715.205,-18660.555,-27517.815,-11646.81,-8812.485
1764763902.6660173,-8187.795,-14816.16,-1444.095,-7713.855,-18659.25,-27515.745,-11645.145,-8810.595
1764763902.6660173,-8191.485,-14820.345,-1448.0549999999998,-7717.41,-18662.49,-27519.525,-11648.16,-8814.33
1764763902.6660173,-8190.179999999999,-14818.635,-1447.02,-7715.835,-18660.78,-27517.77,-11646.675,-8812.485
1764763902.6660173,-8186.804999999999,-14814.09,-1442.88,-7711.92,-18656.775,-27513.72,-11643.255,-8808.885
1764763902.6660173,-8189.91,-14817.195,-1446.39,-7714.889999999999,-18659.925,-27517.725,-11646.9,-8812.35
1764763902.6660173,-8189.594999999999,-14817.015,-1445.625,-7713.585,-18658.845,-27516.6,-11646.945,-8811.63
1764763902.6660173,-8186.04,-14813.415,-1441.755,-7710.434999999999,-18655.965,-27514.17,-11642.625,-8807.85
1764763902.6660173,-8186.625,-14813.37,-1441.98,-7711.65,-18657.045,-27514.71,-11643.345,-8808.345
1764763902.6660173,-8186.264999999999,-14814.27,-1442.565,-7711.965,-18657.36,-27516.015,-11643.93,-8809.065
1764763902.6660173,-8191.259999999999,-14819.175,-1447.38,-7716.735,-18662.31,-27521.415,-11648.295,-8814.465
1764763902.6660173,-8190.9,-14818.86,-1446.705,-7716.644999999999,-18661.185,-27519.525,-11647.53,-8813.34
1764763902.6660173,-8187.929999999999,-14816.295,-1444.5449999999998,-7714.215,-18659.025,-27517.32,-11646.18,-8811.18
1764763902.6660173,-8182.844999999999,-14811.75,-1439.82,-7709.715,-18654.345,-27513.09,-11641.095,-8806.14
1764763902.6660173,-8183.745,-14812.335,-1440.585,-7709.445,-18654.705,-27513.495,-11641.32,-8806.904999999999
1764763902.6660173,-8185.769999999999,-14814.045,-1442.34,-7711.605,-18656.055,-27514.89,-11642.85,-8808.615
1764763902.6660173,-8190.54,-14818.275,-1446.165,-7715.745,-18660.42,-27519.57,-11647.53,-8812.755
1764763902.7122688,-8190.99,-14818.365,-1446.9299999999998,-7715.34,-18661.77,-27519.75,-11647.53,-8812.664999999999
1764763902.7122688,-8187.615,-14816.295,-1444.005,-7712.955,-18659.16,-27517.5,-11644.245,-8809.515
1764763902.7122688,-8183.565,-14812.29,-1440.315,-7709.085,-18655.065,-27513.81,-11640.24,-8805.15
1764763902.7122688,-8187.48,-14815.305,-1444.23,-7712.73,-18658.98,-27517.095,-11644.11,-8809.38
1764763902.7122688,-8183.835,-14812.515,-1440.855,-7709.715,-18656.1,-27514.215,-11641.365,-8806.32
1764763902.7122688,-8182.844999999999,-14812.83,-1440.495,-7709.13,-18655.335,-27513.765,-11640.915,-8806.185
1764763902.7122688,-8184.554999999999,-14812.515,-1440.495,-7709.67,-18655.74,-27514.89,-11641.68,-8806.725
1764763902.7122688,-8186.759999999999,-14814.81,-1442.34,-7711.605,-18657.495,-27515.97,-11644.74,-8808.975
1764763902.7122688,-8186.715,-14814.765,-1442.88,-7712.144999999999,-18657.495,-27515.475,-11644.695,-8809.199999999999
1764763902.7122688,-8186.13,-14814.54,-1442.88,-7711.469999999999,-18657.09,-27515.61,-11644.155,-8807.76
1764763902.7122688,-8183.295,-14811.75,-1439.865,-7708.365,-18654.03,-27513.045,-11641.365,-8804.88
1764763902.7122688,-8181.719999999999,-14810.265,-1437.615,-7706.79,-18652.32,-27510.84,-11640.51,-8803.08
1764763902.7122688,-8181.09,-14809.68,-1436.94,-7706.474999999999,-18652.05,-27510.975,-11640.285,-8801.414999999999
1764763902.7122688,-8185.365,-14813.955,-1441.08,-7711.019999999999,-18655.875,-27514.935,-11644.515,-8805.42
1764763902.7122688,-8188.74,-14817.69,-1445.22,-7714.755,-18659.79,-27518.76,-11647.53,-8809.289999999999
1764763902.7122688,-8185.41,-14814.495,-1441.98,-7711.245,-18656.865,-27515.97,-11644.47,-8806.05
1764763902.7122688,-8185.545,-14813.64,-1441.53,-7711.605,-18656.955,-27516.15,-11645.46,-8806.14
1764763902.7122688,-8187.255,-14814.945,-1442.745,-7712.865,-18657.63,-27517.095,-11646.72,-8807.715
1764763902.7122688,-8188.245,-14815.935,-1443.33,-7712.955,-18658.395,-27518.265,-11647.44,-8808.795
1764763902.7122688,-8191.44,-14818.23,-1446.57,-7715.7,-18661.455,-27521.145,-11648.88,-8811.72
1764763902.7122688,-8191.394999999999,-14817.51,-1446.75,-7714.844999999999,-18661.005,-27520.74,-11648.16,-8811.539999999999
1764763902.7122688,-8186.309999999999,-14812.335,-1441.755,-7709.58,-18655.965,-27515.385,-11643.93,-8807.265
1764763902.7122688,-8183.429999999999,-14811.84,-1442.565,-7711.38,-18657.54,-27516.195,-11644.515,-8806.635
1764763902.7122688,-8190.09,-14820.03,-1449.0449999999998,-7717.139999999999,-18662.715,-27521.415,-11649.87,-8812.08
1764763902.758838,-8190.764999999999,-14819.085,-1447.695,-7716.825,-18661.5,-27520.875,-11648.925,-8811.539999999999
1764763902.758838,-8186.894999999999,-14814.855,-1443.69,-7712.594999999999,-18657.81,-27517.41,-11646.27,-8807.58
1764763902.758838,-8186.67,-14813.91,-1443.465,-7711.695,-18657.405,-27516.42,-11645.82,-8807.085
1764763902.758838,-8187.075,-14814.63,-1443.735,-7712.865,-18658.575,-27517.365,-11646.855,-8807.445
1764763902.758838,-8190.269999999999,-14818.14,-1447.155,-7716.195,-18661.545,-27520.92,-11650.005,-8810.369999999999
1764763902.758838,-8189.415,-14817.825,-1447.74,-7715.924999999999,-18661.455,-27521.145,-11649.33,-8809.47
1764763902.758838,-8186.264999999999,-14814.135,-1444.005,-7712.415,-18657.045,-27517.095,-11645.37,-8805.105
1764763902.758838,-8186.894999999999,-14814.045,-1443.645,-7712.28,-18656.955,-27517.23,-11645.28,-8805.6
1764763902.758838,-8187.525,-14813.955,-1444.275,-7712.639999999999,-18657.63,-27518.805,-11646.09,-8806.095
1764763902.758838,-8188.469999999999,-14815.71,-1444.995,-7714.259999999999,-18659.43,-27520.335,-11647.755,-8807.535
1764763902.758838,-8190.99,-14818.905,-1447.785,-7717.5,-18662.265,-27523.35,-11650.095,-8810.1
1764763902.758838,-8188.019999999999,-14817.33,-1445.49,-7715.519999999999,-18660.06,-27520.83,-11647.98,-8808.255
1764763902.758838,-8185.455,-14814.045,-1443.15,-7712.19,-18657.315,-27518.445,-11646.045,-8805.914999999999
1764763902.758838,-8189.19,-14816.565,-1446.165,-7715.25,-18660.465,-27520.38,-11649.195,-8808.525
1764763902.758838,-8189.594999999999,-14817.465,-1447.065,-7716.42,-18661.365,-27520.695,-11650.14,-8808.615
1764763902.758838,-8189.415,-14817.105,-1447.47,-7716.014999999999,-18660.78,-27519.795,-11650.545,-8808.705
1764763902.758838,-8189.415,-14816.97,-1447.605,-7716.78,-18661.365,-27521.01,-11650.05,-8809.244999999999
1764763902.758838,-8186.894999999999,-14814.945,-1445.4,-7714.844999999999,-18659.43,-27519.57,-11647.26,-8806.77
1764763902.7598486,-8181.719999999999,-14809.455,-1439.865,-7708.545,-18653.445,-27513.495,-11640.915,-8801.279999999999
1764763902.7598486,-8183.429999999999,-14810.67,-1440.99,-7709.67,-18654.705,-27514.305,-11642.31,-8803.08
1764763902.7598486,-8183.384999999999,-14810.985,-1440.945,-7710.299999999999,-18655.83,-27515.52,-11643.075,-8804.025
1764763902.7598486,-8184.825,-14810.985,-1442.07,-7711.245,-18656.955,-27517.545,-11644.695,-8805.51
1764763902.7598486,-8189.144999999999,-14814.315,-1446.705,-7715.61,-18660.87,-27521.28,-11649.015,-8809.47
1764763902.7598486,-8186.849999999999,-14813.82,-1443.96,-7712.82,-18657.9,-27517.905,-11646.675,-8806.68
1764763902.80627,-8185.769999999999,-14814.675,-1443.285,-7712.73,-18657.855,-27516.96,-11646.405,-8805.914999999999
1764763902.80627,-8186.715,-14814.54,-1444.6799999999998,-7714.215,-18659.115,-27517.905,-11647.98,-8807.445
1764763902.80627,-8191.394999999999,-14818.23,-1448.415,-7717.815,-18663.12,-27522.225,-11651.895,-8811.585
1764763902.80627,-8189.054999999999,-14815.62,-1445.22,-7714.665,-18660.105,-27518.805,-11649.69,-8807.94
1764763902.80627,-8182.394999999999,-14809.275,-1438.74,-7709.355,-18654.975,-27513.855,-11643.48,-8801.235
1764763902.80627,-8182.53,-14809.995,-1440.1799999999998,-7710.165,-18655.875,-27515.34,-11643.975,-8801.685
1764763902.80627,-8185.905,-14812.965,-1443.69,-7713.63,-18658.89,-27518.895,-11646.855,-8804.789999999999
1764763902.80627,-8185.184999999999,-14811.93,-1442.79,-7712.639999999999,-18657.36,-27517.14,-11645.37,-8803.89
1764763902.80627,-8181.809999999999,-14808.78,-1440.09,-7710.21,-18654.12,-27513.945,-11642.13,-8800.56
1764763902.80627,-8182.934999999999,-14809.68,-1440.855,-7710.389999999999,-18654.705,-27514.44,-11643.57,-8801.64
1764763902.80627,-8184.24,-14811.03,-1441.98,-7711.019999999999,-18655.92,-27515.745,-11644.515,-8803.035
1764763902.80627,-8186.04,-14813.46,-1444.23,-7713.09,-18657.54,-27518.445,-11646.315,-8805.33
1764763902.80627,-8190.179999999999,-14817.69,-1448.145,-7717.815,-18661.77,-27522.54,-11650.05,-8808.84
1764763902.80627,-8187.165,-14814.135,-1445.13,-7714.394999999999,-18659.385,-27519.93,-11647.71,-8805.869999999999
1764763902.80627,-8189.054999999999,-14815.89,-1447.02,-7716.69,-18661.68,-27522.09,-11649.87,-8807.31
1764763902.80627,-8191.755,-14817.87,-1449.9,-7718.894999999999,-18663.525,-27524.61,-11651.715,-8809.74
1764763902.80627,-8193.914999999999,-14818.725,-1450.395,-7719.165,-18664.38,-27525.78,-11652.255,-8811.855
1764763902.80627,-8196.029999999999,-14820.12,-1451.34,-7720.155,-18665.595,-27526.095,-11653.11,-8813.07
1764763902.80627,-8195.76,-14821.56,-1453.455,-7723.259999999999,-18668.565,-27529.155,-11655.9,-8814.465
1764763902.80627,-8190.45,-14819.895,-1450.395,-7718.759999999999,-18664.65,-27525.555,-11652.165,-8809.74
1764763902.80627,-8193.51,-14821.785,-1452.105,-7720.155,-18665.82,-27526.5,-11653.29,-8811.18
1764763902.80627,-8188.469999999999,-14815.755,-1447.02,-7715.295,-18660.555,-27521.19,-11648.43,-8805.869999999999
1764763902.853401,-8187.795,-14814.54,-1445.8049999999998,-7714.44,-18659.52,-27521.01,-11647.71,-8804.88
1764763902.853401,-8188.74,-14814.405,-1445.94,-7714.98,-18659.97,-27520.74,-11648.205,-8805.465
1764763902.8539188,-8189.28,-14815.08,-1446.435,-7714.575,-18660.735,-27521.235,-11648.43,-8805.914999999999
1764763902.8539188,-8194.5,-14821.065,-1451.835,-7720.29,-18665.505,-27526.68,-11654.235,-8811.315
1764763902.8539188,-8194.725,-14820.885,-1452.195,-7721.009999999999,-18665.28,-27526.77,-11654.235,-8811.855
1764763902.8539188,-8192.07,-14818.455,-1450.89,-7718.804999999999,-18663.705,-27524.835,-11651.94,-8809.605
1764763902.8539188,-8190.63,-14816.385,-1448.82,-7716.915,-18662.445,-27522.45,-11650.59,-8808.255
1764763902.8539188,-8190.269999999999,-14816.34,-1448.64,-7717.59,-18662.355,-27522.99,-11650.95,-8808.75
1764763902.8539188,-8189.415,-14815.305,-1448.19,-7716.375,-18661.275,-27522.675,-11650.23,-8807.67
1764763902.8539188,-8185.59,-14811.165,-1444.05,-7712.144999999999,-18657.045,-27518.895,-11646.27,-8803.305
1764763902.8539188,-8186.085,-14812.29,-1444.77,-7713.269999999999,-18657.855,-27519.705,-11646.9,-8804.34
1764763902.8539188,-8188.92,-14815.44,-1447.56,-7716.825,-18661.32,-27522.36,-11650.455,-8806.455
1764763902.8539188,-8187.525,-14813.055,-1446.12,-7715.384999999999,-18659.385,-27520.83,-11648.52,-8804.744999999999
1764763902.8539188,-8193.779999999999,-14818.23,-1450.8,-7720.065,-18663.84,-27526.365,-11653.695,-8809.74
1764763902.8539188,-8192.52,-14817.06,-1449.72,-7718.355,-18662.67,-27525.105,-11653.02,-8808.029999999999
1764763902.8539188,-8185.995,-14811.345,-1444.095,-7712.865,-18656.73,-27518.895,-11647.215,-8802.315
1764763902.8539188,-8186.58,-14812.605,-1444.365,-7713.674999999999,-18656.955,-27519.165,-11648.16,-8802.99
1764763902.8539188,-8189.82,-14815.71,-1447.65,-7717.049999999999,-18660.06,-27521.865,-11651.355,-8805.869999999999
1764763902.8539188,-8185.365,-14810.94,-1443.6,-7713.045,-18656.1,-27517.68,-11647.305,-8801.595
1764763902.8539188,-8185.995,-14811.975,-1443.825,-7712.955,-18655.83,-27517.905,-11647.8,-8802.494999999999
1764763902.8539188,-8190.269999999999,-14816.655,-1448.28,-7717.5,-18660.915,-27522.99,-11651.445,-8807.4
1764763902.8539188,-8187.974999999999,-14813.955,-1446.615,-7716.195,-18659.295,-27521.46,-11649.285,-8805.33
1764763902.8539188,-8184.105,-14809.32,-1442.655,-7711.92,-18655.74,-27517.95,-11645.1,-8800.965
1764763902.8539188,-8187.389999999999,-14812.695,-1446.21,-7714.98,-18658.71,-27521.955,-11648.79,-8804.07
1764763902.9007945,-8190.54,-14815.845,-1449.09,-7718.04,-18662.04,-27524.79,-11651.94,-8806.41
1764763902.9007945,-8187.03,-14812.065,-1445.355,-7714.349999999999,-18658.125,-27520.74,-11647.53,-8802.045
1764763902.9007945,-8187.75,-14813.28,-1446.48,-7715.205,-18658.755,-27521.055,-11649.195,-8803.26
1764763902.9007945,-8190.99,-14816.025,-1449.405,-7718.04,-18661.995,-27524.025,-11652.615,-8807.445
1764763902.9007945,-8188.155,-14812.83,-1445.8049999999998,-7714.889999999999,-18658.71,-27520.47,-11649.78,-8803.664999999999
1764763902.9013133,-8191.934999999999,-14817.195,-1449.54,-7718.67,-18661.95,-27524.07,-11653.335,-8806.994999999999
1764763902.9013133,-8192.25,-14816.835,-1449.765,-7719.12,-18662.49,-27525.015,-11653.875,-8807.265
1764763902.9013133,-8189.73,-14813.865,-1446.975,-7716.644999999999,-18660.69,-27522.315,-11651.085,-8804.699999999999
1764763902.9013133,-8184.554999999999,-14809.095,-1442.385,-7712.19,-18655.65,-27518.4,-11646.045,-8800.244999999999
1764763902.9013133,-8186.759999999999,-14810.67,-1445.265,-7714.53,-18657.585,-27521.145,-11648.16,-8802.449999999999
1764763902.9013133,-8189.73,-14814.585,-1449.0449999999998,-7717.995,-18660.96,-27524.205,-11651.13,-8805.914999999999
1764763902.9013133,-8186.535,-14812.47,-1446.39,-7715.205,-18658.305,-27521.055,-11648.88,-8802.81
1764763902.9013133,-8189.19,-14814.99,-1448.415,-7718.49,-18661.095,-27523.53,-11650.815,-8805.06
1764763902.9013133,-8185.32,-14811.165,-1444.59,-7713.9,-18657.27,-27518.895,-11646.675,-8800.154999999999
1764763902.9013133,-8184.554999999999,-14809.995,-1443.24,-7712.91,-18656.37,-27517.995,-11646.09,-8799.39
1764763902.9013133,-8186.445,-14812.47,-1444.95,-7715.924999999999,-18657.945,-27521.145,-11648.52,-8802.045
1764763902.9013133,-8183.205,-14809.14,-1441.665,-7712.82,-18655.425,-27518.13,-11645.01,-8798.715
1764763902.9013133,-8185.679999999999,-14811.57,-1444.41,-7715.519999999999,-18658.44,-27521.055,-11646.945,-8800.965
1764763902.9013133,-8182.485,-14808.24,-1441.845,-7712.415,-18655.92,-27518.04,-11644.605,-8797.005
1764763902.9013133,-8186.13,-14812.02,-1446.435,-7717.365,-18659.655,-27522.045,-11648.43,-8801.55
1764763902.9013133,-8184.78,-14810.85,-1444.59,-7716.33,-18658.44,-27520.605,-11647.08,-8800.605
1764763902.9013133,-8182.53,-14807.835,-1441.62,-7713.09,-18655.2,-27517.095,-11643.66,-8797.59
1764763902.9013133,-8185.679999999999,-14810.22,-1444.455,-7715.61,-18658.08,-27519.705,-11646.18,-8799.795
1764763902.9013133,-8183.07,-14808.015,-1441.215,-7712.73,-18654.345,-27516.33,-11643.165,-8796.869999999999
1764763902.947881,-8185.815,-14811.48,-1444.59,-7715.474999999999,-18657.9,-27519.57,-11646.72,-8800.515
1764763902.947881,-8183.835,-14808.33,-1441.98,-7712.865,-18656.415,-27517.815,-11645.28,-8798.355
1764763902.947881,-8187.165,-14810.895,-1444.95,-7715.88,-18658.755,-27521.415,-11647.755,-8801.19
1764763902.947881,-8185.184999999999,-14809.365,-1444.05,-7714.44,-18656.505,-27520.065,-11646.45,-8799.57
1764763902.947881,-8180.955,-14805.72,-1439.865,-7710.84,-18652.995,-27516.105,-11641.815,-8795.43
1764763902.947881,-8183.07,-14807.205,-1441.98,-7713.045,-18655.29,-27518.445,-11643.57,-8796.69
1764763902.947881,-8182.844999999999,-14806.35,-1440.945,-7712.415,-18654.48,-27517.905,-11642.94,-8796.015
1764763902.947881,-8184.42,-14807.7,-1443.465,-7714.349999999999,-18655.965,-27519.12,-11644.965,-8798.22
1764763902.947881,-8188.155,-14811.255,-1447.56,-7717.905,-18659.88,-27523.08,-11648.97,-8802.09
1764763902.947881,-8183.79,-14807.565,-1443.51,-7713.945,-18655.245,-27518.445,-11645.505,-8797.77
1764763902.947881,-8183.25,-14806.755,-1442.565,-7712.82,-18654.435,-27517.14,-11644.605,-8796.42
1764763902.947881,-8182.44,-14806.755,-1442.385,-7712.19,-18654.525,-27517.5,-11644.515,-8796.33
1764763902.947881,-8182.98,-14807.34,-1442.97,-7713.63,-18655.245,-27518.985,-11645.865,-8796.42
1764763902.947881,-8181.405,-14805.54,-1440.63,-7712.415,-18654.165,-27517.905,-11644.38,-8794.89
1764763902.947881,-8182.17,-14805.495,-1441.395,-7711.83,-18654.66,-27517.815,-11643.435,-8794.89
1764763902.947881,-8184.465,-14807.295,-1443.375,-7713.63,-18656.775,-27520.155,-11644.83,-8797.455
1764763902.947881,-8185.59,-14808.465,-1444.77,-7714.844999999999,-18657.765,-27521.505,-11646.09,-8798.67
1764763902.947881,-8187.434999999999,-14811.345,-1447.56,-7717.815,-18660.195,-27523.62,-11650.23,-8800.515
1764763902.947881,-8184.509999999999,-14808.015,-1444.725,-7715.565,-18657.315,-27520.155,-11648.205,-8797.904999999999
1764763902.947881,-8188.965,-14812.335,-1448.91,-7719.255,-18661.545,-27524.205,-11652.165,-8802.09
1764763902.9488957,-8186.715,-14811.12,-1447.515,-7717.86,-18659.88,-27522.945,-11650.635,-8800.335
1764763902.9488957,-8182.844999999999,-14806.8,-1443.33,-7713.495,-18655.515,-27518.355,-11646.765,-8796.24
1764763902.9488957,-8184.24,-14807.52,-1444.815,-7715.25,-18656.73,-27520.155,-11647.89,-8797.635
1764763902.9488957,-8179.605,-14803.47,-1440.135,-7711.2,-18652.365,-27516.6,-11643.615,-8793.18
1764763902.995327,-8177.67,-14801.355,-1438.065,-7708.769999999999,-18650.43,-27515.115,-11640.915,-8790.93
1764763902.995327,-8179.2,-14803.38,-1439.91,-7710.66,-18652.005,-27516.78,-11642.265,-8792.73
1764763902.995327,-8180.099999999999,-14803.065,-1440.495,-7711.065,-18652.32,-27517.455,-11643.255,-8793.494999999999
1764763902.995327,-8183.474999999999,-14804.415,-1442.25,-7712.46,-18653.94,-27518.805,-11644.965,-8795.97
1764763902.995327,-8187.615,-14807.565,-1444.6799999999998,-7714.934999999999,-18656.415,-27520.965,-11647.395,-8798.445
1764763902.995327,-8182.665,-14803.47,-1440.99,-7711.695,-18653.04,-27517.545,-11644.425,-8794.305
1764763902.995327,-8182.62,-14807.07,-1443.6,-7715.745,-18656.505,-27521.01,-11647.89,-8796.015
1764763902.995327,-8184.465,-14809.275,-1444.095,-7715.429999999999,-18656.595,-27521.145,-11647.575,-8796.195
1764763902.995327,-8185.184999999999,-14808.015,-1444.5,-7715.25,-18656.46,-27520.605,-11646.81,-8796.15
1764763902.995327,-8183.519999999999,-14806.89,-1443.285,-7713.63,-18655.605,-27520.29,-11645.82,-8794.98
1764763902.995327,-8179.514999999999,-14803.065,-1439.685,-7709.894999999999,-18652.455,-27516.42,-11642.895,-8791.11
1764763902.995327,-8181.315,-14804.955,-1442.115,-7712.37,-18654.84,-27518.355,-11644.92,-8793.315
1764763902.995327,-8182.665,-14806.44,-1442.97,-7713.269999999999,-18655.02,-27520.02,-11645.82,-8793.539999999999
1764763902.995327,-8184.15,-14808.465,-1444.905,-7714.889999999999,-18656.37,-27521.73,-11647.845,-8796.24
1764763902.995327,-8179.29,-14803.83,-1440.72,-7709.985,-18651.69,-27516.78,-11643.48,-8792.145
1764763902.995327,-8179.38,-14803.875,-1440.315,-7710.21,-18651.78,-27516.87,-11643.93,-8791.335
1764763902.995327,-8183.745,-14807.52,-1444.5,-7714.665,-18656.82,-27521.64,-11647.89,-8795.565
1764763902.995327,-8184.285,-14808.015,-1444.86,-7714.889999999999,-18656.865,-27522.09,-11647.755,-8796.24
1764763902.995327,-8182.035,-14806.62,-1443.69,-7713.045,-18655.335,-27520.965,-11645.28,-8794.17
1764763902.995327,-8178.299999999999,-14802.12,-1440.225,-7709.625,-18651.735,-27516.555,-11641.95,-8789.985
1764763902.995327,-8179.155,-14803.02,-1440.405,-7710.165,-18652.14,-27517.23,-11642.22,-8790.57
1764763902.995327,-8183.519999999999,-14807.655,-1445.13,-7714.44,-18656.37,-27521.73,-11646.585,-8795.744999999999
1764763903.0409274,-8181.585,-14805.54,-1443.195,-7712.73,-18654.795,-27519.93,-11644.83,-8793.855
1764763903.0409274,-8185.049999999999,-14808.96,-1446.615,-7716.15,-18658.08,-27522.9,-11648.925,-8797.23
1764763903.0409274,-8185.005,-14808.195,-1446.12,-7715.745,-18657.405,-27522.27,-11648.43,-8796.869999999999
1764763903.0409274,-8181.179999999999,-14804.145,-1441.755,-7711.38,-18652.5,-27517.32,-11644.245,-8792.595
1764763903.0409274,-8182.035,-14805.855,-1442.88,-7713.134999999999,-18655.065,-27519.39,-11645.505,-8794.215
1764763903.0409274,-8186.49,-14810.265,-1447.605,-7718.264999999999,-18660.6,-27524.97,-11650.365,-8799.164999999999
1764763903.0409274,-8185.769999999999,-14809.455,-1447.47,-7717.815,-18660.42,-27524.25,-11649.69,-8798.265
1764763903.0409274,-8183.519999999999,-14806.53,-1444.59,-7715.07,-18657.09,-27521.64,-11647.215,-8795.43
1764763903.0409274,-8181.09,-14804.37,-1441.44,-7713.269999999999,-18654.84,-27519.57,-11643.705,-8792.955
1764763903.0409274,-8185.455,-14808.24,-1444.77,-7716.465,-18658.53,-27523.17,-11648.16,-8796.779999999999
1764763903.0409274,-8188.38,-14810.715,-1447.785,-7718.849999999999,-18661.095,-27525.78,-11651.49,-8799.795
1764763903.0409274,-8184.78,-14808.015,-1444.725,-7715.924999999999,-18658.08,-27522.27,-11647.845,-8795.97
1764763903.0414412,-8187.66,-14811.255,-1447.83,-7718.58,-18660.78,-27525.375,-11650.59,-8799.21
1764763903.0414412,-8184.509999999999,-14807.295,-1443.51,-7714.575,-18656.415,-27521.64,-11646.495,-8795.475
1764763903.0414412,-8183.969999999999,-14806.44,-1443.195,-7714.575,-18656.325,-27521.1,-11645.82,-8794.574999999999
1764763903.0414412,-8187.929999999999,-14810.22,-1447.29,-7718.67,-18660.105,-27524.88,-11649.78,-8798.715
1764763903.0414412,-8187.75,-14809.86,-1447.155,-7718.445,-18660.195,-27524.97,-11650.23,-8798.4
1764763903.0414412,-8184.78,-14806.89,-1444.86,-7715.61,-18657.54,-27522.045,-11647.665,-8795.699999999999
1764763903.0414412,-8179.514999999999,-14801.355,-1439.73,-7710.255,-18652.455,-27517.455,-11642.535,-8790.75
1764763903.0414412,-8180.594999999999,-14802.255,-1440.27,-7711.019999999999,-18653.535,-27518.805,-11643.12,-8791.289999999999
1764763903.0414412,-8181.09,-14803.695,-1441.53,-7711.92,-18653.58,-27519.615,-11644.155,-8792.324999999999
1764763903.0414412,-8183.295,-14805.72,-1443.24,-7713.54,-18654.705,-27521.145,-11645.82,-8793.855
1764763903.0414412,-8186.849999999999,-14808.825,-1445.58,-7716.69,-18658.26,-27523.62,-11649.24,-8797.365
1764763903.0414412,-8186.04,-14807.25,-1444.995,-7715.88,-18657.405,-27521.775,-11649.24,-8796.869999999999
1764763903.087606,-8184.105,-14805.585,-1443.465,-7714.62,-18656.28,-27521.055,-11648.115,-8796.06
1764763903.087606,-8181.719999999999,-14803.02,-1441.89,-7711.965,-18653.13,-27517.68,-11645.19,-8793.27
1764763903.087606,-8183.565,-14805.09,-1443.69,-7714.349999999999,-18655.83,-27520.83,-11646.36,-8794.664999999999
1764763903.087606,-8182.035,-14804.145,-1441.89,-7713.405,-18654.93,-27520.92,-11645.325,-8792.82
1764763903.087606,-8181.809999999999,-14804.145,-1442.115,-7713.179999999999,-18655.38,-27520.785,-11645.595,-8792.145
1764763903.087606,-8185.5,-14807.52,-1446.165,-7716.915,-18658.71,-27524.43,-11649.51,-8795.744999999999
1764763903.087606,-8188.29,-14810.67,-1449.36,-7719.929999999999,-18661.95,-27527.445,-11653.065,-8799.345
1764763903.0886683,-8188.469999999999,-14811.12,-1449.45,-7720.65,-18661.68,-27527.67,-11653.02,-8800.02
1764763903.0886683,-8187.12,-14809.545,-1447.83,-7719.48,-18659.745,-27525.96,-11651.22,-8798.445
1764763903.0886683,-8183.88,-14806.98,-1444.59,-7716.105,-18656.91,-27522.18,-11648.43,-8795.565
1764763903.0886683,-8186.759999999999,-14809.365,-1447.245,-7718.759999999999,-18659.565,-27525.015,-11650.905,-8797.815
1764763903.0886683,-8187.255,-14809.905,-1447.695,-7719.615,-18660.15,-27526.05,-11651.58,-8798.625
1764763903.0886683,-8187.165,-14809.95,-1447.785,-7719.705,-18660.645,-27526.59,-11651.445,-8798.625
1764763903.0886683,-8185.995,-14808.69,-1446.48,-7718.58,-18659.61,-27525.51,-11650.275,-8797.23
1764763903.0886683,-8182.125,-14804.64,-1442.97,-7715.025,-18656.64,-27521.955,-11646.675,-8793.18
1764763903.0886683,-8183.474999999999,-14805.765,-1444.86,-7715.88,-18656.865,-27522.72,-11647.98,-8794.305
1764763903.0886683,-8183.565,-14806.305,-1445.13,-7716.105,-18657.18,-27522.63,-11648.34,-8794.44
1764763903.0886683,-8185.59,-14807.88,-1446.885,-7717.95,-18659.43,-27525.105,-11650.185,-8796.465
1764763903.0886683,-8182.98,-14805.63,-1444.635,-7715.88,-18656.82,-27522.45,-11647.755,-8794.44
1764763903.0886683,-8184.87,-14807.745,-1446.57,-7717.59,-18657.945,-27523.395,-11649.78,-8796.779999999999
1764763903.0886683,-8182.755,-14805.135,-1443.69,-7715.34,-18655.47,-27521.055,-11647.53,-8793.72
1764763903.0886683,-8183.07,-14805.09,-1443.105,-7714.259999999999,-18654.345,-27520.155,-11648.205,-8792.865
1764763903.0886683,-8183.655,-14805.9,-1445.04,-7715.655,-18656.595,-27522.495,-11649.42,-8794.89
1764763903.0886683,-8185.41,-14807.925,-1446.9299999999998,-7717.679999999999,-18659.295,-27524.745,-11651.04,-8796.779999999999
1764763903.134783,-8182.799999999999,-14805.045,-1443.375,-7715.07,-18656.1,-27522.36,-11647.845,-8792.955
1764763903.134783,-8185.005,-14806.17,-1443.915,-7716.554999999999,-18656.55,-27523.71,-11649.645,-8794.574999999999
1764763903.134783,-8188.74,-14810.49,-1448.235,-7720.74,-18660.915,-27527.49,-11653.425,-8798.445
1764763903.134783,-8188.74,-14810.58,-1449.0,-7720.605,-18661.725,-27528.345,-11653.74,-8798.715
1764763903.134783,-8188.514999999999,-14809.5,-1447.83,-7719.795,-18660.375,-27527.13,-11653.11,-8798.175
1764763903.134783,-8188.335,-14808.645,-1447.515,-7719.255,-18659.52,-27525.33,-11652.795,-8797.68
1764763903.134783,-8187.929999999999,-14808.87,-1447.2,-7719.344999999999,-18659.61,-27526.23,-11652.255,-8798.085
1764763903.134783,-8184.554999999999,-14805.63,-1444.275,-7715.295,-18655.92,-27523.665,-11648.79,-8794.755
1764763903.134783,-8189.73,-14810.175,-1448.82,-7719.974999999999,-18661.05,-27528.885,-11652.795,-8798.985
1764763903.134783,-8188.38,-14808.78,-1448.505,-7719.299999999999,-18659.7,-27527.355,-11652.03,-8797.59
1764763903.134783,-8182.934999999999,-14803.605,-1443.195,-7714.035,-18654.3,-27522.45,-11646.945,-8791.695
1764763903.134783,-8185.139999999999,-14805.855,-1445.895,-7716.465,-18656.955,-27523.755,-11649.195,-8793.81
1764763903.134783,-8188.74,-14808.96,-1448.37,-7719.66,-18660.51,-27526.815,-11652.03,-8797.23
1764763903.134783,-8185.32,-14804.82,-1444.275,-7714.799999999999,-18656.82,-27522.72,-11648.205,-8793.855
1764763903.134783,-8186.49,-14805.225,-1445.355,-7716.42,-18657.27,-27524.205,-11649.465,-8795.025
1764763903.13631,-8189.639999999999,-14808.42,-1448.505,-7719.299999999999,-18659.61,-27526.815,-11653.245,-8798.49
1764763903.13631,-8189.19,-14808.015,-1447.38,-7718.58,-18658.665,-27525.645,-11653.155,-8797.68
1764763903.13631,-8185.545,-14804.505,-1444.32,-7716.014999999999,-18656.055,-27522.495,-11648.925,-8793.675
1764763903.13631,-8186.174999999999,-14805.0,-1445.985,-7716.69,-18656.82,-27523.485,-11648.97,-8794.395
1764763903.13631,-8187.389999999999,-14806.53,-1447.29,-7717.86,-18658.62,-27525.465,-11650.185,-8795.16
1764763903.13631,-8181.54,-14800.815,-1441.395,-7712.594999999999,-18653.85,-27520.875,-11644.965,-8789.715
1764763903.13631,-8183.384999999999,-14802.93,-1443.4199999999998,-7715.07,-18656.595,-27523.8,-11647.53,-8791.965
1764763903.13631,-8187.255,-14806.845,-1447.47,-7718.264999999999,-18659.565,-27526.68,-11651.22,-8795.475
1764763903.1368296,-8189.009999999999,-14805.81,-1446.39,-7717.455,-18658.035,-27524.52,-11650.725,-8795.699999999999
1764763903.1824872,-8188.605,-14805.09,-1445.49,-7716.33,-18656.46,-27523.8,-11649.015,-8795.295
1764763903.1824872,-8182.485,-14800.5,-1441.935,-7713.405,-18653.67,-27521.325,-11646.45,-8790.705
1764763903.1824872,-8187.525,-14808.15,-1448.19,-7719.48,-18659.7,-27527.445,-11651.94,-8795.744999999999
1764763903.1824872,-8190.224999999999,-14810.67,-1449.72,-7721.054999999999,-18660.69,-27528.57,-11653.74,-8797.77
1764763903.1824872,-8188.2,-14808.15,-1447.785,-7718.715,-18659.25,-27527.355,-11650.86,-8796.42
1764763903.1824872,-8183.115,-14802.975,-1442.52,-7713.54,-18653.94,-27521.73,-11646.45,-8791.11
1764763903.1824872,-8183.205,-14802.705,-1442.2949999999998,-7713.809999999999,-18654.66,-27521.955,-11646.63,-8790.57
1764763903.183015,-8185.815,-14805.45,-1445.4,-7715.969999999999,-18657.945,-27524.61,-11650.185,-8793.315
1764763903.183015,-8187.389999999999,-14807.07,-1447.695,-7718.13,-18659.295,-27527.04,-11651.67,-8795.97
1764763903.183015,-8189.415,-14809.275,-1449.72,-7720.514999999999,-18661.365,-27529.02,-11654.055,-8797.5
1764763903.183015,-8185.5,-14805.18,-1445.58,-7715.969999999999,-18657.09,-27524.79,-11649.78,-8792.865
1764763903.183015,-8184.15,-14804.64,-1444.5449999999998,-7715.25,-18655.965,-27523.845,-11649.555,-8791.965
1764763903.183015,-8188.38,-14808.33,-1448.145,-7719.255,-18659.34,-27527.31,-11653.65,-8795.475
1764763903.183015,-8190.269999999999,-14809.995,-1449.945,-7721.054999999999,-18661.095,-27529.65,-11654.775,-8797.815
1764763903.183015,-8190.719999999999,-14810.715,-1450.3049999999998,-7721.594999999999,-18661.725,-27530.82,-11655.315,-8798.22
1764763903.183015,-8189.28,-14809.005,-1448.595,-7720.065,-18659.745,-27528.93,-11653.875,-8796.51
1764763903.183015,-8184.014999999999,-14804.19,-1443.78,-7715.519999999999,-18655.695,-27524.475,-11648.79,-8791.154999999999
1764763903.183015,-8187.48,-14807.34,-1446.57,-7717.275,-18658.215,-27526.23,-11651.805,-8793.9
1764763903.183015,-8190.63,-14810.22,-1449.45,-7720.875,-18660.78,-27529.515,-11654.19,-8796.735
1764763903.183015,-8188.11,-14807.97,-1446.7949999999998,-7718.849999999999,-18658.395,-27527.22,-11651.895,-8794.08
1764763903.183015,-8191.17,-14811.03,-1450.1699999999998,-7720.92,-18662.265,-27530.82,-11654.685,-8797.455
1764763903.183015,-8189.505,-14808.69,-1448.55,-7718.67,-18661.095,-27529.065,-11653.065,-8795.025
1764763903.22902,-8191.575,-14810.49,-1450.08,-7721.009999999999,-18662.67,-27531.045,-11655.27,-8796.914999999999
1764763903.22902,-8192.25,-14810.94,-1449.72,-7721.505,-18662.265,-27530.01,-11655.72,-8797.05
1764763903.22902,-8190.809999999999,-14809.455,-1448.415,-7720.245,-18661.815,-27530.235,-11653.965,-8796.42
1764763903.22902,-8184.735,-14803.155,-1442.52,-7713.855,-18655.38,-27523.71,-11648.115,-8789.22
1764763903.22902,-8182.844999999999,-14801.58,-1440.72,-7712.054999999999,-18653.85,-27522.135,-11645.595,-8787.24
1764763903.22902,-8184.465,-14803.29,-1442.565,-7713.9,-18655.2,-27523.26,-11647.395,-8788.185
1764763903.22902,-8185.049999999999,-14803.92,-1443.195,-7714.125,-18655.29,-27522.99,-11647.845,-8788.904999999999
1764763903.22902,-8189.144999999999,-14807.52,-1446.39,-7718.715,-18659.205,-27526.77,-11652.21,-8792.73
1764763903.22902,-8189.19,-14806.845,-1446.255,-7718.49,-18659.43,-27526.77,-11651.13,-8792.82
1764763903.22902,-8184.825,-14802.165,-1442.115,-7713.495,-18654.84,-27521.955,-11648.07,-8788.68
1764763903.22902,-8183.61,-14801.85,-1440.855,-7713.045,-18654.39,-27520.965,-11647.395,-8788.23
1764763903.22902,-8183.88,-14801.805,-1440.855,-7713.719999999999,-18654.705,-27521.82,-11647.395,-8788.095
1764763903.22902,-8185.995,-14803.47,-1442.61,-7715.07,-18655.875,-27524.43,-11649.42,-8789.67
1764763903.22902,-8188.695,-14805.675,-1444.905,-7717.365,-18658.44,-27526.365,-11652.03,-8791.83
1764763903.22902,-8184.42,-14801.535,-1442.205,-7713.674999999999,-18655.065,-27522.9,-11647.8,-8788.14
1764763903.22902,-8186.715,-14803.785,-1444.05,-7715.88,-18656.865,-27524.835,-11649.78,-8790.84
1764763903.22902,-8187.12,-14804.055,-1443.78,-7716.33,-18657.765,-27525.555,-11649.465,-8791.425
1764763903.22902,-8187.344999999999,-14804.685,-1444.095,-7716.195,-18657.225,-27524.88,-11650.41,-8791.335
1764763903.22902,-8192.925,-14810.22,-1450.125,-7721.594999999999,-18663.165,-27530.1,-11654.91,-8796.51
1764763903.22902,-8191.215,-14808.15,-1447.29,-7719.299999999999,-18660.78,-27528.12,-11653.785,-8793.99
1764763903.22902,-8186.67,-14803.245,-1442.385,-7714.53,-18655.515,-27523.62,-11650.14,-8789.895
1764763903.22902,-8187.03,-14803.605,-1443.33,-7715.61,-18657.09,-27524.52,-11650.14,-8790.48
1764763903.22902,-8189.639999999999,-14806.845,-1447.02,-7719.389999999999,-18661.14,-27528.795,-11653.065,-8793.72
1764763903.22902,-8185.545,-14802.57,-1442.925,-7714.755,-18656.64,-27524.07,-11648.97,-8788.994999999999
1764763903.2750475,-8185.545,-14802.795,-1443.015,-7714.889999999999,-18657.09,-27524.43,-11648.835,-8788.994999999999
1764763903.2755554,-8191.394999999999,-14808.465,-1448.28,-7720.83,-18662.58,-27530.505,-11655.045,-8795.34
1764763903.2755554,-8190.405,-14807.34,-1447.65,-7720.2,-18661.995,-27529.155,-11653.965,-8794.215
1764763903.2755554,-8186.67,-14804.055,-1444.455,-7716.735,-18658.305,-27525.105,-11650.815,-8790.48
1764763903.2755554,-8188.514999999999,-14806.665,-1446.48,-7719.165,-18661.095,-27527.76,-11652.345,-8792.414999999999
1764763903.2755554,-8184.509999999999,-14802.705,-1443.645,-7715.295,-18656.955,-27523.395,-11649.33,-8789.085
1764763903.2755554,-8186.94,-14806.08,-1446.7949999999998,-7718.894999999999,-18660.06,-27526.905,-11652.885,-8791.605
1764763903.2755554,-8189.19,-14806.98,-1447.425,-7720.605,-18661.41,-27528.705,-11653.695,-8793.539999999999
1764763903.2755554,-8189.054999999999,-14805.765,-1445.715,-7719.21,-18660.51,-27528.03,-11652.345,-8793.0
1764763903.2755554,-8184.195,-14800.14,-1440.09,-7713.764999999999,-18655.695,-27523.53,-11647.395,-8787.24
1764763903.2755554,-8181.315,-14797.89,-1437.525,-7711.065,-18653.265,-27521.325,-11644.2,-8783.595
1764763903.2755554,-8182.665,-14799.015,-1439.28,-7712.73,-18654.75,-27522.225,-11646.81,-8784.945
1764763903.2755554,-8186.67,-14802.705,-1444.23,-7717.365,-18659.295,-27526.275,-11650.32,-8789.805
1764763903.2755554,-8187.165,-14803.695,-1444.23,-7717.905,-18660.465,-27527.76,-11650.815,-8790.615
1764763903.2755554,-8187.075,-14802.93,-1443.5549999999998,-7717.455,-18659.7,-27527.4,-11650.635,-8790.119999999999
1764763903.2755554,-8185.905,-14801.265,-1442.745,-7716.014999999999,-18657.765,-27525.915,-11650.545,-8788.32
1764763903.2755554,-8183.16,-14798.07,-1440.0449999999998,-7713.63,-18654.93,-27523.125,-11648.205,-8785.035
1764763903.2755554,-8184.644999999999,-14800.32,-1442.2949999999998,-7715.295,-18656.82,-27525.42,-11649.6,-8786.52
1764763903.2755554,-8187.21,-14803.875,-1445.625,-7718.49,-18660.555,-27529.155,-11652.21,-8789.265
1764763903.2755554,-8182.44,-14799.555,-1441.1699999999998,-7714.215,-18656.595,-27524.565,-11647.8,-8785.619999999999
1764763903.2755554,-8181.945,-14799.105,-1441.035,-7714.304999999999,-18656.73,-27524.295,-11646.27,-8784.99
1764763903.2755554,-8183.519999999999,-14800.905,-1443.4199999999998,-7716.465,-18658.98,-27526.5,-11648.115,-8787.24
1764763903.321732,-8183.25,-14800.635,-1443.105,-7715.429999999999,-18657.99,-27525.645,-11648.115,-8787.375
1764763903.321732,-8184.15,-14801.175,-1443.33,-7715.79,-18658.665,-27526.32,-11648.88,-8787.555
1764763903.321732,-8188.83,-14805.72,-1447.65,-7720.424999999999,-18662.895,-27531.27,-11653.29,-8792.055
1764763903.321732,-8189.594999999999,-14805.945,-1448.325,-7721.099999999999,-18663.39,-27530.91,-11654.145,-8792.73
1764763903.321732,-8189.82,-14806.17,-1448.46,-7721.28,-18663.93,-27531.045,-11653.875,-8792.82
1764763903.321732,-8185.365,-14801.49,-1443.24,-7715.969999999999,-18658.575,-27525.915,-11648.61,-8787.465
1764763903.321732,-8186.219999999999,-14803.245,-1444.005,-7717.365,-18659.88,-27527.445,-11649.42,-8788.77
1764763903.321732,-8189.325,-14806.44,-1447.065,-7720.469999999999,-18663.12,-27530.82,-11653.29,-8791.92
1764763903.321732,-8184.735,-14802.03,-1443.015,-7716.87,-18659.07,-27527.445,-11649.015,-8787.6
1764763903.321732,-8186.264999999999,-14803.29,-1444.32,-7718.58,-18660.015,-27529.065,-11650.455,-8789.039999999999
1764763903.322759,-8186.13,-14802.84,-1443.96,-7717.905,-18659.7,-27528.885,-11649.195,-8788.14
1764763903.322759,-8184.825,-14800.995,-1441.98,-7716.465,-18658.44,-27527.49,-11648.205,-8786.88
1764763903.322759,-8183.835,-14800.275,-1441.575,-7716.195,-18657.315,-27526.32,-11648.385,-8786.07
1764763903.322759,-8184.24,-14800.86,-1442.16,-7716.78,-18657.45,-27526.365,-11649.33,-8787.15
1764763903.322759,-8184.33,-14800.59,-1441.935,-7716.15,-18656.73,-27526.095,-11648.745,-8787.06
1764763903.322759,-8183.115,-14799.555,-1440.45,-7714.71,-18655.92,-27525.285,-11647.755,-8785.529999999999
1764763903.322759,-8182.755,-14799.33,-1440.225,-7714.485,-18656.19,-27524.88,-11647.305,-8784.494999999999
1764763903.322759,-8182.755,-14798.52,-1439.595,-7714.17,-18656.1,-27525.15,-11646.99,-8784.09
1764763903.322759,-8182.259999999999,-14798.565,-1440.09,-7713.585,-18655.965,-27525.78,-11646.765,-8784.0
1764763903.322759,-8184.195,-14800.5,-1441.62,-7715.519999999999,-18657.99,-27527.355,-11648.205,-8786.205
1764763903.322759,-8183.924999999999,-14800.455,-1441.53,-7716.465,-18658.08,-27527.22,-11648.475,-8786.52
1764763903.322759,-8185.545,-14802.39,-1443.645,-7718.445,-18659.79,-27528.705,-11650.275,-8788.455
1764763903.322759,-8182.71,-14799.465,-1440.855,-7715.34,-18656.37,-27525.645,-11647.8,-8784.945
1764763903.322759,-8186.085,-14802.435,-1443.015,-7717.95,-18658.26,-27528.12,-11650.59,-8787.645
1764763903.322759,-8185.86,-14802.48,-1443.195,-7718.219999999999,-18658.035,-27528.615,-11650.41,-8787.015
1764763903.322759,-8183.969999999999,-14800.365,-1441.755,-7716.465,-18656.64,-27527.4,-11649.555,-8785.17
1764763903.3686948,-8182.304999999999,-14798.295,-1440.225,-7715.295,-18655.515,-27526.05,-11648.79,-8783.369999999999
1764763903.3686948,-8178.389999999999,-14794.245,-1436.13,-7711.245,-18652.455,-27521.73,-11644.245,-8780.49
1764763903.3686948,-8177.94,-14794.2,-1436.04,-7712.144999999999,-18652.545,-27522.36,-11644.74,-8780.94
1764763903.3686948,-8179.514999999999,-14796.045,-1438.515,-7713.945,-18654.165,-27524.745,-11646.81,-8782.47
1764763903.3686948,-8180.144999999999,-14795.955,-1438.965,-7713.405,-18654.165,-27525.195,-11646.855,-8782.605
1764763903.3686948,-8181.36,-14797.215,-1439.37,-7714.304999999999,-18654.57,-27525.555,-11648.25,-8783.369999999999
1764763903.3686948,-8183.79,-14799.78,-1441.53,-7716.87,-18657.18,-27526.725,-11650.545,-8786.115
1764763903.369212,-8180.009999999999,-14795.73,-1437.705,-7713.09,-18652.545,-27522.81,-11647.26,-8782.695
1764763903.369212,-8182.71,-14798.52,-1440.765,-7715.835,-18655.605,-27525.87,-11649.645,-8785.574999999999
1764763903.369212,-8182.665,-14799.105,-1441.395,-7717.094999999999,-18656.955,-27527.4,-11650.14,-8785.98
1764763903.369212,-8182.394999999999,-14798.025,-1440.63,-7717.23,-18656.46,-27528.12,-11650.545,-8785.98
1764763903.369212,-8178.299999999999,-14793.885,-1436.76,-7712.415,-18652.455,-27524.385,-11646.855,-8781.435
1764763903.369212,-8177.985,-14793.75,-1437.21,-7712.28,-18652.77,-27523.98,-11646.045,-8780.58
1764763903.369212,-8183.34,-14799.375,-1442.79,-7717.545,-18658.35,-27528.975,-11651.085,-8785.395
1764763903.369212,-8179.875,-14796.855,-1439.595,-7714.349999999999,-18655.65,-27526.23,-11648.655,-8782.785
1764763903.369212,-8182.71,-14800.545,-1442.745,-7717.815,-18659.205,-27529.965,-11652.12,-8786.295
1764763903.369212,-8182.755,-14800.32,-1442.745,-7717.679999999999,-18659.115,-27529.38,-11652.435,-8785.845
1764763903.369212,-8180.955,-14798.07,-1440.405,-7715.34,-18656.55,-27527.31,-11649.78,-8783.91
1764763903.369212,-8179.019999999999,-14795.505,-1438.29,-7713.585,-18653.895,-27525.24,-11647.395,-8781.57
1764763903.369212,-8174.61,-14791.455,-1434.6,-7709.49,-18650.025,-27521.415,-11644.02,-8777.43
1764763903.369212,-8174.7,-14792.13,-1434.87,-7709.219999999999,-18650.115,-27520.965,-11644.2,-8777.654999999999
1764763903.369212,-8175.42,-14792.805,-1435.635,-7710.12,-18651.375,-27522.72,-11644.965,-8777.925
1764763903.415213,-8176.094999999999,-14793.975,-1436.13,-7711.559999999999,-18653.265,-27524.295,-11645.595,-8778.24
1764763903.415213,-8181.945,-14799.465,-1441.53,-7717.049999999999,-18658.44,-27529.695,-11649.87,-8783.775
1764763903.415213,-8178.705,-14796.405,-1438.875,-7713.855,-18655.155,-27526.275,-11647.395,-8781.435
1764763903.415213,-8181.36,-14799.105,-1442.475,-7716.915,-18658.17,-27529.47,-11650.77,-8785.17
1764763903.415213,-8180.19,-14798.205,-1441.215,-7715.88,-18657.225,-27527.49,-11649.87,-8783.595
1764763903.415213,-8174.79,-14792.58,-1435.725,-7710.21,-18651.42,-27522.045,-11645.595,-8778.465
1764763903.415213,-8178.615,-14795.955,-1439.415,-7713.54,-18655.29,-27526.23,-11647.98,-8782.199999999999
1764763903.415213,-8178.165,-14795.73,-1438.74,-7713.269999999999,-18654.66,-27525.465,-11646.945,-8781.75
1764763903.4157188,-8174.384999999999,-14791.14,-1434.87,-7708.815,-18650.7,-27521.595,-11643.795,-8777.699999999999
1764763903.4157188,-8173.08,-14790.015,-1433.655,-7707.509999999999,-18649.62,-27520.92,-11642.22,-8775.494999999999
1764763903.4157188,-8174.969999999999,-14791.14,-1435.77,-7709.58,-18651.735,-27523.26,-11643.93,-8776.8
1764763903.4157188,-8180.19,-14796.045,-1440.81,-7714.755,-18656.955,-27527.715,-11649.015,-8781.84
1764763903.4157188,-8175.24,-14791.545,-1436.13,-7710.389999999999,-18652.545,-27522.855,-11644.155,-8777.97
1764763903.4157188,-8174.565,-14790.87,-1434.465,-7709.085,-18651.465,-27521.505,-11643.39,-8776.529999999999
1764763903.4157188,-8176.005,-14791.545,-1435.77,-7710.165,-18652.185,-27521.865,-11644.245,-8776.89
1764763903.4157188,-8176.23,-14791.95,-1436.085,-7710.344999999999,-18651.465,-27521.505,-11644.155,-8776.845
1764763903.4157188,-8176.139999999999,-14792.49,-1436.445,-7710.795,-18652.41,-27522.315,-11644.875,-8777.385
1764763903.4157188,-8179.92,-14796.405,-1440.495,-7714.98,-18656.28,-27527.13,-11648.925,-8781.75
1764763903.4157188,-8179.11,-14795.505,-1439.37,-7714.62,-18655.335,-27526.14,-11648.295,-8780.625
1764763903.4157188,-8173.665,-14790.105,-1434.78,-7709.625,-18650.295,-27521.505,-11643.93,-8775.36
1764763903.4157188,-8173.799999999999,-14790.195,-1434.915,-7710.48,-18650.205,-27521.865,-11643.795,-8774.955
1764763903.4157188,-8175.87,-14792.445,-1437.03,-7712.505,-18652.86,-27524.34,-11646.54,-8777.654999999999
1764763903.4615543,-8178.974999999999,-14795.055,-1440.27,-7715.429999999999,-18655.83,-27527.445,-11650.005,-8780.805
1764763903.4615543,-8179.38,-14796.09,-1440.495,-7715.25,-18656.505,-27527.175,-11649.735,-8780.805
1764763903.4615543,-8179.11,-14796.045,-1439.73,-7715.295,-18656.235,-27526.68,-11649.285,-8780.355
1764763903.4615543,-8179.875,-14796.765,-1440.945,-7715.79,-18656.325,-27527.49,-11650.14,-8780.94
1764763903.4615543,-8179.065,-14795.91,-1439.775,-7713.99,-18655.38,-27526.365,-11648.88,-8779.904999999999
1764763903.4615543,-8174.655,-14791.86,-1435.32,-7709.804999999999,-18651.24,-27522.18,-11645.01,-8775.765
1764763903.4615543,-8177.49,-14794.47,-1438.245,-7712.594999999999,-18653.985,-27525.105,-11647.53,-8779.005
1764763903.4615543,-8176.724999999999,-14792.895,-1437.165,-7711.83,-18652.41,-27523.395,-11645.955,-8777.565
1764763903.4615543,-8173.44,-14789.385,-1434.465,-7708.815,-18649.665,-27520.56,-11642.895,-8774.505
1764763903.4615543,-8178.255,-14793.75,-1439.37,-7714.17,-18654.795,-27525.915,-11647.89,-8779.815
1764763903.462563,-8177.894999999999,-14793.255,-1438.785,-7714.08,-18654.12,-27525.33,-11646.945,-8778.869999999999
1764763903.462563,-8176.769999999999,-14791.86,-1437.255,-7712.594999999999,-18652.545,-27523.62,-11645.055,-8777.205
1764763903.462563,-8173.08,-14788.665,-1433.745,-7708.86,-18649.215,-27520.155,-11641.545,-8774.01
1764763903.462563,-8174.88,-14790.24,-1435.5449999999998,-7710.66,-18651.285,-27521.505,-11644.065,-8775.945
1764763903.462563,-8172.674999999999,-14788.755,-1433.79,-7709.445,-18649.71,-27519.93,-11643.075,-8774.01
1764763903.462563,-8175.105,-14792.175,-1436.31,-7712.009999999999,-18652.86,-27523.845,-11646.0,-8776.619999999999
1764763903.462563,-8172.0,-14788.845,-1433.16,-7708.724999999999,-18649.665,-27521.55,-11642.355,-8773.965
1764763903.462563,-8170.514999999999,-14786.865,-1431.675,-7707.285,-18648.54,-27520.65,-11640.825,-8772.84
1764763903.462563,-8171.684999999999,-14787.495,-1432.845,-7708.59,-18649.575,-27521.145,-11641.59,-8772.795
1764763903.462563,-8174.79,-14790.375,-1435.59,-7711.605,-18652.095,-27524.025,-11644.695,-8776.17
1764763903.462563,-8177.67,-14793.48,-1438.605,-7715.115,-18654.795,-27526.815,-11647.755,-8779.275
1764763903.462563,-8174.07,-14789.79,-1435.005,-7711.605,-18650.205,-27522.945,-11644.47,-8775.539999999999
1764763903.462563,-8175.599999999999,-14791.59,-1437.075,-7713.315,-18651.555,-27523.755,-11645.865,-8776.574999999999
1764763903.462563,-8173.485,-14788.62,-1434.105,-7710.57,-18649.125,-27521.1,-11643.39,-8773.11
1764763903.5096807,-8176.139999999999,-14791.005,-1436.4,-7712.73,-18651.69,-27523.53,-11645.685,-8775.315
1764763903.5096807,-8173.934999999999,-14788.575,-1435.185,-7710.57,-18649.845,-27521.415,-11643.84,-8773.335
1764763903.5096807,-8177.58,-14792.58,-1439.145,-7714.575,-18653.895,-27525.87,-11647.935,-8777.205
1764763903.5096807,-8177.13,-14790.87,-1437.345,-7712.639999999999,-18652.5,-27525.69,-11646.495,-8775.18
1764763903.5096807,-8172.134999999999,-14786.235,-1431.765,-7707.78,-18647.415,-27520.47,-11640.78,-8769.735
1764763903.5096807,-8174.205,-14789.115,-1434.465,-7711.11,-18651.24,-27523.575,-11644.065,-8773.47
1764763903.5096807,-8178.929999999999,-14793.255,-1438.9199999999998,-7715.474999999999,-18655.47,-27527.985,-11648.43,-8778.24
1764763903.5096807,-8175.375,-14789.34,-1435.275,-7711.245,-18651.015,-27523.71,-11645.1,-8774.324999999999
1764763903.5096807,-8174.924999999999,-14787.675,-1434.24,-7709.804999999999,-18649.8,-27522.18,-11643.885,-8773.515
1764763903.5096807,-8178.615,-14790.825,-1437.66,-7713.09,-18653.895,-27525.51,-11646.99,-8776.529999999999
1764763903.5096807,-8177.804999999999,-14790.105,-1436.85,-7712.415,-18652.86,-27525.24,-11646.09,-8776.26
1764763903.5096807,-8174.07,-14786.055,-1432.125,-7708.005,-18647.73,-27520.83,-11642.265,-8771.985
1764763903.5096807,-8174.79,-14787.405,-1433.88,-7709.94,-18649.575,-27523.44,-11644.065,-8772.345
1764763903.5096807,-8176.275,-14789.07,-1436.04,-7712.144999999999,-18651.51,-27525.735,-11645.325,-8774.19
1764763903.5096807,-8170.514999999999,-14784.12,-1430.0549999999998,-7706.7,-18646.695,-27520.155,-11639.34,-8768.61
1764763903.5096807,-8170.65,-14784.435,-1430.505,-7707.195,-18647.505,-27520.605,-11640.06,-8769.375
1764763903.5096807,-8172.45,-14786.685,-1432.395,-7709.309999999999,-18649.215,-27522.54,-11641.995,-8771.94
1764763903.5096807,-8176.995,-14789.745,-1435.95,-7712.235,-18652.275,-27525.465,-11645.865,-8775.675
1764763903.5096807,-8174.519999999999,-14786.73,-1433.025,-7710.165,-18650.34,-27522.945,-11643.57,-8773.065
1764763903.5096807,-8176.59,-14789.295,-1435.6799999999998,-7713.09,-18652.905,-27525.78,-11646.36,-8775.945
1764763903.5096807,-8175.87,-14789.34,-1435.6799999999998,-7712.054999999999,-18651.78,-27524.565,-11646.135,-8774.82
1764763903.5096807,-8174.205,-14787.72,-1433.97,-7710.255,-18650.34,-27523.26,-11644.74,-8772.525
1764763903.5096807,-8172.405,-14785.605,-1432.665,-7708.545,-18649.305,-27522.81,-11641.905,-8771.265
1764763903.5096807,-8174.969999999999,-14787.945,-1434.78,-7711.245,-18651.6,-27525.24,-11643.48,-8773.425
1764763903.5557363,-8170.605,-14783.805,-1430.325,-7707.195,-18647.37,-27521.055,-11639.34,-8768.654999999999
1764763903.5557363,-8175.78,-14788.53,-1435.32,-7712.28,-18652.005,-27526.23,-11644.56,-8773.92
1764763903.5557363,-8175.644999999999,-14789.025,-1435.185,-7712.73,-18651.69,-27525.825,-11645.325,-8773.605
1764763903.5557363,-8171.235,-14784.975,-1430.73,-7708.139999999999,-18647.055,-27520.425,-11640.78,-8768.744999999999
1764763903.5557363,-8175.465,-14787.945,-1434.105,-7712.37,-18650.925,-27524.07,-11643.93,-8772.3
1764763903.5557363,-8175.105,-14787.045,-1433.79,-7712.37,-18650.745,-27524.88,-11644.29,-8772.48
1764763903.5557363,-8170.875,-14783.31,-1430.01,-7707.915,-18646.92,-27520.74,-11640.24,-8767.89
1764763903.5557363,-8170.065,-14782.68,-1429.695,-7706.295,-18645.255,-27518.67,-11639.655,-8766.135
1764763903.5557363,-8171.91,-14784.93,-1432.44,-7708.95,-18647.955,-27520.695,-11641.995,-8768.654999999999
1764763903.5557363,-8175.24,-14788.665,-1436.265,-7712.639999999999,-18651.78,-27525.69,-11645.145,-8771.715
1764763903.5557363,-8173.304999999999,-14787.0,-1433.97,-7710.929999999999,-18650.385,-27524.97,-11642.49,-8769.69
1764763903.5557363,-8178.615,-14791.86,-1438.605,-7715.79,-18655.02,-27529.38,-11646.72,-8774.595
1764763903.5557363,-8174.565,-14787.72,-1434.915,-7711.695,-18650.745,-27524.655,-11643.615,-8771.445
1764763903.5557363,-8176.724999999999,-14789.43,-1436.85,-7713.405,-18653.04,-27526.05,-11645.55,-8773.65
1764763903.5557363,-8175.96,-14789.16,-1436.8049999999998,-7713.9,-18652.23,-27525.42,-11645.865,-8772.795
1764763903.5557363,-8172.585,-14785.515,-1432.485,-7710.48,-18648.405,-27522.27,-11642.265,-8769.24
1764763903.5557363,-8176.094999999999,-14788.215,-1436.355,-7714.08,-18652.365,-27526.41,-11645.595,-8772.21
1764763903.5557363,-8172.269999999999,-14784.48,-1431.9,-7709.445,-18648.945,-27522.135,-11642.085,-8768.295
1764763903.5557363,-8172.45,-14785.38,-1432.98,-7709.804999999999,-18649.62,-27523.125,-11641.77,-8768.835
1764763903.5557363,-8175.33,-14787.945,-1435.59,-7713.045,-18652.5,-27525.69,-11645.19,-8771.715
1764763903.5557363,-8172.09,-14784.03,-1432.215,-7709.985,-18649.305,-27521.955,-11641.905,-8767.215
1764763903.5557363,-8175.059999999999,-14787.405,-1435.005,-7713.36,-18652.23,-27525.015,-11645.37,-8770.635
1764763903.6025472,-8175.87,-14787.63,-1435.5,-7713.764999999999,-18652.68,-27526.725,-11645.505,-8771.039999999999
1764763903.6025472,-8173.62,-14785.47,-1433.2949999999998,-7710.615,-18650.115,-27523.89,-11644.065,-8768.654999999999
1764763903.6025472,-8171.639999999999,-14783.49,-1432.035,-7709.4,-18648.495,-27522.315,-11641.635,-8766.585
1764763903.6025472,-8175.644999999999,-14787.675,-1435.05,-7713.134999999999,-18652.095,-27526.365,-11645.37,-8770.77
1764763903.6025472,-8175.014999999999,-14786.955,-1434.24,-7712.82,-18651.87,-27525.825,-11645.28,-8770.365
1764763903.6025472,-8171.549999999999,-14782.905,-1431.1799999999998,-7708.769999999999,-18647.73,-27522.315,-11642.265,-8765.955
1764763903.6025472,-8175.644999999999,-14787.045,-1435.23,-7712.639999999999,-18652.005,-27526.77,-11645.37,-8770.32
1764763903.6025472,-8173.62,-14784.57,-1433.205,-7710.615,-18650.295,-27524.97,-11642.94,-8768.654999999999
1764763903.6025472,-8170.65,-14782.275,-1430.46,-7708.005,-18648.135,-27522.27,-11640.285,-8765.145
1764763903.6025472,-8176.005,-14787.855,-1435.41,-7713.0,-18653.355,-27528.165,-11645.865,-8770.68
1764763903.6025472,-8175.78,-14787.585,-1434.915,-7712.955,-18652.77,-27528.39,-11646.18,-8770.23
1764763903.6025472,-8171.639999999999,-14783.13,-1430.595,-7707.87,-18647.685,-27522.675,-11641.95,-8765.55
1764763903.6025472,-8170.29,-14781.87,-1429.785,-7707.285,-18647.235,-27522.045,-11640.285,-8765.055
1764763903.6025472,-8169.705,-14781.06,-1429.2,-7707.014999999999,-18646.965,-27520.92,-11640.78,-8765.145
1764763903.6025472,-8174.205,-14785.65,-1433.7,-7711.65,-18652.14,-27526.14,-11645.28,-8769.824999999999
1764763903.6025472,-8172.36,-14784.57,-1432.125,-7710.12,-18650.34,-27524.52,-11644.02,-8768.52
1764763903.6025472,-8170.83,-14783.31,-1430.955,-7708.995,-18649.575,-27523.035,-11642.355,-8767.215
1764763903.6025472,-8167.679999999999,-14780.61,-1427.94,-7706.34,-18646.875,-27520.065,-11639.115,-8763.885
1764763903.6025472,-8169.84,-14782.815,-1430.73,-7708.95,-18648.54,-27522.405,-11641.41,-8766.404999999999
1764763903.6025472,-8176.005,-14788.665,-1437.03,-7715.115,-18654.21,-27528.615,-11646.99,-8772.705
1764763903.6025472,-8176.545,-14788.665,-1437.255,-7715.969999999999,-18655.155,-27529.65,-11647.35,-8772.39
1764763903.6025472,-8174.969999999999,-14787.315,-1435.815,-7714.844999999999,-18653.85,-27528.165,-11647.125,-8770.68
1764763903.6025472,-8169.57,-14782.455,-1430.865,-7708.905,-18648.765,-27523.035,-11642.31,-8765.279999999999
1764763903.6025472,-8171.054999999999,-14783.895,-1430.775,-7710.03,-18648.945,-27523.755,-11643.705,-8765.865
1764763903.6493747,-8173.98,-14786.73,-1433.655,-7712.73,-18651.24,-27526.725,-11646.405,-8768.565
1764763903.6493747,-8177.67,-14790.69,-1438.38,-7716.465,-18654.705,-27529.92,-11650.095,-8772.21
1764763903.6493747,-8174.88,-14789.07,-1435.905,-7714.665,-18654.39,-27529.065,-11647.665,-8770.455
1764763903.6493747,-8168.94,-14783.04,-1429.9199999999998,-7708.139999999999,-18648.54,-27524.07,-11641.68,-8764.244999999999
1764763903.6493747,-8168.13,-14782.14,-1429.29,-7707.96,-18647.595,-27524.205,-11641.41,-8763.255
1764763903.6493747,-8172.315,-14785.695,-1433.835,-7712.46,-18651.33,-27527.895,-11645.325,-8767.619999999999
1764763903.6493747,-8172.045,-14785.065,-1433.34,-7711.785,-18651.105,-27527.22,-11644.335,-8766.585
1764763903.6493747,-8170.38,-14782.815,-1430.595,-7708.545,-18648.045,-27524.655,-11643.12,-8764.74
1764763903.6493747,-8172.719999999999,-14784.57,-1432.98,-7710.165,-18650.61,-27526.68,-11645.19,-8766.945
1764763903.6493747,-8169.165,-14780.79,-1428.885,-7706.34,-18647.055,-27522.225,-11641.995,-8763.57
1764763903.6493747,-8172.54,-14784.615,-1432.89,-7710.255,-18650.295,-27526.41,-11644.965,-8766.585
1764763903.6493747,-8170.29,-14782.815,-1431.135,-7708.995,-18648.315,-27525.465,-11643.435,-8764.785
1764763903.6493747,-8172.269999999999,-14785.245,-1433.07,-7712.28,-18650.565,-27527.94,-11646.63,-8767.485
1764763903.6493747,-8169.66,-14782.32,-1431.09,-7709.49,-18648.27,-27525.825,-11644.245,-8764.875
1764763903.6493747,-8165.655,-14779.305,-1428.21,-7705.62,-18645.165,-27522.585,-11640.015,-8761.86
1764763903.6493747,-8169.615,-14783.22,-1431.765,-7709.355,-18648.9,-27525.645,-11644.245,-8765.91
1764763903.6493747,-8166.96,-14778.99,-1428.255,-7706.519999999999,-18645.165,-27521.955,-11641.365,-8762.22
1764763903.6493747,-8164.844999999999,-14777.145,-1427.13,-7704.719999999999,-18643.14,-27520.2,-11639.835,-8760.015
1764763903.6493747,-8165.34,-14777.055,-1426.905,-7704.764999999999,-18644.49,-27521.145,-11640.645,-8759.88
1764763903.6493747,-8169.344999999999,-14780.97,-1430.595,-7708.86,-18647.865,-27524.52,-11644.74,-8764.244999999999
1764763903.6493747,-8168.49,-14781.195,-1430.91,-7708.679999999999,-18647.145,-27524.34,-11642.85,-8763.84
1764763903.6493747,-8169.84,-14782.77,-1432.8,-7710.434999999999,-18649.305,-27526.725,-11644.965,-8765.685
1764763903.6493747,-8167.455,-14779.98,-1430.01,-7707.825,-18647.28,-27525.285,-11642.49,-8763.119999999999
1764763903.6493747,-8169.974999999999,-14781.735,-1431.63,-7709.715,-18649.53,-27527.22,-11644.065,-8764.695
1764763903.6948426,-8167.545,-14779.215,-1428.84,-7707.465,-18646.785,-27524.385,-11640.96,-8761.68
1764763903.6948426,-8170.38,-14782.545,-1432.1699999999998,-7709.67,-18648.99,-27526.32,-11643.795,-8765.055
1764763903.6948426,-8168.085,-14779.26,-1429.515,-7706.88,-18645.57,-27523.305,-11640.555,-8761.994999999999
1764763903.6948426,-8171.19,-14782.14,-1433.16,-7709.49,-18648.495,-27525.465,-11644.29,-8764.875
1764763903.6948426,-8171.82,-14783.175,-1434.015,-7710.21,-18649.08,-27526.455,-11645.37,-8766.404999999999
1764763903.6948426,-8171.144999999999,-14782.59,-1432.8,-7709.849999999999,-18648.855,-27526.905,-11644.92,-8766.09
1764763903.6948426,-8170.065,-14782.185,-1431.45,-7708.679999999999,-18647.955,-27526.185,-11644.11,-8764.74
1764763903.6948426,-8164.844999999999,-14776.605,-1426.59,-7703.46,-18642.33,-27520.695,-11639.025,-8759.97
1764763903.6948426,-8165.025,-14776.56,-1426.5,-7703.82,-18643.14,-27520.83,-11638.44,-8759.835
1764763903.6948426,-8164.98,-14776.875,-1426.32,-7704.315,-18643.365,-27521.37,-11638.53,-8759.88
1764763903.6948426,-8164.755,-14777.145,-1426.32,-7704.809999999999,-18643.995,-27521.82,-11639.925,-8759.789999999999
1764763903.6948426,-8167.634999999999,-14780.025,-1429.065,-7707.42,-18646.605,-27524.79,-11642.13,-8762.58
1764763903.6948426,-8167.86,-14779.755,-1429.695,-7707.509999999999,-18646.515,-27524.475,-11642.715,-8762.49
1764763903.6948426,-8169.075,-14780.745,-1431.0449999999998,-7708.32,-18647.1,-27525.15,-11644.29,-8763.39
1764763903.6948426,-8170.245,-14781.96,-1432.35,-7709.309999999999,-18648.135,-27526.545,-11645.685,-8764.605
1764763903.6948426,-8170.875,-14782.32,-1432.98,-7709.715,-18648.54,-27525.33,-11646.495,-8765.279999999999
1764763903.6948426,-8173.44,-14785.155,-1435.5,-7712.684999999999,-18652.005,-27528.705,-11648.025,-8768.34
1764763903.6954012,-8168.804999999999,-14780.43,-1430.64,-7708.275,-18647.73,-27524.43,-11643.57,-8763.705
1764763903.6954012,-8168.4,-14779.395,-1429.695,-7707.915,-18647.28,-27524.295,-11642.31,-8762.805
1764763903.6954012,-8170.83,-14781.78,-1431.945,-7711.065,-18649.575,-27528.03,-11644.785,-8765.279999999999
1764763903.6954012,-8166.42,-14777.145,-1427.6699999999998,-7705.889999999999,-18645.525,-27523.44,-11641.005,-8760.869999999999
1764763903.6954012,-8167.32,-14777.28,-1427.985,-7706.16,-18645.885,-27523.53,-11641.635,-8761.545
1764763903.741045,-8166.465,-14777.865,-1429.2,-7707.105,-18646.65,-27524.565,-11641.86,-8762.085
1764763903.741045,-8168.985,-14780.34,-1431.63,-7708.995,-18649.44,-27526.5,-11644.74,-8764.92
1764763903.741045,-8168.264999999999,-14778.36,-1430.37,-7707.105,-18647.73,-27524.97,-11643.345,-8762.67
1764763903.74218,-8163.855,-14775.21,-1426.32,-7703.235,-18643.32,-27519.795,-11639.655,-8758.35
1764763903.74218,-8164.394999999999,-14776.245,-1427.22,-7705.394999999999,-18644.265,-27521.505,-11640.24,-8759.789999999999
1764763903.74218,-8165.519999999999,-14777.01,-1428.165,-7705.934999999999,-18645.57,-27523.215,-11642.04,-8760.914999999999
1764763903.74218,-8167.815,-14779.17,-1429.335,-7707.24,-18647.1,-27525.465,-11644.02,-8762.895
1764763903.74218,-8170.65,-14782.095,-1432.08,-7710.075,-18650.34,-27528.705,-11646.72,-8765.279999999999
1764763903.74218,-8168.445,-14779.53,-1429.425,-7706.835,-18647.865,-27526.275,-11643.66,-8762.67
1764763903.74218,-8167.634999999999,-14778.315,-1429.065,-7706.16,-18646.92,-27525.915,-11642.58,-8761.725
1764763903.74218,-8167.769999999999,-14778.0,-1428.705,-7706.61,-18646.335,-27524.97,-11642.58,-8761.23
1764763903.74218,-8170.695,-14780.97,-1431.585,-7709.445,-18647.91,-27526.68,-11645.1,-8764.065
