Timestamp,Channel1,Channel2,Channel3,Channel4,Channel5,Channel6,Channel7,Channel8
1764762731.7352753,-7799.219999999999,-8376.57,4259.16,-3471.75,-11562.93,-28050.03,-13164.57,-10486.935
1764762731.7352753,-7801.245,-8379.63,4255.335,-3475.305,-11565.045,-28052.955,-13166.865,-10489.365
1764762731.7352753,-7806.42,-8384.355,4250.16,-3480.615,-11570.265,-28058.67,-13173.03,-10495.17
1764762731.7352753,-7806.78,-8384.58,4250.295,-3479.625,-11570.04,-28060.29,-13174.65,-10495.71
1764762731.7352753,-7803.36,-8381.744999999999,4252.905,-3476.79,-11567.205,-28056.87,-13170.69,-10491.12
1764762731.7352753,-7802.144999999999,-8380.755,4253.4,-3476.835,-11566.665,-28055.835,-13169.7,-10489.365
1764762731.7352753,-7802.415,-8379.99,4254.57,-3475.98,-11565.765,-28054.755,-13169.07,-10491.39
1764762731.7352753,-7802.594999999999,-8380.8,4253.94,-3476.88,-11566.305,-28054.755,-13167.54,-10491.435
1764762731.7352753,-7800.255,-8378.865,4256.055,-3474.315,-11564.28,-28053.72,-13166.73,-10486.845
1764762731.7352753,-7802.099999999999,-8380.89,4254.93,-3476.07,-11566.35,-28056.105,-13169.79,-10488.915
1764762731.7352753,-7799.67,-8377.38,4257.764999999999,-3474.135,-11565.135,-28054.98,-13168.215,-10486.98
1764762731.7352753,-7803.45,-8380.08,4254.345,-3477.015,-11568.555,-28058.04,-13172.04,-10490.85
1764762731.7352753,-7798.23,-8375.58,4257.54,-3473.955,-11564.46,-28053.495,-13167.72,-10486.62
1764762731.736746,-7798.049999999999,-8376.795,4255.155,-3477.195,-11566.17,-28053.855,-13167.945,-10486.305
1764762731.736746,-7804.035,-8382.779999999999,4251.555,-3479.985,-11570.22,-28059.075,-13171.635,-10491.03
1764762731.736746,-7809.165,-8388.225,4247.82,-3483.18,-11573.73,-28063.665,-13177.215,-10496.205
1764762731.736746,-7805.969999999999,-8385.029999999999,4248.18,-3482.73,-11570.895,-28061.145,-13176.54,-10493.505
1764762731.736746,-7809.795,-8388.315,4244.04,-3485.34,-11572.74,-28062.72,-13178.115,-10497.015
1764762731.736746,-7810.83,-8388.765,4245.21,-3483.99,-11573.73,-28063.71,-13178.79,-10498.23
1764762731.736746,-7808.445,-8385.93,4249.575,-3481.02,-11571.75,-28061.415,-13176.405,-10495.89
1764762731.736746,-7806.195,-8384.67,4250.52,-3479.22,-11568.915,-28058.895,-13174.245,-10493.055
1764762731.736746,-7807.005,-8386.154999999999,4248.18,-3481.335,-11570.085,-28060.02,-13175.19,-10494.9
1764762731.7830637,-7806.42,-8384.67,4246.155,-3484.35,-11571.075,-28060.695,-13173.84,-10493.91
1764762731.7830637,-7798.139999999999,-8376.615,4253.355,-3478.275,-11565.315,-28056.87,-13170.195,-10485.585
1764762731.7830637,-7801.019999999999,-8378.279999999999,4253.085,-3479.265,-11568.645,-28059.705,-13172.22,-10489.14
1764762731.7830637,-7804.755,-8383.095,4246.605,-3484.08,-11571.615,-28063.125,-13176.9,-10493.505
1764762731.7830637,-7803.585,-8382.195,4246.56,-3482.82,-11567.34,-28060.02,-13174.965,-10491.84
1764762731.7830637,-7806.69,-8385.93,4244.849999999999,-3484.17,-11569.32,-28060.695,-13175.505,-10494.315
1764762731.7830637,-7803.495,-8382.375,4252.905,-3476.88,-11565.99,-28056.195,-13172.13,-10491.795
1764762731.7830637,-7805.79,-8383.815,4250.43,-3479.625,-11569.095,-28059.75,-13175.37,-10495.08
1764762731.7830637,-7800.795,-8378.19,4254.84,-3475.98,-11565.945,-28057.455,-13171.995,-10490.445
1764762731.7830637,-7801.605,-8380.08,4251.599999999999,-3479.22,-11567.61,-28058.58,-13173.705,-10491.795
1764762731.7830637,-7807.679999999999,-8387.82,4244.22,-3484.845,-11572.155,-28063.08,-13178.52,-10497.195
1764762731.7830637,-7805.969999999999,-8385.705,4246.065,-3483.045,-11570.58,-28062.09,-13177.53,-10495.98
1764762731.7830637,-7803.54,-8382.105,4248.585,-3480.66,-11568.69,-28060.695,-13174.965,-10493.865
1764762731.7830637,-7799.715,-8378.82,4252.455,-3476.43,-11563.515,-28056.06,-13171.23,-10489.275
1764762731.7830637,-7806.33,-8385.57,4246.38,-3482.28,-11570.4,-28063.08,-13177.665,-10495.17
1764762731.7848074,-7803.719999999999,-8383.095,4246.47,-3482.415,-11570.4,-28063.395,-13176.72,-10494.09
1764762731.7848074,-7798.455,-8378.369999999999,4247.01,-3480.21,-11565.72,-28058.355,-13171.455,-10488.42
1764762731.7848074,-7797.87,-8377.875,4246.065,-3481.515,-11566.935,-28059.165,-13171.275,-10487.295
1764762731.7848074,-7801.335,-8381.88,4248.855,-3483.315,-11570.445,-28061.91,-13173.795,-10491.165
1764762731.7848074,-7809.884999999999,-8390.565,4240.53,-3488.85,-11575.35,-28067.67,-13181.265,-10498.545
1764762731.7848074,-7811.684999999999,-8392.095,4238.685,-3488.85,-11574.225,-28067.535,-13184.415,-10500.615
1764762731.7848074,-7808.4,-8388.72,4242.105,-3484.575,-11570.535,-28064.52,-13183.83,-10498.59
1764762731.7848074,-7805.835,-8384.805,4244.31,-3482.73,-11569.905,-28062.9,-13179.105,-10494.765
1764762731.7848074,-7799.085,-8376.119999999999,4251.33,-3476.97,-11564.37,-28058.265,-13173.66,-10488.24
1764762731.8276198,-7800.48,-8378.055,4247.37,-3479.985,-11566.17,-28060.245,-13175.19,-10489.455
1764762731.8276198,-7797.69,-8376.885,4249.71,-3478.23,-11563.875,-28055.745,-13170.24,-10485.99
1764762731.8276198,-7799.49,-8379.135,4247.55,-3483.18,-11569.905,-28061.19,-13175.1,-10489.5
1764762731.8276198,-7796.205,-8376.57,4250.295,-3478.14,-11564.46,-28056.69,-13171.275,-10485.765
1764762731.8276198,-7797.644999999999,-8377.515,4249.08,-3479.22,-11565.63,-28057.365,-13172.4,-10486.98
1764762731.8276198,-7802.415,-8381.25,4244.985,-3483.765,-11569.14,-28061.82,-13177.215,-10492.02
1764762731.8276198,-7799.309999999999,-8376.975,4248.585,-3479.265,-11564.505,-28058.31,-13173.885,-10488.06
1764762731.8276198,-7798.455,-8376.029999999999,4249.08,-3478.23,-11563.605,-28057.905,-13173.165,-10486.755
1764762731.8276198,-7800.03,-8378.279999999999,4245.84,-3481.2,-11566.305,-28061.19,-13175.73,-10489.635
1764762731.8276198,-7803.945,-8381.789999999999,4242.15,-3487.455,-11572.425,-28067.49,-13180.995,-10494.045
1764762731.8276198,-7804.215,-8381.52,4241.88,-3487.545,-11572.29,-28066.68,-13181.445,-10493.775
1764762731.8276198,-7804.575,-8382.42,4237.605,-3490.515,-11573.64,-28067.445,-13180.905,-10493.73
1764762731.8276198,-7803.764999999999,-8382.015,4238.415,-3489.345,-11571.93,-28065.78,-13179.87,-10492.92
1764762731.8276198,-7796.519999999999,-8374.095,4246.56,-3480.84,-11564.325,-28059.39,-13173.165,-10485.9
1764762731.8276198,-7793.865,-8371.215,4248.945,-3479.085,-11562.255,-28057.275,-13170.735,-10483.515
1764762731.8276198,-7796.655,-8374.904999999999,4246.11,-3482.37,-11565.765,-28060.965,-13175.055,-10486.98
1764762731.8276198,-7800.84,-8379.09,4242.33,-3485.43,-11570.04,-28066.815,-13182.48,-10491.66
1764762731.8276198,-7798.455,-8376.795,4245.66,-3481.92,-11566.845,-28063.845,-13179.42,-10488.33
1764762731.8276198,-7798.679999999999,-8377.605,4244.76,-3483.315,-11567.745,-28063.845,-13177.935,-10488.015
1764762731.8276198,-7796.79,-8376.975,4242.51,-3485.79,-11568.42,-28062.855,-13176.54,-10487.16
1764762731.8291557,-7799.58,-8380.17,4238.37,-3490.74,-11571.975,-28065.24,-13175.46,-10489.455
1764762731.8291557,-7798.59,-8377.83,4241.16,-3487.41,-11568.87,-28062.27,-13172.04,-10487.79
1764762731.8291557,-7803.269999999999,-8382.69,4236.525,-3490.83,-11572.11,-28066.23,-13175.775,-10491.705
1764762731.8291557,-7798.005,-8376.615,4242.33,-3484.845,-11565.18,-28060.515,-13173.48,-10486.755
1764762731.8750684,-7794.855,-8373.69,4246.335,-3482.37,-11562.93,-28060.065,-13178.655,-10483.92
1764762731.8750684,-7802.054999999999,-8380.17,4239.315,-3488.04,-11569.545,-28066.95,-13182.885,-10491.165
1764762731.8750684,-7797.915,-8374.23,4244.13,-3484.395,-11567.97,-28064.475,-13177.665,-10486.935
1764762731.8750684,-7803.495,-8379.404999999999,4239.945,-3488.175,-11571.165,-28067.805,-13181.49,-10490.625
1764762731.8750684,-7806.42,-8382.869999999999,4237.02,-3491.1,-11572.695,-28071.405,-13185.225,-10492.875
1764762731.8750684,-7803.045,-8379.315,4240.349999999999,-3487.455,-11569.905,-28069.155,-13183.515,-10491.39
1764762731.8760858,-7799.309999999999,-8375.94,4242.15,-3484.935,-11565.72,-28064.565,-13179.285,-10489.23
1764762731.8760858,-7790.355,-8369.235,4246.965,-3478.68,-11558.385,-28055.025,-13169.16,-10479.645
1764762731.8760858,-7789.95,-8369.73,4248.18,-3478.725,-11560.86,-28055.745,-13165.965,-10477.845
1764762731.8760858,-7794.54,-8373.195,4243.59,-3483.315,-11564.64,-28060.47,-13171.77,-10483.515
1764762731.8760858,-7790.804999999999,-8368.695,4246.02,-3481.875,-11560.905,-28057.95,-13169.115,-10479.42
1764762731.8760858,-7796.745,-8374.77,4238.55,-3488.805,-11567.565,-28064.745,-13175.37,-10485.405
1764762731.8760858,-7796.07,-8374.904999999999,4236.93,-3487.545,-11565.54,-28062.45,-13173.255,-10483.605
1764762731.8760858,-7798.094999999999,-8377.02,4236.57,-3492.0,-11572.065,-28068.165,-13177.17,-10487.88
1764762731.8760858,-7796.25,-8373.914999999999,4244.625,-3486.465,-11568.735,-28065.555,-13177.44,-10485.765
1764762731.8760858,-7793.19,-8370.09,4249.125,-3479.94,-11562.525,-28061.19,-13174.425,-10481.895
1764762731.8760858,-7796.61,-8373.015,4246.695,-3483.0,-11566.845,-28066.86,-13180.725,-10486.98
1764762731.8760858,-7795.799999999999,-8372.295,4246.155,-3483.405,-11567.88,-28066.635,-13180.5,-10485.315
1764762731.8760858,-7793.009999999999,-8370.539999999999,4247.01,-3482.415,-11565.405,-28064.25,-13175.37,-10480.905
1764762731.8760858,-7795.62,-8372.654999999999,4245.075,-3484.395,-11566.215,-28063.62,-13175.865,-10483.605
1764762731.8760858,-7792.74,-8370.72,4246.065,-3483.54,-11564.82,-28058.94,-13169.88,-10479.42
1764762731.8760858,-7797.42,-8375.895,4239.585,-3489.795,-11569.68,-28063.935,-13173.705,-10484.19
1764762731.924427,-7795.799999999999,-8374.005,4243.95,-3484.035,-11564.415,-28060.425,-13174.11,-10482.21
1764762731.9249644,-7798.049999999999,-8375.22,4243.995,-3484.305,-11564.28,-28062.72,-13176.09,-10484.235
1764762731.9249644,-7799.67,-8376.705,4241.61,-3486.87,-11566.575,-28066.545,-13176.585,-10486.125
1764762731.9249644,-7803.09,-8380.215,4237.38,-3491.64,-11571.255,-28069.695,-13179.87,-10489.5
1764762731.9249644,-7803.719999999999,-8380.98,4237.11,-3491.145,-11571.39,-28069.875,-13179.78,-10489.5
1764762731.9249644,-7797.87,-8376.48,4243.545,-3484.44,-11565.495,-28064.205,-13175.955,-10483.425
1764762731.9249644,-7795.98,-8373.24,4246.38,-3481.245,-11563.38,-28063.44,-13177.62,-10482.255
1764762731.9249644,-7799.94,-8377.47,4241.88,-3486.33,-11567.79,-28067.445,-13180.005,-10485.495
1764762731.9249644,-7798.23,-8376.975,4239.99,-3486.555,-11566.62,-28065.24,-13179.24,-10484.91
1764762731.9249644,-7803.63,-8381.205,4236.93,-3491.19,-11572.155,-28071.045,-13184.865,-10491.885
1764762731.9249644,-7799.535,-8374.68,4244.535,-3484.71,-11568.195,-28067.175,-13180.995,-10488.24
1764762731.9249644,-7800.255,-8374.095,4244.13,-3486.15,-11570.04,-28068.345,-13182.39,-10489.32
1764762731.9249644,-7793.46,-8368.92,4248.27,-3483.09,-11567.115,-28064.07,-13173.795,-10481.445
1764762731.9249644,-7792.92,-8369.73,4246.83,-3483.72,-11566.53,-28061.145,-13170.33,-10479.42
1764762731.9249644,-7796.88,-8372.97,4243.455,-3486.555,-11569.905,-28064.025,-13172.4,-10482.525
1764762731.9249644,-7794.63,-8370.765,4247.145,-3482.415,-11565.495,-28060.47,-13168.71,-10479.69
1764762731.9249644,-7797.87,-8374.14,4245.389999999999,-3483.27,-11567.115,-28062.27,-13172.445,-10483.47
1764762731.9249644,-7790.94,-8366.039999999999,4253.13,-3476.115,-11560.365,-28057.59,-13174.245,-10477.845
1764762731.9249644,-7787.61,-8362.215,4256.595,-3473.55,-11556.945,-28053.945,-13170.15,-10474.02
1764762731.9249644,-7794.405,-8369.279999999999,4251.42,-3478.68,-11563.785,-28061.01,-13175.235,-10481.13
1764762731.9249644,-7791.165,-8366.76,4254.885,-3475.08,-11560.41,-28058.265,-13172.49,-10478.115
1764762731.9249644,-7791.57,-8368.605,4253.535,-3475.215,-11558.97,-28056.69,-13172.445,-10477.62
1764762731.9249644,-7797.42,-8374.23,4246.605,-3483.675,-11565.945,-28062.72,-13177.08,-10482.57
1764762731.9249644,-7795.62,-8371.71,4246.83,-3485.07,-11566.755,-28062.09,-13176.495,-10481.13
1764762731.9685345,-7798.365,-8373.735,4244.849999999999,-3487.05,-11569.185,-28063.935,-13178.7,-10484.1
1764762731.9685345,-7798.32,-8372.295,4247.685,-3484.215,-11566.665,-28061.595,-13177.62,-10485.09
1764762731.9685345,-7795.799999999999,-8371.215,4248.18,-3482.91,-11564.235,-28059.615,-13174.245,-10482.525
1764762731.9685345,-7796.429999999999,-8371.845,4246.02,-3485.115,-11565.045,-28060.65,-13176.045,-10482.66
1764762731.9685345,-7797.285,-8374.5,4243.86,-3485.925,-11566.035,-28060.965,-13176.63,-10483.92
1764762731.9685345,-7798.995,-8374.904999999999,4246.56,-3484.35,-11568.465,-28064.25,-13179.105,-10485.495
1764762731.9685345,-7800.344999999999,-8375.445,4245.48,-3487.05,-11570.175,-28066.59,-13180.77,-10487.205
1764762731.9685345,-7806.014999999999,-8381.205,4237.425,-3493.665,-11574.45,-28071.765,-13185.09,-10491.795
1764762731.9685345,-7804.394999999999,-8380.935,4238.28,-3491.82,-11572.695,-28070.19,-13184.145,-10489.68
1764762731.9685345,-7801.65,-8377.965,4245.885,-3489.03,-11572.155,-28069.29,-13184.1,-10487.655
1764762731.9685345,-7798.455,-8375.445,4248.36,-3484.89,-11568.24,-28064.88,-13179.69,-10484.19
1764762731.9685345,-7800.705,-8376.119999999999,4245.21,-3487.86,-11569.995,-28066.725,-13183.245,-10486.53
1764762731.9685345,-7795.62,-8370.63,4251.06,-3482.19,-11564.685,-28062.45,-13180.815,-10482.255
1764762731.9685345,-7796.115,-8371.529999999999,4250.205,-3483.09,-11564.1,-28061.145,-13180.32,-10481.985
1764762731.9685345,-7795.934999999999,-8371.08,4247.955,-3485.295,-11564.145,-28060.56,-13178.88,-10480.995
1764762731.9685345,-7798.59,-8374.77,4244.76,-3487.59,-11566.845,-28063.035,-13178.925,-10482.84
1764762731.9685345,-7797.014999999999,-8373.69,4250.205,-3483.135,-11566.665,-28062.72,-13177.215,-10481.58
1764762731.9685345,-7793.865,-8369.505,4254.795,-3478.545,-11563.47,-28059.48,-13172.13,-10476.54
1764762731.9685345,-7792.83,-8367.93,4255.38,-3479.04,-11563.2,-28059.255,-13173.525,-10475.64
1764762731.9685345,-7793.73,-8368.065,4254.75,-3479.4,-11563.785,-28060.155,-13175.01,-10477.08
1764762731.9685345,-7794.269999999999,-8368.199999999999,4254.075,-3481.605,-11566.215,-28063.08,-13175.055,-10478.565
1764762731.9685345,-7796.474999999999,-8370.855,4250.34,-3484.98,-11568.465,-28066.32,-13178.205,-10480.68
1764762732.0153694,-7798.5,-8374.005,4246.335,-3488.22,-11570.895,-28069.695,-13182.75,-10483.38
1764762732.0153694,-7791.255,-8367.119999999999,4252.77,-3481.11,-11563.695,-28061.82,-13177.305,-10476.72
1764762732.0153694,-7789.815,-8365.545,4254.48,-3480.255,-11562.795,-28060.92,-13174.785,-10475.415
1764762732.0153694,-7793.19,-8369.685,4250.61,-3483.855,-11565.9,-28062.54,-13176.045,-10479.33
1764762732.0153694,-7799.13,-8376.21,4244.49,-3488.355,-11570.22,-28063.17,-13174.155,-10483.965
1764762732.0153694,-7792.875,-8367.795,4253.49,-3479.265,-11561.445,-28056.465,-13173.165,-10479.105
1764762732.0153694,-7792.695,-8367.255,4255.2,-3479.265,-11560.815,-28059.75,-13177.305,-10479.87
1764762732.0153694,-7794.179999999999,-8370.27,4252.68,-3480.705,-11562.84,-28060.29,-13174.425,-10479.78
1764762732.0153694,-7789.455,-8366.31,4257.045,-3475.62,-11557.89,-28056.33,-13170.69,-10474.785
1764762732.0153694,-7788.87,-8364.33,4258.755,-3474.09,-11556.855,-28057.005,-13172.445,-10474.155
1764762732.0153694,-7794.405,-8368.965,4252.365,-3481.38,-11563.11,-28061.325,-13177.44,-10479.735
1764762732.0153694,-7793.325,-8368.244999999999,4251.87,-3483.0,-11563.92,-28061.415,-13178.475,-10480.41
1764762732.0153694,-7788.465,-8364.06,4256.28,-3478.095,-11559.06,-28057.32,-13173.66,-10476.225
1764762732.0153694,-7791.75,-8367.345,4251.33,-3480.75,-11561.985,-28059.75,-13176.495,-10478.7
1764762732.0153694,-7795.71,-8371.26,4248.855,-3485.025,-11567.16,-28064.925,-13179.78,-10482.705
1764762732.0153694,-7792.92,-8367.795,4253.985,-3481.29,-11564.19,-28062.18,-13176.495,-10479.825
1764762732.0153694,-7799.894999999999,-8374.5,4248.09,-3486.555,-11567.61,-28067.85,-13181.715,-10485.855
1764762732.0153694,-7799.625,-8374.32,4247.73,-3487.05,-11569.05,-28068.705,-13182.525,-10486.125
1764762732.0153694,-7797.014999999999,-8372.835,4247.235,-3487.23,-11568.42,-28068.03,-13182.075,-10484.28
1764762732.0153694,-7795.53,-8371.89,4248.72,-3486.465,-11567.7,-28067.04,-13180.725,-10483.515
1764762732.0153694,-7792.29,-8367.93,4254.12,-3481.47,-11563.47,-28062.27,-13177.395,-10479.465
1764762732.0153694,-7796.835,-8372.744999999999,4251.285,-3483.855,-11564.91,-28064.295,-13179.555,-10482.66
1764762732.0153694,-7791.75,-8368.425,4255.38,-3480.345,-11560.455,-28061.19,-13176.765,-10478.43
1764762732.0153694,-7793.505,-8369.82,4252.815,-3482.64,-11563.47,-28065.78,-13183.92,-10481.67
1764762732.0582674,-7795.62,-8372.115,4249.17,-3486.015,-11565.855,-28067.355,-13186.44,-10484.1
1764762732.0582674,-7798.275,-8374.68,4244.849999999999,-3488.445,-11565.765,-28067.49,-13186.62,-10485.54
1764762732.0582674,-7795.17,-8373.06,4242.105,-3488.49,-11563.38,-28064.25,-13182.615,-10482.075
1764762732.0582674,-7792.74,-8370.765,4245.435,-3487.725,-11564.235,-28062.99,-13175.235,-10478.295
1764762732.0582674,-7798.094999999999,-8375.58,4242.78,-3493.89,-11570.355,-28068.615,-13178.25,-10483.695
1764762732.0582674,-7797.78,-8373.375,4249.53,-3488.22,-11569.365,-28067.895,-13181.265,-10485.18
1764762732.0587964,-7795.125,-8371.664999999999,4252.32,-3483.495,-11564.64,-28064.295,-13180.77,-10482.93
1764762732.0587964,-7789.545,-8366.445,4256.865,-3477.78,-11557.755,-28058.805,-13174.47,-10476.045
1764762732.0587964,-7791.03,-8367.48,4254.705,-3480.615,-11560.68,-28060.92,-13176.045,-10477.395
1764762732.0587964,-7796.384999999999,-8372.34,4248.0,-3488.04,-11567.295,-28068.075,-13182.93,-10484.055
1764762732.0587964,-7794.945,-8371.08,4249.665,-3485.88,-11564.865,-28065.465,-13180.32,-10482.795
1764762732.0587964,-7792.92,-8369.82,4251.42,-3483.855,-11563.02,-28062.675,-13176.18,-10480.275
1764762732.0587964,-7792.424999999999,-8370.315,4250.97,-3483.495,-11563.02,-28062.945,-13175.46,-10479.42
1764762732.0587964,-7791.165,-8368.02,4250.52,-3483.99,-11562.3,-28061.55,-13174.83,-10476.81
1764762732.0587964,-7783.38,-8360.145,4258.17,-3476.43,-11556.63,-28057.455,-13178.52,-10470.69
1764762732.0587964,-7782.12,-8358.615,4260.87,-3475.395,-11556.405,-28058.535,-13183.965,-10470.42
1764762732.0593011,-7786.215,-8362.395,4259.52,-3475.98,-11556.27,-28057.455,-13181.265,-10474.245
1764762732.0593011,-7788.285,-8364.824999999999,4257.18,-3477.105,-11557.845,-28057.14,-13177.8,-10476.27
1764762732.059816,-7789.455,-8367.255,4254.885,-3478.635,-11559.645,-28055.655,-13176.045,-10476.045
1764762732.059816,-7792.155,-8370.72,4251.33,-3481.92,-11562.75,-28059.12,-13178.385,-10477.53
1764762732.059816,-7795.44,-8373.105,4246.785,-3487.995,-11567.88,-28065.555,-13184.055,-10481.985
1764762732.059816,-7791.03,-8369.055,4250.07,-3484.98,-11565.36,-28062.36,-13181.49,-10478.295
1764762732.059816,-7793.009999999999,-8370.855,4248.405,-3484.215,-11565.315,-28062.945,-13182.705,-10482.12
1764762732.059816,-7792.695,-8369.64,4248.495,-3485.025,-11565.27,-28062.945,-13182.39,-10482.795
1764762732.106593,-7789.59,-8365.949999999999,4252.41,-3481.065,-11561.49,-28059.57,-13179.105,-10478.97
1764762732.1079483,-7792.785,-8369.279999999999,4250.79,-3482.145,-11563.11,-28062.72,-13182.345,-10481.355
1764762732.1079483,-7790.67,-8367.074999999999,4254.795,-3478.59,-11560.455,-28060.065,-13180.545,-10478.88
1764762732.1079483,-7792.335,-8368.83,4252.635,-3480.21,-11560.68,-28060.02,-13182.48,-10481.085
1764762732.1079483,-7788.509999999999,-8367.164999999999,4251.78,-3480.21,-11557.26,-28055.79,-13176.72,-10476.495
1764762732.1079483,-7793.19,-8372.34,4246.56,-3485.25,-11562.39,-28060.74,-13181.04,-10480.68
1764762732.1079483,-7790.894999999999,-8370.63,4249.575,-3481.965,-11561.31,-28060.425,-13180.005,-10479.33
1764762732.1079483,-7787.205,-8365.949999999999,4257.315,-3476.07,-11558.205,-28058.175,-13176.54,-10475.01
1764762732.1079483,-7787.79,-8365.635,4258.17,-3477.015,-11559.555,-28060.155,-13177.98,-10476.405
1764762732.1079483,-7788.014999999999,-8366.265,4254.57,-3479.94,-11561.175,-28061.73,-13180.635,-10477.755
1764762732.1091788,-7793.19,-8372.789999999999,4246.02,-3488.805,-11568.195,-28068.255,-13189.05,-10484.145
1764762732.1091788,-7792.605,-8372.835,4246.155,-3487.68,-11566.395,-28066.05,-13188.69,-10483.155
1764762732.1091788,-7794.0,-8373.779999999999,4245.165,-3488.13,-11565.765,-28065.915,-13187.025,-10483.335
1764762732.1091788,-7792.2,-8372.16,4247.235,-3485.43,-11563.875,-28064.07,-13186.08,-10481.67
1764762732.1091788,-7785.99,-8365.949999999999,4252.23,-3480.255,-11558.88,-28059.48,-13181.94,-10476.495
1764762732.1091788,-7787.745,-8368.199999999999,4249.71,-3481.515,-11559.6,-28060.47,-13182.435,-10478.115
1764762732.1091788,-7794.855,-8375.265,4246.335,-3486.96,-11566.125,-28068.03,-13188.105,-10484.955
1764762732.1091788,-7794.719999999999,-8373.96,4247.01,-3486.6,-11566.395,-28067.895,-13187.115,-10485.855
1764762732.1091788,-7791.525,-8371.574999999999,4245.66,-3485.52,-11563.83,-28064.97,-13179.42,-10482.12
1764762732.1091788,-7790.49,-8370.855,4247.505,-3487.59,-11565.585,-28064.34,-13177.08,-10480.455
1764762732.1091788,-7787.07,-8368.425,4253.175,-3483.855,-11563.425,-28062.495,-13178.97,-10478.43
1764762732.1091788,-7788.15,-8369.82,4249.26,-3486.15,-11564.73,-28065.555,-13190.76,-10481.355
1764762732.1530645,-7788.105,-8368.965,4250.43,-3483.675,-11563.065,-28063.44,-13186.17,-10480.23
1764762732.1530645,-7790.04,-8370.0,4249.845,-3484.98,-11563.335,-28064.655,-13186.98,-10481.22
1764762732.1530645,-7784.684999999999,-8364.869999999999,4256.595,-3478.095,-11558.655,-28060.605,-13183.065,-10476.27
1764762732.1530645,-7787.25,-8369.46,4253.085,-3480.615,-11562.615,-28064.52,-13185.18,-10478.385
1764762732.1530645,-7790.804999999999,-8372.43,4249.26,-3483.945,-11565.99,-28069.38,-13187.97,-10481.265
1764762732.1530645,-7795.71,-8374.275,4244.985,-3489.93,-11572.47,-28077.255,-13194.54,-10487.385
1764762732.1530645,-7793.19,-8372.744999999999,4244.985,-3491.37,-11572.92,-28079.955,-13196.115,-10487.16
1764762732.1530645,-7792.469999999999,-8374.32,4244.805,-3489.84,-11569.59,-28075.275,-13192.74,-10485.63
1764762732.1530645,-7787.924999999999,-8369.595,4249.845,-3485.43,-11561.67,-28064.52,-13183.695,-10480.32
1764762732.1530645,-7785.719999999999,-8368.425,4249.035,-3487.14,-11561.445,-28063.17,-13180.32,-10478.025
1764762732.1530645,-7788.014999999999,-8373.375,4245.03,-3488.895,-11561.895,-28061.595,-13181.13,-10479.195
1764762732.1530645,-7788.599999999999,-8372.34,4248.45,-3487.365,-11566.62,-28065.915,-13189.32,-10481.31
1764762732.1530645,-7784.19,-8367.435,4251.645,-3486.96,-11570.355,-28070.955,-13187.43,-10476.405
1764762732.1530645,-7788.24,-8371.71,4245.66,-3492.99,-11579.76,-28083.42,-13193.775,-10480.455
1764762732.1530645,-7793.46,-8377.154999999999,4241.88,-3496.32,-11580.12,-28087.83,-13197.735,-10485.765
1764762732.1530645,-7791.705,-8374.59,4246.11,-3490.74,-11573.685,-28080.54,-13196.115,-10484.91
1764762732.1530645,-7788.195,-8369.775,4252.095,-3483.765,-11565.855,-28076.22,-13193.415,-10482.795
1764762732.1530645,-7784.144999999999,-8367.255,4254.03,-3476.61,-11549.07,-28052.01,-13181.175,-10476.495
1764762732.1530645,-7789.995,-8375.085,4243.095,-3487.725,-11554.515,-28042.155,-13176.63,-10480.77
1764762732.1530645,-7786.62,-8370.449999999999,4248.18,-3486.915,-11560.995,-28054.44,-13181.085,-10479.42
1764762732.1530645,-7781.174999999999,-8363.789999999999,4254.255,-3481.47,-11558.79,-28060.38,-13182.57,-10474.56
1764762732.1530645,-7780.455,-8363.115,4255.245,-3479.04,-11559.645,-28062.72,-13183.38,-10472.04
1764762732.2001162,-7777.44,-8360.505,4256.595,-3478.5,-11558.61,-28063.215,-13181.67,-10470.33
1764762732.200623,-7779.42,-8361.449999999999,4257.0,-3480.255,-11557.395,-28060.515,-13181.22,-10471.59
1764762732.200623,-7780.41,-8364.555,4251.15,-3483.36,-11556.36,-28058.67,-13177.8,-10471.77
1764762732.200623,-7780.365,-8365.23,4246.695,-3485.025,-11556.855,-28064.16,-13179.015,-10471.005
1764762732.200623,-7782.344999999999,-8367.029999999999,4245.795,-3485.835,-11563.605,-28069.155,-13184.145,-10473.75
1764762732.200623,-7787.295,-8372.07,4250.835,-3484.53,-11569.05,-28071.63,-13188.015,-10477.845
1764762732.200623,-7782.57,-8365.23,4260.735,-3478.905,-11561.67,-28058.58,-13183.065,-10474.11
1764762732.200623,-7787.835,-8370.765,4251.42,-3484.845,-11556.765,-28049.985,-13183.515,-10478.97
1764762732.200623,-7783.74,-8365.904999999999,4254.57,-3480.525,-11552.4,-28050.435,-13182.255,-10476.27
1764762732.200623,-7778.745,-8359.965,4260.15,-3475.89,-11548.89,-28051.515,-13182.12,-10472.94
1764762732.2016337,-7778.835,-8361.27,4258.53,-3475.305,-11548.44,-28053.045,-13180.59,-10472.355
1764762732.2016337,-7785.54,-8368.965,4252.005,-3482.37,-11558.025,-28061.865,-13187.88,-10479.69
1764762732.2016337,-7788.465,-8370.81,4249.935,-3484.755,-11558.655,-28067.175,-13192.02,-10482.3
1764762732.2016337,-7775.955,-8358.84,4261.86,-3470.49,-11539.845,-28054.89,-13184.37,-10469.835
1764762732.2016337,-7776.09,-8359.425,4262.175,-3470.355,-11540.475,-28057.59,-13187.34,-10469.565
1764762732.2016337,-7783.245,-8366.49,4258.53,-3472.785,-11542.005,-28063.08,-13192.245,-10475.055
1764762732.2016337,-7784.639999999999,-8368.02,4256.505,-3474.09,-11547.585,-28063.485,-13191.255,-10474.425
1764762732.2016337,-7783.92,-8366.355,4253.805,-3481.155,-11560.68,-28056.015,-13183.605,-10473.885
1764762732.2016337,-7786.485,-8369.865,4250.205,-3484.215,-11561.175,-28056.69,-13183.2,-10477.26
1764762732.2016337,-7782.615,-8366.22,4254.255,-3482.145,-11561.265,-28057.14,-13182.975,-10475.37
1764762732.2016337,-7776.269999999999,-8361.72,4258.395,-3476.655,-11554.065,-28053.81,-13180.005,-10468.62
1764762732.202632,-7776.945,-8364.779999999999,4254.165,-3476.745,-11550.555,-28054.98,-13183.695,-10469.16
1764762732.202632,-7779.105,-8363.789999999999,4255.245,-3475.305,-11545.965,-28051.92,-13184.19,-10472.805
1764762732.202632,-7784.009999999999,-8366.22,4255.785,-3477.24,-11548.035,-28057.32,-13185.63,-10476.9
1764762732.202632,-7785.764999999999,-8368.605,4255.83,-3480.975,-11555.505,-28066.815,-13190.445,-10479.87
1764762732.202632,-7781.264999999999,-8365.095,4257.945,-3475.755,-11547.945,-28057.725,-13185.0,-10473.525
1764762732.2446246,-7782.84,-8367.795,4255.74,-3478.095,-11548.8,-28054.845,-13184.37,-10474.245
1764762732.2446246,-7784.73,-8368.83,4252.05,-3488.535,-11564.145,-28063.395,-13189.23,-10479.24
1764762732.2446246,-7780.32,-8362.8,4259.7,-3474.585,-11548.035,-28055.52,-13183.335,-10474.425
1764762732.2446246,-7775.549999999999,-8360.369999999999,4261.86,-3472.875,-11548.665,-28051.875,-13178.88,-10469.25
1764762732.2446246,-7778.16,-8363.744999999999,4256.865,-3481.605,-11560.68,-28057.32,-13183.47,-10471.86
1764762732.2446246,-7781.67,-8369.279999999999,4250.835,-3489.12,-11568.555,-28065.825,-13190.85,-10474.74
1764762732.2446246,-7781.715,-8369.055,4248.135,-3494.205,-11580.93,-28072.17,-13193.055,-10475.595
1764762732.2446246,-7782.929999999999,-8369.19,4249.755,-3493.215,-11584.755,-28072.845,-13191.57,-10473.84
1764762732.2446246,-7788.105,-8373.33,4247.415,-3495.735,-11587.23,-28070.415,-13194.72,-10480.455
1764762732.2446246,-7787.429999999999,-8370.945,4249.44,-3489.345,-11575.395,-28061.595,-13189.59,-10481.535
1764762732.2446246,-7792.695,-8375.94,4241.79,-3496.905,-11579.67,-28071.135,-13197.42,-10487.07
1764762732.2446246,-7790.67,-8376.119999999999,4240.17,-3497.445,-11578.68,-28071.585,-13197.87,-10483.38
1764762732.2446246,-7787.115,-8372.699999999999,4243.05,-3490.965,-11568.105,-28066.005,-13194.27,-10479.555
1764762732.2446246,-7784.955,-8369.685,4242.285,-3489.03,-11565.495,-28061.19,-13191.03,-10478.79
1764762732.2446246,-7783.245,-8369.595,4243.905,-3487.455,-11566.17,-28059.885,-13190.13,-10477.53
1764762732.2446246,-7784.639999999999,-8368.56,4254.885,-3482.865,-11567.295,-28062.99,-13194.765,-10480.14
1764762732.2446246,-7786.17,-8369.369999999999,4256.28,-3479.895,-11565.135,-28064.475,-13197.915,-10482.12
1764762732.2446246,-7786.53,-8372.97,4245.57,-3487.095,-11566.485,-28065.195,-13197.555,-10481.715
1764762732.246096,-7786.98,-8373.015,4242.87,-3492.54,-11570.31,-28067.22,-13197.06,-10482.57
1764762732.246096,-7789.23,-8373.465,4243.23,-3495.015,-11573.145,-28070.91,-13198.365,-10484.28
1764762732.246096,-7785.9,-8369.955,4249.485,-3487.365,-11568.285,-28066.77,-13192.83,-10480.095
1764762732.246096,-7785.855,-8370.63,4248.81,-3486.87,-11567.655,-28066.635,-13194.27,-10479.465
1764762732.2937715,-7788.33,-8371.845,4244.805,-3492.54,-11571.345,-28069.56,-13198.14,-10482.255
1764762732.2944582,-7782.795,-8365.545,4247.099999999999,-3490.02,-11566.53,-28064.565,-13193.055,-10477.845
1764762732.2944582,-7780.32,-8364.914999999999,4248.855,-3483.45,-11562.705,-28061.415,-13189.41,-10474.245
1764762732.2944582,-7786.394999999999,-8370.675,4247.37,-3489.435,-11570.67,-28070.01,-13197.195,-10480.725
1764762732.2944582,-7786.53,-8369.1,4247.82,-3493.17,-11574.495,-28073.07,-13199.535,-10481.805
1764762732.2944582,-7785.315,-8370.27,4245.93,-3490.29,-11571.75,-28071.045,-13197.645,-10480.275
1764762732.2944582,-7786.44,-8371.08,4246.02,-3490.83,-11569.725,-28069.605,-13196.7,-10480.275
1764762732.2944582,-7787.34,-8373.15,4243.095,-3491.01,-11568.24,-28068.795,-13197.33,-10480.995
1764762732.2944582,-7789.5,-8376.164999999999,4239.405,-3492.63,-11572.29,-28073.925,-13204.8,-10484.055
1764762732.2944582,-7791.434999999999,-8376.93,4240.71,-3493.305,-11577.24,-28079.19,-13210.29,-10486.98
1764762732.2944582,-7792.605,-8377.515,4241.97,-3492.18,-11575.44,-28080.045,-13209.615,-10487.835
1764762732.2944582,-7784.594999999999,-8368.199999999999,4251.51,-3483.945,-11566.35,-28070.64,-13201.47,-10481.13
1764762732.2944582,-7779.78,-8363.925,4255.74,-3480.75,-11560.95,-28060.65,-13190.445,-10474.83
1764762732.2944582,-7780.455,-8365.005,4252.635,-3484.08,-11563.965,-28060.83,-13187.79,-10472.805
1764762732.2944582,-7782.705,-8368.875,4243.905,-3489.57,-11564.64,-28060.335,-13191.93,-10476.54
1764762732.2944582,-7786.755,-8373.645,4234.41,-3496.14,-11569.005,-28064.925,-13198.05,-10481.04
1764762732.2944582,-7783.74,-8371.44,4239.36,-3490.92,-11566.8,-28064.835,-13195.485,-10478.07
1764762732.2944582,-7782.389999999999,-8368.92,4248.36,-3486.06,-11564.505,-28064.16,-13193.64,-10475.955
1764762732.2944582,-7784.46,-8366.13,4256.55,-3484.62,-11567.52,-28068.12,-13197.24,-10478.43
1764762732.2944582,-7786.755,-8368.785,4253.4,-3486.24,-11569.23,-28069.965,-13199.67,-10482.12
1764762732.2944582,-7781.849999999999,-8364.42,4256.055,-3481.515,-11562.57,-28062.27,-13191.975,-10479.195
1764762732.2944582,-7779.33,-8364.105,4256.235,-3479.895,-11560.815,-28059.84,-13189.32,-10476.18
1764762732.2954664,-7779.69,-8365.994999999999,4252.545,-3483.54,-11562.705,-28061.055,-13189.635,-10476.405
1764762732.2954664,-7784.415,-8369.595,4247.73,-3488.49,-11566.62,-28065.87,-13195.44,-10481.175
1764762732.338828,-7788.105,-8373.105,4245.12,-3490.38,-11569.905,-28071.585,-13205.07,-10484.955
1764762732.338828,-7788.915,-8373.69,4246.02,-3489.525,-11570.445,-28071.09,-13201.02,-10483.605
1764762732.338828,-7788.87,-8372.654999999999,4247.595,-3489.075,-11570.58,-28071.495,-13199.445,-10482.84
1764762732.338828,-7786.53,-8370.72,4249.305,-3487.14,-11570.265,-28070.64,-13200.48,-10481.265
1764762732.338828,-7784.144999999999,-8369.055,4250.79,-3485.97,-11568.78,-28068.03,-13198.275,-10478.745
1764762732.338828,-7786.44,-8370.18,4248.9,-3487.86,-11570.22,-28069.29,-13201.92,-10481.22
1764762732.338828,-7784.82,-8367.029999999999,4251.06,-3485.025,-11566.89,-28067.13,-13202.73,-10481.13
1764762732.338828,-7778.565,-8361.675,4253.175,-3480.12,-11560.68,-28060.02,-13192.695,-10474.38
1764762732.338828,-7776.9,-8361.135,4253.355,-3479.76,-11559.6,-28058.985,-13190.4,-10471.815
1764762732.338828,-7781.264999999999,-8364.465,4257.0,-3481.695,-11562.93,-28063.035,-13195.8,-10475.73
1764762732.338828,-7785.179999999999,-8368.65,4254.75,-3483.54,-11565.315,-28067.67,-13201.515,-10480.635
1764762732.338828,-7782.615,-8366.175,4252.68,-3483.225,-11563.29,-28064.97,-13199.625,-10477.755
1764762732.338828,-7787.655,-8373.015,4246.74,-3489.12,-11568.825,-28069.245,-13202.82,-10482.75
1764762732.338828,-7785.99,-8371.08,4251.645,-3484.89,-11566.35,-28067.58,-13200.165,-10480.68
1764762732.3401806,-7780.545,-8365.725,4257.36,-3479.715,-11562.345,-28062.405,-13192.74,-10474.065
1764762732.3401806,-7781.4,-8365.725,4255.56,-3481.83,-11563.785,-28063.035,-13194.045,-10474.335
1764762732.3401806,-7786.665,-8369.505,4252.095,-3485.115,-11567.97,-28067.13,-13199.67,-10481.445
1764762732.3401806,-7782.615,-8365.32,4255.605,-3481.74,-11564.19,-28062.855,-13196.16,-10478.115
1764762732.3401806,-7779.014999999999,-8361.63,4258.845,-3478.32,-11559.42,-28059.3,-13191.795,-10473.21
1764762732.3401806,-7785.54,-8368.515,4252.635,-3484.08,-11565.585,-28065.105,-13197.285,-10478.835
1764762732.3401806,-7783.019999999999,-8366.175,4254.12,-3482.055,-11564.145,-28063.935,-13195.98,-10476.54
1764762732.3401806,-7785.764999999999,-8369.324999999999,4251.105,-3486.285,-11567.52,-28067.31,-13198.77,-10478.88
1764762732.3401806,-7783.83,-8368.965,4252.77,-3483.765,-11564.775,-28064.655,-13196.43,-10476.495
1764762732.3401806,-7785.63,-8370.539999999999,4252.545,-3483.54,-11565.135,-28065.465,-13197.555,-10477.89
1764762732.386506,-7789.905,-8372.385,4249.845,-3488.31,-11570.94,-28070.865,-13203.315,-10482.075
1764762732.386506,-7785.315,-8367.795,4252.95,-3485.745,-11567.43,-28067.985,-13200.03,-10477.71
1764762732.386506,-7790.13,-8372.699999999999,4248.81,-3489.48,-11570.58,-28072.08,-13204.08,-10482.03
1764762732.386506,-7785.405,-8367.75,4255.47,-3482.82,-11564.055,-28066.68,-13198.635,-10478.43
1764762732.386506,-7783.335,-8365.365,4257.945,-3480.75,-11563.065,-28066.275,-13196.205,-10477.755
1764762732.386506,-7785.269999999999,-8367.255,4254.795,-3484.215,-11567.295,-28070.19,-13198.635,-10479.465
1764762732.386506,-7786.215,-8370.0,4250.07,-3488.94,-11571.03,-28074.195,-13206.195,-10481.04
1764762732.386506,-7784.684999999999,-8368.065,4251.69,-3487.905,-11567.835,-28068.66,-13200.885,-10478.43
1764762732.386506,-7779.285,-8361.765,4257.99,-3481.47,-11561.58,-28060.83,-13194.54,-10473.705
1764762732.386506,-7779.24,-8362.529999999999,4255.695,-3483.315,-11562.39,-28062.54,-13195.89,-10473.57
1764762732.386506,-7785.855,-8368.74,4247.955,-3490.605,-11569.455,-28070.055,-13201.56,-10480.095
1764762732.386506,-7783.11,-8366.445,4251.51,-3485.7,-11566.755,-28067.49,-13198.635,-10476.855
1764762732.386506,-7787.655,-8370.765,4249.665,-3487.68,-11568.87,-28069.965,-13201.83,-10480.59
1764762732.386506,-7787.565,-8370.99,4250.295,-3486.42,-11565.585,-28069.065,-13203.18,-10480.275
1764762732.386506,-7782.57,-8367.21,4253.805,-3482.415,-11561.49,-28066.32,-13200.705,-10476.135
1764762732.386506,-7787.295,-8371.08,4250.385,-3487.725,-11568.78,-28073.61,-13207.23,-10481.355
1764762732.386506,-7785.764999999999,-8368.11,4253.58,-3485.88,-11568.825,-28072.53,-13206.915,-10480.455
1764762732.386506,-7782.705,-8367.119999999999,4255.605,-3485.43,-11569.815,-28070.73,-13200.12,-10476.585
1764762732.386506,-7785.09,-8368.83,4253.715,-3486.42,-11569.725,-28069.83,-13198.995,-10478.16
1764762732.386506,-7783.469999999999,-8366.67,4253.445,-3486.33,-11568.195,-28066.815,-13198.635,-10477.665
1764762732.386506,-7779.33,-8364.105,4253.985,-3486.51,-11568.105,-28066.815,-13197.555,-10473.975
1764762732.386506,-7785.495,-8369.91,4249.8,-3492.045,-11572.38,-28073.295,-13203.99,-10480.32
1764762732.4340382,-7787.115,-8371.8,4248.63,-3491.685,-11571.57,-28073.475,-13204.53,-10481.715
1764762732.4340382,-7780.005,-8364.914999999999,4254.435,-3485.61,-11565.045,-28066.32,-13199.445,-10476.0
1764762732.4340382,-7780.95,-8365.77,4255.425,-3484.17,-11565.63,-28066.725,-13199.625,-10475.775
1764762732.4340382,-7785.179999999999,-8368.695,4253.76,-3485.88,-11568.465,-28069.74,-13202.235,-10479.015
1764762732.4340382,-7790.445,-8373.375,4248.495,-3492.315,-11572.515,-28073.07,-13206.33,-10484.28
1764762732.4340382,-7788.105,-8370.494999999999,4250.295,-3491.19,-11570.22,-28070.685,-13204.575,-10482.48
1764762732.4340382,-7783.514999999999,-8367.705,4252.455,-3486.69,-11565.405,-28066.68,-13199.67,-10477.44
1764762732.4340382,-7782.389999999999,-8366.94,4253.985,-3486.555,-11566.755,-28067.85,-13199.715,-10475.415
1764762732.4340382,-7784.28,-8367.615,4253.58,-3487.635,-11569.005,-28070.37,-13201.605,-10476.45
1764762732.4340382,-7787.565,-8370.315,4253.355,-3489.705,-11571.885,-28072.98,-13205.295,-10478.97
1764762732.4340382,-7783.514999999999,-8366.175,4259.385,-3482.325,-11563.38,-28066.77,-13201.515,-10475.325
1764762732.4340382,-7779.509999999999,-8361.404999999999,4263.84,-3477.51,-11558.25,-28062.81,-13198.905,-10472.445
1764762732.4340382,-7779.78,-8363.115,4259.205,-3482.595,-11561.22,-28065.015,-13198.995,-10472.715
1764762732.4340382,-7785.99,-8370.18,4251.69,-3490.065,-11568.87,-28071.27,-13204.845,-10479.24
1764762732.4340382,-7785.315,-8371.529999999999,4249.035,-3490.155,-11569.32,-28071.27,-13206.24,-10479.6
1764762732.4340382,-7778.295,-8366.22,4251.645,-3484.935,-11561.985,-28064.565,-13201.515,-10472.985
1764762732.4340382,-7779.195,-8366.039999999999,4252.32,-3488.445,-11563.2,-28065.33,-13202.505,-10474.11
1764762732.4340382,-7782.57,-8367.885,4254.03,-3491.01,-11566.62,-28068.165,-13204.62,-10476.63
1764762732.4340382,-7778.655,-8366.039999999999,4256.505,-3484.305,-11561.94,-28063.71,-13197.42,-10472.13
1764762732.4340382,-7777.215,-8362.44,4264.02,-3478.005,-11560.005,-28061.82,-13194.855,-10470.105
1764762732.4340382,-7779.915,-8363.699999999999,4261.5,-3478.905,-11558.565,-28063.62,-13197.33,-10472.94
1764762732.4340382,-7781.04,-8366.22,4257.855,-3481.965,-11561.94,-28066.005,-13201.605,-10474.83
1764762732.4799216,-7774.74,-8359.965,4264.785,-3475.665,-11557.17,-28059.795,-13195.53,-10468.575
1764762732.4799216,-7775.775,-8359.289999999999,4265.415,-3476.07,-11557.845,-28060.92,-13195.98,-10469.61
1764762732.4799216,-7779.915,-8363.34,4261.68,-3481.425,-11563.245,-28066.14,-13200.345,-10473.615
1764762732.4799216,-7777.53,-8362.215,4259.34,-3484.305,-11563.38,-28064.34,-13199.13,-10470.105
1764762732.4799216,-7781.804999999999,-8367.66,4251.51,-3492.405,-11570.265,-28070.55,-13203.54,-10474.92
1764762732.4799216,-7780.769999999999,-8366.265,4255.83,-3487.23,-11566.845,-28068.075,-13201.065,-10474.29
1764762732.4799216,-7776.809999999999,-8361.494999999999,4261.86,-3481.155,-11561.805,-28062.405,-13196.655,-10469.88
1764762732.4799216,-7776.269999999999,-8361.9,4259.34,-3483.0,-11563.875,-28065.06,-13198.14,-10469.34
1764762732.4804287,-7779.644999999999,-8366.085,4254.705,-3487.185,-11567.43,-28070.955,-13203.45,-10471.815
1764762732.4804287,-7781.715,-8368.605,4253.355,-3488.805,-11569.095,-28071.855,-13205.205,-10473.255
1764762732.4804287,-7782.705,-8367.84,4254.21,-3487.905,-11568.195,-28070.73,-13205.115,-10474.515
1764762732.4804287,-7787.519999999999,-8370.585,4251.285,-3490.92,-11568.69,-28070.055,-13207.05,-10479.33
1764762732.4804287,-7787.07,-8370.27,4250.835,-3491.415,-11569.86,-28073.34,-13210.065,-10479.555
1764762732.4804287,-7780.59,-8365.77,4255.965,-3486.015,-11565.99,-28073.565,-13210.83,-10472.04
1764762732.4804287,-7782.344999999999,-8366.49,4256.505,-3486.195,-11565.675,-28071.72,-13205.475,-10472.265
1764762732.4804287,-7777.215,-8359.875,4261.455,-3481.47,-11557.71,-28061.73,-13197.24,-10469.79
1764762732.4804287,-7781.58,-8364.15,4256.505,-3486.6,-11561.625,-28064.115,-13199.76,-10476.495
1764762732.4804287,-7778.205,-8360.1,4261.68,-3480.795,-11556.99,-28061.685,-13197.915,-10473.525
1764762732.4804287,-7783.83,-8365.59,4255.605,-3485.79,-11563.02,-28067.58,-13203.855,-10477.845
1764762732.4804287,-7778.745,-8361.36,4257.405,-3486.015,-11563.56,-28064.475,-13200.795,-10471.86
1764762732.4804287,-7772.94,-8357.895,4262.625,-3479.715,-11558.655,-28061.505,-13197.42,-10465.785
1764762732.4804287,-7776.945,-8361.36,4258.17,-3484.17,-11566.035,-28071.855,-13203.675,-10468.755
1764762732.5261064,-7780.679999999999,-8364.42,4253.67,-3490.38,-11572.335,-28079.37,-13208.355,-10473.165
1764762732.5261064,-7781.4,-8364.465,4254.974999999999,-3487.365,-11566.71,-28077.255,-13208.4,-10473.48
1764762732.5261064,-7782.12,-8366.445,4253.67,-3487.14,-11560.815,-28072.98,-13207.5,-10472.985
1764762732.5261064,-7780.545,-8365.14,4252.905,-3488.355,-11560.41,-28074.24,-13212.63,-10473.705
1764762732.5261064,-7785.179999999999,-8369.73,4249.26,-3490.605,-11562.165,-28078.515,-13220.325,-10480.23
1764762732.5261064,-7781.04,-8361.765,4260.555,-3478.725,-11550.33,-28062.495,-13202.415,-10474.38
1764762732.5261064,-7774.155,-8356.095,4265.595,-3475.665,-11551.59,-28057.455,-13195.575,-10464.525
1764762732.5261064,-7774.605,-8358.074999999999,4261.005,-3481.47,-11560.32,-28059.48,-13194.855,-10463.265
1764762732.5261064,-7776.495,-8358.164999999999,4261.905,-3480.705,-11559.555,-28062.045,-13197.105,-10467.045
1764762732.5261064,-7783.38,-8365.86,4253.49,-3489.165,-11568.465,-28069.065,-13202.685,-10474.785
1764762732.5261064,-7786.71,-8369.505,4250.07,-3493.17,-11575.62,-28072.755,-13204.53,-10477.62
1764762732.5261064,-7782.389999999999,-8366.22,4254.389999999999,-3487.815,-11567.43,-28071.81,-13205.655,-10471.275
1764762732.5261064,-7777.17,-8359.47,4261.32,-3480.345,-11557.53,-28057.23,-13194.99,-10467.99
1764762732.5261064,-7780.365,-8360.82,4258.26,-3483.72,-11562.21,-28060.47,-13196.34,-10474.065
1764762732.5261064,-7777.349999999999,-8359.02,4259.97,-3481.47,-11558.16,-28060.47,-13194.315,-10468.89
1764762732.5261064,-7780.365,-8363.52,4256.055,-3484.215,-11561.715,-28065.105,-13199.355,-10471.32
1764762732.5261064,-7776.45,-8359.695,4259.34,-3481.38,-11558.835,-28063.08,-13197.51,-10467.315
1764762732.5261064,-7772.894999999999,-8356.949999999999,4261.59,-3479.175,-11556.495,-28061.505,-13196.34,-10463.355
1764762732.5261064,-7773.389999999999,-8357.805,4260.195,-3481.02,-11557.98,-28063.53,-13198.095,-10463.265
1764762732.5261064,-7779.195,-8362.17,4255.38,-3486.15,-11562.84,-28068.435,-13203.54,-10471.095
1764762732.5261064,-7778.115,-8360.414999999999,4256.46,-3485.745,-11562.93,-28068.12,-13202.595,-10471.68
1764762732.5261064,-7777.575,-8360.235,4256.685,-3484.53,-11562.84,-28068.255,-13202.685,-10470.6
1764762732.5261064,-7773.389999999999,-8356.77,4260.15,-3481.29,-11559.06,-28064.97,-13198.545,-10465.605
1764762732.5261064,-7775.37,-8358.029999999999,4260.33,-3481.47,-11558.88,-28065.96,-13199.985,-10467.405
1764762732.5729992,-7781.355,-8363.115,4255.83,-3486.24,-11564.19,-28071.765,-13206.195,-10472.715
1764762732.5729992,-7781.94,-8364.465,4254.705,-3486.87,-11565.315,-28072.98,-13207.545,-10472.535
1764762732.5729992,-7783.514999999999,-8365.77,4254.93,-3485.835,-11563.695,-28071.54,-13207.14,-10472.805
1764762732.5729992,-7781.715,-8363.565,4257.63,-3483.81,-11560.68,-28068.66,-13204.62,-10471.14
1764762732.5729992,-7775.505,-8358.3,4262.58,-3480.255,-11556.765,-28064.61,-13199.895,-10467.135
1764762732.5729992,-7776.045,-8358.795,4260.42,-3483.045,-11559.33,-28065.96,-13200.975,-10469.43
1764762732.5729992,-7780.049999999999,-8363.205,4255.245,-3488.94,-11564.28,-28070.91,-13204.89,-10472.58
1764762732.5729992,-7775.054999999999,-8357.985,4259.88,-3484.305,-11560.05,-28066.815,-13201.02,-10466.775
1764762732.5729992,-7774.875,-8359.425,4258.575,-3485.7,-11561.715,-28068.03,-13203.045,-10465.875
1764762732.5729992,-7781.49,-8366.49,4252.23,-3490.515,-11565.9,-28072.845,-13209.525,-10472.67
1764762732.5729992,-7784.325,-8366.265,4254.389999999999,-3487.815,-11565.18,-28073.79,-13209.48,-10474.695
1764762732.5729992,-7781.804999999999,-8361.36,4260.465,-3483.18,-11560.95,-28069.47,-13204.89,-10470.645
1764762732.5729992,-7786.98,-8367.345,4254.075,-3489.84,-11567.34,-28075.815,-13210.695,-10476.09
1764762732.5729992,-7784.865,-8365.455,4254.48,-3488.805,-11565.45,-28072.98,-13210.155,-10474.155
1764762732.5729992,-7781.264999999999,-8361.765,4258.8,-3484.395,-11559.69,-28066.005,-13205.43,-10470.465
1764762732.5729992,-7787.969999999999,-8369.279999999999,4252.455,-3490.605,-11566.305,-28073.34,-13212.045,-10475.37
1764762732.5729992,-7789.59,-8370.675,4252.185,-3491.37,-11567.205,-28075.32,-13212.495,-10476.225
1764762732.5729992,-7783.245,-8363.295,4260.195,-3483.855,-11561.76,-28068.705,-13205.97,-10472.355
1764762732.5729992,-7786.08,-8365.05,4256.46,-3487.635,-11566.035,-28071.63,-13207.32,-10475.865
1764762732.5729992,-7785.179999999999,-8366.715,4254.795,-3488.715,-11566.215,-28072.305,-13208.13,-10472.445
1764762732.5729992,-7784.91,-8367.795,4253.4,-3490.875,-11569.905,-28075.455,-13209.795,-10472.4
1764762732.5729992,-7785.495,-8367.57,4252.455,-3492.855,-11573.415,-28078.245,-13212.045,-10474.47
1764762732.5729992,-7778.79,-8359.56,4260.06,-3484.305,-11563.29,-28068.435,-13204.8,-10469.88
1764762732.574003,-7776.855,-8358.029999999999,4261.59,-3481.875,-11558.655,-28062.585,-13200.975,-10466.595
1764762732.574003,-7779.195,-8361.63,4258.53,-3484.53,-11562.39,-28066.725,-13203.315,-10468.305
1764762732.574003,-7784.639999999999,-8366.22,4255.02,-3488.67,-11565.945,-28072.44,-13207.95,-10474.155
1764762732.6205325,-7783.514999999999,-8364.33,4256.46,-3486.555,-11564.595,-28072.215,-13208.265,-10473.345
1764762732.6205325,-7779.509999999999,-8359.92,4260.014999999999,-3483.675,-11561.22,-28068.255,-13205.16,-10470.33
1764762732.6205325,-7777.665,-8359.02,4261.95,-3481.425,-11560.32,-28066.59,-13202.1,-10468.395
1764762732.6205325,-7773.12,-8355.914999999999,4266.09,-3478.23,-11556.72,-28062.63,-13198.23,-10463.76
1764762732.6205325,-7777.755,-8359.875,4262.355,-3482.595,-11560.365,-28067.4,-13202.37,-10467.72
1764762732.6205325,-7773.929999999999,-8356.77,4262.985,-3482.19,-11557.98,-28064.115,-13199.895,-10464.12
1764762732.6205325,-7773.344999999999,-8356.365,4261.32,-3483.855,-11558.655,-28065.51,-13200.39,-10463.67
1764762732.6205325,-7772.49,-8355.645,4263.705,-3480.39,-11558.07,-28064.52,-13200.57,-10462.545
1764762732.6205325,-7774.605,-8357.265,4263.84,-3480.66,-11558.79,-28066.23,-13201.74,-10463.805
1764762732.6205325,-7780.769999999999,-8362.44,4259.61,-3484.665,-11562.615,-28070.64,-13207.365,-10470.375
1764762732.6205325,-7780.679999999999,-8361.494999999999,4260.195,-3485.43,-11562.705,-28071.495,-13206.285,-10472.04
1764762732.6205325,-7778.519999999999,-8360.46,4259.16,-3487.455,-11561.985,-28069.02,-13204.485,-10468.35
1764762732.6205325,-7772.985,-8355.914999999999,4262.849999999999,-3483.045,-11557.395,-28064.115,-13198.86,-10463.265
1764762732.6205325,-7772.445,-8356.095,4263.615,-3482.82,-11557.215,-28064.34,-13199.22,-10463.58
1764762732.6205325,-7776.99,-8361.765,4258.395,-3487.68,-11561.445,-28068.435,-13203.945,-10467.315
1764762732.6205325,-7772.355,-8356.86,4262.805,-3482.91,-11557.53,-28064.925,-13201.2,-10461.735
1764762732.6205325,-7776.179999999999,-8360.279999999999,4259.61,-3485.745,-11560.815,-28067.94,-13205.205,-10465.875
1764762732.6205325,-7774.92,-8357.67,4263.255,-3481.65,-11557.665,-28064.25,-13202.28,-10466.415
1764762732.6205325,-7769.025,-8350.92,4270.545,-3475.125,-11551.635,-28058.58,-13195.305,-10460.7
1764762732.6205325,-7774.965,-8358.164999999999,4262.985,-3482.1,-11558.655,-28065.87,-13201.02,-10465.38
1764762732.6205325,-7771.365,-8355.735,4264.245,-3480.3,-11556.99,-28063.89,-13198.32,-10460.925
1764762732.6205325,-7771.769999999999,-8356.14,4263.615,-3481.695,-11558.565,-28064.835,-13200.39,-10461.555
1764762732.667999,-7776.9,-8361.18,4260.195,-3485.565,-11564.64,-28071.135,-13206.78,-10467.72
1764762732.667999,-7776.719999999999,-8361.18,4260.195,-3485.295,-11562.48,-28069.965,-13206.015,-10467.18
1764762732.667999,-7772.219999999999,-8356.5,4262.085,-3481.965,-11555.865,-28064.385,-13200.75,-10462.23
1764762732.667999,-7771.139999999999,-8354.654999999999,4263.21,-3481.605,-11555.955,-28063.845,-13201.155,-10462.14
1764762732.667999,-7772.355,-8354.97,4266.495,-3484.395,-11560.725,-28068.255,-13205.745,-10464.03
1764762732.667999,-7774.019999999999,-8357.355,4267.71,-3482.415,-11561.175,-28068.615,-13206.24,-10465.965
1764762732.667999,-7776.45,-8360.955,4262.085,-3485.79,-11561.94,-28068.705,-13206.33,-10467.765
1764762732.667999,-7781.445,-8365.68,4256.235,-3491.325,-11566.395,-28073.52,-13212.405,-10471.86
1764762732.667999,-7779.014999999999,-8362.755,4258.889999999999,-3489.39,-11563.92,-28072.44,-13209.12,-10469.295
1764762732.667999,-7772.94,-8356.994999999999,4266.585,-3482.1,-11556.54,-28065.69,-13202.73,-10462.725
1764762732.667999,-7776.764999999999,-8360.685,4263.84,-3482.37,-11557.26,-28068.255,-13208.58,-10467.315
1764762732.667999,-7778.295,-8362.125,4261.41,-3482.73,-11557.035,-28067.22,-13204.485,-10468.08
1764762732.667999,-7776.405,-8358.705,4261.095,-3484.26,-11555.505,-28065.33,-13204.17,-10466.595
1764762732.668517,-7773.615,-8354.97,4263.705,-3482.145,-11552.85,-28061.55,-13201.65,-10463.85
1764762732.668517,-7778.205,-8360.73,4263.12,-3485.745,-11559.15,-28066.86,-13206.015,-10467.81
1764762732.668517,-7773.12,-8357.355,4269.42,-3479.76,-11554.605,-28062.72,-13202.865,-10464.12
1764762732.668517,-7773.21,-8358.119999999999,4267.485,-3478.905,-11554.515,-28062.99,-13203.99,-10464.21
1764762732.668517,-7777.08,-8361.315,4263.48,-3483.54,-11560.05,-28068.525,-13208.85,-10468.44
1764762732.668517,-7776.945,-8361.765,4261.005,-3486.555,-11561.58,-28068.21,-13208.13,-10468.08
1764762732.668517,-7777.349999999999,-8362.845,4260.195,-3487.95,-11563.605,-28070.19,-13208.265,-10467.945
1764762732.668517,-7779.87,-8364.735,4258.08,-3490.695,-11567.34,-28074.555,-13210.83,-10469.97
1764762732.668517,-7783.335,-8368.11,4255.245,-3493.71,-11570.22,-28078.065,-13214.16,-10473.345
1764762732.668517,-7777.665,-8362.215,4261.86,-3487.095,-11563.38,-28071.765,-13209.66,-10468.935
1764762732.668517,-7781.264999999999,-8365.5,4258.665,-3489.615,-11565.315,-28072.755,-13212.495,-10471.545
1764762732.668517,-7784.009999999999,-8366.13,4258.845,-3489.615,-11566.08,-28073.745,-13213.665,-10472.805
1764762732.668517,-7780.545,-8362.17,4262.13,-3486.735,-11563.155,-28070.415,-13210.29,-10469.79
1764762732.7150784,-7773.255,-8356.68,4264.785,-3484.35,-11558.745,-28064.565,-13204.53,-10462.365
1764762732.7150784,-7774.695,-8359.199999999999,4262.715,-3485.205,-11559.195,-28067.13,-13206.42,-10464.93
1764762732.7150784,-7779.014999999999,-8364.465,4255.695,-3488.49,-11562.525,-28070.46,-13209.66,-10468.53
1764762732.7150784,-7774.695,-8358.705,4261.32,-3485.34,-11559.42,-28066.995,-13206.87,-10464.705
1764762732.7150784,-7775.82,-8359.965,4265.91,-3486.375,-11563.245,-28071.27,-13210.2,-10465.245
1764762732.7150784,-7780.815,-8364.824999999999,4262.535,-3488.49,-11566.845,-28074.87,-13214.43,-10469.025
1764762732.7150784,-7781.94,-8364.96,4260.96,-3488.265,-11565.36,-28072.845,-13213.395,-10469.115
1764762732.7150784,-7780.139999999999,-8364.51,4260.78,-3486.915,-11564.685,-28072.62,-13213.305,-10468.62
1764762732.7150784,-7779.644999999999,-8364.465,4260.375,-3488.895,-11565.18,-28073.25,-13213.08,-10467.63
1764762732.7150784,-7774.605,-8357.355,4266.855,-3482.64,-11558.97,-28066.815,-13206.6,-10461.915
1764762732.7150784,-7775.37,-8357.039999999999,4266.72,-3483.45,-11559.195,-28066.545,-13207.455,-10463.355
1764762732.7150784,-7780.455,-8363.475,4258.935,-3491.865,-11566.755,-28072.89,-13213.035,-10469.565
1764762732.7150784,-7780.545,-8363.07,4258.53,-3491.865,-11567.52,-28074.06,-13214.115,-10471.455
1764762732.7150784,-7780.275,-8361.494999999999,4260.87,-3489.03,-11565.09,-28071.99,-13213.305,-10472.67
1764762732.7150784,-7781.219999999999,-8362.35,4261.95,-3487.41,-11563.11,-28070.19,-13212.81,-10472.04
1764762732.7150784,-7774.469999999999,-8356.005,4268.88,-3480.21,-11556.135,-28064.295,-13207.77,-10463.985
1764762732.7150784,-7775.91,-8357.535,4265.73,-3483.855,-11560.455,-28067.805,-13209.84,-10464.84
1764762732.7150784,-7779.599999999999,-8361.99,4260.96,-3488.355,-11564.145,-28070.73,-13212.45,-10469.655
1764762732.7150784,-7775.865,-8358.029999999999,4265.955,-3483.18,-11559.645,-28066.545,-13207.59,-10466.37
1764762732.7150784,-7777.889999999999,-8359.065,4265.639999999999,-3483.63,-11561.175,-28068.705,-13210.065,-10467.99
1764762732.7150784,-7772.985,-8353.485,4270.905,-3478.275,-11556.855,-28064.745,-13205.61,-10463.94
1764762732.7150784,-7772.94,-8354.025,4269.33,-3480.075,-11557.17,-28064.43,-13205.7,-10463.985
1764762732.7585466,-7775.235,-8357.49,4264.2,-3484.305,-11558.115,-28065.645,-13207.77,-10465.515
1764762732.7585466,-7780.995,-8364.42,4256.91,-3490.38,-11564.955,-28071.27,-13215.645,-10470.375
1764762732.7585466,-7782.344999999999,-8363.07,4260.51,-3490.02,-11568.195,-28074.555,-13219.605,-10472.085
1764762732.7585466,-7782.75,-8362.44,4260.96,-3488.355,-11564.955,-28072.215,-13218.615,-10471.5
1764762732.7585466,-7783.605,-8363.34,4260.87,-3487.5,-11564.145,-28071.495,-13218.12,-10472.58
1764762732.7585466,-7776.63,-8357.445,4267.935,-3479.58,-11556.09,-28063.98,-13207.905,-10464.84
1764762732.7585466,-7774.74,-8358.029999999999,4268.34,-3478.095,-11554.02,-28060.83,-13200.615,-10460.745
1764762732.7585466,-7775.28,-8357.22,4268.43,-3478.59,-11555.685,-28062.54,-13202.64,-10461.78
1764762732.7585466,-7773.12,-8353.35,4269.285,-3479.265,-11556.675,-28063.395,-13203.99,-10461.375
1764762732.7585466,-7775.82,-8356.23,4266.63,-3481.74,-11558.97,-28066.545,-13206.915,-10462.815
1764762732.7585466,-7782.075,-8362.395,4261.185,-3487.59,-11564.28,-28071.72,-13213.08,-10470.105
1764762732.7585466,-7781.715,-8363.295,4261.41,-3487.5,-11564.01,-28071.585,-13212.765,-10470.195
1764762732.7585466,-7779.915,-8360.73,4263.48,-3485.115,-11562.435,-28070.46,-13212.135,-10467.945
1764762732.7585466,-7778.34,-8358.074999999999,4265.055,-3484.44,-11561.13,-28068.93,-13211.415,-10465.92
1764762732.7585466,-7778.025,-8357.13,4264.38,-3484.665,-11560.5,-28068.12,-13211.64,-10466.415
1764762732.7585466,-7775.594999999999,-8354.97,4265.37,-3482.775,-11557.035,-28064.88,-13208.85,-10463.13
1764762732.7585466,-7780.184999999999,-8361.09,4260.87,-3487.23,-11561.715,-28069.065,-13213.485,-10467.45
1764762732.7585466,-7776.63,-8358.164999999999,4263.705,-3483.63,-11557.665,-28065.24,-13209.345,-10464.75
1764762732.7585466,-7778.07,-8358.75,4263.345,-3483.54,-11559.645,-28066.905,-13210.335,-10467.54
1764762732.7585466,-7779.644999999999,-8360.145,4261.95,-3485.43,-11563.74,-28069.38,-13212.18,-10470.015
1764762732.7585466,-7780.815,-8361.539999999999,4259.16,-3490.38,-11569.725,-28072.89,-13214.88,-10471.32
1764762732.7585466,-7783.29,-8363.565,4258.755,-3490.605,-11569.5,-28074.51,-13217.22,-10473.75
1764762732.7585466,-7776.9,-8356.41,4266.72,-3482.415,-11560.905,-28068.255,-13211.055,-10465.92
1764762732.7585466,-7776.99,-8357.76,4266.045,-3482.73,-11560.41,-28068.165,-13212.63,-10465.695
1764762732.8048117,-7779.195,-8360.865,4263.255,-3483.99,-11562.12,-28069.11,-13211.775,-10468.485
1764762732.8048117,-7783.92,-8365.005,4257.495,-3489.39,-11567.25,-28074.87,-13217.4,-10473.255
1764762732.8048117,-7783.695,-8364.15,4255.245,-3491.865,-11568.78,-28076.715,-13218.93,-10473.435
1764762732.8048117,-7779.014999999999,-8361.315,4260.51,-3487.95,-11565.18,-28072.755,-13215.195,-10469.205
1764762732.8048117,-7772.894999999999,-8356.05,4266.675,-3482.325,-11559.51,-28066.995,-13210.155,-10463.04
1764762732.8048117,-7778.519999999999,-8362.574999999999,4258.395,-3489.345,-11564.37,-28072.62,-13215.555,-10468.98
1764762732.8048117,-7776.045,-8360.369999999999,4259.34,-3489.39,-11563.83,-28070.01,-13211.775,-10466.64
1764762732.8048117,-7776.09,-8359.515,4261.995,-3488.49,-11565.63,-28070.685,-13211.91,-10467.495
1764762732.8058715,-7777.304999999999,-8359.38,4263.57,-3486.69,-11565.45,-28072.89,-13213.89,-10468.08
1764762732.8058715,-7779.87,-8360.865,4261.23,-3488.58,-11565.72,-28072.17,-13215.375,-10469.43
1764762732.8058715,-7775.37,-8357.22,4264.83,-3483.855,-11560.32,-28066.005,-13210.245,-10465.245
1764762732.8058715,-7776.09,-8356.59,4265.505,-3483.54,-11560.86,-28067.265,-13211.415,-10466.595
1764762732.8058715,-7783.065,-8363.43,4256.28,-3491.865,-11567.655,-28074.78,-13218.57,-10473.345
1764762732.8058715,-7781.04,-8362.215,4255.155,-3490.92,-11565.0,-28072.53,-13218.075,-10471.23
1764762732.8058715,-7776.54,-8357.85,4259.835,-3486.42,-11560.995,-28069.245,-13215.69,-10466.775
1764762732.8058715,-7778.565,-8358.57,4264.11,-3487.455,-11564.73,-28073.475,-13218.255,-10469.97
1764762732.8058715,-7781.894999999999,-8362.574999999999,4260.78,-3488.94,-11566.575,-28076.265,-13218.93,-10472.535
1764762732.8058715,-7777.799999999999,-8360.01,4261.41,-3487.185,-11563.245,-28072.17,-13213.62,-10467.99
1764762732.8058715,-7779.285,-8361.945,4258.935,-3489.345,-11564.82,-28073.385,-13213.44,-10468.845
1764762732.8058715,-7774.11,-8355.735,4265.28,-3484.26,-11561.265,-28071.315,-13210.65,-10464.615
1764762732.8058715,-7777.035,-8358.48,4261.815,-3489.165,-11568.195,-28077.93,-13214.79,-10467.675
1764762732.8058715,-7778.025,-8359.605,4260.15,-3490.02,-11569.23,-28080.045,-13217.94,-10468.305
1764762732.8534284,-7777.844999999999,-8359.92,4258.889999999999,-3491.505,-11570.805,-28082.385,-13219.875,-10468.89
1764762732.8534284,-7776.045,-8358.93,4259.16,-3490.83,-11566.35,-28076.895,-13216.59,-10467.315
1764762732.8534284,-7771.905,-8354.16,4264.425,-3484.395,-11558.43,-28066.59,-13209.3,-10462.68
1764762732.8534284,-7775.325,-8357.039999999999,4262.445,-3486.465,-11561.445,-28069.11,-13208.58,-10464.57
1764762732.8534284,-7771.455,-8354.835,4265.685,-3483.81,-11555.46,-28060.74,-13203.45,-10461.285
1764762732.8534284,-7770.644999999999,-8353.44,4267.26,-3483.315,-11555.64,-28061.865,-13205.79,-10462.05
1764762732.8534284,-7774.695,-8356.815,4264.695,-3486.69,-11561.22,-28069.92,-13210.92,-10465.47
1764762732.8534284,-7769.34,-8351.73,4269.78,-3480.525,-11556.54,-28066.14,-13206.285,-10459.35
1764762732.8534284,-7768.349999999999,-8349.705,4270.905,-3478.185,-11554.92,-28064.97,-13205.835,-10458.9
1764762732.8534284,-7767.99,-8349.119999999999,4271.76,-3478.095,-11555.19,-28065.33,-13206.33,-10459.215
1764762732.8534284,-7768.304999999999,-8347.86,4271.13,-3481.245,-11556.855,-28066.365,-13206.915,-10459.215
1764762732.8534284,-7770.195,-8348.985,4269.555,-3483.945,-11558.34,-28067.715,-13208.58,-10460.745
1764762732.8534284,-7767.719999999999,-8348.67,4271.175,-3479.445,-11555.775,-28065.42,-13205.88,-10457.415
1764762732.8534284,-7772.625,-8354.925,4266.72,-3484.53,-11562.255,-28071.99,-13212.63,-10463.085
1764762732.8534284,-7773.48,-8357.805,4262.355,-3487.545,-11560.95,-28071.045,-13211.91,-10462.365
1764762732.8534284,-7773.165,-8356.68,4263.57,-3487.095,-11560.05,-28069.74,-13211.37,-10461.645
1764762732.8534284,-7772.355,-8353.845,4267.485,-3485.34,-11558.115,-28068.66,-13210.335,-10461.105
1764762732.8534284,-7772.58,-8352.765,4269.87,-3482.28,-11555.82,-28067.22,-13209.075,-10461.285
1764762732.8534284,-7774.019999999999,-8354.475,4267.71,-3483.27,-11557.035,-28067.13,-13209.48,-10462.68
1764762732.8534284,-7772.58,-8353.8,4265.145,-3486.285,-11559.195,-28067.535,-13208.175,-10461.69
1764762732.8534284,-7768.304999999999,-8349.93,4268.97,-3483.045,-11557.98,-28064.295,-13203.54,-10458.315
1764762732.8534284,-7768.575,-8350.515,4269.285,-3482.595,-11557.26,-28062.63,-13203.09,-10458.54
1764762732.8534284,-7766.82,-8348.13,4272.255,-3480.525,-11555.955,-28062.72,-13207.77,-10456.605
1764762732.8534284,-7767.36,-8348.445,4271.76,-3482.775,-11558.745,-28067.175,-13212.72,-10456.785
1764762732.900278,-7772.715,-8354.295,4266.09,-3487.995,-11563.38,-28072.575,-13215.375,-10462.005
1764762732.900278,-7771.769999999999,-8353.574999999999,4266.81,-3486.6,-11561.85,-28072.125,-13215.465,-10461.78
1764762732.900278,-7770.285,-8351.73,4268.474999999999,-3485.07,-11560.86,-28071.27,-13213.935,-10461.555
1764762732.900278,-7765.424999999999,-8348.715,4271.22,-3482.415,-11557.215,-28066.635,-13208.22,-10456.74
1764762732.900278,-7766.684999999999,-8352.045,4266.36,-3484.62,-11558.205,-28067.22,-13207.905,-10457.235
1764762732.900278,-7765.11,-8349.074999999999,4267.395,-3481.425,-11554.695,-28063.305,-13205.61,-10454.805
1764762732.900278,-7770.465,-8353.71,4265.01,-3485.025,-11557.71,-28066.635,-13210.2,-10459.89
1764762732.900278,-7769.34,-8351.82,4267.98,-3483.27,-11555.145,-28065.375,-13210.92,-10459.44
1764762732.900278,-7765.514999999999,-8347.59,4270.635,-3479.445,-11551.275,-28061.955,-13207.05,-10456.515
1764762732.900278,-7769.655,-8351.055,4271.31,-3484.44,-11559.825,-28068.705,-13214.295,-10460.925
1764762732.900278,-7776.405,-8358.029999999999,4267.53,-3489.03,-11566.44,-28076.04,-13220.64,-10467.54
1764762732.900278,-7775.099999999999,-8357.175,4265.73,-3489.39,-11565.585,-28074.15,-13217.445,-10465.74
1764762732.900278,-7765.605,-8348.94,4272.48,-3481.38,-11556.855,-28064.7,-13208.895,-10456.74
1764762732.900278,-7763.355,-8347.005,4273.875,-3480.165,-11555.775,-28063.17,-13202.955,-10453.545
1764762732.900278,-7765.605,-8349.975,4270.5,-3483.18,-11557.575,-28065.33,-13204.44,-10454.805
1764762732.900278,-7771.275,-8355.555,4263.795,-3489.165,-11562.93,-28070.955,-13213.71,-10461.24
1764762732.900278,-7769.34,-8353.935,4265.325,-3486.825,-11560.725,-28068.075,-13213.53,-10459.26
1764762732.900278,-7762.41,-8347.545,4272.345,-3480.03,-11553.435,-28060.92,-13207.455,-10453.32
1764762732.900278,-7760.745,-8346.195,4273.83,-3479.445,-11553.03,-28060.83,-13205.295,-10451.205
1764762732.900278,-7764.615,-8348.4,4272.075,-3480.525,-11554.965,-28063.89,-13208.895,-10455.615
1764762732.9475927,-7769.655,-8350.695,4269.78,-3482.595,-11557.125,-28065.69,-13211.64,-10462.32
1764762732.9475927,-7767.809999999999,-8350.38,4269.285,-3484.665,-11558.07,-28064.07,-13210.65,-10458.99
1764762732.9475927,-7763.355,-8346.96,4272.03,-3482.865,-11555.91,-28061.595,-13206.51,-10453.68
1764762732.9475927,-7763.355,-8346.51,4275.09,-3478.995,-11554.695,-28061.91,-13207.095,-10453.545
1764762732.9475927,-7764.615,-8348.085,4273.38,-3480.39,-11555.415,-28064.16,-13209.255,-10455.03
1764762732.9475927,-7768.215,-8353.215,4267.71,-3485.295,-11558.475,-28067.355,-13212.99,-10458.99
1764762732.9475927,-7764.12,-8348.94,4271.31,-3480.615,-11553.975,-28061.91,-13208.13,-10455.03
1764762732.9475927,-7761.735,-8346.015,4274.505,-3477.825,-11550.465,-28058.175,-13205.79,-10453.5
1764762732.9475927,-7761.554999999999,-8345.205,4274.01,-3478.725,-11551.545,-28060.02,-13205.025,-10453.05
1764762732.9475927,-7764.705,-8348.76,4270.68,-3482.64,-11555.73,-28063.215,-13207.5,-10454.535
1764762732.9475927,-7765.92,-8350.244999999999,4268.474999999999,-3484.215,-11556.63,-28063.44,-13207.815,-10454.58
1764762732.9475927,-7767.09,-8350.56,4267.575,-3485.34,-11558.97,-28067.535,-13211.73,-10456.65
1764762732.9475927,-7761.375,-8344.755,4274.01,-3480.03,-11553.75,-28062.18,-13206.195,-10452.105
1764762732.9475927,-7762.724999999999,-8344.574999999999,4273.245,-3480.165,-11554.47,-28064.115,-13207.635,-10453.59
1764762732.9475927,-7765.424999999999,-8345.654999999999,4271.085,-3483.72,-11557.755,-28069.245,-13213.305,-10457.505
1764762732.9475927,-7763.13,-8344.619999999999,4271.76,-3481.83,-11553.12,-28065.105,-13212.315,-10454.67
1764762732.9475927,-7768.17,-8351.1,4265.235,-3486.465,-11556.81,-28068.12,-13214.025,-10458.09
1764762732.9475927,-7761.014999999999,-8343.855,4274.37,-3479.13,-11550.735,-28061.865,-13207.68,-10451.52
1764762732.9475927,-7755.255,-8338.68,4280.13,-3472.83,-11543.22,-28053.18,-13197.105,-10443.78
1764762732.9475927,-7757.639999999999,-8340.255,4278.105,-3474.945,-11545.155,-28054.755,-13197.015,-10444.635
1764762732.9475927,-7760.745,-8342.414999999999,4275.63,-3477.6,-11548.89,-28059.165,-13201.515,-10448.055
1764762732.9475927,-7766.325,-8347.994999999999,4270.275,-3484.395,-11556.27,-28066.005,-13207.545,-10453.77
1764762732.9475927,-7765.245,-8346.914999999999,4271.535,-3482.955,-11556.315,-28065.555,-13207.77,-10453.77
1764762732.9475927,-7760.565,-8341.965,4277.7,-3476.34,-11551.005,-28060.785,-13203.54,-10449.36
1764762732.9958022,-7762.23,-8342.82,4278.555,-3475.485,-11551.545,-28062.18,-13204.17,-10450.125
1764762732.9958022,-7764.21,-8345.925,4272.885,-3481.38,-11555.415,-28064.925,-13206.6,-10453.365
1764762732.9958022,-7769.384999999999,-8351.865,4263.3,-3489.84,-11561.805,-28070.19,-13212.27,-10459.26
1764762732.9958022,-7769.16,-8351.505,4264.83,-3487.59,-11560.59,-28067.715,-13210.425,-10458.225
1764762732.9958022,-7763.759999999999,-8345.699999999999,4269.285,-3484.845,-11556.855,-28064.34,-13206.78,-10453.815
1764762732.9958022,-7768.755,-8350.11,4266.855,-3487.905,-11560.59,-28068.705,-13211.955,-10458.315
1764762732.9958022,-7767.495,-8347.904999999999,4269.195,-3487.05,-11559.87,-28068.615,-13210.2,-10457.19
1764762732.9958022,-7761.599999999999,-8342.505,4273.965,-3481.74,-11554.29,-28065.15,-13212.18,-10452.42
1764762732.9958022,-7757.91,-8339.895,4275.224999999999,-3479.58,-11552.13,-28061.505,-13207.14,-10448.73
1764762732.9958022,-7760.115,-8343.135,4271.58,-3482.73,-11555.235,-28063.845,-13207.455,-10449.81
1764762732.9958022,-7761.644999999999,-8345.07,4269.78,-3484.035,-11556.27,-28064.79,-13208.715,-10451.52
1764762732.9958022,-7761.915,-8344.664999999999,4269.735,-3483.18,-11555.73,-28064.295,-13209.615,-10451.97
1764762732.9958022,-7763.4,-8345.925,4270.68,-3482.19,-11554.425,-28062.495,-13210.515,-10452.33
1764762732.9958022,-7763.174999999999,-8344.485,4273.335,-3480.525,-11552.22,-28061.325,-13210.02,-10452.15
1764762732.9958022,-7762.005,-8344.305,4271.355,-3480.12,-11551.455,-28061.415,-13210.965,-10451.61
1764762732.9958022,-7766.19,-8348.76,4267.26,-3485.88,-11557.665,-28067.355,-13216.815,-10456.965
1764762732.9958022,-7769.519999999999,-8349.84,4271.31,-3486.69,-11561.13,-28070.91,-13218.255,-10459.395
1764762732.9958022,-7771.634999999999,-8352.27,4268.16,-3487.32,-11562.84,-28073.34,-13218.21,-10460.97
1764762732.9958022,-7768.844999999999,-8349.795,4269.735,-3484.44,-11559.87,-28071.0,-13215.105,-10457.73
1764762732.9958022,-7762.905,-8342.73,4274.685,-3478.23,-11552.895,-28064.205,-13210.245,-10452.33
1764762732.9958022,-7764.57,-8345.34,4269.375,-3483.81,-11555.955,-28065.285,-13208.67,-10452.015
1764762732.9958022,-7765.785,-8346.779999999999,4270.545,-3484.305,-11557.62,-28067.445,-13208.805,-10452.42
1764762732.9958022,-7769.295,-8348.4,4269.87,-3485.88,-11560.185,-28069.47,-13212.405,-10456.56
1764762732.9958022,-7765.424999999999,-8346.914999999999,4270.905,-3482.19,-11556.81,-28063.17,-13207.905,-10451.655
1764762733.0396044,-7765.695,-8350.11,4267.755,-3484.17,-11557.53,-28065.24,-13209.075,-10451.115
1764762733.0396044,-7770.375,-8354.07,4265.01,-3486.69,-11562.12,-28071.855,-13215.69,-10456.425
1764762733.0396044,-7770.42,-8350.47,4269.195,-3484.17,-11560.23,-28070.82,-13213.395,-10457.28
1764762733.0401156,-7768.665,-8345.88,4271.085,-3484.845,-11560.77,-28069.155,-13212.09,-10456.875
1764762733.0401156,-7766.955,-8344.8,4269.69,-3485.385,-11558.925,-28068.12,-13211.865,-10454.715
1764762733.0401156,-7771.724999999999,-8351.595,4263.255,-3490.92,-11563.065,-28072.08,-13217.805,-10459.395
1764762733.0401156,-7772.804999999999,-8354.16,4261.95,-3491.64,-11563.47,-28073.07,-13217.805,-10459.665
1764762733.0401156,-7771.59,-8353.215,4263.66,-3489.525,-11562.12,-28071.63,-13216.095,-10458.54
1764762733.0401156,-7770.465,-8351.279999999999,4265.595,-3487.365,-11560.005,-28070.1,-13217.31,-10458.45
1764762733.0401156,-7765.335,-8345.16,4271.535,-3481.74,-11553.525,-28063.62,-13214.52,-10453.905
1764762733.0401156,-7767.495,-8347.994999999999,4267.98,-3485.52,-11556.405,-28066.455,-13214.07,-10455.84
1764762733.0401156,-7771.32,-8351.865,4264.155,-3489.615,-11560.68,-28070.865,-13216.815,-10459.53
1764762733.0401156,-7764.299999999999,-8344.619999999999,4271.264999999999,-3483.315,-11555.37,-28065.645,-13211.73,-10451.205
1764762733.0401156,-7765.155,-8345.205,4270.545,-3483.81,-11557.89,-28066.185,-13211.1,-10452.24
1764762733.0401156,-7769.115,-8348.715,4267.845,-3487.68,-11562.12,-28071.09,-13215.195,-10456.83
1764762733.0401156,-7763.49,-8343.855,4273.155,-3481.965,-11557.305,-28067.805,-13211.505,-10451.52
1764762733.0401156,-7763.355,-8344.574999999999,4270.455,-3483.945,-11556.36,-28066.815,-13211.64,-10450.395
1764762733.0401156,-7764.57,-8344.98,4269.014999999999,-3486.105,-11555.865,-28066.32,-13213.89,-10452.195
1764762733.0401156,-7770.42,-8351.01,4261.724999999999,-3491.865,-11560.905,-28071.09,-13218.84,-10457.685
1764762733.0401156,-7769.205,-8350.38,4262.94,-3489.12,-11559.6,-28068.975,-13217.13,-10455.615
1764762733.0401156,-7763.67,-8345.34,4270.185,-3480.39,-11554.74,-28063.305,-13211.865,-10450.8
1764762733.0401156,-7769.429999999999,-8349.39,4268.925,-3484.44,-11561.895,-28070.595,-13216.455,-10456.65
1764762733.0401156,-7765.38,-8343.765,4273.47,-3482.01,-11555.595,-28065.24,-13212.315,-10451.925
1764762733.0401156,-7765.38,-8344.26,4271.805,-3484.215,-11554.785,-28066.23,-13213.71,-10453.77
1764762733.08631,-7768.394999999999,-8347.005,4268.205,-3485.61,-11557.08,-28068.885,-13217.085,-10456.74
1764762733.08631,-7763.67,-8341.965,4272.795,-3480.525,-11552.67,-28064.79,-13213.08,-10451.115
1764762733.08631,-7764.795,-8344.755,4270.815,-3481.965,-11554.605,-28066.95,-13215.06,-10453.365
1764762733.08631,-7771.139999999999,-8351.64,4263.84,-3488.175,-11561.445,-28073.07,-13221.27,-10459.8
1764762733.08631,-7770.735,-8349.119999999999,4265.145,-3487.86,-11561.58,-28072.08,-13220.55,-10460.7
1764762733.08631,-7760.295,-8338.5,4273.92,-3480.615,-11553.48,-28063.395,-13210.74,-10450.665
1764762733.08631,-7760.429999999999,-8340.119999999999,4273.335,-3479.985,-11552.58,-28061.19,-13207.545,-10448.055
1764762733.08631,-7768.08,-8347.949999999999,4264.514999999999,-3487.365,-11558.115,-28067.805,-13212.765,-10453.815
1764762733.08631,-7769.655,-8348.49,4260.465,-3490.02,-11559.96,-28071.18,-13217.04,-10455.705
1764762733.08631,-7767.99,-8345.97,4265.37,-3487.77,-11558.34,-28070.55,-13217.985,-10455.795
1764762733.08631,-7767.09,-8345.654999999999,4270.5,-3485.115,-11559.555,-28070.865,-13217.04,-10455.84
1764762733.08631,-7764.84,-8343.585,4270.77,-3484.62,-11557.89,-28069.335,-13216.59,-10454.4
1764762733.08631,-7760.429999999999,-8337.824999999999,4276.71,-3479.04,-11552.4,-28064.205,-13211.55,-10450.395
1764762733.08631,-7761.15,-8338.77,4276.665,-3479.13,-11552.805,-28063.215,-13207.95,-10450.125
1764762733.08631,-7766.144999999999,-8346.105,4266.81,-3488.49,-11559.645,-28067.445,-13210.065,-10452.555
1764762733.08631,-7764.929999999999,-8344.89,4267.305,-3487.86,-11559.78,-28068.075,-13212.09,-10453.275
1764762733.0868175,-7762.005,-8341.92,4270.995,-3484.26,-11556.72,-28066.635,-13211.82,-10451.655
1764762733.0868175,-7767.855,-8347.635,4266.405,-3489.345,-11560.455,-28071.225,-13217.355,-10457.505
1764762733.0868175,-7769.519999999999,-8348.58,4266.315,-3489.57,-11560.59,-28071.63,-13217.49,-10458.045
1764762733.0868175,-7768.394999999999,-8347.59,4266.945,-3487.95,-11559.915,-28071.9,-13216.32,-10457.145
1764762733.0868175,-7768.71,-8346.33,4267.62,-3487.77,-11561.04,-28071.9,-13216.725,-10457.37
1764762733.0868175,-7765.2,-8343.045,4269.96,-3486.24,-11559.06,-28069.74,-13214.97,-10455.39
1764762733.0868175,-7758.719999999999,-8336.205,4275.54,-3480.885,-11553.39,-28063.935,-13209.705,-10448.73
1764762733.0868175,-7757.639999999999,-8335.529999999999,4275.72,-3480.39,-11553.03,-28063.665,-13209.345,-10447.065
1764762733.133172,-7759.889999999999,-8338.545,4273.335,-3483.27,-11555.505,-28065.645,-13212.18,-10449.0
1764762733.133172,-7761.014999999999,-8341.695,4270.59,-3484.215,-11555.145,-28065.78,-13213.17,-10450.98
1764762733.133172,-7757.955,-8338.994999999999,4274.685,-3479.13,-11548.08,-28059.48,-13206.42,-10447.02
1764762733.133172,-7759.889999999999,-8341.335,4274.235,-3479.31,-11549.34,-28059.255,-13207.275,-10447.605
1764762733.133172,-7761.78,-8342.414999999999,4273.56,-3482.235,-11554.56,-28063.53,-13210.695,-10450.215
1764762733.133172,-7766.775,-8347.14,4269.105,-3488.535,-11561.22,-28070.415,-13217.13,-10455.3
1764762733.133172,-7765.019999999999,-8345.654999999999,4270.005,-3487.68,-11561.67,-28070.685,-13215.6,-10453.365
1764762733.133172,-7761.24,-8343.135,4271.58,-3484.53,-11556.855,-28066.59,-13212.315,-10449.855
1764762733.133172,-7767.45,-8350.154999999999,4266.45,-3490.965,-11562.345,-28072.17,-13219.965,-10457.235
1764762733.133172,-7768.394999999999,-8350.335,4267.8,-3490.515,-11561.895,-28071.405,-13219.425,-10458.855
1764762733.133172,-7767.315,-8348.94,4268.43,-3488.805,-11560.86,-28070.28,-13219.065,-10457.82
1764762733.1336796,-7759.53,-8339.625,4277.565,-3480.705,-11554.155,-28065.825,-13216.14,-10449.405
1764762733.1336796,-7756.38,-8336.789999999999,4281.705,-3476.61,-11551.185,-28061.19,-13207.905,-10444.005
1764762733.1336796,-7764.929999999999,-8345.654999999999,4271.985,-3485.7,-11559.51,-28070.055,-13216.365,-10452.915
1764762733.1336796,-7766.28,-8347.05,4268.07,-3490.47,-11562.48,-28073.43,-13220.055,-10455.255
1764762733.1336796,-7766.054999999999,-8348.535,4267.349999999999,-3490.335,-11561.445,-28071.72,-13218.795,-10455.12
1764762733.1336796,-7765.019999999999,-8348.895,4267.125,-3491.01,-11561.355,-28070.865,-13217.04,-10454.445
1764762733.1336796,-7761.24,-8346.69,4268.205,-3491.775,-11561.13,-28070.055,-13215.555,-10451.61
1764762733.1336796,-7766.28,-8351.279999999999,4262.76,-3497.4,-11565.945,-28074.15,-13221.945,-10455.39
1764762733.1336796,-7765.155,-8348.49,4265.55,-3493.8,-11562.255,-28070.595,-13221.315,-10453.41
1764762733.1336796,-7768.755,-8349.164999999999,4266.855,-3491.28,-11560.5,-28070.145,-13220.775,-10455.48
1764762733.1336796,-7768.889999999999,-8348.13,4269.105,-3488.715,-11558.16,-28068.93,-13219.425,-10455.705
1764762733.1799572,-7768.17,-8348.895,4267.575,-3489.57,-11559.105,-28070.64,-13220.64,-10456.065
1764762733.1799572,-7773.84,-8355.06,4261.23,-3495.915,-11566.17,-28076.49,-13226.22,-10461.195
1764762733.1799572,-7774.2,-8355.33,4261.23,-3495.015,-11565.0,-28075.905,-13226.22,-10461.375
1764762733.1799572,-7771.769999999999,-8353.395,4264.47,-3490.245,-11560.815,-28072.26,-13220.865,-10456.92
1764762733.1799572,-7767.855,-8348.715,4272.345,-3483.99,-11557.53,-28069.875,-13217.265,-10453.275
1764762733.1799572,-7760.88,-8342.19,4275.495,-3482.28,-11553.39,-28065.825,-13211.505,-10447.47
1764762733.1799572,-7764.389999999999,-8345.97,4270.77,-3488.67,-11558.025,-28069.29,-13214.385,-10450.62
1764762733.1799572,-7758.63,-8338.635,4279.23,-3480.705,-11551.005,-28062.09,-13209.705,-10444.275
1764762733.1799572,-7759.755,-8339.895,4278.599999999999,-3481.38,-11551.86,-28062.72,-13212.45,-10445.535
1764762733.1799572,-7765.514999999999,-8346.015,4272.57,-3486.51,-11556.81,-28066.32,-13216.14,-10450.71
1764762733.1799572,-7761.644999999999,-8341.065,4275.27,-3484.935,-11554.56,-28062.63,-13211.865,-10447.065
1764762733.1799572,-7763.804999999999,-8342.505,4274.28,-3486.87,-11556.72,-28064.97,-13215.015,-10449.9
1764762733.1799572,-7767.0,-8345.43,4271.445,-3489.39,-11559.465,-28070.055,-13219.56,-10454.445
1764762733.1799572,-7761.644999999999,-8340.39,4277.115,-3483.27,-11553.615,-28063.215,-13214.97,-10448.955
1764762733.1799572,-7764.974999999999,-8343.63,4273.335,-3486.555,-11557.305,-28068.03,-13217.445,-10452.465
1764762733.1799572,-7766.144999999999,-8344.98,4272.48,-3485.88,-11556.495,-28067.985,-13217.805,-10452.015
1764762733.1799572,-7765.155,-8345.16,4271.895,-3487.86,-11559.015,-28068.615,-13217.04,-10451.295
1764762733.1799572,-7764.615,-8345.97,4271.445,-3488.265,-11559.33,-28068.48,-13217.805,-10450.845
1764762733.180472,-7764.165,-8345.115,4273.335,-3485.745,-11557.035,-28066.095,-13216.905,-10450.305
1764762733.180472,-7761.644999999999,-8341.515,4277.79,-3481.335,-11552.22,-28061.865,-13213.08,-10448.145
1764762733.180472,-7756.965,-8337.51,4281.84,-3478.68,-11549.52,-28058.85,-13208.265,-10444.68
1764762733.180472,-7761.285,-8342.64,4277.43,-3484.125,-11555.64,-28064.52,-13212.72,-10448.505
1764762733.180472,-7759.665,-8340.119999999999,4279.275,-3481.11,-11553.615,-28063.17,-13211.955,-10446.39
1764762733.180472,-7762.005,-8342.01,4277.025,-3482.685,-11555.955,-28065.015,-13213.575,-10449.315
1764762733.2265978,-7758.63,-8338.275,4280.264999999999,-3479.58,-11552.535,-28061.415,-13210.605,-10446.66
1764762733.2265978,-7760.25,-8339.265,4278.555,-3481.38,-11553.03,-28062.405,-13212.405,-10448.325
1764762733.2265978,-7757.82,-8337.24,4281.12,-3479.265,-11551.5,-28060.47,-13211.1,-10445.715
1764762733.2265978,-7762.995,-8342.505,4274.865,-3484.485,-11556.855,-28065.375,-13215.195,-10451.475
1764762733.2265978,-7764.12,-8342.595,4272.345,-3485.565,-11556.9,-28065.735,-13214.88,-10452.015
1764762733.2265978,-7760.429999999999,-8338.59,4278.645,-3480.885,-11552.715,-28062.36,-13211.82,-10448.28
1764762733.2265978,-7757.054999999999,-8334.99,4288.365,-3475.08,-11550.42,-28059.93,-13210.155,-10445.265
1764762733.2265978,-7759.62,-8339.265,4281.255,-3479.715,-11553.48,-28063.935,-13219.83,-10448.55
1764762733.2265978,-7761.825,-8341.74,4276.395,-3484.845,-11556.495,-28067.175,-13223.7,-10449.945
1764762733.2265978,-7757.955,-8336.835,4281.389999999999,-3481.38,-11552.805,-28062.99,-13216.32,-10446.57
1764762733.2265978,-7760.565,-8340.795,4280.22,-3482.82,-11553.57,-28064.34,-13217.58,-10449.81
1764762733.2265978,-7753.724999999999,-8334.855,4287.06,-3474.54,-11544.975,-28055.7,-13206.06,-10442.34
1764762733.2265978,-7755.929999999999,-8338.05,4283.145,-3477.96,-11547.765,-28057.77,-13208.22,-10443.735
1764762733.2265978,-7757.82,-8337.555,4283.055,-3479.625,-11550.42,-28060.965,-13212.99,-10445.715
1764762733.2265978,-7763.174999999999,-8342.865,4276.53,-3484.845,-11555.73,-28064.61,-13218.795,-10452.24
1764762733.2265978,-7761.24,-8341.38,4277.52,-3482.325,-11552.805,-28061.145,-13216.14,-10450.98
1764762733.2265978,-7755.795,-8335.755,4281.66,-3479.265,-11549.925,-28057.455,-13211.595,-10444.995
1764762733.2265978,-7758.719999999999,-8338.23,4279.635,-3482.055,-11552.94,-28059.705,-13213.845,-10446.885
1764762733.2265978,-7765.245,-8344.215,4276.08,-3484.44,-11556.765,-28064.52,-13218.345,-10452.195
1764762733.2265978,-7763.94,-8342.595,4279.77,-3481.11,-11555.775,-28064.205,-13219.2,-10450.755
1764762733.2265978,-7763.355,-8342.145,4278.78,-3484.26,-11556.99,-28066.095,-13220.505,-10449.945
1764762733.2265978,-7763.49,-8343.81,4274.82,-3486.645,-11557.665,-28066.23,-13220.955,-10450.44
1764762733.2265978,-7762.5,-8342.19,4274.685,-3485.34,-11556.72,-28065.195,-13220.415,-10449.45
1764762733.2265978,-7756.2,-8335.215,4281.03,-3480.57,-11552.445,-28059.93,-13213.035,-10443.105
1764762733.2725248,-7757.099999999999,-8337.555,4281.255,-3478.725,-11550.33,-28059.12,-13211.82,-10444.68
1764762733.2725248,-7758.315,-8338.725,4281.48,-3477.015,-11549.835,-28060.605,-13215.105,-10445.94
1764762733.2725248,-7752.059999999999,-8334.09,4287.555,-3474.09,-11548.125,-28058.04,-13209.93,-10438.605
1764762733.2730372,-7754.355,-8335.35,4285.035,-3478.59,-11551.68,-28060.74,-13212.63,-10440.855
1764762733.2730372,-7760.205,-8342.46,4276.62,-3485.7,-11556.945,-28065.78,-13218.75,-10447.695
1764762733.2730372,-7760.25,-8343.36,4275.36,-3486.015,-11558.205,-28066.905,-13218.93,-10447.065
1764762733.2730372,-7759.665,-8342.685,4275.81,-3485.385,-11557.665,-28066.05,-13218.48,-10447.29
1764762733.2730372,-7758.134999999999,-8341.605,4277.97,-3483.315,-11553.93,-28062.09,-13215.6,-10444.455
1764762733.2730372,-7757.684999999999,-8339.039999999999,4280.31,-3480.93,-11550.465,-28059.03,-13214.52,-10444.275
1764762733.2730372,-7762.365,-8342.369999999999,4277.52,-3482.55,-11552.31,-28061.64,-13217.715,-10449.18
1764762733.2730372,-7761.78,-8340.75,4282.695,-3478.995,-11553.255,-28062.765,-13216.995,-10448.415
1764762733.2730372,-7755.48,-8334.539999999999,4287.735,-3473.73,-11546.865,-28056.69,-13212.765,-10442.295
1764762733.3184838,-7755.929999999999,-8335.574999999999,4286.79,-3474.27,-11547.495,-28058.13,-13213.485,-10442.385
1764762733.3184838,-7763.264999999999,-8343.315,4279.905,-3480.57,-11553.84,-28065.6,-13220.145,-10447.965
1764762733.3184838,-7765.019999999999,-8345.115,4276.305,-3485.07,-11557.44,-28068.12,-13221.99,-10449.405
1764762733.3184838,-7764.929999999999,-8344.529999999999,4274.91,-3487.95,-11560.23,-28070.685,-13222.125,-10450.305
1764762733.3184838,-7765.74,-8345.43,4271.715,-3489.03,-11562.39,-28072.44,-13223.025,-10451.025
1764762733.3184838,-7763.94,-8344.17,4272.345,-3488.04,-11559.87,-28069.335,-13219.83,-10449.99
1764762733.3184838,-7761.24,-8341.74,4276.71,-3487.905,-11560.095,-28068.705,-13218.3,-10447.74
1764762733.319523,-7757.235,-8338.23,4284.855,-3481.245,-11556.54,-28065.105,-13215.915,-10443.69
1764762733.319523,-7757.955,-8340.074999999999,4280.535,-3482.055,-11555.325,-28065.465,-13216.815,-10443.87
1764762733.319523,-7757.639999999999,-8338.994999999999,4280.535,-3481.92,-11554.47,-28063.845,-13216.68,-10443.555
1764762733.319523,-7759.575,-8339.039999999999,4282.605,-3480.345,-11552.49,-28063.62,-13216.995,-10444.77
1764762733.319523,-7765.245,-8343.765,4278.195,-3484.53,-11557.125,-28068.39,-13221.99,-10449.99
1764762733.319523,-7760.88,-8339.715,4281.12,-3481.2,-11554.335,-28065.645,-13219.245,-10446.345
1764762733.319523,-7761.465,-8342.64,4277.43,-3483.63,-11552.58,-28064.295,-13218.48,-10446.255
1764762733.319523,-7766.144999999999,-8347.815,4271.625,-3490.65,-11559.645,-28069.605,-13222.44,-10450.17
1764762733.319523,-7765.245,-8346.465,4272.255,-3490.875,-11560.23,-28068.75,-13220.865,-10448.82
1764762733.319523,-7761.915,-8342.64,4277.7,-3485.61,-11556.045,-28064.115,-13217.22,-10446.21
1764762733.319523,-7761.644999999999,-8342.279999999999,4279.995,-3484.08,-11553.975,-28063.485,-13217.715,-10446.03
1764762733.319523,-7762.545,-8342.82,4276.71,-3488.355,-11555.82,-28064.115,-13218.75,-10446.165
1764762733.3207338,-7761.375,-8341.065,4276.44,-3487.77,-11555.865,-28063.53,-13218.57,-10445.265
1764762733.3207338,-7760.429999999999,-8339.805,4279.095,-3484.89,-11555.37,-28064.43,-13219.2,-10445.985
1764762733.3207338,-7764.389999999999,-8343.539999999999,4276.08,-3489.255,-11559.87,-28069.74,-13224.42,-10449.405
1764762733.3207338,-7764.12,-8344.08,4275.27,-3490.065,-11560.32,-28071.405,-13225.14,-10448.595
1764762733.3207338,-7763.67,-8343.99,4274.145,-3490.02,-11560.41,-28069.74,-13222.62,-10447.92
1764762733.3207338,-7762.005,-8341.47,4275.855,-3489.03,-11558.835,-28066.32,-13217.94,-10446.39
1764762733.3207338,-7757.37,-8337.33,4279.68,-3485.52,-11556.09,-28062.36,-13211.775,-10440.855
1764762733.3207338,-7760.295,-8341.38,4274.55,-3490.515,-11558.745,-28064.34,-13214.43,-10442.565
1764762733.3207338,-7761.644999999999,-8343.315,4273.425,-3491.415,-11560.635,-28068.3,-13225.725,-10445.805
1764762733.3207338,-7762.275,-8343.9,4274.46,-3489.84,-11560.365,-28069.65,-13228.425,-10447.2
1764762733.3207338,-7763.264999999999,-8344.845,4276.215,-3487.005,-11556.045,-28067.085,-13225.86,-10447.515
1764762733.3207338,-7760.429999999999,-8341.154999999999,4279.77,-3482.415,-11550.06,-28062.63,-13222.485,-10444.59
1764762733.3207338,-7765.785,-8346.465,4275.63,-3488.445,-11556.495,-28067.445,-13226.085,-10448.46
1764762733.3207338,-7761.42,-8342.955,4276.575,-3487.365,-11554.56,-28064.43,-13221.495,-10444.545
1764762733.3207338,-7760.61,-8340.795,4277.61,-3488.58,-11555.775,-28064.745,-13219.02,-10444.32
1764762733.3678803,-7765.11,-8345.52,4272.705,-3493.035,-11559.555,-28069.425,-13222.17,-10448.19
1764762733.3678803,-7761.24,-8342.145,4277.205,-3486.69,-11554.29,-28065.195,-13219.515,-10443.69
1764762733.3689616,-7761.465,-8342.235,4279.275,-3485.61,-11554.695,-28066.32,-13221.045,-10444.095
1764762733.3689616,-7763.04,-8343.494999999999,4276.17,-3489.03,-11557.53,-28069.74,-13227.03,-10446.03
1764762733.3689616,-7769.205,-8349.345,4267.44,-3496.68,-11563.47,-28074.735,-13234.905,-10452.42
1764762733.3689616,-7764.12,-8343.135,4274.505,-3491.46,-11559.96,-28069.47,-13229.82,-10449.99
1764762733.3689616,-7763.4,-8342.865,4277.205,-3490.38,-11560.005,-28068.525,-13226.085,-10448.595
1764762733.3689616,-7763.759999999999,-8343.945,4275.36,-3492.225,-11560.77,-28069.92,-13224.87,-10449.225
1764762733.3689616,-7765.74,-8346.824999999999,4270.635,-3497.445,-11565.945,-28072.935,-13221.495,-10449.54
1764762733.3689616,-7764.84,-8345.565,4272.12,-3495.555,-11564.595,-28071.54,-13221.99,-10448.325
1764762733.3689616,-7761.33,-8341.515,4276.17,-3490.605,-11559.015,-28067.67,-13220.505,-10445.85
1764762733.3689616,-7763.58,-8344.17,4274.055,-3493.755,-11561.4,-28070.595,-13223.115,-10447.74
1764762733.3689616,-7760.115,-8339.625,4279.095,-3489.93,-11556.18,-28066.365,-13220.1,-10443.51
1764762733.3699589,-7759.889999999999,-8340.119999999999,4277.295,-3489.615,-11554.92,-28065.51,-13220.415,-10442.88
1764762733.3699589,-7759.799999999999,-8341.244999999999,4278.014999999999,-3487.995,-11554.425,-28064.565,-13219.695,-10442.925
1764762733.3699589,-7758.54,-8338.32,4283.099999999999,-3484.62,-11554.695,-28064.34,-13219.02,-10441.485
1764762733.3699589,-7759.349999999999,-8339.715,4281.255,-3487.005,-11555.595,-28065.555,-13220.685,-10442.25
1764762733.3699589,-7764.389999999999,-8345.52,4275.72,-3493.53,-11561.535,-28071.675,-13226.58,-10448.145
1764762733.3708713,-7762.005,-8343.18,4276.485,-3492.27,-11560.23,-28071.855,-13225.725,-10447.695
1764762733.3708713,-7765.559999999999,-8345.97,4270.23,-3497.04,-11564.505,-28075.365,-13227.93,-10451.07
1764762733.3708713,-7764.974999999999,-8344.664999999999,4272.435,-3495.78,-11563.065,-28073.52,-13224.195,-10449.27
1764762733.3708713,-7756.92,-8336.295,4286.97,-3486.285,-11555.235,-28065.555,-13215.33,-10441.44
1764762733.410504,-7757.325,-8338.23,4285.349999999999,-3486.195,-11553.75,-28065.33,-13220.37,-10441.44
1764762733.410504,-7756.605,-8337.33,4283.685,-3487.5,-11553.255,-28064.835,-13222.035,-10440.54
1764762733.410504,-7759.98,-8340.57,4282.92,-3487.86,-11553.57,-28064.295,-13220.19,-10442.88
1764762733.410504,-7759.889999999999,-8340.3,4283.01,-3487.59,-11552.22,-28063.305,-13218.48,-10442.34
1764762733.410504,-7759.08,-8339.175,4283.145,-3486.51,-11552.715,-28063.035,-13217.67,-10441.755
1764762733.410504,-7762.049999999999,-8341.605,4280.805,-3489.435,-11557.215,-28068.12,-13222.17,-10445.22
1764762733.410504,-7764.66,-8345.115,4276.889999999999,-3493.755,-11561.445,-28072.395,-13226.175,-10447.56
1764762733.410504,-7757.594999999999,-8338.005,4284.36,-3487.41,-11556.09,-28068.3,-13221.765,-10440.63
1764762733.410504,-7756.469999999999,-8335.44,4288.23,-3484.125,-11553.705,-28066.86,-13221.09,-10440.315
1764762733.410504,-7758.315,-8335.89,4288.545,-3484.08,-11554.605,-28067.355,-13222.125,-10443.15
1764762733.410504,-7759.799999999999,-8338.59,4284.045,-3488.175,-11557.35,-28069.47,-13223.925,-10445.58
1764762733.410504,-7755.255,-8334.449999999999,4284.585,-3487.005,-11553.165,-28062.945,-13218.03,-10442.025
1764762733.410504,-7756.965,-8336.88,4281.705,-3489.93,-11554.29,-28063.395,-13217.85,-10442.34
1764762733.410504,-7759.215,-8338.635,4280.13,-3491.19,-11556.945,-28065.15,-13219.695,-10444.365
1764762733.410504,-7755.48,-8336.115,4283.865,-3487.41,-11553.525,-28062.72,-13217.895,-10440.81
1764762733.411128,-7761.059999999999,-8341.965,4279.59,-3490.02,-11557.44,-28066.995,-13223.16,-10444.995
1764762733.411128,-7758.99,-8339.265,4283.055,-3485.565,-11553.165,-28064.115,-13220.415,-10442.655
1764762733.411128,-7762.59,-8342.595,4279.635,-3489.03,-11556.27,-28067.13,-13225.455,-10447.02
1764762733.411128,-7761.15,-8340.255,4281.615,-3487.365,-11554.695,-28066.005,-13224.51,-10446.48
1764762733.411128,-7755.84,-8336.34,4285.485,-3483.045,-11549.97,-28061.55,-13220.19,-10440.18
1764762733.411128,-7757.054999999999,-8337.869999999999,4285.035,-3484.395,-11551.815,-28062.99,-13221.36,-10440.945
1764762733.411128,-7758.585,-8339.76,4283.325,-3486.42,-11555.145,-28065.42,-13222.845,-10443.015
1764762733.411128,-7761.644999999999,-8343.404999999999,4278.78,-3491.01,-11560.365,-28069.065,-13225.32,-10447.065
1764762733.411128,-7758.54,-8340.345,4281.255,-3488.94,-11556.405,-28064.565,-13220.55,-10443.825
1764762733.411128,-7755.389999999999,-8338.005,4281.93,-3485.79,-11551.365,-28060.515,-13219.02,-10440.36
1764762733.411128,-7759.889999999999,-8342.19,4278.51,-3488.22,-11554.65,-28065.06,-13225.005,-10444.995
1764762733.4616077,-7756.155,-8336.565,4286.385,-3484.035,-11554.02,-28063.44,-13222.71,-10441.89
1764762733.4616077,-7756.29,-8335.71,4287.915,-3484.26,-11555.055,-28064.745,-13222.8,-10441.395
1764762733.4616077,-7750.799999999999,-8331.164999999999,4292.955,-3479.22,-11548.935,-28057.905,-13212.09,-10434.06
1764762733.4616077,-7753.95,-8335.8,4288.5,-3482.145,-11551.41,-28059.93,-13215.78,-10436.94
1764762733.4626255,-7750.755,-8331.029999999999,4292.01,-3480.255,-11549.115,-28057.725,-13215.195,-10435.05
1764762733.4626255,-7750.755,-8330.715,4291.83,-3480.795,-11548.89,-28057.455,-13215.42,-10435.5
1764762733.4626255,-7753.59,-8333.64,4288.275,-3483.09,-11551.68,-28059.3,-13215.825,-10437.03
1764762733.4626255,-7751.519999999999,-8332.38,4290.48,-3479.31,-11548.44,-28056.015,-13212.72,-10435.32
1764762733.4626255,-7750.394999999999,-8331.705,4293.585,-3476.115,-11546.55,-28054.125,-13211.775,-10433.745
1764762733.4626255,-7754.264999999999,-8334.27,4289.625,-3480.165,-11551.77,-28060.155,-13217.805,-10438.335
1764762733.4626255,-7759.125,-8338.994999999999,4282.965,-3485.745,-11556.855,-28065.87,-13224.015,-10442.52
1764762733.4626255,-7758.63,-8337.869999999999,4282.785,-3486.33,-11556.045,-28064.565,-13223.34,-10440.9
1764762733.4626255,-7753.365,-8333.01,4285.845,-3483.315,-11551.5,-28060.065,-13219.335,-10435.545
1764762733.4626255,-7751.969999999999,-8333.1,4284.675,-3483.765,-11552.355,-28059.345,-13220.64,-10434.645
1764762733.4626255,-7756.019999999999,-8336.295,4285.62,-3487.41,-11557.575,-28063.935,-13224.6,-10440.495
1764762733.4626255,-7759.035,-8340.255,4283.595,-3487.095,-11555.46,-28062.405,-13224.6,-10442.295
1764762733.4626255,-7760.565,-8341.74,4281.03,-3485.475,-11552.4,-28060.92,-13223.745,-10443.24
1764762733.4626255,-7758.63,-8339.13,4287.78,-3478.77,-11549.7,-28058.535,-13220.955,-10441.755
1764762733.4626255,-7753.769999999999,-8335.755,4292.099999999999,-3474.81,-11544.435,-28053.54,-13217.22,-10436.76
1764762733.4626255,-7758.0,-8339.039999999999,4288.095,-3480.255,-11548.71,-28058.895,-13221.54,-10439.865
1764762733.4626255,-7755.795,-8334.18,4292.505,-3478.365,-11547.72,-28057.275,-13218.93,-10436.355
1764762733.4626255,-7759.755,-8336.925,4288.185,-3482.82,-11550.6,-28060.065,-13222.665,-10440.9
1764762733.506001,-7758.855,-8337.6,4287.195,-3483.54,-11551.32,-28061.595,-13224.15,-10440.855
1764762733.506001,-7755.84,-8335.305,4289.715,-3480.705,-11547.54,-28057.05,-13219.875,-10436.535
1764762733.506001,-7759.755,-8337.735,4286.25,-3484.035,-11550.69,-28061.235,-13225.23,-10439.64
1764762733.506001,-7755.075,-8333.414999999999,4290.12,-3480.165,-11547.045,-28058.67,-13224.645,-10435.23
1764762733.506001,-7751.115,-8329.23,4294.17,-3477.015,-11544.84,-28054.71,-13216.905,-10432.485
1764762733.506001,-7751.474999999999,-8329.14,4295.07,-3476.565,-11545.02,-28053.585,-13215.78,-10432.305
1764762733.506001,-7754.085,-8332.11,4292.19,-3479.715,-11548.035,-28055.97,-13217.67,-10433.97
1764762733.506001,-7757.955,-8336.88,4287.42,-3485.07,-11553.39,-28061.19,-13222.08,-10438.245
1764762733.506001,-7753.679999999999,-8333.1,4291.335,-3481.155,-11548.845,-28058.67,-13219.47,-10435.095
1764762733.506001,-7758.134999999999,-8337.285,4286.835,-3486.285,-11554.065,-28063.485,-13224.69,-10439.415
1764762733.506001,-7758.54,-8337.105,4286.61,-3486.195,-11555.415,-28064.43,-13225.725,-10440.09
1764762733.506001,-7756.29,-8335.664999999999,4289.264999999999,-3483.9,-11552.58,-28062.225,-13223.43,-10437.84
1764762733.506001,-7750.259999999999,-8330.039999999999,4292.73,-3479.715,-11546.91,-28057.275,-13217.94,-10432.215
1764762733.506001,-7749.63,-8329.455,4291.695,-3480.48,-11547.135,-28056.33,-13215.33,-10431.135
1764762733.506001,-7754.355,-8334.045,4288.185,-3484.08,-11551.365,-28060.785,-13218.705,-10435.275
1764762733.506001,-7752.915,-8332.83,4288.68,-3484.8,-11550.42,-28060.56,-13220.325,-10434.87
1764762733.506001,-7749.179999999999,-8329.5,4291.83,-3480.705,-11545.245,-28056.375,-13217.265,-10431.27
1764762733.506001,-7751.07,-8331.48,4291.47,-3480.705,-11547.0,-28058.445,-13220.55,-10433.34
1764762733.506001,-7751.16,-8330.355,4293.36,-3479.22,-11548.53,-28059.57,-13221.18,-10433.16
1764762733.5070083,-7750.665,-8329.185,4294.035,-3478.545,-11548.8,-28060.29,-13220.01,-10432.08
1764762733.5527017,-7749.99,-8328.779999999999,4293.27,-3481.11,-11550.375,-28061.19,-13220.01,-10431.09
1764762733.5532117,-7752.599999999999,-8332.605,4286.79,-3487.455,-11554.47,-28064.565,-13222.89,-10433.43
1764762733.5532117,-7753.95,-8334.765,4284.81,-3488.67,-11554.92,-28065.015,-13224.78,-10435.275
1764762733.5532117,-7753.139999999999,-8334.63,4285.62,-3486.645,-11551.365,-28062.495,-13224.285,-10434.825
1764762733.5532117,-7756.245,-8338.095,4282.38,-3489.615,-11553.705,-28065.24,-13225.995,-10437.255
1764762733.5532117,-7752.42,-8334.404999999999,4285.755,-3486.465,-11551.545,-28062.0,-13221.765,-10433.43
1764762733.5532117,-7746.075,-8327.43,4294.305,-3477.78,-11541.465,-28052.64,-13213.665,-10426.095
1764762733.5532117,-7749.719999999999,-8330.355,4293.405,-3478.59,-11542.005,-28054.62,-13216.365,-10428.165
1764762733.5532117,-7755.299999999999,-8334.99,4289.849999999999,-3480.345,-11546.595,-28060.065,-13221.09,-10434.51
1764762733.5532117,-7753.545,-8332.785,4291.605,-3478.635,-11545.605,-28059.075,-13219.92,-10433.295
1764762733.5532117,-7748.505,-8329.05,4294.08,-3476.655,-11542.95,-28055.52,-13215.645,-10429.02
1764762733.5532117,-7751.205,-8332.425,4290.03,-3480.435,-11545.47,-28057.815,-13219.065,-10431.765
1764762733.5532117,-7748.505,-8331.119999999999,4291.335,-3478.5,-11543.94,-28055.97,-13217.13,-10429.74
1764762733.5532117,-7750.62,-8332.154999999999,4290.885,-3479.85,-11546.37,-28058.22,-13220.28,-10431.81
1764762733.5532117,-7746.84,-8327.295,4295.025,-3476.835,-11542.365,-28055.07,-13216.635,-10428.165
1764762733.5532117,-7746.795,-8328.105,4292.73,-3477.78,-11543.4,-28055.34,-13216.68,-10427.895
1764762733.5532117,-7748.009999999999,-8330.67,4290.705,-3478.77,-11545.515,-28057.32,-13217.895,-10430.19
1764762733.5532117,-7752.465,-8333.055,4289.76,-3481.47,-11549.52,-28061.505,-13224.105,-10435.05
1764762733.5532117,-7747.29,-8327.744999999999,4294.53,-3477.375,-11545.47,-28057.095,-13219.65,-10430.685
1764762733.5532117,-7747.92,-8328.824999999999,4292.46,-3479.13,-11547.54,-28060.02,-13222.305,-10431.0
1764762733.5532117,-7751.205,-8333.82,4286.88,-3483.045,-11552.04,-28065.915,-13228.02,-10435.185
1764762733.5532117,-7747.29,-8329.68,4290.75,-3478.77,-11547.315,-28060.695,-13222.935,-10431.27
1764762733.5532117,-7749.54,-8330.94,4285.62,-3482.595,-11548.35,-28060.965,-13223.25,-10432.17
1764762733.5532117,-7744.275,-8327.565,4288.32,-3478.5,-11542.635,-28053.27,-13213.89,-10425.42
1764762733.5532117,-7744.724999999999,-8327.07,4292.775,-3476.925,-11542.905,-28052.415,-13213.845,-10425.69
1764762733.5532117,-7743.014999999999,-8324.505,4299.885,-3472.515,-11541.195,-28051.515,-13216.365,-10424.655
1764762733.5966802,-7743.465,-8325.765,4296.42,-3473.595,-11541.51,-28052.325,-13216.185,-10424.835
1764762733.5966802,-7750.485,-8332.289999999999,4288.995,-3481.065,-11548.575,-28060.56,-13224.42,-10432.17
1764762733.5966802,-7750.53,-8331.975,4290.12,-3481.065,-11547.99,-28061.055,-13225.725,-10432.89
1764762733.5966802,-7744.32,-8326.8,4294.845,-3476.34,-11542.95,-28054.845,-13219.47,-10427.58
1764762733.5966802,-7743.105,-8325.449999999999,4295.655,-3475.485,-11542.14,-28053.18,-13218.03,-10425.51
1764762733.5966802,-7743.375,-8324.865,4295.7,-3474.495,-11542.815,-28053.405,-13216.68,-10425.33
1764762733.5966802,-7743.644999999999,-8325.27,4295.925,-3473.595,-11541.24,-28052.46,-13217.13,-10424.43
1764762733.5966802,-7743.644999999999,-8324.685,4296.285,-3474.72,-11539.755,-28052.46,-13218.795,-10424.25
1764762733.5966802,-7744.094999999999,-8323.965,4293.63,-3477.645,-11540.52,-28052.505,-13218.345,-10425.15
1764762733.5966802,-7743.735,-8324.73,4289.535,-3480.615,-11541.87,-28052.055,-13215.555,-10423.755
1764762733.598476,-7745.219999999999,-8327.88,4290.255,-3479.49,-11546.01,-28054.8,-13216.635,-10425.96
1764762733.598476,-7749.99,-8332.11,4288.815,-3483.72,-11553.705,-28061.145,-13223.52,-10431.855
1764762733.598476,-7745.219999999999,-8328.555,4290.345,-3483.0,-11550.285,-28057.995,-13221.63,-10426.95
1764762733.598476,-7747.695,-8331.39,4285.755,-3486.195,-11552.985,-28061.955,-13227.39,-10429.515
1764762733.598476,-7748.91,-8332.244999999999,4284.45,-3485.79,-11551.545,-28061.01,-13226.625,-10430.415
1764762733.598476,-7755.03,-8336.97,4281.345,-3489.075,-11554.605,-28065.15,-13231.35,-10435.05
1764762733.598476,-7754.67,-8335.89,4285.889999999999,-3484.35,-11551.815,-28062.45,-13226.805,-10433.295
1764762733.598476,-7749.9,-8330.625,4290.84,-3478.545,-11544.615,-28056.195,-13221.855,-10427.625
1764762733.598476,-7755.255,-8335.485,4285.215,-3483.72,-11549.655,-28062.315,-13227.3,-10433.88
1764762733.598476,-7754.985,-8334.63,4285.8,-3484.08,-11550.465,-28063.44,-13228.245,-10435.005
1764762733.598476,-7752.24,-8330.94,4289.355,-3481.425,-11547.855,-28061.235,-13225.275,-10432.665
1764762733.598476,-7757.054999999999,-8336.25,4284.045,-3487.68,-11554.47,-28065.555,-13229.82,-10436.265
1764762733.6453116,-7757.37,-8337.33,4282.56,-3489.66,-11556.63,-28067.535,-13230.45,-10436.67
1764762733.6453116,-7756.2,-8336.88,4282.47,-3489.165,-11555.82,-28066.995,-13228.965,-10435.23
1764762733.6453116,-7750.934999999999,-8331.705,4287.555,-3484.62,-11550.645,-28061.595,-13224.015,-10429.56
1764762733.6453116,-7749.315,-8329.725,4289.67,-3482.955,-11547.945,-28060.02,-13223.115,-10427.58
1764762733.6453116,-7748.73,-8328.779999999999,4290.66,-3481.2,-11545.875,-28058.265,-13222.71,-10427.04
1764762733.6453116,-7749.045,-8328.645,4289.805,-3480.885,-11546.82,-28058.22,-13222.665,-10428.615
1764762733.6453116,-7753.005,-8332.74,4286.97,-3483.9,-11550.555,-28061.19,-13226.445,-10431.99
1764762733.6453116,-7754.985,-8334.27,4286.205,-3484.845,-11551.95,-28063.53,-13227.84,-10433.925
1764762733.6453116,-7748.82,-8329.275,4291.11,-3479.58,-11547.0,-28059.525,-13222.305,-10428.525
1764762733.6453116,-7753.32,-8334.494999999999,4284.27,-3487.05,-11552.175,-28064.25,-13226.895,-10432.755
1764762733.6453116,-7753.634999999999,-8334.945,4284.495,-3486.78,-11552.22,-28064.43,-13228.2,-10433.295
1764762733.6453116,-7752.69,-8333.595,4286.115,-3485.25,-11551.455,-28063.845,-13227.3,-10431.72
1764762733.6453116,-7751.969999999999,-8333.414999999999,4287.06,-3484.53,-11550.33,-28063.08,-13226.715,-10430.73
1764762733.6453116,-7747.424999999999,-8328.914999999999,4292.01,-3479.355,-11545.875,-28058.355,-13222.17,-10426.815
1764762733.6453116,-7748.415,-8328.555,4291.56,-3479.4,-11546.055,-28057.77,-13222.755,-10427.985
1764762733.6453116,-7750.71,-8330.49,4289.355,-3482.145,-11549.295,-28060.92,-13226.805,-10429.83
1764762733.6453116,-7749.09,-8329.904999999999,4290.66,-3480.615,-11547.945,-28059.03,-13226.04,-10428.165
1764762733.6453116,-7743.735,-8325.27,4296.195,-3474.54,-11541.105,-28051.785,-13220.595,-10422.27
1764762733.6453116,-7744.995,-8326.395,4294.889999999999,-3476.07,-11541.87,-28053.9,-13223.34,-10424.07
1764762733.6453116,-7747.695,-8327.565,4294.26,-3477.825,-11545.695,-28057.095,-13229.82,-10427.265
1764762733.6453116,-7750.17,-8330.22,4291.695,-3479.715,-11548.125,-28060.02,-13230.675,-10429.47
1764762733.6453116,-7751.88,-8332.74,4289.67,-3482.145,-11549.25,-28061.145,-13228.695,-10431.09
1764762733.6463249,-7744.139999999999,-8325.09,4297.005,-3475.98,-11542.95,-28053.9,-13217.085,-10421.415
1764762733.6463249,-7745.715,-8327.115,4293.63,-3479.715,-11547.045,-28056.87,-13217.715,-10422.225
1764762733.6906648,-7751.969999999999,-8335.08,4286.61,-3484.845,-11552.445,-28062.63,-13226.31,-10429.785
1764762733.6906648,-7751.745,-8333.414999999999,4288.815,-3482.145,-11549.385,-28059.345,-13226.535,-10430.145
1764762733.6906648,-7750.62,-8331.255,4291.2,-3481.515,-11547.99,-28058.535,-13225.725,-10430.1
1764762733.6906648,-7747.965,-8328.195,4293.27,-3479.85,-11546.82,-28057.05,-13225.32,-10427.985
1764762733.6906648,-7746.075,-8328.465,4292.73,-3477.15,-11544.39,-28054.71,-13222.98,-10425.195
1764762733.6906648,-7753.5,-8336.385,4284.27,-3483.765,-11550.105,-28060.785,-13231.08,-10432.485
1764762733.6906648,-7756.065,-8338.14,4283.73,-3483.675,-11551.32,-28062.495,-13230.18,-10434.105
1764762733.6906648,-7754.715,-8334.539999999999,4292.01,-3481.2,-11551.23,-28061.325,-13227.705,-10433.61
1764762733.6906648,-7752.33,-8331.074999999999,4298.67,-3478.5,-11550.915,-28061.28,-13225.77,-10433.97
1764762733.6906648,-7747.065,-8327.565,4298.13,-3476.205,-11545.74,-28056.06,-13223.655,-10428.03
1764762733.6906648,-7744.634999999999,-8326.035,4299.57,-3474.315,-11541.915,-28053.045,-13224.33,-10423.395
1764762733.6906648,-7746.299999999999,-8328.24,4298.58,-3478.005,-11545.02,-28054.035,-13223.385,-10424.79
1764762733.6906648,-7749.405,-8331.39,4295.385,-3481.2,-11547.405,-28056.96,-13227.93,-10428.615
1764762733.6906648,-7744.365,-8325.27,4301.685,-3473.865,-11541.06,-28051.29,-13223.295,-10423.62
1764762733.6906648,-7744.95,-8324.595,4301.73,-3474.405,-11541.735,-28052.685,-13224.465,-10424.565
1764762733.6906648,-7748.505,-8328.015,4299.435,-3476.43,-11543.895,-28055.925,-13227.975,-10428.12
1764762733.6906648,-7750.71,-8331.795,4297.005,-3478.185,-11546.19,-28058.445,-13229.055,-10430.505
1764762733.6906648,-7745.49,-8326.17,4302.315,-3472.92,-11542.41,-28053.54,-13222.395,-10424.565
1764762733.6906648,-7750.215,-8330.715,4296.42,-3479.895,-11549.52,-28058.175,-13225.185,-10428.525
1764762733.6906648,-7751.384999999999,-8332.425,4295.52,-3481.605,-11550.69,-28060.155,-13228.155,-10430.775
1764762733.6906648,-7749.99,-8332.02,4295.745,-3480.21,-11548.53,-28058.355,-13228.695,-10429.92
1764762733.6920245,-7747.65,-8331.255,4295.745,-3480.435,-11545.47,-28055.025,-13226.625,-10427.58
1764762733.7382631,-7743.735,-8326.305,4299.03,-3477.555,-11542.68,-28051.38,-13222.935,-10423.035
1764762733.7382631,-7743.33,-8325.9,4300.83,-3476.61,-11542.32,-28051.515,-13222.53,-10422.81
1764762733.7382631,-7745.58,-8328.06,4300.47,-3476.655,-11541.87,-28051.965,-13222.17,-10423.755
1764762733.7382631,-7749.36,-8330.895,4298.445,-3479.13,-11543.94,-28053.765,-13224.465,-10426.725
1764762733.7382631,-7752.42,-8334.09,4294.349999999999,-3482.64,-11548.26,-28057.95,-13228.83,-10431.09
1764762733.7382631,-7751.565,-8333.955,4294.035,-3482.595,-11549.295,-28058.715,-13228.38,-10430.01
1764762733.7382631,-7745.849999999999,-8328.285,4299.389999999999,-3477.195,-11543.445,-28053.315,-13224.06,-10423.71
1764762733.7382631,-7746.929999999999,-8328.15,4299.615,-3476.745,-11542.77,-28054.08,-13224.33,-10424.925
1764762733.7382631,-7749.045,-8330.4,4296.915,-3479.13,-11544.975,-28055.79,-13226.265,-10427.22
1764762733.7382631,-7752.87,-8334.9,4293.315,-3482.82,-11548.8,-28059.795,-13230.54,-10432.17
1764762733.7382631,-7748.684999999999,-8330.805,4297.32,-3479.175,-11544.705,-28056.105,-13227.03,-10428.255
1764762733.7382631,-7745.174999999999,-8327.699999999999,4299.795,-3476.655,-11542.545,-28053.36,-13225.005,-10425.24
1764762733.7382631,-7742.115,-8324.19,4302.405,-3474.315,-11540.79,-28051.02,-13222.71,-10421.685
1764762733.7382631,-7745.04,-8326.755,4299.66,-3477.24,-11543.94,-28053.855,-13225.23,-10423.98
1764762733.7382631,-7749.405,-8331.885,4294.575,-3481.875,-11547.63,-28058.535,-13229.055,-10427.49
1764762733.7382631,-7747.245,-8329.095,4297.68,-3479.04,-11544.255,-28055.295,-13227.12,-10425.15
1764762733.7382631,-7747.92,-8328.824999999999,4298.4,-3478.23,-11544.12,-28055.07,-13226.31,-10426.14
1764762733.7382631,-7747.92,-8328.96,4298.13,-3478.32,-11544.93,-28055.25,-13226.13,-10425.915
1764762733.7382631,-7749.269999999999,-8330.4,4297.005,-3479.31,-11545.29,-28056.465,-13226.535,-10426.32
1764762733.739795,-7751.745,-8333.55,4294.349999999999,-3482.19,-11547.855,-28059.165,-13230.405,-10428.795
1764762733.739795,-7749.495,-8331.119999999999,4296.465,-3479.67,-11544.57,-28055.52,-13227.84,-10426.905
1764762733.739795,-7751.205,-8332.47,4294.26,-3480.48,-11544.75,-28055.52,-13229.415,-10429.965
1764762733.739795,-7743.96,-8325.045,4302.18,-3473.055,-11537.82,-28050.57,-13228.38,-10422.63
1764762733.739795,-7746.974999999999,-8328.105,4299.48,-3477.87,-11543.31,-28054.71,-13227.165,-10425.33
1764762733.7853131,-7744.679999999999,-8325.99,4300.695,-3475.755,-11540.97,-28052.685,-13223.79,-10422.18
1764762733.7853131,-7743.195,-8325.315,4301.595,-3473.64,-11539.395,-28052.055,-13224.105,-10420.02
1764762733.7853131,-7742.205,-8323.74,4303.305,-3472.83,-11538.135,-28052.28,-13223.97,-10419.84
1764762733.7853131,-7741.259999999999,-8323.289999999999,4304.07,-3471.93,-11537.325,-28051.605,-13223.205,-10418.895
1764762733.7853131,-7743.554999999999,-8325.63,4301.595,-3474.36,-11539.17,-28053.09,-13226.13,-10422.315
1764762733.7853131,-7748.865,-8331.615,4295.43,-3480.525,-11544.255,-28058.265,-13233.69,-10428.795
1764762733.7853131,-7749.674999999999,-8333.055,4294.035,-3481.515,-11545.92,-28058.94,-13237.11,-10429.695
1764762733.7853131,-7749.855,-8333.91,4293.675,-3481.38,-11546.91,-28058.58,-13235.94,-10428.795
1764762733.7853131,-7746.12,-8329.904999999999,4298.355,-3477.78,-11543.805,-28055.115,-13231.17,-10425.555
1764762733.7853131,-7749.45,-8331.84,4295.52,-3480.39,-11545.785,-28057.545,-13230.675,-10429.515
1764762733.7853131,-7749.764999999999,-8332.38,4293.585,-3480.165,-11546.37,-28057.68,-13229.28,-10428.705
1764762733.7853131,-7749.63,-8332.92,4293.224999999999,-3480.795,-11547.09,-28058.58,-13230.09,-10427.355
1764762733.7853131,-7751.07,-8334.494999999999,4292.055,-3482.46,-11549.565,-28060.605,-13233.33,-10428.615
1764762733.7853131,-7749.179999999999,-8334.045,4292.01,-3482.325,-11548.98,-28059.57,-13231.89,-10426.545
1764762733.7853131,-7746.75,-8330.355,4295.205,-3478.815,-11545.11,-28055.79,-13227.165,-10425.915
1764762733.7853131,-7746.12,-8328.06,4297.86,-3476.565,-11543.895,-28054.665,-13228.02,-10427.445
1764762733.7853131,-7745.58,-8328.69,4297.005,-3477.33,-11544.885,-28055.295,-13228.965,-10426.005
1764762733.7853131,-7743.87,-8327.07,4298.76,-3476.205,-11542.68,-28053.9,-13227.03,-10424.205
1764762733.7853131,-7739.865,-8322.029999999999,4303.395,-3471.705,-11538.855,-28050.705,-13223.52,-10419.345
1764762733.7853131,-7744.815,-8326.44,4299.66,-3475.845,-11542.995,-28055.88,-13229.37,-10424.385
1764762733.7853131,-7744.5,-8326.44,4299.255,-3475.08,-11543.04,-28056.195,-13228.92,-10424.52
1764762733.7853131,-7744.41,-8326.845,4298.895,-3474.36,-11541.87,-28055.34,-13227.75,-10423.305
1764762733.7853131,-7740.719999999999,-8323.199999999999,4302.63,-3468.825,-11536.245,-28050.165,-13222.98,-10418.895
1764762733.7853131,-7745.174999999999,-8327.07,4298.31,-3472.695,-11539.71,-28053.495,-13226.805,-10422.27
1764762733.7853131,-7744.094999999999,-8327.07,4296.24,-3476.61,-11542.14,-28054.62,-13227.885,-10421.865
1764762733.7853131,-7741.665,-8324.865,4298.31,-3478.365,-11542.905,-28053.405,-13226.13,-10419.165
1764762733.8333654,-7747.695,-8331.119999999999,4292.505,-3483.315,-11548.44,-28058.58,-13231.305,-10424.295
1764762733.8333654,-7747.245,-8329.32,4293.63,-3481.785,-11546.73,-28056.825,-13230.945,-10424.25
1764762733.8333654,-7742.655,-8323.47,4299.3,-3475.98,-11541.33,-28052.415,-13227.03,-10420.245
1764762733.8333654,-7744.094999999999,-8324.775,4299.255,-3476.16,-11542.005,-28053.9,-13228.02,-10421.505
1764762733.8333654,-7747.965,-8329.14,4295.88,-3479.76,-11544.84,-28057.68,-13231.665,-10425.24
1764762733.8333654,-7746.929999999999,-8327.61,4296.06,-3479.625,-11545.02,-28056.87,-13229.865,-10422.99
1764762733.8333654,-7743.059999999999,-8322.84,4300.47,-3475.305,-11540.745,-28052.055,-13226.085,-10420.065
1764762733.8333654,-7743.24,-8324.19,4299.974999999999,-3475.89,-11540.655,-28052.64,-13228.2,-10420.515
1764762733.8333654,-7749.719999999999,-8331.255,4293.224999999999,-3482.1,-11546.37,-28058.94,-13233.51,-10426.455
1764762733.8333654,-7748.639999999999,-8330.22,4293.99,-3481.695,-11545.335,-28058.22,-13232.925,-10425.555
1764762733.8333654,-7747.424999999999,-8328.69,4295.88,-3480.255,-11543.58,-28056.735,-13231.305,-10424.295
1764762733.8333654,-7745.804999999999,-8327.115,4296.51,-3479.625,-11543.13,-28056.96,-13230.9,-10422.765
1764762733.8333654,-7741.665,-8323.47,4299.885,-3476.475,-11540.745,-28054.44,-13229.1,-10420.515
1764762733.8333654,-7747.74,-8329.994999999999,4293.135,-3482.865,-11547.63,-28060.83,-13235.625,-10427.085
1764762733.8333654,-7747.29,-8329.005,4292.91,-3483.09,-11548.215,-28060.245,-13233.78,-10426.59
1764762733.8333654,-7743.69,-8325.27,4296.555,-3479.265,-11544.39,-28056.195,-13228.335,-10421.865
1764762733.8333654,-7739.28,-8320.77,4301.46,-3475.44,-11540.07,-28051.965,-13223.07,-10416.375
1764762733.8333654,-7742.429999999999,-8323.695,4297.995,-3479.895,-11543.985,-28056.24,-13228.245,-10419.795
1764762733.8333654,-7741.755,-8323.02,4297.95,-3479.13,-11543.175,-28054.89,-13228.425,-10419.48
1764762733.8333654,-7739.054999999999,-8320.32,4300.83,-3475.53,-11539.53,-28050.975,-13225.365,-10416.96
1764762733.8333654,-7733.384999999999,-8315.19,4305.735,-3470.895,-11534.31,-28045.62,-13220.235,-10410.975
1764762733.8333654,-7732.08,-8313.795,4306.455,-3470.31,-11533.275,-28044.63,-13220.415,-10410.075
1764762733.8333654,-7734.69,-8315.19,4304.115,-3473.01,-11535.93,-28047.42,-13222.62,-10411.245
1764762733.8333654,-7741.799999999999,-8321.895,4297.77,-3478.545,-11541.42,-28053.09,-13228.155,-10417.095
1764762733.8809044,-7741.62,-8320.005,4300.47,-3477.195,-11540.34,-28053.27,-13228.92,-10417.365
1764762733.8809044,-7739.594999999999,-8317.845,4301.46,-3476.925,-11540.115,-28053.0,-13228.515,-10415.295
1764762733.8809044,-7738.965,-8318.52,4300.785,-3477.465,-11540.43,-28052.19,-13223.97,-10413.495
1764762733.8809044,-7739.19,-8318.16,4300.335,-3476.88,-11540.295,-28052.055,-13223.835,-10413.99
1764762733.8809044,-7739.37,-8317.35,4302.27,-3474.99,-11539.215,-28051.83,-13224.465,-10413.945
1764762733.8809044,-7737.255,-8315.324999999999,4304.655,-3472.74,-11536.2,-28048.815,-13223.025,-10411.74
1764762733.8809044,-7742.025,-8319.914999999999,4298.895,-3478.455,-11541.735,-28053.855,-13228.47,-10416.465
1764762733.8809044,-7738.2,-8315.955,4302.27,-3474.855,-11538.27,-28050.12,-13224.24,-10413.09
1764762733.8809044,-7736.94,-8315.865,4301.595,-3474.99,-11538.765,-28049.76,-13222.17,-10412.46
1764762733.8809044,-7738.65,-8317.8,4299.345,-3477.465,-11540.655,-28051.47,-13221.405,-10413.63
1764762733.8809044,-7739.28,-8319.465,4298.22,-3478.365,-11540.655,-28052.91,-13226.94,-10414.98
1764762733.8809044,-7740.764999999999,-8320.815,4298.445,-3477.015,-11539.08,-28053.54,-13232.25,-10416.33
1764762733.8809044,-7742.565,-8321.625,4298.31,-3477.42,-11538.765,-28052.91,-13229.235,-10417.455
1764762733.8809044,-7742.924999999999,-8320.635,4297.724999999999,-3477.15,-11538.315,-28052.64,-13229.01,-10416.645
1764762733.8809044,-7746.12,-8324.19,4293.63,-3479.94,-11540.655,-28055.025,-13226.85,-10417.905
1764762733.8809044,-7745.264999999999,-8324.279999999999,4293.855,-3480.48,-11540.655,-28054.44,-13227.84,-10417.32
1764762733.8809044,-7742.88,-8322.164999999999,4293.855,-3478.455,-11537.325,-28052.37,-13227.39,-10415.79
1764762733.8809044,-7736.58,-8316.765,4298.4,-3470.895,-11528.28,-28044.495,-13220.46,-10409.04
1764762733.8809044,-7736.219999999999,-8313.39,4306.275,-3469.815,-11530.35,-28044.99,-13220.64,-10409.625
1764762733.8809044,-7738.38,-8316.494999999999,4306.005,-3470.94,-11535.48,-28048.815,-13223.385,-10411.2
1764762733.8809044,-7742.205,-8320.185,4298.849999999999,-3477.33,-11540.79,-28053.765,-13227.345,-10413.765
1764762733.8809044,-7738.155,-8315.055,4303.125,-3474.0,-11536.425,-28049.445,-13223.34,-10410.84
1764762733.927973,-7741.215,-8317.8,4299.93,-3476.61,-11539.845,-28052.595,-13226.85,-10413.225
1764762733.927973,-7737.795,-8314.605,4303.71,-3473.235,-11536.245,-28048.455,-13223.88,-10409.895
1764762733.927973,-7740.0,-8317.305,4300.56,-3476.745,-11538.63,-28050.75,-13227.39,-10413.315
1764762733.927973,-7740.54,-8317.17,4299.93,-3477.96,-11538.945,-28051.875,-13228.335,-10413.45
1764762733.9284997,-7740.945,-8316.765,4300.605,-3476.97,-11537.325,-28050.525,-13227.66,-10414.53
1764762733.9284997,-7733.429999999999,-8309.43,4307.445,-3469.5,-11530.71,-28043.865,-13221.675,-10408.275
1764762733.9284997,-7733.429999999999,-8309.789999999999,4307.13,-3470.04,-11530.44,-28044.495,-13221.045,-10406.79
1764762733.9284997,-7738.38,-8314.47,4301.775,-3475.17,-11535.345,-28049.985,-13226.22,-10411.02
1764762733.9284997,-7734.24,-8309.789999999999,4306.41,-3470.49,-11531.25,-28046.07,-13221.72,-10406.205
1764762733.9284997,-7735.59,-8311.14,4304.43,-3472.29,-11533.59,-28047.96,-13223.655,-10408.32
1764762733.9284997,-7738.92,-8314.47,4300.245,-3475.665,-11538.405,-28052.325,-13226.805,-10411.02
1764762733.9284997,-7733.745,-8309.925,4304.79,-3471.705,-11534.715,-28048.005,-13223.025,-10406.07
1764762733.9284997,-7733.565,-8310.824999999999,4304.474999999999,-3472.605,-11535.03,-28047.96,-13223.475,-10406.385
1764762733.9284997,-7735.769999999999,-8312.805,4302.45,-3474.72,-11536.29,-28049.67,-13224.6,-10408.77
1764762733.9284997,-7739.865,-8317.17,4298.175,-3477.51,-11538.54,-28052.82,-13227.66,-10411.92
1764762733.9284997,-7734.915,-8311.815,4303.26,-3472.2,-11532.78,-28047.15,-13223.43,-10405.71
1764762733.9284997,-7735.005,-8310.869999999999,4303.305,-3471.93,-11532.42,-28047.195,-13223.61,-10405.215
1764762733.9284997,-7737.165,-8312.445,4302.585,-3473.595,-11534.22,-28049.445,-13226.355,-10407.96
1764762733.9284997,-7738.695,-8314.11,4301.235,-3475.665,-11536.245,-28051.245,-13226.85,-10410.21
1764762733.9284997,-7732.844999999999,-8307.99,4305.96,-3470.445,-11531.745,-28046.79,-13221.72,-10404.36
1764762733.9284997,-7732.08,-8307.09,4305.285,-3471.48,-11532.87,-28046.88,-13218.57,-10402.11
1764762733.9284997,-7731.719999999999,-8307.99,4305.42,-3472.335,-11533.185,-28047.69,-13219.425,-10402.2
1764762733.9284997,-7731.269999999999,-8306.82,4307.849999999999,-3470.49,-11532.015,-28047.24,-13219.965,-10401.975
1764762733.9284997,-7732.259999999999,-8306.955,4309.02,-3469.455,-11531.52,-28046.79,-13220.82,-10402.47
1764762733.975054,-7735.094999999999,-8309.699999999999,4306.23,-3472.74,-11534.715,-28050.39,-13223.745,-10405.08
1764762733.975054,-7730.325,-8304.84,4309.92,-3468.33,-11529.945,-28045.98,-13220.415,-10401.255
1764762733.975054,-7728.84,-8303.49,4310.37,-3467.88,-11529.45,-28045.53,-13220.055,-10401.075
1764762733.975054,-7732.755,-8309.295,4304.79,-3473.235,-11533.815,-28051.155,-13224.69,-10405.215
1764762733.975054,-7734.195,-8311.904999999999,4302.0,-3475.62,-11534.085,-28051.92,-13224.915,-10406.115
1764762733.975054,-7735.815,-8313.93,4299.165,-3477.69,-11534.895,-28051.74,-13225.14,-10407.42
1764762733.975054,-7737.615,-8316.36,4296.599999999999,-3480.75,-11538.045,-28052.955,-13227.12,-10409.715
1764762733.975054,-7735.5,-8313.93,4300.245,-3477.33,-11532.87,-28048.005,-13223.34,-10406.52
1764762733.975054,-7739.955,-8317.26,4297.724999999999,-3479.22,-11535.435,-28050.345,-13227.84,-10410.795
1764762733.975054,-7737.48,-8314.289999999999,4301.19,-3474.45,-11532.33,-28048.815,-13228.74,-10409.85
1764762733.975054,-7741.08,-8318.385,4297.68,-3477.51,-11535.165,-28052.37,-13232.295,-10412.37
1764762733.975054,-7735.634999999999,-8313.029999999999,4303.665,-3471.21,-11529.99,-28046.205,-13223.79,-10406.745
1764762733.975054,-7736.445,-8313.84,4303.349999999999,-3472.38,-11531.61,-28046.925,-13224.645,-10408.905
1764762733.975054,-7740.045,-8316.9,4300.83,-3474.72,-11534.94,-28050.705,-13228.245,-10412.595
1764762733.975054,-7737.974999999999,-8314.965,4302.405,-3474.045,-11534.13,-28049.715,-13226.76,-10409.76
1764762733.975054,-7735.545,-8311.77,4303.395,-3472.74,-11531.61,-28047.42,-13225.545,-10407.465
1764762733.975054,-7731.719999999999,-8307.9,4306.545,-3470.49,-11528.865,-28043.37,-13221.09,-10403.37
1764762733.975054,-7734.42,-8311.05,4302.045,-3475.89,-11534.445,-28047.69,-13224.555,-10406.565
1764762733.975054,-7732.575,-8309.34,4302.945,-3476.07,-11533.545,-28046.115,-13222.17,-10404.27
1764762733.975054,-7737.389999999999,-8314.154999999999,4299.57,-3478.905,-11537.055,-28050.12,-13225.815,-10408.095
1764762733.975054,-7735.049999999999,-8311.095,4303.845,-3474.135,-11534.265,-28048.5,-13224.015,-10406.97
1764762733.975054,-7737.705,-8313.119999999999,4303.305,-3474.72,-11535.525,-28049.805,-13226.445,-10409.985
1764762733.975054,-7733.519999999999,-8308.35,4308.93,-3468.96,-11528.505,-28045.17,-13222.98,-10405.8
1764762733.975054,-7738.605,-8313.885,4302.18,-3475.845,-11533.905,-28051.29,-13226.04,-10408.995
1764762734.0228648,-7732.934999999999,-8308.755,4306.32,-3471.39,-11527.92,-28046.88,-13225.275,-10402.965
1764762734.0228648,-7737.48,-8313.3,4301.955,-3474.27,-11528.595,-28052.01,-13233.24,-10407.6
1764762734.0228648,-7739.099999999999,-8315.01,4304.61,-3466.62,-11513.115,-28047.15,-13230.72,-10409.22
1764762734.0228648,-7733.384999999999,-8309.385,4312.98,-3453.615,-11493.27,-28034.865,-13222.89,-10402.515
1764762734.0228648,-7733.969999999999,-8308.89,4314.285,-3450.645,-11487.69,-28033.875,-13223.07,-10403.505
1764762734.0228648,-7736.355,-8310.69,4312.349999999999,-3454.74,-11492.595,-28037.835,-13225.68,-10406.16
1764762734.0228648,-7734.15,-8311.23,4309.695,-3463.02,-11506.68,-28042.245,-13223.565,-10402.965
1764762734.0228648,-7731.045,-8308.215,4309.56,-3470.175,-11526.57,-28046.7,-13220.865,-10400.67
1764762734.0228648,-7732.394999999999,-8307.99,4307.67,-3474.63,-11538.045,-28045.665,-13220.19,-10402.56
1764762734.0228648,-7736.219999999999,-8313.435,4299.93,-3483.675,-11550.375,-28049.67,-13223.97,-10404.045
1764762734.0228648,-7735.59,-8314.02,4299.255,-3484.35,-11555.685,-28054.89,-13228.02,-10405.395
1764762734.0228648,-7738.019999999999,-8315.505,4299.12,-3481.695,-11552.085,-28057.365,-13233.015,-10410.075
1764762734.0228648,-7742.115,-8316.404999999999,4307.22,-3468.645,-11530.8,-28050.57,-13230.54,-10412.55
1764762734.0228648,-7744.679999999999,-8316.09,4311.855,-3459.645,-11507.58,-28043.955,-13228.92,-10412.73
1764762734.0228648,-7738.875,-8312.175,4313.925,-3456.72,-11500.605,-28040.4,-13225.005,-10407.42
1764762734.0228648,-7736.264999999999,-8309.744999999999,4313.16,-3460.14,-11507.94,-28037.97,-13222.485,-10405.44
1764762734.0228648,-7735.769999999999,-8310.779999999999,4308.705,-3471.165,-11525.355,-28036.035,-13218.705,-10405.35
1764762734.0228648,-7735.679999999999,-8310.869999999999,4308.75,-3472.83,-11527.38,-28034.01,-13218.57,-10405.755
1764762734.0228648,-7736.67,-8310.555,4310.37,-3466.845,-11514.69,-28034.55,-13220.82,-10407.015
1764762734.0228648,-7740.585,-8314.154999999999,4305.105,-3469.095,-11511.855,-28042.425,-13229.55,-10411.875
1764762734.0228648,-7740.09,-8314.515,4301.955,-3474.54,-11522.565,-28050.075,-13231.89,-10411.245
1764762734.0228648,-7738.74,-8313.975,4298.535,-3488.445,-11548.395,-28059.165,-13232.295,-10408.59
1764762734.0690088,-7737.66,-8313.029999999999,4300.38,-3489.21,-11555.775,-28062.36,-13230.405,-10408.095
1764762734.0690088,-7732.71,-8310.33,4294.305,-3499.785,-11575.305,-28066.32,-13228.83,-10404.81
1764762734.0690088,-7738.065,-8317.305,4282.785,-3512.655,-11590.695,-28069.605,-13232.7,-10409.13
1764762734.0690088,-7739.325,-8320.005,4281.435,-3511.44,-11593.485,-28066.545,-13232.565,-10408.095
1764762734.0690088,-7745.49,-8324.19,4282.605,-3508.29,-11582.955,-28064.97,-13236.705,-10413.405
1764762734.0690088,-7748.28,-8326.125,4284.855,-3503.52,-11566.89,-28065.195,-13241.07,-10417.545
1764762734.0690088,-7747.11,-8321.67,4293.99,-3489.615,-11544.705,-28059.12,-13237.785,-10416.42
