Timestamp,Channel1,Channel2,Channel3,Channel4,Channel5,Channel6,Channel7,Channel8
1764762887.618989,-8529.39,-9552.465,3097.845,-4574.88,-13114.44,-28727.595,-13708.395,-10846.665
1764762887.618989,-8528.13,-9550.395,3100.725,-4571.775,-13112.415,-28725.705,-13707.675,-10845.855
1764762887.618989,-8528.805,-9550.935,3102.12,-4569.66,-13110.84,-28724.67,-13709.16,-10847.655
1764762887.618989,-8528.715,-9552.465,3098.655,-4572.855,-13113.18,-28725.39,-13707.99,-10845.27
1764762887.618989,-8526.465,-9549.945,3100.635,-4571.865,-13112.91,-28725.12,-13706.73,-10841.58
1764762887.618989,-8524.08,-9548.19,3102.93,-4569.075,-13110.93,-28723.275,-13704.75,-10837.62
1764762887.6200018,-8522.369999999999,-9545.67,3106.305,-4567.23,-13108.32,-28720.89,-13703.715,-10839.42
1764762887.6200018,-8523.315,-9546.39,3104.46,-4568.355,-13108.455,-28721.295,-13703.13,-10840.455
1764762887.6200018,-8524.08,-9547.02,3104.145,-4568.22,-13109.04,-28723.365,-13704.48,-10841.715
1764762887.6200018,-8530.92,-9554.13,3098.43,-4573.665,-13114.215,-28727.865,-13709.655,-10847.925
1764762887.6200018,-8529.345,-9552.465,3099.06,-4572.405,-13113.54,-28726.83,-13708.215,-10846.125
1764762887.6200018,-8528.039999999999,-9551.79,3099.285,-4572.405,-13113.18,-28726.605,-13706.865,-10845.09
1764762887.6200018,-8525.115,-9549.315,3102.255,-4568.67,-13110.12,-28723.005,-13703.265,-10841.445
1764762887.6200018,-8521.47,-9545.67,3105.585,-4564.889999999999,-13106.745,-28718.595,-13699.305,-10837.845
1764762887.6200018,-8526.285,-9550.755,3101.445,-4569.075,-13111.2,-28723.635,-13704.93,-10841.94
1764762887.6200018,-8525.475,-9550.17,3101.22,-4569.705,-13111.695,-28723.59,-13705.155,-10841.265
1764762887.6200018,-8521.92,-9546.48,3104.235,-4566.375,-13109.265,-28721.115,-13702.545,-10837.98
1764762887.6200018,-8523.63,-9546.48,3104.415,-4565.7,-13107.825,-28720.845,-13704.705,-10839.105
1764762887.6200018,-8519.445,-9542.34,3107.745,-4562.73,-13103.73,-28715.805,-13699.62,-10834.695
1764762887.6200018,-8524.215,-9547.695,3103.02,-4567.5,-13109.625,-28721.61,-13704.12,-10840.23
1764762887.6200018,-8523.09,-9546.3,3103.605,-4566.465,-13109.67,-28721.34,-13702.995,-10838.925
1764762887.6200018,-8520.57,-9544.095,3105.9,-4563.63,-13107.465,-28719.225,-13700.61,-10835.955
1764762887.6663349,-8524.215,-9547.47,3102.885,-4567.23,-13110.255,-28722.6,-13704.03,-10838.43
1764762887.6663349,-8523.81,-9547.2,3103.515,-4566.375,-13109.58,-28722.15,-13703.535,-10838.25
1764762887.6663349,-8519.49,-9542.745,3108.195,-4562.19,-13104.99,-28717.605,-13699.98,-10833.975
1764762887.6663349,-8520.525,-9544.095,3106.17,-4563.045,-13106.025,-28718.685,-13701.105,-10834.515
1764762887.6663349,-8523.81,-9548.145,3101.805,-4566.825,-13109.895,-28722.42,-13703.715,-10838.385
1764762887.66769,-8523.09,-9547.38,3102.705,-4566.24,-13109.4,-28721.655,-13703.085,-10838.565
1764762887.66769,-8518.455,-9542.295,3107.745,-4561.2,-13104.9,-28717.02,-13698.27,-10832.895
1764762887.66769,-8523.72,-9547.02,3102.48,-4566.24,-13110.795,-28722.42,-13703.175,-10838.475
1764762887.66769,-8523.18,-9546.39,3103.245,-4565.385,-13110.21,-28721.52,-13703.085,-10837.98
1764762887.66769,-8521.02,-9544.635,3105.36,-4563.179999999999,-13107.87,-28719.27,-13701.06,-10836.09
1764762887.66769,-8515.89,-9539.505,3109.455,-4558.41,-13103.145,-28714.275,-13696.785,-10831.005
1764762887.66769,-8517.06,-9541.17,3107.97,-4559.895,-13104.765,-28715.04,-13698.315,-10832.04
1764762887.668224,-8521.47,-9546.075,3104.37,-4564.304999999999,-13108.77,-28719.045,-13701.645,-10835.955
1764762887.668224,-8518.005,-9541.26,3107.88,-4559.67,-13104.585,-28714.95,-13698.225,-10832.445
1764762887.668224,-8521.065,-9544.455,3103.785,-4562.82,-13107.915,-28718.19,-13702.14,-10835.415
1764762887.668224,-8520.975,-9544.68,3104.235,-4562.775,-13108.005,-28717.74,-13701.465,-10834.92
1764762887.668224,-8515.44,-9538.605,3110.13,-4556.655,-13102.2,-28712.97,-13696.2,-10829.79
1764762887.668224,-8515.755,-9538.065,3110.445,-4556.429999999999,-13102.56,-28713.78,-13696.695,-10830.15
1764762887.6686907,-8515.664999999999,-9538.425,3110.22,-4557.014999999999,-13102.965,-28713.465,-13696.02,-10829.88
1764762887.6686907,-8517.105,-9540.27,3108.87,-4558.995,-13104.63,-28714.455,-13696.65,-10830.96
1764762887.6686907,-8516.699999999999,-9539.82,3109.455,-4558.23,-13103.595,-28713.96,-13696.155,-10830.465
1764762887.6686907,-8516.52,-9539.145,3109.86,-4557.69,-13103.235,-28713.42,-13696.515,-10830.42
1764762887.6686907,-8518.68,-9542.34,3105.945,-4560.705,-13107.06,-28716.075,-13699.53,-10833.075
1764762887.6686907,-8515.485,-9539.55,3108.51,-4558.005,-13103.91,-28713.78,-13696.29,-10830.69
1764762887.7123857,-8517.555,-9540.54,3107.52,-4559.67,-13105.215,-28716.435,-13697.82,-10831.995
1764762887.7123857,-8512.289999999999,-9535.32,3112.335,-4554.405,-13100.445,-28711.215,-13692.69,-10826.55
1764762887.7123857,-8511.345,-9534.33,3113.505,-4553.73,-13099.365,-28710.0,-13690.89,-10824.525
1764762887.7123857,-8515.755,-9539.28,3108.555,-4558.77,-13103.82,-28714.86,-13695.57,-10828.845
1764762887.7123857,-8519.445,-9543.105,3104.505,-4562.82,-13107.87,-28719.0,-13700.34,-10833.615
1764762887.7123857,-8518.32,-9540.99,3106.035,-4561.02,-13105.98,-28717.335,-13698.99,-10832.31
1764762887.7123857,-8515.215,-9538.245,3109.14,-4558.95,-13103.505,-28714.725,-13696.155,-10829.745
1764762887.7123857,-8513.145,-9535.95,3110.985,-4556.205,-13101.525,-28713.33,-13693.23,-10826.505
1764762887.7123857,-8516.97,-9539.595,3107.07,-4559.085,-13105.71,-28716.93,-13696.605,-10830.195
1764762887.7123857,-8517.869999999999,-9540.0,3107.025,-4559.67,-13105.71,-28716.84,-13696.74,-10830.78
1764762887.7123857,-8515.305,-9537.21,3109.59,-4557.554999999999,-13102.74,-28714.23,-13695.435,-10828.845
1764762887.7123857,-8509.904999999999,-9530.46,3115.305,-4550.94,-13097.7,-28708.29,-13689.945,-10822.815
1764762887.7123857,-8510.715,-9531.225,3115.17,-4551.84,-13100.13,-28709.28,-13690.215,-10822.59
1764762887.7123857,-8517.869999999999,-9538.785,3107.52,-4560.345,-13108.095,-28717.155,-13697.955,-10830.555
1764762887.7123857,-8514.0,-9535.41,3111.165,-4557.195,-13104.27,-28713.78,-13694.58,-10827.225
1764762887.7123857,-8517.33,-9538.335,3108.33,-4559.58,-13107.78,-28717.245,-13699.395,-10831.185
1764762887.7123857,-8517.869999999999,-9538.47,3108.96,-4559.355,-13107.06,-28717.47,-13699.44,-10831.5
1764762887.7123857,-8516.205,-9537.075,3110.085,-4557.96,-13105.44,-28715.715,-13697.37,-10830.24
1764762887.7123857,-8510.985,-9533.565,3113.28,-4554.36,-13100.895,-28710.63,-13692.825,-10825.875
1764762887.7123857,-8513.369999999999,-9535.635,3111.57,-4556.34,-13103.055,-28712.16,-13695.165,-10827.765
1764762887.7598112,-8518.185,-9540.585,3107.07,-4560.929999999999,-13108.455,-28716.84,-13699.98,-10831.77
1764762887.7598112,-8518.32,-9540.495,3107.205,-4560.255,-13108.005,-28717.38,-13699.98,-10831.185
1764762887.7603374,-8514.225,-9536.085,3110.355,-4557.06,-13104.315,-28713.825,-13695.975,-10827.315
1764762887.7603374,-8520.975,-9543.51,3103.38,-4564.935,-13112.235,-28721.385,-13703.22,-10834.38
1764762887.7603374,-8520.705,-9543.105,3103.425,-4564.889999999999,-13112.325,-28721.205,-13703.22,-10833.795
1764762887.7603374,-8515.17,-9537.255,3109.545,-4559.67,-13106.835,-28715.715,-13698.45,-10829.25
1764762887.7603374,-8517.06,-9539.055,3107.61,-4560.165,-13107.465,-28715.22,-13699.26,-10830.42
1764762887.7603374,-8514.63,-9536.04,3109.95,-4558.23,-13105.665,-28712.88,-13696.335,-10827.45
1764762887.7603374,-8513.505,-9535.455,3110.22,-4557.735,-13105.215,-28712.97,-13696.605,-10827.27
1764762887.7603374,-8514.449999999999,-9536.355,3109.32,-4558.635,-13105.8,-28713.78,-13697.955,-10828.215
1764762887.7603374,-8514.585,-9536.445,3109.725,-4558.59,-13105.845,-28713.69,-13698.36,-10829.07
1764762887.7603374,-8516.789999999999,-9538.38,3107.385,-4560.84,-13108.095,-28715.49,-13701.105,-10831.275
1764762887.7603374,-8513.46,-9534.33,3110.985,-4557.285,-13103.82,-28711.98,-13697.955,-10828.17
1764762887.761349,-8518.5,-9539.91,3105.945,-4562.865,-13108.68,-28717.335,-13702.23,-10833.03
1764762887.761349,-8513.055,-9535.365,3110.805,-4557.69,-13104.315,-28712.7,-13697.505,-10827.36
1764762887.761349,-8511.119999999999,-9533.475,3112.47,-4555.98,-13103.28,-28710.81,-13696.29,-10825.47
1764762887.761349,-8510.445,-9533.745,3112.83,-4555.935,-13103.64,-28710.765,-13696.29,-10824.84
1764762887.761349,-8511.795,-9535.545,3110.895,-4557.87,-13105.44,-28712.34,-13697.595,-10825.155
1764762887.761349,-8512.47,-9535.905,3109.77,-4558.724999999999,-13106.205,-28713.465,-13697.685,-10825.335
1764762887.761349,-8517.645,-9539.595,3105.495,-4563.27,-13110.48,-28718.37,-13702.23,-10830.465
1764762887.761349,-8515.395,-9538.515,3107.25,-4561.335,-13108.68,-28716.84,-13701.195,-10829.925
1764762887.761349,-8512.02,-9534.825,3111.21,-4558.185,-13104.675,-28712.925,-13697.955,-10826.91
1764762887.761349,-8506.619999999999,-9527.985,3117.78,-4551.705,-13098.735,-28706.49,-13691.835,-10820.7
1764762887.761349,-8508.555,-9530.145,3115.485,-4553.505,-13101.03,-28709.19,-13693.905,-10821.96
1764762887.8046348,-8507.789999999999,-9530.595,3116.295,-4552.83,-13099.77,-28708.605,-13693.635,-10820.745
1764762887.8046348,-8509.994999999999,-9532.035,3114.765,-4554.495,-13102.155,-28710.0,-13695.66,-10822.545
1764762887.8046348,-8513.82,-9535.905,3110.58,-4558.995,-13106.52,-28713.465,-13699.89,-10826.64
1764762887.8046348,-8511.705,-9534.42,3111.66,-4557.825,-13104.81,-28711.98,-13698.36,-10824.66
1764762887.8046348,-8506.71,-9528.705,3116.565,-4552.47,-13099.5,-28707.255,-13693.635,-10819.665
1764762887.8046348,-8508.779999999999,-9531.36,3114.63,-4555.08,-13101.57,-28709.37,-13695.84,-10822.77
1764762887.8046348,-8511.795,-9534.555,3111.57,-4557.69,-13105.08,-28712.25,-13698.99,-10826.19
1764762887.8046348,-8506.8,-9528.84,3115.89,-4553.054999999999,-13100.085,-28707.12,-13694.085,-10821.825
1764762887.8046348,-8506.619999999999,-9528.705,3116.565,-4553.325,-13099.905,-28707.84,-13694.625,-10822.005
1764762887.8046348,-8512.244999999999,-9535.455,3110.715,-4559.67,-13107.06,-28714.86,-13700.205,-10827.63
1764762887.8046348,-8511.029999999999,-9534.645,3111.3,-4558.365,-13106.295,-28713.645,-13698.405,-10825.47
1764762887.8046348,-8506.98,-9529.965,3115.845,-4553.639999999999,-13101.975,-28707.795,-13694.085,-10820.655
1764762887.8046348,-8508.51,-9530.775,3114.225,-4554.72,-13103.01,-28708.695,-13694.895,-10821.555
1764762887.8046348,-8514.99,-9537.165,3107.43,-4560.84,-13109.22,-28715.13,-13701.645,-10827.675
1764762887.8062024,-8515.485,-9537.21,3107.385,-4560.57,-13109.895,-28715.67,-13702.095,-10828.935
1764762887.8062024,-8513.955,-9536.535,3108.15,-4560.255,-13109.265,-28714.815,-13701.285,-10827.72
1764762887.8062024,-8512.515,-9535.32,3109.77,-4558.365,-13107.015,-28711.935,-13700.295,-10825.65
1764762887.8062024,-8507.475,-9529.47,3114.99,-4553.19,-13102.47,-28707.48,-13693.32,-10821.42
1764762887.8062024,-8505.404999999999,-9527.355,3117.105,-4551.255,-13100.895,-28705.59,-13691.43,-10818.9
1764762887.8062024,-8507.88,-9529.695,3113.865,-4554.27,-13104.045,-28708.515,-13694.13,-10820.43
1764762887.8062024,-8508.555,-9530.505,3113.595,-4555.08,-13103.28,-28708.785,-13694.13,-10821.015
1764762887.8062024,-8510.805,-9532.755,3111.57,-4556.88,-13105.485,-28711.17,-13696.875,-10823.355
1764762887.8062024,-8513.505,-9535.23,3108.69,-4559.445,-13107.465,-28713.78,-13699.08,-10826.325
1764762887.8062024,-8512.56,-9534.33,3109.005,-4558.139999999999,-13106.61,-28712.52,-13698.675,-10825.065
1764762887.8533747,-8512.785,-9534.285,3109.23,-4558.86,-13107.465,-28712.925,-13698.72,-10825.02
1764762887.8533747,-8511.885,-9534.15,3109.005,-4558.545,-13107.015,-28712.79,-13697.64,-10824.435
1764762887.8533747,-8507.97,-9529.29,3113.46,-4553.55,-13102.74,-28708.02,-13693.455,-10820.025
1764762887.8533747,-8511.84,-9532.575,3110.67,-4557.195,-13105.98,-28711.215,-13696.605,-10823.265
1764762887.8533747,-8508.555,-9529.29,3113.595,-4553.865,-13103.01,-28708.83,-13693.905,-10820.655
1764762887.8533747,-8514.945,-9535.05,3106.845,-4560.929999999999,-13109.625,-28714.77,-13700.43,-10826.82
1764762887.8533747,-8513.1,-9533.07,3109.14,-4559.31,-13107.555,-28713.33,-13698.135,-10824.12
1764762887.8533747,-8507.654999999999,-9528.615,3114.18,-4555.125,-13103.19,-28709.73,-13693.815,-10819.305
1764762887.8538826,-8508.51,-9530.19,3112.47,-4555.17,-13104.045,-28708.965,-13694.085,-10820.52
1764762887.8538826,-8512.289999999999,-9533.25,3108.6,-4559.264999999999,-13108.365,-28712.79,-13697.865,-10824.3
1764762887.8538826,-8508.195,-9529.425,3112.74,-4555.8,-13104.405,-28709.055,-13693.86,-10820.97
1764762887.8538826,-8508.555,-9529.695,3112.29,-4555.665,-13104.09,-28709.145,-13693.95,-10820.385
1764762887.9008458,-8509.095,-9530.055,3111.705,-4556.25,-13104.18,-28710.18,-13694.085,-10821.105
1764762887.9008458,-8512.289999999999,-9532.98,3109.23,-4559.264999999999,-13106.745,-28712.655,-13698.225,-10824.84
1764762887.9008458,-8509.68,-9530.73,3111.795,-4556.25,-13102.695,-28708.83,-13695.57,-10821.285
1764762887.9008458,-8510.13,-9531.225,3111.435,-4557.599999999999,-13104.135,-28709.28,-13694.985,-10822.41
1764762887.9008458,-8512.47,-9532.44,3108.87,-4560.57,-13108.86,-28714.68,-13697.46,-10824.255
1764762887.9008458,-8511.93,-9531.18,3109.725,-4560.21,-13108.05,-28714.455,-13697.46,-10823.895
1764762887.9008458,-8512.695,-9531.81,3110.085,-4559.67,-13105.53,-28711.485,-13697.28,-10824.615
1764762887.9008458,-8514.045,-9534.645,3106.62,-4562.865,-13108.545,-28712.835,-13698.135,-10825.47
1764762887.9008458,-8512.289999999999,-9532.305,3108.06,-4561.065,-13106.925,-28711.395,-13696.47,-10823.22
1764762887.9008458,-8507.16,-9527.58,3114.63,-4554.9,-13100.805,-28705.905,-13691.745,-10818.315
1764762887.9008458,-8507.115,-9529.74,3114.855,-4555.485,-13099.77,-28705.77,-13691.43,-10817.415
1764762887.9008458,-8510.265,-9531.315,3112.11,-4559.985,-13104.945,-28710.315,-13695.165,-10820.88
1764762887.9008458,-8506.845,-9526.095,3116.07,-4556.115,-13100.85,-28705.455,-13691.16,-10818.405
1764762887.9008458,-8507.43,-9526.77,3116.385,-4555.304999999999,-13101.57,-28707.84,-13693.23,-10819.395
1764762887.9008458,-8510.4,-9532.395,3109.86,-4561.83,-13105.53,-28710.765,-13695.39,-10820.43
1764762887.9008458,-8510.22,-9532.305,3109.635,-4562.325,-13104.945,-28710.945,-13695.84,-10820.52
1764762887.9008458,-8504.955,-9525.465,3114.81,-4556.97,-13100.49,-28705.77,-13691.205,-10816.38
1764762887.9008458,-8506.529999999999,-9526.68,3114.045,-4557.645,-13102.605,-28706.94,-13692.105,-10818.09
1764762887.9008458,-8507.115,-9528.03,3112.695,-4558.545,-13103.595,-28708.875,-13692.78,-10817.91
1764762887.9008458,-8508.33,-9530.325,3111.21,-4559.67,-13105.485,-28711.305,-13694.805,-10820.43
1764762887.9008458,-8506.845,-9527.715,3115.08,-4556.07,-13100.94,-28707.93,-13693.14,-10818.81
1764762887.9008458,-8506.529999999999,-9527.58,3115.35,-4556.835,-13100.67,-28705.77,-13690.575,-10816.695
1764762887.9008458,-8508.6,-9529.11,3114.0,-4559.445,-13103.73,-28708.605,-13691.97,-10818.765
1764762887.9008458,-8513.73,-9534.24,3108.78,-4564.125,-13108.545,-28714.14,-13697.28,-10823.445
1764762887.9008458,-8512.289999999999,-9533.7,3108.6,-4563.224999999999,-13107.465,-28713.69,-13696.245,-10821.96
1764762887.9008458,-8509.68,-9530.775,3111.21,-4561.245,-13104.315,-28711.305,-13694.49,-10819.35
1764762887.9008458,-8504.055,-9525.015,3116.475,-4556.88,-13100.22,-28705.86,-13689.945,-10814.58
1764762887.9008458,-8504.324999999999,-9524.34,3117.51,-4556.16,-13099.995,-28707.39,-13691.115,-10815.165
1764762887.9018612,-8506.08,-9526.68,3116.205,-4556.925,-13100.13,-28706.895,-13691.025,-10816.155
1764762887.9018612,-8510.985,-9531.765,3110.49,-4562.28,-13105.08,-28711.305,-13695.795,-10821.015
1764762887.9018612,-8510.58,-9531.63,3110.445,-4562.01,-13103.955,-28711.035,-13695.48,-10820.025
1764762887.9018612,-8508.869999999999,-9529.605,3112.245,-4561.065,-13102.29,-28708.83,-13692.87,-10818.45
1764762887.9018612,-8503.875,-9524.25,3116.43,-4557.42,-13099.725,-28706.445,-13689.54,-10813.455
1764762887.9018612,-8509.14,-9531.36,3109.32,-4564.755,-13107.825,-28715.265,-13696.29,-10816.38
1764762887.9018612,-8510.13,-9529.92,3111.705,-4561.56,-13105.215,-28711.935,-13696.155,-10819.44
1764762887.9018612,-8503.515,-9522.0,3118.32,-4555.485,-13097.385,-28703.565,-13688.235,-10814.22
1764762887.9452095,-8503.515,-9522.855,3117.69,-4556.34,-13098.195,-28704.375,-13687.38,-10813.275
1764762887.9452095,-8505.945,-9525.96,3113.64,-4559.895,-13101.03,-28706.67,-13689.72,-10814.85
1764762887.9452095,-8510.445,-9530.415,3110.31,-4563.855,-13105.17,-28710.09,-13693.32,-10818.495
1764762887.9452095,-8507.88,-9527.085,3113.73,-4560.974999999999,-13102.74,-28707.12,-13691.655,-10816.2
1764762887.9452095,-8510.58,-9529.74,3111.21,-4563.63,-13104.765,-28709.73,-13694.535,-10818.63
1764762887.9452095,-8505.855,-9525.24,3115.44,-4559.264999999999,-13099.77,-28705.32,-13690.08,-10813.905
1764762887.9452095,-8504.955,-9524.16,3116.655,-4558.32,-13099.185,-28704.24,-13688.955,-10812.825
1764762887.9452095,-8512.605,-9532.53,3108.6,-4566.42,-13106.88,-28712.43,-13695.84,-10819.305
1764762887.9452095,-8512.83,-9531.495,3109.455,-4566.014999999999,-13106.025,-28713.015,-13695.3,-10820.745
1764762887.9457388,-8512.965,-9531.765,3109.815,-4566.105,-13106.295,-28713.06,-13695.84,-10821.735
1764762887.9457388,-8511.66,-9531.18,3110.175,-4566.465,-13105.755,-28712.61,-13695.84,-10820.115
1764762887.9457388,-8511.57,-9530.595,3110.265,-4565.429999999999,-13105.845,-28712.205,-13695.615,-10818.405
1764762887.9457388,-8510.445,-9528.975,3111.57,-4563.495,-13105.62,-28710.72,-13695.39,-10817.64
1764762887.9457388,-8507.88,-9526.05,3114.585,-4561.02,-13102.2,-28707.84,-13692.555,-10815.615
1764762887.9457388,-8503.065,-9521.145,3119.085,-4556.385,-13096.89,-28703.34,-13687.65,-10810.305
1764762887.9457388,-8505.945,-9524.43,3116.97,-4559.264999999999,-13099.185,-28706.265,-13690.305,-10813.59
1764762887.9457388,-8501.31,-9519.165,3122.145,-4554.45,-13094.955,-28701.27,-13685.895,-10807.83
1764762887.9457388,-8501.94,-9520.38,3120.705,-4556.025,-13096.17,-28702.755,-13686.615,-10808.235
1764762887.992479,-8502.795,-9522.18,3118.995,-4558.365,-13097.295,-28704.42,-13687.605,-10809.855
1764762887.992479,-8509.949999999999,-9530.145,3112.38,-4565.115,-13103.775,-28709.64,-13693.725,-10816.515
1764762887.992479,-8510.805,-9531.675,3110.625,-4566.51,-13106.655,-28712.43,-13695.345,-10816.83
1764762887.992479,-8506.619999999999,-9525.735,3116.7,-4560.435,-13101.57,-28708.38,-13692.465,-10813.455
1764762887.992479,-8502.255,-9521.055,3120.66,-4555.575,-13095.81,-28701.27,-13685.985,-10808.64
1764762887.992479,-8506.26,-9524.565,3117.105,-4559.04,-13099.23,-28705.725,-13690.755,-10812.87
1764762887.9940193,-8498.52,-9515.88,3126.195,-4550.985,-13091.535,-28699.02,-13684.41,-10805.94
1764762887.9940193,-8498.025,-9517.14,3124.665,-4551.389999999999,-13091.94,-28697.355,-13683.42,-10804.95
1764762887.9940193,-8502.93,-9523.44,3117.51,-4557.78,-13098.51,-28703.07,-13687.29,-10809.495
1764762887.9940193,-8493.93,-9521.505,3116.115,-4560.615,-13101.3,-28706.67,-13690.26,-10803.105
1764762887.9940193,-8461.89,-9503.28,3128.31,-4550.264999999999,-13093.56,-28701.765,-13682.7,-10770.3
1764762887.9940193,-8515.845,-9532.935,3110.085,-4563.54,-13102.47,-28707.75,-13690.935,-10816.965
1764762887.9940193,-8482.23,-9515.745,3121.11,-4554.405,-13094.145,-28699.47,-13683.15,-10784.07
1764762887.9940193,-8347.545,-9443.655,3167.145,-4519.485,-13066.605,-28673.46,-13645.755,-10634.94
1764762887.9940193,-8505.72,-9528.66,3107.565,-4570.245,-13113.81,-28719.225,-13695.93,-10821.465
1764762887.9940193,-8551.619999999999,-9542.475,3107.835,-4563.72,-13103.505,-28711.035,-13701.195,-10865.205
1764762887.9940193,-8520.164999999999,-9534.6,3108.375,-4566.195,-13105.98,-28713.915,-13698.63,-10828.935
1764762887.9940193,-8517.824999999999,-9534.69,3108.825,-4566.33,-13105.935,-28712.79,-13696.965,-10825.515
1764762887.9940193,-8514.855,-9531.81,3111.075,-4564.395,-13104.405,-28710.18,-13693.95,-10822.32
1764762887.995029,-8518.095,-9533.925,3108.42,-4568.13,-13108.365,-28715.445,-13698.405,-10826.19
1764762887.995029,-8511.255,-9527.445,3114.18,-4563.63,-13105.215,-28713.33,-13695.345,-10820.295
1764762887.995029,-8514.18,-9531.99,3110.04,-4566.915,-13106.205,-28714.545,-13696.695,-10823.13
1764762887.995029,-8499.105,-9523.35,3117.42,-4558.095,-13097.745,-28707.345,-13692.33,-10803.51
1764762887.995029,-8437.59,-9492.12,3137.265,-4542.48,-13082.445,-28688.985,-13672.395,-10737.72
1764762887.995029,-8441.324999999999,-9490.77,3138.795,-4542.525,-13083.705,-28687.995,-13667.355,-10740.285
1764762887.995029,-8521.244999999999,-9539.685,3099.465,-4577.895,-13115.61,-28718.82,-13702.095,-10838.475
1764762887.995029,-8542.845,-9545.985,3102.12,-4572.585,-13109.85,-28715.22,-13705.245,-10852.605
1764762887.995029,-8522.505,-9535.68,3107.97,-4569.48,-13108.455,-28713.24,-13700.205,-10830.825
1764762887.995029,-8512.605,-9530.28,3112.335,-4565.205,-13104.9,-28709.19,-13694.67,-10821.915
1764762887.995029,-8516.97,-9535.365,3107.16,-4570.605,-13110.255,-28714.725,-13699.305,-10825.74
1764762888.040878,-8517.42,-9535.59,3106.53,-4570.29,-13110.615,-28714.86,-13699.575,-10825.065
1764762888.040878,-8513.505,-9531.54,3110.535,-4566.42,-13106.61,-28712.16,-13696.29,-10821.195
1764762888.040878,-8517.555,-9535.815,3106.215,-4571.01,-13110.615,-28715.895,-13699.8,-10825.83
1764762888.040878,-8517.69,-9535.995,3106.17,-4571.01,-13110.075,-28715.625,-13700.925,-10825.92
1764762888.040878,-8513.685,-9532.35,3109.905,-4567.185,-13106.115,-28711.575,-13696.56,-10821.33
1764762888.040878,-8513.865,-9533.475,3109.725,-4567.77,-13106.07,-28711.395,-13697.73,-10821.42
1764762888.040878,-8513.91,-9532.89,3109.905,-4567.86,-13106.295,-28711.395,-13697.595,-10820.34
1764762888.040878,-8512.244999999999,-9531.45,3110.085,-4566.915,-13105.755,-28710.63,-13695.615,-10818.675
1764762888.040878,-8511.3,-9530.37,3110.94,-4566.33,-13105.215,-28710.405,-13695.255,-10817.685
1764762888.040878,-8517.779999999999,-9535.77,3105.27,-4571.46,-13111.38,-28716.975,-13701.915,-10824.39
1764762888.040878,-8518.455,-9537.705,3104.46,-4571.91,-13111.83,-28717.11,-13702.455,-10824.75
1764762888.040878,-8511.119999999999,-9530.28,3111.615,-4565.565,-13106.205,-28710.63,-13694.805,-10817.145
1764762888.040878,-8512.695,-9531.72,3109.725,-4568.13,-13109.04,-28714.23,-13695.84,-10818.405
1764762888.040878,-8517.375,-9536.22,3105.81,-4572.405,-13112.1,-28718.415,-13701.24,-10824.255
1764762888.040878,-8514.945,-9533.745,3108.555,-4569.435,-13108.05,-28713.87,-13698.99,-10822.995
1764762888.040878,-8515.845,-9534.915,3107.295,-4570.83,-13110.165,-28715.67,-13699.53,-10823.04
1764762888.0413847,-8515.574999999999,-9534.555,3106.755,-4570.2,-13109.805,-28716.12,-13699.17,-10821.015
1764762888.0413847,-8509.545,-9527.67,3113.91,-4563.09,-13102.695,-28708.38,-13692.555,-10815.165
1764762888.0413847,-8508.465,-9527.4,3114.63,-4563.045,-13101.975,-28707.66,-13692.33,-10814.985
1764762888.0413847,-8515.619999999999,-9535.68,3105.72,-4571.325,-13110.66,-28716.12,-13701.24,-10822.59
1764762888.0413847,-8514.945,-9534.51,3106.935,-4570.965,-13110.93,-28716.12,-13700.295,-10821.42
1764762888.0413847,-8510.13,-9529.245,3111.75,-4566.105,-13106.79,-28712.295,-13695.48,-10816.02
1764762888.0882022,-8509.455,-9527.985,3112.785,-4564.62,-13105.8,-28711.44,-13695.345,-10815.84
1764762888.0882022,-8510.265,-9528.615,3112.155,-4565.295,-13106.34,-28711.035,-13696.065,-10817.505
1764762888.0882022,-8510.67,-9530.28,3111.12,-4566.87,-13107.42,-28711.395,-13696.83,-10818.315
1764762888.0882022,-8516.34,-9536.355,3105.495,-4572.224999999999,-13112.28,-28716.57,-13702.095,-10823.265
1764762888.0882022,-8516.07,-9535.995,3105.72,-4571.505,-13112.145,-28716.795,-13702.545,-10823.355
1764762888.0882022,-8514.18,-9532.71,3108.465,-4569.255,-13110.12,-28714.68,-13700.475,-10821.15
1764762888.0882022,-8509.23,-9527.22,3112.74,-4564.935,-13105.215,-28709.28,-13695.165,-10816.605
1764762888.0882022,-8511.84,-9529.83,3110.04,-4567.32,-13107.78,-28711.935,-13697.685,-10819.08
1764762888.0882022,-8515.08,-9533.34,3106.935,-4570.965,-13110.615,-28715.22,-13701.195,-10822.5
1764762888.0882022,-8510.22,-9527.67,3113.325,-4564.215,-13105.26,-28710.63,-13697.46,-10818.495
1764762888.0887115,-8508.69,-9527.535,3111.255,-4566.42,-13106.88,-28711.98,-13697.415,-10815.705
1764762888.0887115,-8513.414999999999,-9532.575,3105.765,-4571.865,-13112.055,-28715.805,-13701.06,-10819.89
1764762888.0887115,-8511.84,-9530.055,3107.79,-4568.94,-13109.715,-28713.42,-13699.62,-10819.305
1764762888.0887115,-8507.925,-9525.69,3112.245,-4564.08,-13104.765,-28708.155,-13695.795,-10815.615
1764762888.0887115,-8513.19,-9531.99,3106.17,-4570.02,-13110.93,-28714.005,-13701.105,-10819.755
1764762888.0887115,-8512.785,-9530.595,3107.835,-4568.535,-13110.975,-28713.915,-13701.105,-10820.655
1764762888.0887115,-8508.555,-9525.78,3112.56,-4563.9,-13107.33,-28710.18,-13696.92,-10816.65
1764762888.0887115,-8511.705,-9528.12,3110.58,-4565.97,-13109.04,-28712.61,-13699.89,-10818.18
1764762888.0887115,-8503.965,-9520.74,3117.24,-4559.58,-13101.795,-28703.79,-13690.98,-10809.765
1764762888.0887115,-8505.449999999999,-9523.305,3114.45,-4562.28,-13104.405,-28706.67,-13693.23,-10811.34
1764762888.0887115,-8508.645,-9526.275,3111.795,-4565.16,-13106.655,-28709.82,-13697.145,-10814.76
1764762888.0887115,-8505.494999999999,-9521.865,3114.9,-4561.56,-13103.055,-28706.22,-13693.545,-10811.16
1764762888.0887115,-8504.73,-9521.865,3115.395,-4562.145,-13104.27,-28706.355,-13693.365,-10811.295
1764762888.0887115,-8510.22,-9531.09,3107.025,-4570.425,-13111.02,-28710.63,-13696.605,-10815.03
1764762888.0887115,-8514.585,-9532.08,3108.105,-4569.705,-13111.83,-28714.455,-13700.43,-10819.215
1764762888.0887115,-8504.01,-9521.595,3117.33,-4561.02,-13103.37,-28708.29,-13694.22,-10811.88
1764762888.135398,-8502.705,-9521.19,3116.925,-4559.58,-13102.065,-28706.355,-13692.6,-10810.35
1764762888.135398,-8505.0,-9522.81,3115.35,-4561.11,-13103.19,-28707.75,-13694.04,-10812.555
1764762888.135398,-8507.205,-9525.87,3112.56,-4564.845,-13105.755,-28711.215,-13695.435,-10814.67
1764762888.135398,-8511.48,-9529.02,3107.835,-4569.12,-13110.12,-28715.76,-13700.16,-10819.125
1764762888.135398,-8508.779999999999,-9525.87,3111.255,-4565.07,-13106.97,-28712.25,-13697.73,-10816.29
1764762888.135398,-8511.119999999999,-9528.705,3107.925,-4568.04,-13109.94,-28714.095,-13699.575,-10817.595
1764762888.135398,-8508.015,-9526.095,3110.13,-4565.925,-13107.555,-28710.9,-13697.64,-10814.04
1764762888.135398,-8510.49,-9528.795,3107.745,-4567.32,-13109.58,-28712.97,-13701.24,-10817.415
1764762888.135398,-8504.595,-9522.675,3114.225,-4560.929999999999,-13102.965,-28706.355,-13693.995,-10811.97
1764762888.135398,-8504.145,-9522.585,3115.125,-4561.514999999999,-13103.415,-28707.975,-13693.77,-10809.945
1764762888.135398,-8502.164999999999,-9520.47,3116.88,-4559.264999999999,-13102.2,-28706.58,-13691.115,-10807.695
1764762888.135398,-8506.755,-9525.06,3112.56,-4563.315,-13106.52,-28710.495,-13696.155,-10814.13
1764762888.135398,-8503.695,-9520.92,3115.935,-4560.165,-13102.425,-28707.165,-13691.97,-10810.665
1764762888.135398,-8499.51,-9515.655,3120.48,-4556.34,-13098.825,-28703.475,-13687.38,-10805.265
1764762888.135398,-8504.369999999999,-9521.28,3115.17,-4560.929999999999,-13104.27,-28707.525,-13692.555,-10809.72
1764762888.135398,-8503.605,-9519.75,3117.735,-4558.139999999999,-13102.065,-28704.87,-13691.52,-10810.395
1764762888.135398,-8497.08,-9513.675,3123.855,-4551.84,-13095.27,-28700.28,-13686.165,-10803.285
1764762888.135398,-8501.67,-9520.74,3115.125,-4560.615,-13101.795,-28705.05,-13689.18,-10806.48
1764762888.135398,-8500.5,-9518.715,3118.005,-4558.095,-13099.815,-28703.07,-13687.695,-10805.985
1764762888.135398,-8493.66,-9511.38,3125.745,-4550.535,-13093.065,-28696.41,-13681.305,-10799.325
1764762888.182782,-8493.119999999999,-9510.66,3126.15,-4549.86,-13093.83,-28697.625,-13680.45,-10798.605
1764762888.182782,-8500.725,-9518.04,3119.535,-4556.52,-13100.895,-28706.535,-13689.36,-10806.21
1764762888.182782,-8496.404999999999,-9513.855,3122.01,-4553.82,-13095.54,-28700.595,-13684.86,-10800.99
1764762888.182782,-8491.095,-9509.13,3126.195,-4550.31,-13091.04,-28694.565,-13678.245,-10794.915
1764762888.182782,-8490.33,-9507.825,3127.725,-4548.78,-13090.365,-28694.205,-13677.975,-10794.735
1764762888.182782,-8494.11,-9511.2,3124.62,-4552.2,-13094.235,-28697.715,-13681.62,-10798.74
1764762888.182782,-8492.13,-9509.265,3126.87,-4549.139999999999,-13091.715,-28693.98,-13679.82,-10797.03
1764762888.182782,-8487.18,-9504.45,3131.685,-4544.415,-13086.495,-28690.02,-13675.995,-10792.17
1764762888.182782,-8487.99,-9505.755,3130.515,-4547.025,-13089.105,-28694.205,-13677.48,-10790.73
1764762888.182782,-8488.664999999999,-9506.115,3130.245,-4547.565,-13089.24,-28693.53,-13677.795,-10790.415
1764762888.2289402,-8489.565,-9506.25,3130.38,-4547.565,-13088.34,-28690.47,-13676.265,-10793.655
1764762888.2289402,-8497.08,-9513.09,3123.855,-4554.764999999999,-13095.675,-28698.03,-13683.33,-10802.43
1764762888.2289402,-8496.494999999999,-9512.595,3124.35,-4554.54,-13095.405,-28698.705,-13682.745,-10801.125
1764762888.2289402,-8492.445,-9509.04,3127.68,-4551.615,-13091.49,-28695.645,-13679.1,-10796.67
1764762888.2289402,-8494.65,-9510.975,3125.25,-4553.28,-13092.66,-28697.175,-13681.8,-10798.875
1764762888.2289402,-8490.914999999999,-9506.655,3129.075,-4549.005,-13088.34,-28691.865,-13677.57,-10794.24
1764762888.2289402,-8492.76,-9508.725,3126.96,-4550.94,-13091.04,-28693.08,-13679.01,-10796.265
1764762888.2289402,-8490.105,-9506.025,3129.255,-4548.78,-13089.06,-28690.155,-13676.67,-10793.79
1764762888.2289402,-8491.23,-9508.455,3127.14,-4550.804999999999,-13090.905,-28692.54,-13677.795,-10795.005
1764762888.2289402,-8485.74,-9503.1,3132.0,-4546.08,-13086.045,-28687.815,-13672.35,-10789.065
1764762888.2289402,-8485.244999999999,-9502.875,3132.945,-4545.585,-13085.82,-28688.04,-13672.17,-10787.895
1764762888.2289402,-8492.175,-9509.58,3125.475,-4552.38,-13093.38,-28696.635,-13679.82,-10795.23
1764762888.2289402,-8490.869999999999,-9507.87,3128.085,-4551.389999999999,-13092.435,-28694.655,-13678.29,-10795.455
1764762888.2289402,-8484.39,-9500.445,3134.565,-4546.215,-13087.53,-28690.65,-13673.07,-10789.605
1764762888.2289402,-8488.395,-9505.17,3130.02,-4550.264999999999,-13090.32,-28693.395,-13675.545,-10791.72
1764762888.2289402,-8490.824999999999,-9507.69,3127.185,-4553.235,-13091.715,-28694.385,-13676.13,-10792.8
1764762888.2289402,-8484.39,-9503.19,3132.9,-4548.33,-13086.495,-28689.48,-13672.17,-10786.995
1764762888.2289402,-8485.92,-9504.405,3130.56,-4549.679999999999,-13088.34,-28690.785,-13674.06,-10787.805
1764762888.2289402,-8491.14,-9507.87,3127.05,-4553.865,-13092.705,-28695.015,-13679.46,-10794.915
1764762888.2289402,-8490.869999999999,-9507.96,3127.86,-4553.595,-13092.66,-28695.195,-13679.235,-10793.475
1764762888.2289402,-8486.369999999999,-9502.425,3133.485,-4546.98,-13085.19,-28687.995,-13672.98,-10788.345
1764762888.2289402,-8492.22,-9508.815,3126.33,-4554.945,-13092.885,-28693.755,-13677.93,-10793.97
1764762888.2289402,-8492.58,-9507.69,3128.22,-4553.325,-13092.57,-28693.98,-13678.02,-10794.78
1764762888.2289402,-8486.46,-9501.975,3134.385,-4546.935,-13085.685,-28689.57,-13673.115,-10788.57
1764762888.2289402,-8485.154999999999,-9502.38,3131.82,-4549.77,-13086.99,-28688.445,-13669.83,-10785.78
1764762888.2289402,-8485.065,-9502.02,3132.72,-4549.77,-13087.17,-28688.04,-13671.18,-10787.355
1764762888.2289402,-8484.885,-9501.795,3133.305,-4549.365,-13086.495,-28687.95,-13671.45,-10787.805
1764762888.2289402,-8489.07,-9506.25,3129.21,-4553.685,-13090.365,-28692.45,-13675.095,-10791.9
1764762888.2289402,-8486.775,-9504.315,3131.055,-4552.514999999999,-13088.61,-28691.055,-13673.655,-10789.965
1764762888.2289402,-8482.455,-9498.915,3136.41,-4546.575,-13083.345,-28684.845,-13668.885,-10784.745
1764762888.2289402,-8483.355,-9499.5,3135.69,-4547.474999999999,-13084.83,-28685.745,-13668.885,-10786.545
1764762888.2289402,-8489.475,-9505.845,3129.885,-4550.94,-13090.005,-28690.695,-13674.42,-10792.53
1764762888.2289402,-8487.045,-9502.605,3132.405,-4549.05,-13089.51,-28691.955,-13674.915,-10789.515
1764762888.2289402,-8484.164999999999,-9500.13,3134.025,-4548.465,-13086.405,-28687.995,-13671.09,-10786.32
1764762888.2304993,-8486.865,-9503.28,3132.18,-4551.435,-13089.015,-28691.19,-13673.835,-10789.605
1764762888.2304993,-8482.455,-9499.68,3135.6,-4548.15,-13085.775,-28687.005,-13670.64,-10784.88
1764762888.2304993,-8484.164999999999,-9500.895,3134.34,-4549.005,-13087.755,-28688.445,-13672.17,-10785.78
1764762888.2304993,-8480.385,-9497.07,3137.985,-4545.764999999999,-13083.84,-28684.26,-13668.615,-10782.045
1764762888.2766445,-8481.735,-9499.095,3136.185,-4547.205,-13085.595,-28685.88,-13669.65,-10783.62
1764762888.2766445,-8485.335,-9502.92,3132.585,-4550.76,-13089.33,-28689.705,-13673.385,-10787.13
1764762888.2766445,-8482.005,-9498.645,3136.005,-4547.25,-13084.74,-28685.205,-13669.695,-10782.9
1764762888.2766445,-8482.455,-9497.88,3136.32,-4547.025,-13084.335,-28686.285,-13669.92,-10783.395
1764762888.2766445,-8482.949999999999,-9499.725,3134.925,-4548.69,-13085.19,-28687.635,-13670.64,-10783.17
1764762888.2766445,-8486.369999999999,-9503.37,3131.685,-4552.155,-13089.285,-28691.505,-13672.845,-10785.87
1764762888.2766445,-8483.13,-9497.745,3137.04,-4547.25,-13084.785,-28686.42,-13669.245,-10783.665
1764762888.2766445,-8484.255,-9499.365,3135.105,-4548.69,-13085.955,-28688.04,-13670.82,-10784.88
1764762888.2766445,-8488.08,-9504.09,3130.785,-4553.55,-13089.96,-28692.9,-13674.555,-10789.02
1764762888.2766445,-8484.3,-9500.13,3135.06,-4549.905,-13085.82,-28688.895,-13670.145,-10784.925
1764762888.2766445,-8483.22,-9499.815,3135.24,-4549.679999999999,-13085.775,-28687.95,-13670.19,-10784.52
1764762888.2766445,-8486.279999999999,-9502.695,3132.36,-4552.965,-13088.7,-28691.685,-13674.285,-10787.265
1764762888.2766445,-8485.335,-9501.48,3133.62,-4551.929999999999,-13088.52,-28692.045,-13674.06,-10786.005
1764762888.2766445,-8489.295,-9505.17,3130.695,-4553.415,-13088.835,-28692.36,-13676.805,-10790.64
1764762888.2766445,-8487.855,-9502.74,3132.135,-4553.19,-13088.79,-28691.01,-13672.89,-10788.12
1764762888.2771544,-8482.86,-9497.34,3137.445,-4548.285,-13084.245,-28686.96,-13669.29,-10783.035
1764762888.2771544,-8482.365,-9497.61,3137.31,-4548.87,-13083.885,-28686.285,-13669.2,-10783.035
1764762888.2771544,-8487.494999999999,-9502.695,3131.595,-4554.179999999999,-13088.79,-28690.605,-13674.375,-10787.94
1764762888.2771544,-8488.935,-9504.225,3130.83,-4555.17,-13089.915,-28691.595,-13675.59,-10789.02
1764762888.2771544,-8484.48,-9499.365,3135.33,-4550.985,-13085.505,-28687.32,-13671.45,-10784.745
1764762888.2771544,-8483.445,-9498.69,3136.095,-4550.264999999999,-13084.38,-28686.33,-13669.695,-10783.215
1764762888.2771544,-8486.955,-9503.055,3131.775,-4554.045,-13087.89,-28690.02,-13672.8,-10785.33
1764762888.2771544,-8481.735,-9496.8,3137.94,-4548.285,-13082.67,-28685.07,-13667.535,-10781.19
1764762888.2771544,-8483.805,-9501.21,3132.495,-4553.19,-13087.8,-28687.86,-13669.92,-10783.215
1764762888.3232455,-8487.36,-9503.64,3130.83,-4554.945,-13090.545,-28691.055,-13671.72,-10785.87
1764762888.3232455,-8486.685,-9501.075,3132.945,-4553.054999999999,-13089.555,-28693.08,-13675.545,-10787.445
1764762888.3232455,-8482.365,-9498.645,3135.015,-4550.849999999999,-13086.045,-28689.12,-13671.405,-10782.72
1764762888.3232455,-8487.315,-9504.045,3130.335,-4555.71,-13091.175,-28693.215,-13675.365,-10788.255
1764762888.3232455,-8486.1,-9503.19,3132.09,-4554.135,-13090.545,-28694.655,-13675.86,-10786.455
1764762888.3232455,-8490.914999999999,-9507.87,3127.095,-4559.085,-13094.415,-28698.57,-13680.27,-10790.055
1764762888.3232455,-8488.305,-9503.775,3132.045,-4555.08,-13088.52,-28689.93,-13674.69,-10790.82
1764762888.3232455,-8485.92,-9501.165,3134.205,-4552.47,-13086.45,-28687.23,-13671.18,-10787.715
1764762888.3232455,-8481.195,-9496.215,3139.02,-4547.115,-13082.4,-28683.045,-13667.49,-10782.675
1764762888.3232455,-8487.315,-9502.245,3133.485,-4552.02,-13088.295,-28690.02,-13674.69,-10788.615
1764762888.3232455,-8488.44,-9506.295,3128.085,-4558.41,-13092.795,-28693.215,-13676.04,-10787.31
1764762888.3232455,-8486.505,-9503.865,3130.2,-4556.429999999999,-13091.31,-28690.83,-13673.88,-10786.5
1764762888.3232455,-8479.755,-9495.405,3137.805,-4549.095,-13084.02,-28684.26,-13667.67,-10780.56
1764762888.3232455,-8478.765,-9495.09,3139.29,-4547.474999999999,-13082.265,-28683.045,-13667.22,-10780.065
1764762888.3232455,-8479.395,-9496.305,3138.705,-4547.97,-13083.48,-28684.08,-13667.94,-10780.02
1764762888.3232455,-8486.775,-9502.92,3130.83,-4555.485,-13091.085,-28690.38,-13675.005,-10787.4
1764762888.3232455,-8483.895,-9499.725,3134.07,-4551.389999999999,-13087.305,-28686.825,-13672.17,-10784.475
1764762888.3232455,-8483.13,-9498.645,3134.925,-4550.58,-13086.945,-28686.915,-13671.765,-10783.845
1764762888.3232455,-8476.695,-9494.55,3138.345,-4546.98,-13082.625,-28683.405,-13670.19,-10778.445
1764762888.3232455,-8469.539999999999,-9494.955,3135.375,-4549.905,-13085.415,-28685.115,-13670.055,-10767.69
1764762888.3232455,-8495.595,-9509.94,3123.585,-4561.965,-13098.735,-28698.93,-13682.34,-10797.345
1764762888.3232455,-8493.57,-9505.89,3126.915,-4558.275,-13095.315,-28697.04,-13680.63,-10795.545
1764762888.3232455,-8491.23,-9505.89,3126.375,-4559.58,-13096.305,-28696.725,-13680.315,-10793.43
1764762888.3232455,-8489.07,-9503.46,3128.4,-4557.24,-13094.235,-28694.07,-13678.38,-10791.36
1764762888.3703947,-8482.815,-9497.25,3133.98,-4551.12,-13087.845,-28687.41,-13672.53,-10784.205
1764762888.3703947,-8483.355,-9499.23,3132.855,-4551.75,-13087.485,-28686.015,-13671.36,-10783.62
1764762888.3703947,-8484.93,-9505.89,3124.305,-4560.48,-13095.675,-28692.675,-13675.77,-10785.465
1764762888.3703947,-8480.43,-9494.505,3137.4,-4546.8,-13083.975,-28684.8,-13669.965,-10781.595
1764762888.3714805,-8479.619999999999,-9492.12,3140.01,-4545.585,-13083.795,-28684.62,-13669.74,-10781.415
1764762888.3714805,-8486.324999999999,-9499.455,3131.37,-4554.09,-13093.92,-28695.105,-13678.065,-10787.445
1764762888.3714805,-8477.01,-9493.785,3136.995,-4547.79,-13085.505,-28688.445,-13673.79,-10775.295
1764762888.3714805,-8454.69,-9475.65,3152.835,-4531.77,-13069.62,-28670.805,-13655.655,-10745.82
1764762888.3714805,-8487.18,-9500.58,3129.435,-4553.55,-13091.175,-28689.795,-13675.365,-10791.945
1764762888.3714805,-8490.914999999999,-9503.235,3127.635,-4555.304999999999,-13092.39,-28691.64,-13676.31,-10792.215
1764762888.3714805,-8487.449999999999,-9501.075,3129.795,-4553.37,-13091.085,-28690.74,-13675.725,-10787.715
1764762888.3714805,-8485.38,-9499.815,3130.245,-4553.505,-13091.265,-28690.065,-13675.185,-10785.465
1764762888.3714805,-8410.14,-9455.13,3166.245,-4522.139999999999,-13061.52,-28662.705,-13648.095,-10689.39
1764762888.3714805,-8370.315,-9425.565,3193.56,-4496.49,-13036.32,-28638.63,-13615.515,-10630.26
1764762888.3725348,-8506.935,-9521.055,3106.26,-4577.4,-13110.435,-28707.255,-13689.765,-10836.54
1764762888.3725348,-8465.58,-9487.665,3138.93,-4549.005,-13088.475,-28689.975,-13672.215,-10774.215
1764762888.3725348,-8375.355,-9435.24,3177.495,-4516.11,-13062.015,-28669.14,-13646.88,-10672.605
1764762888.3725348,-8501.85,-9501.615,3136.005,-4546.575,-13082.355,-28684.935,-13670.46,-10803.555
1764762888.3730354,-8520.029999999999,-9515.475,3124.035,-4557.06,-13091.31,-28691.595,-13680.585,-10825.02
1764762888.3730354,-8487.855,-9497.07,3136.005,-4549.005,-13086.81,-28689.3,-13674.645,-10791.405
1764762888.3730354,-8485.65,-9497.655,3134.25,-4549.005,-13084.29,-28684.71,-13669.695,-10786.095
1764762888.3730354,-8491.68,-9505.44,3126.15,-4557.375,-13092.39,-28691.28,-13675.275,-10790.595
1764762888.4179077,-8491.5,-9505.44,3127.995,-4555.125,-13090.365,-28690.02,-13674.96,-10790.01
1764762888.4179077,-8485.875,-9498.96,3133.98,-4549.365,-13086.045,-28685.79,-13671.54,-10785.915
1764762888.4179077,-8479.619999999999,-9494.19,3138.12,-4545.0,-13081.095,-28681.38,-13665.78,-10778.355
1764762888.4179077,-8484.21,-9498.42,3133.395,-4550.625,-13085.955,-28687.095,-13671.18,-10784.52
1764762888.4179077,-8479.89,-9497.205,3134.025,-4550.085,-13085.145,-28685.115,-13668.795,-10781.415
1764762888.4179077,-8441.865,-9484.47,3133.845,-4553.145,-13088.52,-28684.575,-13662.18,-10748.34
1764762888.4179077,-8426.88,-9470.385,3145.5,-4543.92,-13086.855,-28690.425,-13667.22,-10735.92
1764762888.4179077,-8497.8,-9493.29,3147.03,-4532.849999999999,-13067.91,-28671.84,-13661.415,-10794.915
1764762888.4179077,-8483.13,-9496.17,3137.535,-4545.675,-13082.445,-28681.515,-13666.725,-10780.02
1764762888.4179077,-8470.574999999999,-9490.23,3139.245,-4545.224999999999,-13083.39,-28683.945,-13666.905,-10765.395
1764762888.4179077,-8479.395,-9488.295,3144.105,-4539.554999999999,-13075.515,-28678.77,-13665.105,-10783.395
1764762888.4179077,-8485.02,-9500.67,3131.595,-4552.29,-13086.99,-28686.465,-13670.145,-10784.385
1764762888.4179077,-8481.06,-9495.315,3136.86,-4547.34,-13084.74,-28684.53,-13667.535,-10779.48
1764762888.4179077,-8480.789999999999,-9496.395,3134.16,-4550.264999999999,-13086.27,-28686.375,-13670.55,-10781.1
1764762888.4179077,-8468.955,-9486.945,3143.16,-4540.275,-13075.515,-28675.035,-13660.65,-10770.165
1764762888.4179077,-8476.92,-9490.68,3141.135,-4544.37,-13082.13,-28682.865,-13665.195,-10776.24
1764762888.4179077,-8483.13,-9497.025,3134.88,-4551.03,-13088.115,-28687.905,-13670.91,-10783.08
1764762888.4179077,-8476.515,-9490.635,3140.595,-4544.91,-13081.905,-28681.875,-13665.15,-10776.735
1764762888.4179077,-8478.09,-9492.48,3139.29,-4546.08,-13082.445,-28682.325,-13666.815,-10777.905
1764762888.4179077,-8485.154999999999,-9500.22,3131.73,-4553.19,-13088.205,-28687.995,-13672.53,-10783.8
1764762888.4179077,-8481.465,-9496.17,3134.97,-4551.03,-13087.305,-28687.59,-13671.045,-10781.505
1764762888.4179077,-8474.22,-9488.925,3142.26,-4543.695,-13079.745,-28679.94,-13663.08,-10773.27
1764762888.4179077,-8450.145,-9474.93,3153.555,-4533.48,-13070.655,-28670.94,-13654.44,-10744.65
1764762888.4179077,-8414.64,-9449.595,3175.11,-4513.995,-13053.015,-28655.19,-13637.79,-10697.445
1764762888.4609864,-8478.045,-9486.63,3145.32,-4540.32,-13075.74,-28677.015,-13661.775,-10775.7
1764762888.4609864,-8481.195,-9494.505,3136.455,-4549.545,-13084.92,-28685.97,-13667.49,-10780.65
1764762888.4609864,-8494.47,-9506.25,3124.935,-4561.2,-13096.935,-28697.94,-13676.85,-10793.655
1764762888.4609864,-8485.65,-9498.78,3132.18,-4553.91,-13090.095,-28689.345,-13671.63,-10784.61
1764762888.4609864,-8484.84,-9497.25,3133.62,-4552.65,-13087.08,-28685.385,-13669.56,-10785.555
1764762888.4609864,-8481.645,-9494.46,3137.13,-4549.77,-13084.29,-28683.135,-13666.86,-10781.28
1764762888.4609864,-8482.68,-9496.395,3134.835,-4551.84,-13086.63,-28685.295,-13668.435,-10781.37
1764762888.4609864,-8478.27,-9492.03,3138.255,-4547.52,-13082.355,-28681.92,-13664.34,-10776.24
1764762888.4609864,-8478.315,-9492.705,3138.3,-4547.88,-13082.895,-28682.82,-13664.34,-10775.34
1764762888.4609864,-8477.685,-9490.725,3139.29,-4548.285,-13084.155,-28684.755,-13664.115,-10774.89
1764762888.4609864,-8474.445,-9487.17,3142.755,-4544.19,-13078.98,-28680.705,-13661.82,-10772.55
1764762888.4609864,-8475.48,-9487.755,3142.845,-4545.135,-13079.61,-28679.535,-13661.73,-10774.035
1764762888.4609864,-8476.199999999999,-9487.35,3144.15,-4543.605,-13078.845,-28678.545,-13663.395,-10774.8
1764762888.4609864,-8478.63,-9490.59,3139.02,-4547.835,-13082.49,-28681.425,-13666.23,-10775.07
1764762888.4609864,-8478.09,-9490.59,3138.525,-4549.23,-13083.165,-28681.29,-13664.88,-10774.8
1764762888.4609864,-8478.404999999999,-9490.5,3138.795,-4548.33,-13084.155,-28681.83,-13665.69,-10775.7
1764762888.4609864,-8476.605,-9487.98,3141.63,-4545.54,-13082.985,-28683.0,-13666.725,-10773.945
1764762888.4609864,-8474.625,-9489.24,3139.11,-4549.59,-13084.56,-28684.305,-13666.68,-10770.525
1764762888.4609864,-8477.279999999999,-9490.995,3137.58,-4550.04,-13084.695,-28682.19,-13666.23,-10774.755
1764762888.4609864,-8482.005,-9499.005,3130.11,-4555.8,-13087.89,-28685.52,-13669.875,-10779.435
1764762888.4609864,-8480.97,-9495.945,3133.395,-4554.045,-13087.215,-28686.375,-13670.685,-10778.4
1764762888.4609864,-8481.195,-9491.94,3138.435,-4549.455,-13083.615,-28684.665,-13669.515,-10777.905
1764762888.508127,-8475.119999999999,-9488.61,3140.055,-4547.295,-13082.355,-28682.775,-13666.77,-10772.415
1764762888.508127,-8481.375,-9495.27,3132.765,-4554.179999999999,-13089.105,-28688.355,-13672.08,-10778.85
1764762888.508127,-8480.34,-9494.325,3133.035,-4552.965,-13087.71,-28687.14,-13671.315,-10778.175
1764762888.508127,-8475.48,-9489.15,3138.165,-4548.285,-13082.58,-28682.145,-13666.725,-10773.63
1764762888.508127,-8477.324999999999,-9491.445,3135.87,-4549.86,-13084.83,-28684.395,-13668.615,-10775.07
1764762888.508127,-8474.13,-9489.87,3136.995,-4548.33,-13082.625,-28680.12,-13663.665,-10770.93
1764762888.508127,-8476.11,-9490.185,3137.805,-4548.554999999999,-13082.355,-28680.93,-13664.25,-10771.92
1764762888.508127,-8473.05,-9484.47,3143.655,-4544.505,-13079.745,-28681.605,-13665.645,-10771.965
1764762888.508127,-8474.805,-9487.755,3139.65,-4547.97,-13083.21,-28683.495,-13666.725,-10773.63
1764762888.508127,-8478.18,-9491.265,3135.96,-4552.11,-13086.855,-28686.69,-13668.975,-10776.735
1764762888.508127,-8474.58,-9488.07,3139.56,-4548.96,-13083.39,-28683.27,-13665.6,-10773.09
1764762888.508127,-8476.47,-9489.555,3138.165,-4550.67,-13085.775,-28685.745,-13666.905,-10774.935
1764762888.508127,-8473.904999999999,-9486.585,3140.46,-4547.25,-13081.905,-28681.47,-13664.97,-10772.505
1764762888.508127,-8477.955,-9490.995,3136.41,-4552.38,-13086.27,-28685.745,-13669.83,-10777.32
1764762888.508127,-8477.775,-9491.22,3136.5,-4552.38,-13086.315,-28684.755,-13668.57,-10776.105
1764762888.508127,-8470.664999999999,-9484.875,3143.385,-4546.395,-13080.015,-28679.04,-13661.685,-10768.995
1764762888.508127,-8470.485,-9486.855,3139.695,-4549.365,-13082.4,-28681.245,-13662.855,-10769.355
1764762888.508127,-8475.48,-9490.005,3137.715,-4550.895,-13083.75,-28682.865,-13666.635,-10774.575
1764762888.508127,-8477.505,-9490.59,3138.21,-4551.525,-13085.775,-28685.295,-13668.525,-10776.735
1764762888.508127,-8476.11,-9490.005,3138.57,-4551.615,-13085.91,-28684.98,-13669.245,-10774.89
1764762888.508127,-8473.68,-9486.405,3141.27,-4549.815,-13083.885,-28683.09,-13667.49,-10771.83
1764762888.508127,-8451.27,-9473.715,3148.875,-4544.28,-13078.305,-28677.69,-13660.56,-10752.39
1764762888.508127,-8392.365,-9443.475,3166.92,-4530.42,-13067.28,-28668.87,-13648.86,-10702.44
1764762888.508127,-8470.17,-9474.795,3160.305,-4527.45,-13056.795,-28657.575,-13648.005,-10763.415
1764762888.554947,-8495.235,-9500.13,3132.945,-4557.554999999999,-13088.61,-28684.62,-13668.12,-10789.29
1764762888.554947,-8486.414999999999,-9497.475,3132.45,-4558.455,-13090.995,-28687.995,-13671.63,-10784.745
1764762888.554947,-8476.83,-9489.78,3139.875,-4550.76,-13083.84,-28681.155,-13664.925,-10774.395
1764762888.554947,-8481.375,-9494.865,3133.755,-4556.295,-13089.42,-28687.86,-13670.64,-10779.12
1764762888.554947,-8481.735,-9495.585,3133.08,-4556.745,-13089.105,-28688.715,-13671.855,-10778.985
1764762888.554947,-8478.765,-9492.75,3135.735,-4554.495,-13086.27,-28684.89,-13667.58,-10774.98
1764762888.554947,-8479.845,-9492.48,3135.51,-4556.385,-13088.88,-28688.265,-13668.165,-10775.97
1764762888.554947,-8476.83,-9489.015,3139.695,-4552.155,-13084.74,-28684.62,-13665.33,-10771.965
1764762888.554947,-8477.685,-9490.23,3140.73,-4550.94,-13084.245,-28683.855,-13666.905,-10773.045
1764762888.554947,-8481.375,-9492.48,3137.265,-4555.395,-13087.98,-28686.96,-13670.28,-10777.77
1764762888.554947,-8480.97,-9492.435,3135.735,-4556.655,-13088.43,-28688.4,-13669.605,-10776.915
1764762888.554947,-8477.145,-9489.555,3137.985,-4554.045,-13086.225,-28686.51,-13666.32,-10771.83
1764762888.554947,-8474.895,-9484.83,3142.62,-4549.365,-13082.265,-28681.875,-13664.07,-10771.965
1764762888.554947,-8475.345,-9484.965,3143.16,-4548.554999999999,-13081.815,-28682.145,-13664.43,-10772.91
1764762888.554947,-8480.115,-9492.705,3133.485,-4558.905,-13089.78,-28690.155,-13668.84,-10775.61
1764762888.554947,-8475.345,-9488.79,3137.985,-4554.81,-13086.585,-28687.365,-13665.33,-10769.22
1764762888.554947,-8475.84,-9488.115,3139.515,-4552.74,-13086.63,-28688.22,-13667.895,-10767.87
1764762888.554947,-8474.31,-9486.09,3140.55,-4551.705,-13081.59,-28680.075,-13662.72,-10769.805
1764762888.554947,-8476.47,-9487.89,3139.92,-4552.065,-13080.33,-28678.545,-13660.785,-10771.245
1764762888.554947,-8476.02,-9484.92,3141.675,-4551.525,-13083.12,-28683.315,-13666.995,-10772.73
1764762888.554947,-8474.49,-9483.975,3142.71,-4550.804999999999,-13082.85,-28682.955,-13667.805,-10773.36
1764762888.554947,-8470.8,-9480.285,3146.355,-4547.07,-13077.945,-28677.465,-13661.145,-10768.095
1764762888.6027684,-8471.52,-9482.265,3143.88,-4549.59,-13080.645,-28679.895,-13662.045,-10767.825
1764762888.6027684,-8479.395,-9491.355,3135.96,-4558.05,-13089.78,-28688.985,-13670.595,-10774.755
1764762888.6027684,-8480.475,-9491.04,3136.86,-4557.645,-13089.015,-28689.03,-13672.305,-10776.555
1764762888.6027684,-8478.27,-9488.16,3139.38,-4554.09,-13084.11,-28684.98,-13669.29,-10774.935
1764762888.6027684,-8476.56,-9486.765,3140.145,-4553.639999999999,-13083.57,-28682.73,-13667.13,-10772.64
1764762888.6027684,-8474.94,-9484.695,3141.63,-4552.83,-13082.13,-28681.29,-13666.095,-10770.84
1764762888.6027684,-8470.44,-9479.34,3146.445,-4547.745,-13076.955,-28675.44,-13661.19,-10766.835
1764762888.6027684,-8471.654999999999,-9479.88,3146.355,-4546.665,-13075.875,-28672.965,-13660.29,-10767.51
1764762888.6027684,-8476.289999999999,-9485.055,3141.585,-4551.795,-13082.04,-28680.435,-13665.555,-10771.02
1764762888.6027684,-8473.365,-9482.265,3144.735,-4549.815,-13080.015,-28678.635,-13664.43,-10767.87
1764762888.6027684,-8472.195,-9480.78,3146.535,-4548.014999999999,-13078.17,-28677.015,-13663.17,-10766.115
1764762888.6040602,-8474.355,-9482.4,3144.735,-4549.455,-13080.24,-28678.365,-13662.945,-10767.555
1764762888.6040602,-8479.664999999999,-9486.405,3139.56,-4553.46,-13082.715,-28680.3,-13665.105,-10772.775
1764762888.6040602,-8478.404999999999,-9486.315,3139.335,-4554.45,-13082.49,-28680.975,-13664.205,-10772.775
1764762888.6040602,-8477.145,-9485.955,3139.74,-4554.72,-13083.48,-28681.965,-13664.295,-10772.145
1764762888.6040602,-8476.47,-9483.75,3142.215,-4551.615,-13080.78,-28678.68,-13664.025,-10772.1
1764762888.6040602,-8476.289999999999,-9482.76,3142.305,-4550.67,-13080.825,-28678.545,-13663.17,-10771.245
1764762888.6040602,-8473.095,-9480.195,3144.78,-4547.52,-13078.215,-28676.835,-13661.055,-10768.59
1764762888.6040602,-8476.199999999999,-9484.29,3141.18,-4550.895,-13080.195,-28678.41,-13662.54,-10771.515
1764762888.6040602,-8468.279999999999,-9480.105,3144.105,-4549.095,-13077.405,-28674.81,-13657.95,-10763.145
1764762888.6040602,-8469.404999999999,-9478.665,3146.355,-4547.115,-13076.955,-28675.53,-13658.985,-10764.405
1764762888.6040602,-8477.64,-9483.075,3142.845,-4550.22,-13081.05,-28680.93,-13665.735,-10773.225
1764762888.6040602,-8476.65,-9485.82,3139.47,-4553.415,-13083.795,-28683.54,-13666.95,-10772.37
1764762888.6040602,-8476.289999999999,-9486.855,3139.245,-4554.09,-13082.58,-28681.92,-13666.23,-10770.93
1764762888.6040602,-8470.845,-9479.565,3145.32,-4547.88,-13077.27,-28675.665,-13658.715,-10764.945
1764762888.6040602,-8471.07,-9478.845,3146.76,-4547.34,-13078.17,-28676.295,-13660.02,-10764.99
1764762888.6473162,-8475.119999999999,-9483.345,3142.485,-4551.57,-13081.635,-28679.805,-13664.655,-10769.985
1764762888.6473162,-8471.52,-9479.295,3146.535,-4547.565,-13076.505,-28675.845,-13661.055,-10766.16
1764762888.6473162,-8475.029999999999,-9482.13,3143.61,-4550.22,-13080.015,-28679.355,-13663.89,-10768.5
1764762888.6473162,-8469.9,-9477.18,3148.065,-4545.63,-13075.155,-28673.865,-13658.13,-10762.74
1764762888.6473162,-8471.16,-9480.69,3143.565,-4548.87,-13076.73,-28674.27,-13657.725,-10762.875
1764762888.6473162,-8472.779999999999,-9480.51,3145.545,-4547.655,-13077.45,-28676.34,-13659.75,-10765.17
1764762888.6473162,-8472.51,-9480.105,3144.645,-4549.77,-13081.545,-28682.595,-13664.61,-10767.555
1764762888.6473162,-8470.35,-9477.99,3147.93,-4545.315,-13076.55,-28676.475,-13660.875,-10764.9
1764762888.6473162,-8473.545,-9481.545,3144.15,-4549.139999999999,-13079.565,-28678.365,-13661.415,-10766.97
1764762888.6473162,-8468.369999999999,-9476.055,3149.505,-4542.705,-13074.93,-28673.145,-13656.195,-10762.38
1764762888.6473162,-8466.615,-9474.255,3151.35,-4540.23,-13072.23,-28672.74,-13655.97,-10759.23
1764762888.6473162,-8465.355,-9475.605,3148.605,-4543.425,-13073.49,-28672.425,-13655.07,-10758.24
1764762888.6473162,-8465.13,-9473.13,3152.25,-4540.005,-13071.33,-28670.22,-13656.105,-10760.985
1764762888.6473162,-8454.33,-9463.005,3162.15,-4529.97,-13061.205,-28661.49,-13649.94,-10750.77
1764762888.648624,-8467.065,-9475.785,3149.37,-4541.804999999999,-13073.85,-28672.47,-13657.005,-10759.68
1764762888.648624,-8469.675,-9476.91,3148.245,-4542.389999999999,-13074.705,-28673.19,-13658.265,-10763.235
1764762888.648624,-8456.445,-9465.615,3157.245,-4534.065,-13067.28,-28665.945,-13651.515,-10750.365
1764762888.648624,-8473.77,-9481.905,3142.35,-4549.905,-13081.545,-28678.41,-13661.505,-10766.34
1764762888.696216,-8478.765,-9485.685,3140.19,-4552.065,-13082.76,-28679.85,-13664.835,-10774.98
1764762888.696216,-8467.199999999999,-9475.695,3149.64,-4541.625,-13073.265,-28670.94,-13655.97,-10762.83
1764762888.696216,-8465.805,-9473.94,3151.305,-4540.77,-13072.905,-28670.265,-13654.395,-10761.84
1764762888.696216,-8465.895,-9473.985,3150.36,-4542.075,-13073.49,-28669.995,-13654.89,-10761.525
1764762888.696216,-8467.065,-9475.065,3148.515,-4544.01,-13077.315,-28674.18,-13657.5,-10763.82
1764762888.696216,-8466.345,-9475.02,3149.82,-4542.255,-13076.955,-28676.295,-13659.795,-10763.505
1764762888.740747,-8463.555,-9473.355,3150.36,-4541.355,-13073.535,-28672.47,-13654.98,-10758.96
1764762888.740747,-8468.55,-9477.54,3145.905,-4544.82,-13077.27,-28675.755,-13658.895,-10765.665
1764762888.740747,-8467.065,-9475.965,3147.3,-4543.65,-13076.955,-28676.97,-13657.455,-10762.875
1764762888.740747,-8471.97,-9480.42,3142.485,-4547.88,-13081.005,-28683.18,-13662.81,-10764.405
1764762888.740747,-8470.395,-9478.17,3144.195,-4544.685,-13076.1,-28676.025,-13659.795,-10764.36
1764762888.7417555,-8468.82,-9475.2,3146.76,-4542.84,-13075.02,-28672.875,-13657.005,-10766.16
1764762888.7417555,-8466.705,-9474.03,3147.93,-4541.49,-13073.13,-28672.29,-13655.205,-10763.235
1764762888.7417555,-8467.335,-9473.67,3146.985,-4541.715,-13073.715,-28673.01,-13655.97,-10762.695
1764762888.7417555,-8471.654999999999,-9477.945,3142.305,-4545.764999999999,-13078.935,-28678.14,-13660.965,-10766.925
1764762888.7417555,-8469.72,-9475.065,3144.87,-4543.74,-13076.415,-28675.395,-13658.49,-10764.99
1764762888.7417555,-8463.015,-9469.44,3151.35,-4537.395,-13071.24,-28669.68,-13652.91,-10759.185
1764762888.7417555,-8465.039999999999,-9472.14,3149.235,-4539.645,-13073.22,-28671.84,-13654.215,-10761.795
1764762888.7417555,-8470.935,-9477.495,3143.655,-4545.315,-13078.62,-28677.195,-13659.075,-10766.835
1764762888.7417555,-8471.699999999999,-9476.73,3145.455,-4544.685,-13079.295,-28679.22,-13661.82,-10768.545
1764762888.7417555,-8472.645,-9479.52,3140.865,-4547.7,-13080.33,-28679.625,-13661.37,-10766.745
1764762888.7417555,-8468.685,-9475.155,3144.645,-4543.965,-13077.45,-28676.745,-13659.795,-10763.46
1764762888.7417555,-8469.09,-9477.09,3142.575,-4545.764999999999,-13079.115,-28678.32,-13660.245,-10762.65
1764762888.7417555,-8466.21,-9474.3,3145.635,-4542.75,-13075.965,-28674.54,-13656.555,-10759.23
1764762888.7417555,-8466.119999999999,-9472.905,3147.03,-4541.085,-13074.39,-28672.515,-13655.07,-10759.995
1764762888.7417555,-8463.375,-9468.765,3151.215,-4537.304999999999,-13071.285,-28669.095,-13653.72,-10759.095
1764762888.7417555,-8464.904999999999,-9470.97,3149.73,-4538.835,-13071.96,-28669.815,-13654.395,-10761.12
1764762888.7417555,-8469.765,-9476.37,3143.745,-4544.505,-13078.665,-28676.43,-13659.705,-10765.17
1764762888.7417555,-8464.14,-9470.565,3148.83,-4540.23,-13074.345,-28672.74,-13655.61,-10759.41
1764762888.7417555,-8463.33,-9470.79,3149.415,-4539.42,-13073.04,-28670.76,-13654.89,-10757.745
1764762888.7417555,-8467.199999999999,-9475.38,3144.42,-4544.28,-13076.37,-28672.065,-13655.655,-10760.175
1764762888.7417555,-8469.045,-9474.57,3145.725,-4543.695,-13077.945,-28676.205,-13659.48,-10763.55
1764762888.7417555,-8466.164999999999,-9472.995,3146.85,-4542.57,-13077.855,-28676.43,-13659.975,-10762.92
1764762888.7417555,-8463.555,-9470.88,3149.28,-4539.78,-13074.165,-28672.47,-13656.645,-10759.095
1764762888.7417555,-8465.49,-9473.805,3145.725,-4543.74,-13077.36,-28675.305,-13658.4,-10759.59
1764762888.7417555,-8465.085,-9474.03,3146.085,-4543.47,-13076.865,-28675.62,-13658.085,-10760.085
1764762888.7417555,-8457.39,-9465.435,3156.3,-4533.795,-13066.92,-28665.27,-13649.985,-10754.46
1764762888.7417555,-8463.285,-9471.015,3150.585,-4540.095,-13072.995,-28670.805,-13655.34,-10759.905
1764762888.7417555,-8459.235,-9467.415,3153.78,-4536.36,-13069.755,-28668.015,-13652.28,-10755.945
1764762888.7417555,-8463.914999999999,-9473.715,3147.615,-4542.345,-13076.955,-28674.63,-13657.77,-10760.67
1764762888.7417555,-8466.029999999999,-9475.47,3146.4,-4544.505,-13078.8,-28675.17,-13658.67,-10761.885
1764762888.7417555,-8461.845,-9470.925,3151.35,-4539.465,-13073.4,-28669.77,-13653.765,-10756.755
1764762888.7417555,-8464.68,-9473.49,3148.335,-4542.57,-13076.505,-28672.74,-13657.77,-10759.455
1764762888.7417555,-8465.039999999999,-9473.22,3148.425,-4543.2,-13077.72,-28674.63,-13659.75,-10760.76
1764762888.7417555,-8463.69,-9472.905,3148.785,-4542.389999999999,-13075.695,-28673.325,-13658.58,-10760.4
1764762888.7417555,-8459.19,-9468.09,3152.79,-4538.025,-13071.555,-28668.51,-13652.64,-10755.225
1764762888.7417555,-8460.585,-9468.36,3151.935,-4538.655,-13073.805,-28669.815,-13653.9,-10755.54
1764762888.7417555,-8464.32,-9471.51,3147.705,-4542.615,-13077.36,-28673.82,-13658.22,-10760.31
1764762888.7417555,-8460.449999999999,-9466.74,3153.105,-4536.855,-13072.365,-28669.455,-13653.72,-10756.89
1764762888.7417555,-8458.289999999999,-9465.93,3154.005,-4535.865,-13070.745,-28668.555,-13652.28,-10753.965
1764762888.7877283,-8459.595,-9468.27,3151.08,-4539.42,-13072.68,-28669.005,-13653.405,-10755.63
1764762888.7877283,-8463.779999999999,-9473.265,3147.21,-4543.695,-13077.315,-28674.18,-13659.795,-10760.04
1764762888.7877283,-8461.485,-9470.115,3150.99,-4538.655,-13072.14,-28668.15,-13654.53,-10756.215
1764762888.7877283,-8458.65,-9465.705,3155.175,-4535.28,-13069.935,-28666.575,-13652.415,-10753.47
1764762888.7877283,-8461.574999999999,-9469.62,3150.9,-4539.645,-13074.435,-28670.67,-13655.88,-10756.665
1764762888.7877283,-8457.255,-9465.165,3154.365,-4536.315,-13071.105,-28666.98,-13652.415,-10752.21
1764762888.7877283,-8457.705,-9465.525,3153.735,-4537.08,-13072.365,-28668.555,-13653.315,-10752.705
1764762888.7877283,-8454.96,-9461.79,3159.045,-4531.679999999999,-13067.595,-28664.775,-13652.235,-10751.4
1764762888.7877283,-8450.369999999999,-9461.565,3157.155,-4534.74,-13069.98,-28668.555,-13652.1,-10741.86
1764762888.7877283,-8467.47,-9474.165,3145.41,-4545.855,-13078.98,-28673.64,-13657.5,-10762.695
1764762888.7877283,-8464.005,-9472.005,3147.84,-4543.38,-13077.72,-28673.64,-13657.23,-10758.24
1764762888.7877283,-8464.77,-9472.815,3146.31,-4545.495,-13079.34,-28676.025,-13659.12,-10758.87
1764762888.7877283,-8459.955,-9467.73,3150.675,-4540.32,-13073.895,-28670.445,-13654.89,-10755.135
1764762888.7877283,-8459.145,-9468.135,3150.855,-4540.59,-13073.67,-28670.265,-13654.35,-10754.37
1764762888.7877283,-8464.815,-9474.615,3144.555,-4548.105,-13081.725,-28679.355,-13659.525,-10756.98
1764762888.7877283,-8458.875,-9465.66,3153.285,-4539.195,-13073.04,-28669.545,-13653.18,-10753.02
1764762888.7877283,-8458.515,-9464.445,3153.06,-4538.25,-13071.78,-28666.62,-13651.2,-10755.36
1764762888.7877283,-8464.994999999999,-9474.345,3143.205,-4547.34,-13080.285,-28673.775,-13656.96,-10759.815
1764762888.7877283,-8462.88,-9470.07,3148.785,-4542.255,-13075.425,-28670.535,-13654.845,-10757.34
1764762888.7877283,-8459.19,-9463.365,3153.825,-4540.005,-13074.48,-28671.3,-13654.53,-10755.225
1764762888.7877283,-8457.3,-9462.87,3154.32,-4539.24,-13073.355,-28669.365,-13653.045,-10751.265
1764762888.7877283,-8462.654999999999,-9468.99,3148.38,-4544.82,-13078.26,-28674.45,-13657.23,-10755.675
1764762888.8348954,-8463.15,-9469.98,3147.75,-4544.82,-13077.99,-28675.35,-13658.13,-10756.215
1764762888.8348954,-8462.34,-9468.315,3149.46,-4543.245,-13075.965,-28672.74,-13657.77,-10756.215
1764762888.8348954,-8463.105,-9468.72,3148.83,-4544.775,-13077.54,-28672.38,-13657.95,-10756.62
1764762888.8348954,-8458.244999999999,-9464.94,3152.79,-4541.264999999999,-13073.895,-28668.96,-13655.295,-10750.905
1764762888.8348954,-8445.914999999999,-9453.42,3162.87,-4531.005,-13064.355,-28660.995,-13648.23,-10740.42
1764762888.8348954,-8464.005,-9469.215,3148.155,-4544.595,-13078.575,-28673.775,-13658.625,-10756.575
1764762888.8348954,-8461.8,-9466.155,3151.53,-4541.67,-13074.93,-28670.085,-13655.745,-10755.855
1764762888.8348954,-8464.59,-9469.71,3147.615,-4545.945,-13079.07,-28673.505,-13658.895,-10758.825
1764762888.8348954,-8466.615,-9471.87,3145.005,-4548.014999999999,-13080.24,-28675.08,-13661.235,-10759.59
1764762888.8348954,-8465.715,-9474.705,3141.585,-4551.03,-13081.59,-28675.845,-13660.83,-10756.89
1764762888.8348954,-8455.59,-9465.795,3148.515,-4544.639999999999,-13076.235,-28670.13,-13654.53,-10749.195
1764762888.8348954,-8458.74,-9461.16,3157.2,-4534.56,-13067.055,-28663.785,-13651.83,-10753.245
1764762888.8348954,-8461.845,-9465.525,3151.035,-4542.21,-13075.335,-28672.065,-13656.42,-10755.765
1764762888.8348954,-8461.08,-9466.515,3148.56,-4544.639999999999,-13077.99,-28675.125,-13657.14,-10756.35
1764762888.8348954,-8458.244999999999,-9463.365,3151.71,-4541.13,-13073.715,-28671.12,-13654.17,-10752.975
1764762888.8348954,-8461.485,-9467.595,3148.2,-4544.91,-13077.855,-28674.765,-13657.23,-10755.135
1764762888.8348954,-8465.895,-9472.5,3143.97,-4549.635,-13082.355,-28679.445,-13661.46,-10759.815
1764762888.8348954,-8465.49,-9471.51,3144.78,-4548.33,-13081.455,-28679.085,-13661.64,-10758.915
1764762888.8348954,-8465.039999999999,-9469.935,3146.22,-4546.62,-13080.42,-28677.195,-13660.965,-10758.465
1764762888.8348954,-8464.365,-9468.9,3148.605,-4545.36,-13079.07,-28676.115,-13660.47,-10757.61
1764762888.8348954,-8465.039999999999,-9469.8,3146.625,-4545.764999999999,-13079.655,-28674.765,-13658.67,-10758.105
1764762888.8348954,-8463.375,-9466.695,3149.73,-4542.84,-13078.17,-28675.215,-13658.805,-10756.53
1764762888.8348954,-8464.095,-9468.855,3146.49,-4545.585,-13078.215,-28673.955,-13658.94,-10755.675
1764762888.8348954,-8458.515,-9462.6,3151.935,-4539.915,-13072.59,-28667.295,-13652.595,-10749.465
1764762888.8774965,-8458.605,-9463.005,3152.295,-4541.22,-13073.94,-28668.645,-13653.72,-10749.555
1764762888.8774965,-8463.869999999999,-9468.135,3146.805,-4547.25,-13080.87,-28675.845,-13659.525,-10755.585
1764762888.8774965,-8464.14,-9467.73,3147.03,-4546.665,-13081.14,-28677.24,-13659.93,-10755.225
1764762888.8774965,-8464.77,-9468.315,3147.12,-4546.71,-13079.835,-28675.53,-13658.22,-10754.64
1764762888.8774965,-8464.32,-9468.81,3146.805,-4546.53,-13079.43,-28675.575,-13657.95,-10753.155
1764762888.8774965,-8460.945,-9466.65,3149.37,-4544.685,-13077.315,-28672.65,-13654.35,-10749.195
1764762888.8774965,-8464.68,-9468.54,3147.345,-4546.98,-13079.61,-28674.405,-13657.815,-10756.08
1764762888.8774965,-8465.22,-9468.945,3147.21,-4546.17,-13079.295,-28673.865,-13658.355,-10756.44
1764762888.8774965,-8460.539999999999,-9463.995,3151.665,-4542.255,-13075.02,-28669.995,-13653.99,-10751.04
1764762888.8774965,-8460.855,-9464.085,3150.855,-4543.425,-13075.74,-28670.85,-13654.17,-10750.905
1764762888.8774965,-8466.3,-9471.825,3142.26,-4552.47,-13082.4,-28676.115,-13658.355,-10755.045
1764762888.8774965,-8470.619999999999,-9473.85,3141.63,-4553.865,-13085.1,-28681.335,-13662.45,-10759.905
1764762888.8774965,-8467.11,-9469.44,3144.15,-4552.02,-13085.82,-28685.43,-13663.665,-10757.16
1764762888.8774965,-8464.005,-9467.865,3146.22,-4549.365,-13081.365,-28681.245,-13661.775,-10753.47
1764762888.8774965,-8458.965,-9462.555,3151.845,-4544.099999999999,-13075.695,-28675.44,-13657.77,-10748.115
1764762888.8774965,-8455.77,-9457.92,3156.705,-4538.429999999999,-13067.865,-28664.01,-13650.255,-10745.82
1764762888.8774965,-8451.135,-9456.615,3155.445,-4541.22,-13071.915,-28666.89,-13649.22,-10738.44
1764762888.8774965,-8469.63,-9470.79,3143.475,-4552.38,-13082.175,-28677.42,-13659.885,-10761.57
1764762888.8774965,-8465.58,-9468.045,3145.995,-4549.905,-13079.07,-28674.765,-13659.57,-10756.755
1764762888.8774965,-8461.035,-9464.895,3148.92,-4546.755,-13076.685,-28671.84,-13657.095,-10751.49
1764762888.8774965,-8459.73,-9464.355,3149.955,-4545.585,-13076.37,-28671.615,-13655.205,-10749.96
1764762888.8774965,-8460.63,-9464.76,3149.415,-4546.304999999999,-13076.82,-28671.795,-13656.015,-10750.995
1764762888.9285796,-8461.08,-9463.995,3149.595,-4546.44,-13076.865,-28672.605,-13655.655,-10752.255
1764762888.9285796,-8466.345,-9469.395,3144.06,-4552.605,-13083.03,-28679.67,-13661.46,-10756.395
1764762888.9285796,-8468.865,-9472.995,3140.955,-4555.755,-13086.63,-28682.595,-13663.89,-10758.105
1764762888.9285796,-8463.195,-9465.165,3149.325,-4548.105,-13079.565,-28676.655,-13658.31,-10753.515
1764762888.9285796,-8460.404999999999,-9461.88,3152.205,-4545.855,-13077.54,-28672.56,-13653.63,-10750.77
1764762888.9285796,-8459.775,-9461.07,3153.78,-4544.145,-13074.885,-28670.355,-13653.135,-10751.58
1764762888.9285796,-8455.455,-9458.865,3153.375,-4543.245,-13072.815,-28667.07,-13648.725,-10745.235
1764762888.9285796,-8457.029999999999,-9459.495,3153.06,-4544.91,-13073.895,-28668.375,-13649.715,-10746.0
1764762888.9285796,-8458.515,-9460.17,3152.61,-4545.764999999999,-13074.705,-28670.85,-13651.65,-10746.855
1764762888.9285796,-8460.449999999999,-9462.42,3150.585,-4547.205,-13076.145,-28672.695,-13654.215,-10749.96
1764762888.9285796,-8463.42,-9465.57,3148.02,-4550.13,-13080.015,-28676.61,-13657.14,-10754.325
1764762888.9285796,-8460.675,-9462.69,3149.91,-4548.78,-13078.395,-28676.07,-13654.62,-10750.635
1764762888.9285796,-8464.41,-9466.515,3144.645,-4554.945,-13083.795,-28680.03,-13658.76,-10754.28
1764762888.9285796,-8464.14,-9465.615,3146.49,-4552.875,-13082.445,-28678.5,-13658.49,-10753.2
1764762888.9285796,-8459.775,-9461.97,3151.53,-4547.88,-13076.46,-28672.335,-13652.415,-10748.43
1764762888.9285796,-8460.09,-9461.61,3151.215,-4547.745,-13076.28,-28671.075,-13652.685,-10748.61
1764762888.9285796,-8460.449999999999,-9461.79,3151.08,-4548.15,-13076.325,-28671.84,-13653.99,-10748.295
1764762888.9285796,-8458.965,-9460.305,3152.34,-4546.755,-13074.255,-28670.715,-13652.64,-10747.62
1764762888.9285796,-8459.369999999999,-9460.62,3151.53,-4547.115,-13075.785,-28672.065,-13652.505,-10747.575
1764762888.9285796,-8463.465,-9463.68,3148.56,-4551.255,-13080.105,-28675.89,-13656.87,-10750.59
1764762888.9285796,-8464.86,-9464.715,3148.245,-4552.695,-13082.13,-28678.14,-13659.075,-10751.535
1764762888.9285796,-8460.675,-9461.25,3151.395,-4548.69,-13077.945,-28673.595,-13654.485,-10747.62
1764762888.9285796,-8463.779999999999,-9465.075,3147.705,-4552.155,-13081.545,-28675.935,-13657.095,-10750.14
1764762888.9285796,-8459.01,-9458.82,3153.645,-4546.935,-13076.64,-28670.58,-13652.505,-10747.035
1764762888.975468,-8459.955,-9459.045,3152.61,-4547.429999999999,-13076.82,-28671.075,-13653.09,-10748.025
1764762888.975468,-8463.779999999999,-9463.68,3148.155,-4550.895,-13081.23,-28675.395,-13657.995,-10752.525
1764762888.975468,-8463.24,-9462.96,3148.38,-4550.67,-13081.05,-28675.44,-13657.23,-10752.48
1764762888.975468,-8455.815,-9455.895,3154.905,-4544.73,-13074.21,-28669.41,-13650.975,-10745.01
1764762888.975468,-8450.685,-9451.125,3160.44,-4539.465,-13069.665,-28664.82,-13645.98,-10739.61
1764762888.975468,-8453.789999999999,-9454.41,3158.505,-4542.57,-13071.78,-28667.565,-13648.14,-10742.22
1764762888.975468,-8454.285,-9455.58,3157.47,-4543.245,-13072.095,-28668.015,-13648.905,-10742.4
1764762888.975468,-8455.904999999999,-9456.93,3155.805,-4544.325,-13074.615,-28669.77,-13650.345,-10743.93
1764762888.975468,-8454.465,-9454.86,3158.145,-4542.075,-13072.455,-28667.61,-13648.77,-10742.49
1764762888.975468,-8452.845,-9454.365,3157.785,-4541.94,-13070.745,-28665.045,-13646.745,-10741.365
1764762888.975468,-8456.22,-9458.73,3152.97,-4547.07,-13075.515,-28669.095,-13650.39,-10744.245
1764762888.975468,-8460.765,-9462.15,3149.055,-4550.67,-13078.98,-28672.965,-13655.655,-10747.98
1764762888.975468,-8459.73,-9460.17,3150.855,-4548.105,-13076.64,-28671.39,-13653.99,-10746.315
1764762888.975468,-8452.619999999999,-9452.25,3158.19,-4540.59,-13069.53,-28663.65,-13647.645,-10740.735
1764762888.975468,-8454.105,-9453.24,3156.165,-4542.75,-13072.365,-28666.08,-13647.735,-10741.68
1764762888.975468,-8460.404999999999,-9459.63,3150.0,-4548.78,-13079.25,-28672.965,-13654.62,-10747.62
1764762888.975468,-8455.545,-9456.345,3153.645,-4545.135,-13075.515,-28668.78,-13650.39,-10742.355
1764762888.975468,-8456.715,-9456.975,3152.295,-4546.304999999999,-13077.27,-28670.355,-13652.055,-10744.2
1764762888.975468,-8462.34,-9462.87,3146.805,-4551.255,-13081.59,-28674.63,-13657.41,-10750.59
1764762888.976484,-8456.445,-9456.57,3153.105,-4545.495,-13076.55,-28669.32,-13651.2,-10744.605
1764762888.976484,-8456.67,-9455.715,3153.825,-4545.09,-13077.855,-28670.58,-13651.965,-10744.47
1764762888.976484,-8462.654999999999,-9462.465,3148.11,-4549.995,-13083.57,-28681.065,-13660.515,-10748.97
1764762888.976484,-8460.315,-9463.68,3144.555,-4552.245,-13082.67,-28678.095,-13657.32,-10741.815
1764762888.976484,-8450.55,-9449.055,3159.405,-4536.855,-13067.685,-28659.87,-13645.215,-10738.215
1764762889.0191925,-8451.0,-9450.495,3157.335,-4539.06,-13069.17,-28660.77,-13642.83,-10739.565
1764762889.0191925,-8462.25,-9463.23,3144.195,-4550.895,-13081.05,-28672.2,-13652.955,-10747.8
1764762889.0191925,-8456.31,-9454.32,3153.555,-4542.435,-13075.965,-28670.58,-13651.065,-10744.38
1764762889.0191925,-8451.09,-9450.495,3157.11,-4539.51,-13073.175,-28667.79,-13648.59,-10740.33
1764762889.0191925,-8452.44,-9452.61,3154.68,-4541.175,-13075.155,-28668.915,-13648.05,-10740.24
1764762889.0191925,-8452.845,-9452.835,3154.32,-4541.49,-13075.83,-28669.545,-13648.86,-10739.52
1764762889.0191925,-8453.744999999999,-9453.105,3154.95,-4539.78,-13073.94,-28667.295,-13649.4,-10740.465
1764762889.0191925,-8457.029999999999,-9457.74,3149.64,-4543.2,-13077.045,-28669.86,-13651.875,-10742.31
1764762889.0191925,-8461.529999999999,-9461.88,3144.735,-4548.15,-13084.2,-28677.24,-13656.78,-10747.8
1764762889.0197268,-8451.9,-9449.055,3159.0,-4533.48,-13069.8,-28664.91,-13647.87,-10741.365
1764762889.0197268,-8450.595,-9449.775,3156.12,-4536.315,-13069.755,-28663.695,-13645.08,-10737.99
1764762889.0197268,-8456.94,-9456.66,3149.235,-4542.389999999999,-13076.82,-28670.445,-13651.2,-10743.345
1764762889.0197268,-8453.52,-9453.555,3152.43,-4538.295,-13073.85,-28666.935,-13648.455,-10740.375
1764762889.0197268,-8456.895,-9456.705,3149.01,-4541.985,-13078.35,-28671.255,-13652.28,-10744.695
1764762889.0197268,-8456.22,-9456.84,3148.65,-4542.03,-13078.755,-28671.255,-13651.56,-10743.84
1764762889.0197268,-8452.08,-9452.115,3153.33,-4537.62,-13073.76,-28666.53,-13647.735,-10740.015
1764762889.0197268,-8446.68,-9445.77,3159.765,-4531.05,-13067.415,-28659.555,-13642.065,-10735.065
1764762889.0197268,-8451.0,-9449.73,3155.895,-4534.605,-13071.69,-28663.11,-13645.845,-10738.71
1764762889.0197268,-8451.675,-9450.315,3154.59,-4535.505,-13072.5,-28663.965,-13647.24,-10739.07
1764762889.0197268,-8444.07,-9443.34,3161.295,-4529.07,-13066.11,-28657.665,-13640.94,-10731.69
1764762889.0197268,-8442.765,-9442.35,3162.195,-4527.9,-13065.57,-28657.125,-13639.635,-10730.7
1764762889.0197268,-8443.8,-9442.62,3160.98,-4528.71,-13066.92,-28657.935,-13640.895,-10731.87
1764762889.066533,-8443.89,-9443.34,3160.305,-4529.07,-13067.955,-28658.385,-13641.525,-10731.78
1764762889.066533,-8444.52,-9444.195,3159.405,-4529.79,-13068.765,-28659.78,-13643.505,-10731.915
1764762889.066533,-8434.845,-9434.025,3168.855,-4519.62,-13058.82,-28652.895,-13639.095,-10726.065
1764762889.066533,-8427.824999999999,-9433.665,3167.64,-4521.735,-13060.665,-28654.29,-13638.69,-10715.22
1764762889.066533,-8457.975,-9458.415,3145.59,-4542.3,-13080.465,-28669.32,-13650.345,-10743.345
1764762889.066533,-8452.664999999999,-9452.79,3150.99,-4536.855,-13075.02,-28663.47,-13647.24,-10741.995
1764762889.066533,-8451.18,-9452.655,3151.17,-4537.125,-13076.235,-28665.765,-13649.58,-10741.05
1764762889.066533,-8448.435,-9450.36,3152.655,-4535.145,-13074.39,-28664.595,-13647.465,-10738.08
1764762889.066533,-8443.89,-9445.455,3157.335,-4530.465,-13069.125,-28659.78,-13642.605,-10732.68
1764762889.066533,-8446.41,-9447.93,3155.085,-4532.76,-13071.69,-28661.805,-13644.405,-10735.605
1764762889.066533,-8447.355,-9448.11,3155.94,-4531.77,-13072.095,-28662.12,-13645.215,-10737.045
1764762889.066533,-8450.1,-9452.205,3150.27,-4537.395,-13076.64,-28666.62,-13650.12,-10738.215
1764762889.066533,-8452.619999999999,-9456.75,3144.96,-4542.3,-13079.43,-28666.845,-13651.155,-10739.205
1764762889.066533,-8452.08,-9454.095,3148.38,-4537.665,-13076.73,-28664.82,-13647.87,-10738.755
1764762889.066533,-8447.22,-9445.995,3155.355,-4531.635,-13072.995,-28664.37,-13647.555,-10737.675
1764762889.066533,-8446.59,-9447.255,3154.275,-4533.525,-13073.625,-28664.235,-13647.24,-10736.595
1764762889.066533,-8448.615,-9449.37,3151.665,-4536.09,-13076.28,-28665.81,-13648.14,-10737.315
1764762889.066533,-8447.22,-9447.93,3153.465,-4534.335,-13075.155,-28664.55,-13646.115,-10736.055
1764762889.0675452,-8439.48,-9439.47,3162.78,-4525.245,-13064.895,-28655.1,-13639.095,-10729.71
1764762889.0675452,-8443.44,-9444.33,3156.66,-4530.645,-13070.43,-28659.105,-13642.695,-10732.95
1764762889.0675452,-8440.695,-9442.26,3158.37,-4528.665,-13068.0,-28657.17,-13640.13,-10729.89
1764762889.0675452,-8440.875,-9442.845,3158.46,-4529.295,-13068.225,-28657.755,-13640.715,-10730.115
1764762889.0675452,-8442.855,-9445.455,3156.75,-4531.23,-13070.97,-28660.905,-13643.19,-10731.375
1764762889.0675452,-8447.49,-9450.405,3151.71,-4535.91,-13075.785,-28665.945,-13647.465,-10734.885
1764762889.114062,-8446.545,-9448.65,3153.33,-4534.83,-13074.39,-28662.93,-13646.16,-10736.37
1764762889.114062,-8443.664999999999,-9445.77,3154.995,-4531.77,-13072.005,-28660.545,-13644.27,-10734.03
1764762889.114062,-8438.039999999999,-9439.92,3160.62,-4526.955,-13067.28,-28656.315,-13639.14,-10727.64
1764762889.114062,-8437.23,-9438.12,3162.51,-4526.054999999999,-13066.515,-28654.74,-13637.745,-10727.19
1764762889.114062,-8437.68,-9439.515,3161.565,-4526.415,-13067.1,-28655.955,-13638.555,-10726.74
1764762889.114062,-8439.93,-9442.26,3158.73,-4529.25,-13069.44,-28658.925,-13640.085,-10728.18
1764762889.114062,-8440.289999999999,-9441.945,3158.82,-4529.025,-13068.99,-28657.98,-13639.905,-10728.405
1764762889.114062,-8441.055,-9443.295,3157.83,-4528.98,-13068.45,-28657.395,-13640.805,-10730.34
1764762889.114062,-8443.44,-9444.195,3156.66,-4531.185,-13072.14,-28661.445,-13644.495,-10733.265
1764762889.114062,-8441.19,-9442.08,3158.82,-4529.61,-13069.53,-28658.7,-13642.155,-10730.745
1764762889.114062,-8446.86,-9448.785,3151.26,-4536.99,-13075.47,-28663.065,-13646.475,-10735.965
1764762889.114062,-8448.435,-9449.415,3150.81,-4537.035,-13076.73,-28664.64,-13649.22,-10737.495
1764762889.115076,-8447.445,-9448.065,3151.89,-4536.09,-13075.875,-28663.875,-13648.995,-10736.64
1764762889.115076,-8444.565,-9445.635,3154.545,-4533.795,-13073.805,-28662.57,-13645.17,-10733.715
1764762889.115076,-8439.75,-9440.73,3158.82,-4528.935,-13068.99,-28657.98,-13639.68,-10728.225
1764762889.115076,-8446.77,-9446.67,3153.015,-4535.639999999999,-13075.785,-28664.01,-13645.62,-10734.255
1764762889.115076,-8448.57,-9449.28,3150.495,-4539.24,-13079.97,-28668.6,-13647.645,-10736.19
1764762889.115076,-8446.994999999999,-9448.245,3151.395,-4537.889999999999,-13078.8,-28667.52,-13647.825,-10734.705
1764762889.115076,-8439.84,-9439.47,3160.08,-4528.17,-13068.225,-28656.36,-13640.49,-10728.99
1764762889.115076,-8444.699999999999,-9445.41,3152.7,-4535.865,-13076.415,-28665.315,-13645.575,-10731.645
1764762889.115076,-8442.765,-9444.78,3153.195,-4536.495,-13078.17,-28667.655,-13646.34,-10728.18
1764762889.115076,-8438.895,-9437.985,3162.06,-4526.82,-13066.83,-28655.415,-13641.12,-10727.55
1764762889.1624858,-8437.005,-9435.24,3164.265,-4525.514999999999,-13064.67,-28650.915,-13634.55,-10726.155
1764762889.1624858,-8435.115,-9432.81,3166.2,-4524.12,-13062.825,-28651.905,-13635.765,-10723.725
1764762889.1624858,-8436.195,-9435.6,3161.61,-4529.474999999999,-13065.165,-28653.345,-13635.63,-10723.545
1764762889.1624858,-8441.505,-9440.82,3157.56,-4534.47,-13070.88,-28658.565,-13640.265,-10729.125
1764762889.1624858,-8441.82,-9441.135,3157.83,-4534.605,-13071.6,-28658.97,-13640.625,-10729.575
1764762889.1624858,-8441.73,-9441.27,3157.245,-4534.38,-13070.79,-28658.745,-13642.155,-10729.665
1764762889.1624858,-8442.539999999999,-9441.54,3156.84,-4535.37,-13070.97,-28657.98,-13641.525,-10730.43
1764762889.1624858,-8438.715,-9436.23,3162.87,-4531.905,-13068.675,-28656.54,-13637.835,-10726.965
1764762889.1624858,-8435.205,-9433.17,3166.2,-4528.845,-13064.895,-28653.255,-13635.135,-10723.41
1764762889.1624858,-8437.86,-9436.32,3162.645,-4531.77,-13067.28,-28655.19,-13637.88,-10726.02
1764762889.1624858,-8434.664999999999,-9433.8,3164.31,-4529.88,-13064.625,-28652.67,-13635.045,-10720.98
1764762889.1624858,-8432.01,-9430.56,3167.415,-4527.99,-13062.915,-28650.96,-13633.695,-10719.09
1764762889.1624858,-8431.02,-9428.535,3169.665,-4526.054999999999,-13061.16,-28650.195,-13632.39,-10719.0
1764762889.1624858,-8431.02,-9428.445,3169.98,-4525.83,-13060.89,-28650.69,-13632.39,-10717.92
1764762889.1624858,-8431.065,-9428.265,3170.655,-4525.155,-13061.07,-28650.69,-13632.075,-10718.235
1764762889.1624858,-8431.74,-9429.615,3169.305,-4526.82,-13061.97,-28650.465,-13632.75,-10718.73
1764762889.1624858,-8436.51,-9434.07,3164.445,-4532.04,-13065.975,-28654.65,-13636.62,-10721.565
1764762889.1624858,-8431.65,-9429.75,3168.18,-4528.98,-13062.51,-28652.085,-13632.57,-10716.48
1764762889.1624858,-8434.305,-9432.36,3165.705,-4532.49,-13065.705,-28654.29,-13634.73,-10719.765
1764762889.1624858,-8431.199999999999,-9427.905,3169.935,-4528.395,-13060.89,-28648.89,-13630.995,-10717.515
1764762889.1624858,-8436.96,-9433.53,3163.905,-4534.155,-13066.56,-28654.425,-13636.035,-10723.905
1764762889.1624858,-8436.015,-9432.765,3165.21,-4533.795,-13065.705,-28654.425,-13635.45,-10723.23
1764762889.1624858,-8430.3,-9427.77,3171.105,-4528.62,-13060.98,-28649.34,-13630.95,-10717.245
1764762889.1624858,-8432.414999999999,-9429.795,3168.63,-4531.139999999999,-13063.905,-28652.67,-13633.245,-10719.36
1764762889.2057164,-8437.455,-9437.04,3159.855,-4539.105,-13070.295,-28657.395,-13636.08,-10723.275
1764762889.2057164,-8434.35,-9432.405,3166.56,-4533.255,-13065.03,-28653.075,-13632.255,-10719.63
1764762889.2057164,-8432.505,-9428.355,3169.17,-4532.58,-13064.49,-28654.92,-13635.18,-10720.395
1764762889.2057164,-8429.715,-9425.79,3171.195,-4530.33,-13062.105,-28651.455,-13631.535,-10717.38
1764762889.2057164,-8434.845,-9431.55,3165.165,-4536.27,-13067.28,-28656.675,-13635.36,-10721.205
1764762889.2057164,-8432.19,-9429.84,3167.685,-4533.165,-13063.59,-28653.435,-13633.515,-10718.865
1764762889.2069242,-8433.945,-9430.875,3166.695,-4533.57,-13062.42,-28651.95,-13634.145,-10720.44
1764762889.2069242,-8432.19,-9428.535,3168.9,-4533.165,-13062.285,-28650.33,-13631.76,-10718.82
1764762889.2069242,-8427.645,-9423.945,3173.31,-4529.295,-13057.965,-28646.325,-13626.855,-10713.825
1764762889.2069242,-8429.355,-9425.34,3171.285,-4530.735,-13060.395,-28648.26,-13628.655,-10714.455
1764762889.2069242,-8432.955,-9428.895,3168.855,-4533.3,-13063.86,-28651.86,-13632.12,-10718.145
1764762889.2069242,-8430.66,-9427.455,3170.475,-4532.22,-13062.195,-28650.51,-13630.5,-10716.39
1764762889.2069242,-8432.414999999999,-9428.22,3170.115,-4533.03,-13062.465,-28651.905,-13631.715,-10718.865
1764762889.2069242,-8428.77,-9425.61,3171.375,-4531.815,-13059.54,-28648.395,-13627.665,-10714.275
1764762889.2069242,-8433.81,-9430.47,3165.885,-4537.304999999999,-13064.625,-28652.49,-13632.39,-10719.495
1764762889.2069242,-8436.06,-9431.685,3164.76,-4538.88,-13067.415,-28654.74,-13634.55,-10722.87
1764762889.2069242,-8434.664999999999,-9429.435,3167.37,-4535.955,-13065.345,-28653.84,-13634.55,-10722.42
1764762889.2069242,-8426.97,-9423.495,3171.96,-4531.905,-13059.54,-28647.495,-13627.35,-10713.24
1764762889.2069242,-8426.789999999999,-9422.64,3173.31,-4530.735,-13057.065,-28644.615,-13625.235,-10712.115
1764762889.2069242,-8428.095,-9424.08,3171.96,-4531.724999999999,-13057.875,-28645.695,-13626.405,-10712.97
1764762889.2069242,-8431.065,-9426.24,3168.72,-4537.125,-13064.355,-28652.85,-13630.905,-10716.705
1764762889.2069242,-8429.039999999999,-9424.08,3170.16,-4534.605,-13062.42,-28650.33,-13628.07,-10715.085
1764762889.255118,-8432.505,-9428.715,3165.93,-4538.88,-13066.56,-28654.47,-13632.12,-10719.225
1764762889.255118,-8434.035,-9430.38,3164.625,-4540.5,-13067.055,-28655.55,-13634.505,-10720.845
1764762889.255118,-8435.925,-9433.62,3162.69,-4541.94,-13067.91,-28655.64,-13635.945,-10722.555
1764762889.255118,-8432.369999999999,-9430.29,3166.83,-4538.295,-13065.975,-28653.525,-13631.76,-10720.035
1764762889.255118,-8430.93,-9426.915,3169.305,-4536.855,-13064.67,-28653.075,-13630.14,-10717.38
1764762889.255118,-8428.365,-9423.27,3170.925,-4535.73,-13063.23,-28651.725,-13627.845,-10715.895
1764762889.255118,-8425.035,-9420.84,3173.355,-4532.804999999999,-13059.225,-28648.62,-13625.37,-10712.79
1764762889.255118,-8430.39,-9426.105,3168.81,-4538.429999999999,-13064.94,-28654.38,-13631.445,-10717.065
1764762889.255118,-8428.185,-9423.675,3171.195,-4536.405,-13062.78,-28651.86,-13627.665,-10713.69
1764762889.255118,-8430.255,-9427.365,3167.64,-4539.825,-13066.605,-28655.415,-13630.995,-10716.3
1764762889.255118,-8429.22,-9427.185,3167.28,-4540.815,-13068.765,-28659.735,-13630.455,-10713.87
1764762889.255118,-8427.96,-9424.215,3169.935,-4538.07,-13063.68,-28655.28,-13630.095,-10712.115
1764762889.255118,-8424.449999999999,-9417.69,3177.27,-4530.96,-13055.13,-28644.615,-13624.875,-10713.105
1764762889.255118,-8430.074999999999,-9423.27,3171.555,-4536.945,-13061.025,-28650.33,-13628.25,-10717.74
1764762889.255118,-8428.86,-9422.955,3171.51,-4536.945,-13061.07,-28650.15,-13626.54,-10714.545
1764762889.255118,-8424.045,-9418.545,3176.235,-4532.804999999999,-13057.47,-28646.37,-13621.59,-10708.65
1764762889.255118,-8422.65,-9416.52,3178.485,-4530.42,-13055.715,-28644.525,-13620.24,-10706.67
1764762889.255118,-8422.154999999999,-9414.945,3179.52,-4529.16,-13054.32,-28643.94,-13620.195,-10707.705
1764762889.255118,-8425.08,-9418.275,3175.695,-4532.625,-13057.74,-28648.395,-13623.795,-10710.72
1764762889.2558196,-8429.445,-9423.315,3169.98,-4539.15,-13063.185,-28652.85,-13627.44,-10714.005
1764762889.2558196,-8426.565,-9420.75,3174.21,-4535.505,-13059.945,-28650.06,-13623.795,-10711.305
1764762889.2558196,-8429.265,-9423.99,3171.915,-4536.764999999999,-13061.115,-28650.69,-13625.55,-10713.24
1764762889.2558196,-8429.985,-9423.765,3171.51,-4537.035,-13060.845,-28650.42,-13625.91,-10713.195
1764762889.2558196,-8424.945,-9419.445,3177.045,-4532.804999999999,-13056.12,-28646.145,-13622.04,-10709.055
1764762889.2558196,-8428.275,-9422.865,3172.68,-4537.935,-13062.105,-28651.635,-13625.55,-10712.205
1764762889.2558196,-8426.699999999999,-9420.435,3175.155,-4535.415,-13059.675,-28651.995,-13624.425,-10710.09
1764762889.2984118,-8422.289999999999,-9416.34,3179.115,-4531.77,-13054.545,-28645.83,-13618.665,-10705.23
1764762889.2984118,-8423.73,-9417.555,3178.305,-4534.29,-13056.93,-28646.91,-13621.275,-10707.93
1764762889.2984118,-8424.315,-9417.24,3178.485,-4533.389999999999,-13056.03,-28646.28,-13621.095,-10708.92
1764762889.2984118,-8424.99,-9418.815,3177.27,-4534.875,-13056.75,-28647.495,-13621.995,-10709.415
1764762889.2984118,-8426.025,-9419.805,3176.01,-4536.495,-13057.965,-28648.665,-13623.3,-10710.945
1764762889.2984118,-8429.039999999999,-9423.585,3171.78,-4540.635,-13061.52,-28652.445,-13627.485,-10714.5
1764762889.2984118,-8429.58,-9425.43,3169.395,-4542.165,-13062.465,-28651.995,-13626.09,-10713.015
1764762889.2984118,-8425.664999999999,-9420.255,3176.37,-4535.054999999999,-13056.705,-28646.865,-13620.78,-10708.2
1764762889.2984118,-8423.235,-9416.25,3180.06,-4533.389999999999,-13056.795,-28649.16,-13624.335,-10708.74
1764762889.2984118,-8418.465,-9412.47,3182.895,-4531.679999999999,-13053.645,-28645.245,-13619.61,-10704.6
1764762889.2999349,-8418.645,-9413.325,3181.77,-4531.995,-13053.51,-28644.12,-13618.26,-10704.375
1764762889.3030224,-8422.515,-9417.195,3178.17,-4535.73,-13056.525,-28647.315,-13621.905,-10707.48
1764762889.3030224,-8429.085,-9421.515,3174.12,-4539.69,-13062.24,-28652.445,-13626.855,-10714.725
1764762889.3030224,-8423.19,-9415.755,3179.25,-4534.245,-13057.245,-28649.655,-13624.155,-10710.315
1764762889.3030224,-8426.88,-9421.65,3170.97,-4543.245,-13062.195,-28652.265,-13625.01,-10711.665
1764762889.3030224,-8426.295,-9419.625,3173.67,-4540.724999999999,-13060.26,-28650.465,-13624.065,-10711.575
1764762889.3030224,-8425.529999999999,-9418.14,3175.38,-4539.195,-13058.82,-28648.89,-13623.255,-10710.945
1764762889.3030224,-8424.494999999999,-9417.33,3176.28,-4538.474999999999,-13058.46,-28648.215,-13623.795,-10710.315
1764762889.3030224,-8424.72,-9417.915,3175.47,-4538.925,-13059.18,-28649.115,-13624.83,-10710.675
1764762889.3030224,-8423.19,-9415.89,3176.955,-4537.53,-13057.515,-28647.18,-13622.535,-10708.515
1764762889.3030224,-8418.42,-9411.57,3181.77,-4533.389999999999,-13052.61,-28642.185,-13617.945,-10703.88
1764762889.3041198,-8424.855,-9418.725,3174.48,-4541.264999999999,-13060.89,-28651.095,-13626.045,-10710.045
1764762889.3470664,-8424.855,-9419.49,3174.885,-4539.554999999999,-13059.675,-28649.79,-13626.18,-10710.27
1764762889.3480997,-8423.279999999999,-9416.655,3177.765,-4536.72,-13056.57,-28645.83,-13622.895,-10708.92
1764762889.3480997,-8417.52,-9409.5,3184.29,-4532.715,-13053.195,-28643.04,-13617.855,-10704.285
1764762889.3480997,-8416.935,-9408.015,3186.135,-4530.465,-13051.575,-28642.14,-13617.585,-10705.05
1764762889.3480997,-8423.19,-9414.9,3178.305,-4537.26,-13056.255,-28646.415,-13621.905,-10709.37
1764762889.3480997,-8421.48,-9415.08,3177.72,-4537.8,-13055.94,-28645.425,-13619.745,-10706.805
1764762889.3480997,-8421.705,-9415.485,3176.82,-4537.98,-13056.885,-28645.605,-13619.565,-10708.83
1764762889.3480997,-8423.01,-9416.7,3176.325,-4539.105,-13058.28,-28647.675,-13621.545,-10710.27
1764762889.3480997,-8417.88,-9411.57,3181.68,-4534.245,-13053.87,-28643.265,-13617.27,-10704.645
1764762889.3480997,-8420.58,-9413.865,3179.07,-4536.224999999999,-13056.615,-28646.28,-13619.88,-10706.895
1764762889.3480997,-8425.845,-9418.32,3174.615,-4540.995,-13061.79,-28651.59,-13625.46,-10711.665
1764762889.3491054,-8425.755,-9418.005,3174.795,-4540.86,-13060.98,-28650.6,-13624.38,-10711.125
1764762889.3491054,-8425.35,-9417.195,3174.795,-4540.59,-13060.08,-28649.655,-13623.615,-10710.225
1764762889.3491054,-8423.46,-9414.855,3176.82,-4537.755,-13057.785,-28648.395,-13622.805,-10708.605
1764762889.3491054,-8421.705,-9413.37,3178.71,-4535.73,-13056.255,-28646.73,-13621.455,-10706.445
1764762889.3491054,-8419.455,-9411.48,3180.555,-4533.885,-13054.68,-28645.065,-13619.61,-10704.645
1764762889.3491054,-8420.22,-9411.795,3179.835,-4534.514999999999,-13055.805,-28644.84,-13620.015,-10704.96
1764762889.3491054,-8419.32,-9410.49,3180.555,-4533.345,-13054.995,-28644.12,-13619.88,-10704.24
1764762889.3491054,-8413.289999999999,-9404.19,3186.72,-4527.135,-13048.11,-28636.695,-13613.13,-10698.345
1764762889.3491054,-8415.27,-9406.215,3184.65,-4529.565,-13050.405,-28639.53,-13615.38,-10700.19
1764762889.3491054,-8419.68,-9409.365,3180.78,-4533.705,-13054.77,-28644.255,-13619.115,-10703.295
1764762889.3491054,-8416.17,-9405.945,3184.47,-4530.15,-13050.81,-28640.115,-13615.515,-10699.785
1764762889.3491054,-8421.119999999999,-9410.715,3179.475,-4533.974999999999,-13054.95,-28644.165,-13619.745,-10704.105
1764762889.3491054,-8420.355,-9410.94,3180.105,-4533.345,-13054.41,-28643.895,-13619.115,-10701.315
1764762889.3926294,-8421.48,-9411.21,3179.52,-4534.514999999999,-13055.715,-28645.065,-13620.195,-10704.24
1764762889.3926294,-8419.635,-9408.915,3182.265,-4530.915,-13052.295,-28642.005,-13618.98,-10703.475
1764762889.3926294,-8416.44,-9406.395,3184.11,-4528.889999999999,-13050.045,-28639.935,-13615.695,-10699.56
1764762889.3926294,-8417.205,-9408.645,3182.085,-4530.825,-13052.34,-28642.32,-13617.36,-10701.495
1764762889.3926294,-8414.1,-9404.19,3186.495,-4526.325,-13049.1,-28638.27,-13614.435,-10699.29
1764762889.3926294,-8417.565,-9407.205,3183.615,-4529.429999999999,-13052.205,-28642.455,-13618.755,-10701.855
1764762889.3926294,-8415.945,-9408.465,3182.67,-4531.995,-13052.745,-28641.195,-13614.93,-10699.83
1764762889.3926294,-8421.164999999999,-9413.55,3177.54,-4537.17,-13058.505,-28647.27,-13620.87,-10706.13
1764762889.3926294,-8415.18,-9406.845,3184.65,-4529.88,-13050.72,-28641.105,-13616.19,-10700.91
1764762889.3926294,-8412.93,-9404.865,3186.495,-4527.855,-13048.74,-28637.19,-13612.68,-10697.895
1764762889.3926294,-8416.17,-9407.7,3183.66,-4530.915,-13052.79,-28641.06,-13616.64,-10701.405
1764762889.393642,-8422.695,-9412.695,3177.81,-4535.505,-13058.145,-28646.19,-13622.31,-10706.76
1764762889.393642,-8422.02,-9411.48,3178.53,-4534.155,-13057.38,-28644.84,-13622.355,-10706.175
1764762889.393642,-8415.72,-9404.595,3185.1,-4527.9,-13051.755,-28640.88,-13618.53,-10700.235
1764762889.393642,-8413.38,-9402.39,3185.91,-4526.955,-13049.19,-28638.09,-13614.165,-10697.355
1764762889.393642,-8422.289999999999,-9416.25,3171.33,-4540.365,-13063.14,-28651.545,-13622.94,-10702.305
1764762889.393642,-8423.19,-9414.81,3174.975,-4536.179999999999,-13059.045,-28646.64,-13619.97,-10704.15
1764762889.393642,-8416.574999999999,-9403.92,3185.55,-4527.495,-13052.925,-28641.465,-13616.64,-10705.005
1764762889.393642,-8416.44,-9406.17,3181.995,-4531.05,-13056.84,-28645.425,-13617.27,-10702.8
1764762889.393642,-8419.005,-9408.69,3179.745,-4533.705,-13056.48,-28644.39,-13618.98,-10704.375
1764762889.393642,-8413.02,-9402.84,3185.64,-4526.639999999999,-13048.965,-28636.515,-13613.445,-10699.56
1764762889.393642,-8416.845,-9406.755,3181.77,-4530.195,-13053.465,-28641.78,-13616.91,-10702.62
1764762889.437004,-8413.515,-9402.93,3186.405,-4526.73,-13049.64,-28639.395,-13613.985,-10699.155
1764762889.4375422,-8413.605,-9403.065,3186.495,-4526.865,-13049.595,-28639.215,-13613.805,-10699.02
1764762889.4375422,-8414.685,-9403.47,3185.235,-4527.81,-13049.82,-28638.045,-13613.49,-10699.2
1764762889.4380698,-8414.865,-9403.65,3184.74,-4529.07,-13051.665,-28640.205,-13614.525,-10699.335
1764762889.4380698,-8415.045,-9403.695,3184.155,-4529.79,-13053.24,-28640.97,-13614.48,-10698.255
1764762889.4380698,-8420.13,-9408.33,3178.62,-4534.47,-13058.145,-28645.2,-13619.16,-10702.215
1764762889.4380698,-8419.77,-9408.78,3178.485,-4534.335,-13058.145,-28644.84,-13619.025,-10702.305
1764762889.4380698,-8417.699999999999,-9406.44,3181.185,-4531.23,-13053.555,-28640.07,-13614.84,-10700.055
1764762889.4380698,-8415.315,-9403.785,3183.975,-4530.014999999999,-13051.485,-28639.98,-13614.75,-10699.47
1764762889.4380698,-8413.83,-9402.84,3184.47,-4529.79,-13051.44,-28639.53,-13613.265,-10697.265
1764762889.4380698,-8411.22,-9400.275,3186.54,-4527.495,-13049.19,-28637.235,-13610.52,-10693.17
1764762889.4380698,-8413.695,-9402.255,3184.74,-4528.62,-13050.27,-28637.865,-13612.905,-10696.455
1764762889.4380698,-8409.69,-9397.35,3189.645,-4523.895,-13047.075,-28634.22,-13609.98,-10693.62
1764762889.4380698,-8415.404999999999,-9402.345,3184.47,-4529.429999999999,-13052.295,-28640.25,-13614.705,-10698.975
1764762889.4380698,-8410.005,-9397.26,3190.095,-4523.67,-13045.41,-28634.175,-13608.585,-10692.045
1764762889.4380698,-8414.19,-9401.445,3184.875,-4529.115,-13050.315,-28638.0,-13612.455,-10696.23
1764762889.4380698,-8412.795,-9399.42,3186.945,-4527.855,-13048.695,-28636.695,-13611.195,-10695.105
1764762889.4380698,-8409.195,-9396.54,3190.05,-4524.03,-13045.905,-28633.23,-13608.27,-10691.955
1764762889.4380698,-8413.56,-9401.445,3185.73,-4527.81,-13048.65,-28636.29,-13611.825,-10696.32
1764762889.4380698,-8411.355,-9398.97,3189.015,-4524.84,-13046.445,-28634.13,-13610.07,-10694.205
1764762889.4380698,-8408.115,-9393.705,3194.55,-4519.665,-13042.215,-28630.305,-13607.19,-10690.74
1764762889.4380698,-8409.6,-9397.305,3190.185,-4524.84,-13045.545,-28633.815,-13610.25,-10689.84
1764762889.4380698,-8405.19,-9393.93,3191.985,-4522.905,-13044.195,-28631.115,-13605.615,-10685.025
1764762889.4380698,-8405.775,-9392.895,3193.74,-4521.465,-13043.97,-28631.43,-13606.47,-10688.355
1764762889.4858687,-8411.265,-9397.8,3189.06,-4525.74,-13047.795,-28634.715,-13610.655,-10694.79
1764762889.4858687,-8410.68,-9397.755,3188.52,-4526.505,-13047.975,-28634.67,-13610.565,-10693.08
1764762889.4858687,-8406.09,-9392.94,3193.2,-4521.33,-13043.205,-28630.215,-13606.065,-10688.355
1764762889.4858687,-8406.855,-9392.895,3193.065,-4521.645,-13043.925,-28631.16,-13606.74,-10688.715
1764762889.4858687,-8411.94,-9398.88,3187.485,-4526.775,-13049.82,-28635.48,-13611.915,-10693.8
1764762889.4858687,-8410.32,-9397.53,3187.755,-4525.92,-13048.29,-28633.995,-13610.34,-10692.72
1764762889.4858687,-8405.82,-9393.57,3192.57,-4521.735,-13043.52,-28630.215,-13606.515,-10688.445
1764762889.4858687,-8405.64,-9394.02,3192.885,-4521.24,-13042.395,-28628.82,-13604.985,-10686.6
1764762889.4858687,-8402.985,-9390.195,3195.405,-4519.17,-13041.855,-28628.19,-13601.97,-10684.395
1764762889.4858687,-8403.705,-9390.555,3195.585,-4519.08,-13042.44,-28629.045,-13604.805,-10687.5
1764762889.487395,-8406.945,-9394.695,3191.535,-4523.22,-13046.085,-28632.375,-13607.865,-10690.605
1764762889.487395,-8404.065,-9391.905,3194.82,-4520.429999999999,-13043.07,-28629.315,-13604.445,-10686.555
1764762889.487395,-8408.205,-9395.46,3191.895,-4522.905,-13046.31,-28632.78,-13608.18,-10691.145
1764762889.487395,-8406.404999999999,-9395.145,3190.59,-4523.895,-13046.265,-28633.095,-13608.63,-10690.92
1764762889.487395,-8405.279999999999,-9394.875,3190.095,-4524.03,-13045.59,-28632.015,-13606.65,-10689.57
1764762889.487395,-8399.744999999999,-9389.97,3194.91,-4519.71,-13040.775,-28627.695,-13602.51,-10683.18
1764762889.4881408,-8399.385,-9387.63,3196.53,-4518.224999999999,-13039.29,-28626.705,-13601.88,-10683.495
1764762889.4881408,-8398.755,-9386.505,3198.645,-4516.965,-13037.535,-28625.22,-13600.845,-10683.09
1764762889.4881408,-8399.789999999999,-9389.43,3195.81,-4520.295,-13040.28,-28626.885,-13601.835,-10682.955
1764762889.4881408,-8403.074999999999,-9394.29,3191.895,-4523.804999999999,-13043.565,-28628.865,-13602.915,-10684.53
1764762889.4881408,-8406.09,-9393.795,3192.66,-4523.985,-13045.905,-28633.68,-13607.685,-10690.605
1764762889.4881408,-8403.255,-9391.14,3193.47,-4523.715,-13045.905,-28634.22,-13607.145,-10688.4
1764762889.4881408,-8406.225,-9394.38,3191.4,-4524.389999999999,-13045.77,-28634.4,-13608.72,-10690.92
1764762889.4881408,-8400.735,-9390.105,3196.305,-4518.945,-13039.785,-28627.155,-13602.105,-10684.755
1764762889.5321796,-8402.715,-9392.265,3193.335,-4522.095,-13043.43,-28630.89,-13604.49,-10686.42
1764762889.5321796,-8406.494999999999,-9394.695,3190.905,-4525.065,-13046.67,-28633.815,-13608.675,-10690.335
1764762889.5321796,-8403.705,-9391.68,3193.47,-4522.365,-13043.97,-28630.98,-13605.165,-10687.68
1764762889.5321796,-8405.369999999999,-9394.245,3190.815,-4524.705,-13046.49,-28632.465,-13605.93,-10689.255
1764762889.5321796,-8401.14,-9389.52,3195.315,-4520.429999999999,-13041.585,-28628.28,-13600.89,-10684.305
1764762889.5321796,-8405.414999999999,-9394.38,3190.5,-4525.425,-13046.22,-28633.77,-13605.48,-10689.165
1764762889.5321796,-8405.369999999999,-9394.47,3191.76,-4525.29,-13046.31,-28633.5,-13605.795,-10689.93
1764762889.5321796,-8403.48,-9391.815,3193.74,-4523.715,-13044.465,-28631.835,-13604.265,-10688.265
1764762889.5321796,-8400.69,-9388.755,3196.395,-4521.645,-13042.08,-28629.315,-13602.06,-10684.98
1764762889.5321796,-8402.94,-9391.545,3194.01,-4524.12,-13044.96,-28631.655,-13604.58,-10686.87
1764762889.5321796,-8399.205,-9387.27,3197.745,-4518.855,-13039.83,-28625.76,-13599.945,-10682.595
1764762889.5321796,-8397.855,-9385.875,3198.51,-4517.73,-13038.975,-28625.445,-13598.91,-10681.02
1764762889.5321796,-8401.005,-9389.79,3194.955,-4521.915,-13042.665,-28629.045,-13602.285,-10684.305
1764762889.5321796,-8395.38,-9383.895,3200.625,-4516.335,-13036.635,-28623.42,-13596.345,-10678.77
1764762889.5321796,-8394.255,-9382.545,3203.01,-4514.355,-13035.78,-28622.115,-13595.265,-10677.645
1764762889.5321796,-8399.61,-9386.865,3199.725,-4518.27,-13040.685,-28627.965,-13598.73,-10681.155
1764762889.5321796,-8403.21,-9391.905,3193.245,-4523.895,-13046.13,-28635.03,-13604.805,-10684.125
1764762889.5321796,-8398.215,-9388.08,3195.63,-4520.16,-13039.38,-28625.895,-13600.26,-10681.425
1764762889.5321796,-8399.43,-9388.845,3195.72,-4521.014999999999,-13041.09,-28627.92,-13602.195,-10682.73
1764762889.5321796,-8395.154999999999,-9384.03,3200.4,-4515.929999999999,-13038.21,-28627.155,-13600.215,-10679.355
1764762889.5321796,-8393.22,-9382.68,3201.345,-4514.264999999999,-13035.195,-28621.89,-13594.905,-10676.43
1764762889.5321796,-8398.44,-9386.82,3196.575,-4519.755,-13040.46,-28626.3,-13599.72,-10681.47
1764762889.5780818,-8395.38,-9382.635,3200.445,-4516.695,-13036.095,-28624.095,-13596.75,-10678.77
1764762889.5780818,-8394.164999999999,-9381.465,3201.93,-4514.625,-13034.205,-28621.35,-13595.67,-10677.825
1764762889.5780818,-8394.345,-9381.105,3201.975,-4515.48,-13036.005,-28622.115,-13594.23,-10677.555
1764762889.5780818,-8397.315,-9384.255,3198.51,-4519.665,-13041.27,-28628.415,-13598.37,-10681.02
1764762889.5780818,-8397.63,-9384.795,3198.06,-4520.655,-13042.665,-28630.08,-13600.035,-10680.48
1764762889.5780818,-8391.42,-9378.09,3204.99,-4513.05,-13033.845,-28621.08,-13594.725,-10674.495
1764762889.5780818,-8393.49,-9380.43,3202.56,-4516.065,-13035.87,-28622.16,-13594.725,-10675.845
1764762889.5780818,-8398.395,-9384.48,3199.275,-4519.26,-13039.92,-28626.345,-13599.945,-10681.38
1764762889.5780818,-8397.63,-9384.12,3199.41,-4518.72,-13039.65,-28625.94,-13600.08,-10680.57
1764762889.5780818,-8391.824999999999,-9378.63,3204.675,-4513.905,-13034.205,-28619.64,-13593.87,-10674.81
1764762889.5780818,-8392.14,-9379.755,3204.18,-4514.625,-13034.25,-28619.505,-13593.285,-10674.945
1764762889.5780818,-8392.949999999999,-9381.015,3203.325,-4515.389999999999,-13034.925,-28621.26,-13593.69,-10673.55
1764762889.5780818,-8392.59,-9380.835,3203.775,-4515.525,-13034.745,-28620.945,-13593.015,-10672.83
1764762889.5780818,-8392.86,-9380.205,3204.72,-4515.57,-13035.195,-28620.945,-13593.69,-10675.485
1764762889.5780818,-8394.029999999999,-9381.105,3203.055,-4516.83,-13036.725,-28623.51,-13594.905,-10677.06
1764762889.5780818,-8396.414999999999,-9383.355,3199.905,-4519.8,-13038.795,-28625.85,-13596.885,-10680.165
1764762889.5780818,-8393.13,-9378.99,3204.585,-4514.445,-13035.24,-28621.89,-13594.545,-10676.79
1764762889.5780818,-8395.965,-9382.77,3199.41,-4519.71,-13039.47,-28625.94,-13598.01,-10678.68
1764762889.6266117,-8394.3,-9381.51,3200.22,-4518.764999999999,-13036.995,-28622.475,-13595.49,-10676.745
1764762889.6266117,-8395.154999999999,-9381.96,3200.265,-4518.9,-13036.77,-28623.6,-13596.03,-10676.88
1764762889.6266117,-8399.295,-9385.695,3196.395,-4523.085,-13041.405,-28628.64,-13599.81,-10680.57
1764762889.6266117,-8394.93,-9381.24,3200.4,-4518.945,-13039.11,-28626.615,-13596.57,-10674.63
1764762889.6266117,-8393.31,-9381.24,3200.085,-4519.62,-13038.885,-28627.245,-13596.48,-10672.29
1764762889.6266117,-8393.355,-9380.34,3202.38,-4516.965,-13036.005,-28621.17,-13594.995,-10676.07
1764762889.6266117,-8393.805,-9380.385,3201.84,-4516.965,-13036.32,-28620.855,-13593.69,-10677.195
1764762889.6266117,-8393.085,-9379.845,3202.11,-4516.425,-13035.96,-28622.295,-13594.275,-10676.745
1764762889.6266117,-8396.64,-9383.445,3198.195,-4520.745,-13039.695,-28626.165,-13597.92,-10679.94
1764762889.6266117,-8395.154999999999,-9381.645,3200.58,-4519.755,-13038.255,-28624.545,-13596.885,-10678.41
1764762889.6266117,-8390.88,-9377.37,3204.495,-4516.2,-13033.62,-28619.64,-13592.295,-10673.64
1764762889.6266117,-8390.699999999999,-9380.07,3200.715,-4519.08,-13035.42,-28618.965,-13591.485,-10671.795
1764762889.6266117,-8392.635,-9379.44,3202.47,-4517.28,-13035.24,-28620.045,-13592.61,-10672.875
1764762889.6266117,-8389.574999999999,-9374.895,3206.115,-4514.535,-13033.395,-28621.755,-13594.59,-10671.885
1764762889.6266117,-8388.315,-9374.49,3207.42,-4513.724999999999,-13032.27,-28620.18,-13592.25,-10670.085
1764762889.6266117,-8396.775,-9382.005,3199.905,-4520.52,-13040.37,-28627.02,-13598.955,-10679.355
1764762889.6266117,-8397.18,-9383.085,3198.465,-4521.42,-13041.765,-28630.89,-13601.79,-10679.94
1764762889.6266117,-8393.31,-9382.14,3199.095,-4520.745,-13037.985,-28626.12,-13597.965,-10674.81
1764762889.6266117,-8389.17,-9378.09,3201.975,-4517.91,-13035.69,-28621.935,-13592.16,-10671.57
1764762889.6266117,-8390.43,-9377.505,3203.235,-4516.065,-13034.79,-28621.44,-13593.69,-10674.585
1764762889.6266117,-8393.715,-9381.015,3200.31,-4518.72,-13035.195,-28622.745,-13597.605,-10677.33
1764762889.6266117,-8396.955,-9384.12,3197.34,-4522.95,-13039.425,-28625.58,-13599.18,-10679.535
1764762889.6266117,-8394.48,-9381.645,3198.96,-4522.815,-13041.45,-28627.83,-13596.12,-10675.305
1764762889.6266117,-8394.525,-9381.87,3199.41,-4522.23,-13039.335,-28626.345,-13597.83,-10676.25
1764762889.6266117,-8386.56,-9372.375,3209.4,-4511.474999999999,-13027.545,-28613.61,-13588.02,-10670.445
1764762889.6266117,-8389.125,-9374.355,3207.15,-4513.455,-13030.065,-28616.895,-13588.695,-10670.805
1764762889.6266117,-8392.14,-9376.92,3203.28,-4518.045,-13036.23,-28623.15,-13593.465,-10674.18
1764762889.6266117,-8391.33,-9376.965,3202.83,-4517.775,-13035.87,-28621.71,-13593.42,-10674.135
1764762889.670955,-8387.955,-9373.59,3205.26,-4514.804999999999,-13032.405,-28618.83,-13589.91,-10670.265
1764762889.670955,-8389.89,-9376.29,3202.605,-4518.045,-13035.645,-28622.205,-13592.34,-10672.695
1764762889.670955,-8389.08,-9375.435,3203.73,-4516.56,-13034.25,-28620.18,-13591.215,-10671.39
1764762889.670955,-8386.47,-9371.745,3207.42,-4512.915,-13030.47,-28617.435,-13588.965,-10668.555
1764762889.670955,-8384.13,-9368.955,3210.345,-4509.855,-13027.995,-28615.185,-13586.13,-10665.855
1764762889.670955,-8387.01,-9372.06,3206.925,-4513.41,-13031.595,-28617.48,-13588.605,-10668.42
1764762889.670955,-8383.32,-9368.73,3210.795,-4509.99,-13028.04,-28613.43,-13584.465,-10664.82
1764762889.670955,-8384.715,-9369.045,3209.22,-4511.07,-13029.57,-28615.725,-13585.77,-10665.72
1764762889.670955,-8385.119999999999,-9369.765,3208.995,-4512.06,-13030.29,-28616.04,-13586.355,-10666.53
1764762889.670955,-8385.029999999999,-9369.765,3209.04,-4511.745,-13029.39,-28615.635,-13586.175,-10666.485
1764762889.670955,-8386.695,-9371.34,3207.465,-4513.275,-13030.92,-28616.94,-13587.345,-10667.835
1764762889.670955,-8391.555,-9376.29,3202.605,-4518.585,-13035.78,-28621.89,-13591.98,-10672.56
1764762889.670955,-8392.005,-9376.29,3202.56,-4518.0,-13035.375,-28621.935,-13592.565,-10672.965
1764762889.670955,-8389.98,-9374.04,3205.44,-4515.48,-13032.945,-28619.415,-13590.45,-10670.85
1764762889.670955,-8394.345,-9378.495,3201.21,-4519.304999999999,-13036.365,-28623.645,-13594.365,-10674.495
1764762889.671962,-8387.73,-9371.475,3208.05,-4512.825,-13029.975,-28617.345,-13588.38,-10667.655
1764762889.671962,-8389.395,-9372.96,3207.24,-4514.445,-13033.395,-28620.315,-13590.405,-10668.6
1764762889.671962,-8397.18,-9381.87,3196.755,-4525.29,-13044.015,-28631.34,-13597.965,-10675.395
1764762889.671962,-8392.23,-9375.255,3204.225,-4516.965,-13033.89,-28622.655,-13591.62,-10672.11
1764762889.671962,-8394.615,-9378.45,3200.985,-4520.205,-13036.455,-28623.375,-13592.7,-10673.955
1764762889.671962,-8392.68,-9376.245,3202.605,-4518.179999999999,-13035.15,-28622.565,-13591.53,-10672.47
1764762889.671962,-8394.795,-9377.19,3201.705,-4519.8,-13036.32,-28623.87,-13593.69,-10674.36
1764762889.717637,-8391.465,-9373.545,3204.945,-4516.47,-13032.765,-28619.82,-13590.18,-10670.67
1764762889.717637,-8390.115,-9373.005,3204.72,-4516.695,-13033.44,-28620.315,-13589.685,-10669.5
1764762889.717637,-8390.835,-9373.68,3205.215,-4516.29,-13032.765,-28619.325,-13589.595,-10670.22
1764762889.717637,-8388.09,-9370.53,3207.735,-4513.095,-13029.48,-28618.245,-13588.83,-10668.915
1764762889.717637,-8388.09,-9373.41,3203.595,-4517.685,-13032.27,-28619.325,-13588.47,-10667.97
1764762889.717637,-8393.445,-9377.595,3200.04,-4521.465,-13037.085,-28624.365,-13592.745,-10672.38
1764762889.717637,-8388.18,-9370.53,3208.095,-4513.995,-13030.605,-28618.245,-13587.705,-10668.87
1764762889.717637,-8388.225,-9370.575,3208.185,-4513.41,-13029.93,-28617.165,-13587.75,-10667.88
1764762889.717637,-8389.395,-9371.655,3206.655,-4515.615,-13030.515,-28617.39,-13588.2,-10668.42
1764762889.717637,-8389.305,-9371.79,3207.42,-4515.84,-13030.11,-28616.85,-13588.245,-10668.33
1764762889.717637,-8390.025,-9372.87,3205.98,-4516.965,-13031.865,-28618.38,-13588.965,-10669.14
1764762889.717637,-8388.045,-9370.98,3207.24,-4516.38,-13031.595,-28618.38,-13588.245,-10667.655
1764762889.717637,-8390.565,-9373.995,3204.495,-4519.035,-13032.9,-28620.225,-13591.485,-10669.815
1764762889.717637,-8392.904999999999,-9376.245,3203.37,-4520.97,-13034.43,-28621.98,-13593.465,-10673.865
1764762889.717637,-8385.84,-9369.405,3209.4,-4514.58,-13029.795,-28616.94,-13586.715,-10667.205
1764762889.717637,-8390.07,-9372.735,3205.125,-4518.179999999999,-13034.565,-28621.665,-13590.54,-10670.04
1764762889.717637,-8390.025,-9372.06,3205.935,-4517.595,-13033.215,-28621.305,-13589.505,-10669.41
1764762889.717637,-8385.48,-9367.38,3210.435,-4512.599999999999,-13027.365,-28616.13,-13584.96,-10664.865
1764762889.7186546,-8385.074999999999,-9367.11,3210.03,-4512.42,-13027.77,-28616.22,-13585.23,-10665.945
1764762889.7186546,-8390.88,-9372.33,3204.36,-4518.45,-13034.07,-28621.665,-13591.17,-10671.21
1764762889.7186546,-8389.755,-9371.97,3204.72,-4517.82,-13033.485,-28621.17,-13590.585,-10670.715
1764762889.7186546,-8386.56,-9369.315,3208.545,-4514.985,-13030.515,-28618.065,-13588.65,-10668.15
1764762889.7186546,-8390.115,-9373.59,3204.135,-4518.9,-13034.025,-28621.44,-13591.665,-10670.4
1764762889.7186546,-8390.565,-9375.885,3202.155,-4520.07,-13034.565,-28620.135,-13589.055,-10667.43
1764762889.7626731,-8383.59,-9364.185,3213.63,-4508.46,-13024.485,-28612.71,-13584.78,-10663.065
1764762889.7626731,-8382.96,-9364.635,3211.785,-4511.88,-13027.77,-28616.94,-13587.03,-10664.28
1764762889.7626731,-8390.43,-9373.095,3203.82,-4520.205,-13036.59,-28625.085,-13592.655,-10670.535
1764762889.7631776,-8389.98,-9372.555,3203.505,-4520.52,-13036.59,-28626.075,-13592.475,-10668.465
1764762889.7631776,-8391.6,-9372.195,3204.63,-4518.99,-13034.43,-28623.6,-13594.14,-10672.11
1764762889.7631776,-8392.365,-9374.58,3202.56,-4520.88,-13037.04,-28627.245,-13594.545,-10671.255
1764762889.7631776,-8386.065,-9367.425,3209.13,-4514.76,-13030.02,-28617.3,-13588.38,-10667.34
1764762889.7631776,-8387.505,-9369.135,3207.51,-4517.054999999999,-13032.54,-28618.515,-13589.055,-10670.94
1764762889.7631776,-8383.77,-9366.075,3210.705,-4513.545,-13029.84,-28616.94,-13586.49,-10666.35
1764762889.7631776,-8382.42,-9364.095,3213.135,-4511.295,-13027.905,-28615.815,-13585.14,-10664.82
1764762889.7631776,-8381.654999999999,-9363.96,3212.73,-4512.014999999999,-13029.345,-28616.58,-13583.79,-10663.74
1764762889.7631776,-8385.029999999999,-9367.605,3208.23,-4516.29,-13032.855,-28619.55,-13586.4,-10665.99
1764762889.7631776,-8384.49,-9367.38,3208.41,-4515.389999999999,-13032.09,-28618.695,-13586.58,-10665.9
1764762889.7631776,-8383.994999999999,-9366.705,3209.22,-4514.804999999999,-13030.92,-28617.75,-13585.59,-10665.45
1764762889.7643764,-8384.805,-9367.335,3208.5,-4515.615,-13031.37,-28618.02,-13585.095,-10664.955
1764762889.7643764,-8384.67,-9368.19,3208.275,-4515.57,-13031.325,-28618.83,-13585.545,-10665.315
1764762889.7643764,-8387.279999999999,-9369.585,3206.835,-4517.73,-13032.315,-28620.36,-13588.02,-10669.455
1764762889.7646918,-8388.09,-9370.17,3206.655,-4518.72,-13033.26,-28620.945,-13587.795,-10669.455
1764762889.7646918,-8387.865,-9370.44,3205.71,-4519.71,-13034.655,-28621.125,-13587.03,-10668.645
1764762889.7646918,-8386.065,-9367.155,3210.21,-4515.345,-13030.695,-28617.84,-13585.77,-10667.385
1764762889.7646918,-8379.494999999999,-9360.045,3217.68,-4508.19,-13024.44,-28612.89,-13582.305,-10661.67
1764762889.7646918,-8384.039999999999,-9367.065,3208.905,-4516.695,-13030.875,-28618.83,-13586.265,-10664.28
1764762889.7646918,-8380.035,-9361.98,3213.045,-4513.275,-13026.195,-28614.105,-13581.135,-10662.03
1764762889.7646918,-8378.55,-9359.145,3217.095,-4509.855,-13024.26,-28611.54,-13579.56,-10661.13
1764762889.8107188,-8379.27,-9360.54,3216.375,-4510.349999999999,-13023.765,-28610.73,-13579.65,-10660.185
1764762889.8107188,-8379.045,-9360.855,3216.06,-4510.845,-13024.845,-28611.405,-13580.91,-10660.14
1764762889.8107188,-8381.475,-9363.015,3212.145,-4514.94,-13027.77,-28615.005,-13583.43,-10662.84
1764762889.8107188,-8378.369999999999,-9359.505,3215.835,-4511.61,-13023.72,-28611.945,-13580.235,-10659.24
1764762889.8107188,-8378.145,-9359.055,3216.195,-4511.25,-13023.945,-28611.9,-13580.145,-10658.97
1764762889.8107188,-8377.289999999999,-9357.525,3217.77,-4510.17,-13022.775,-28609.785,-13579.155,-10656.72
1764762889.8107188,-8376.705,-9358.065,3217.41,-4510.125,-13022.37,-28610.145,-13579.2,-10656.99
1764762889.8107188,-8380.125,-9362.88,3211.92,-4516.155,-13029.255,-28616.895,-13583.385,-10659.33
1764762889.8107188,-8379.99,-9360.405,3214.395,-4513.77,-13028.22,-28616.805,-13583.115,-10660.14
1764762889.8107188,-8378.73,-9357.615,3217.005,-4509.27,-13022.37,-28611.27,-13580.73,-10659.24
1764762889.8107188,-8380.935,-9361.125,3213.45,-4513.32,-13026.015,-28613.205,-13582.215,-10660.725
1764762889.8107188,-8378.865,-9357.705,3217.005,-4510.395,-13025.07,-28611.585,-13580.82,-10658.835
1764762889.8107188,-8382.195,-9361.62,3213.405,-4513.905,-13027.86,-28614.78,-13584.78,-10662.21
1764762889.8107188,-8381.025,-9360.405,3214.62,-4513.365,-13026.915,-28613.43,-13583.43,-10660.95
1764762889.8107188,-8375.355,-9354.645,3219.93,-4508.145,-13021.335,-28607.535,-13576.5,-10655.1
1764762889.8107188,-8372.925,-9352.305,3221.955,-4505.58,-13018.95,-28606.32,-13574.43,-10652.85
1764762889.8107188,-8373.105,-9351.72,3222.315,-4505.264999999999,-13018.995,-28606.545,-13574.07,-10651.77
1764762889.8107188,-8374.994999999999,-9353.745,3219.885,-4507.245,-13020.705,-28608.48,-13575.15,-10651.95
1764762889.8107188,-8374.455,-9352.575,3221.055,-4506.389999999999,-13021.38,-28608.075,-13574.97,-10653.93
1764762889.8107188,-8374.365,-9352.71,3221.145,-4506.3,-13020.66,-28607.805,-13575.69,-10655.055
1764762889.8107188,-8376.795,-9354.915,3218.76,-4508.639999999999,-13022.325,-28610.325,-13577.13,-10656.63
1764762889.8107188,-8379.81,-9357.93,3215.745,-4511.474999999999,-13025.295,-28612.44,-13580.325,-10658.97
1764762889.8107188,-8375.985,-9354.06,3220.02,-4507.695,-13021.74,-28608.57,-13576.77,-10655.055
1764762889.8107188,-8375.355,-9353.79,3220.56,-4507.425,-13020.93,-28608.03,-13576.545,-10654.875
1764762889.8579018,-8379.225,-9357.84,3215.745,-4512.599999999999,-13025.745,-28612.44,-13580.505,-10658.655
1764762889.8579018,-8376.57,-9355.59,3217.635,-4509.99,-13023.63,-28611.0,-13578.705,-10656.09
1764762889.8579018,-8368.74,-9347.85,3225.06,-4501.98,-13015.98,-28603.395,-13571.73,-10648.62
1764762889.8579018,-8369.595,-9349.02,3223.395,-4502.97,-13017.915,-28604.655,-13573.665,-10650.015
1764762889.8579018,-8372.565,-9351.945,3220.065,-4505.13,-13020.57,-28606.68,-13575.015,-10652.22
1764762889.8579018,-8379.18,-9359.145,3213.36,-4511.52,-13025.88,-28612.08,-13580.505,-10658.97
1764762889.8579018,-8377.515,-9356.355,3217.095,-4508.325,-13023.0,-28609.965,-13578.345,-10656.315
1764762889.8594315,-8379.945,-9358.965,3214.755,-4510.62,-13023.72,-28610.415,-13578.93,-10657.62
1764762889.8594315,-8382.645,-9361.575,3211.56,-4514.849999999999,-13028.265,-28615.14,-13584.915,-10661.265
1764762889.8594315,-8376.795,-9354.6,3218.535,-4508.325,-13022.73,-28609.515,-13578.795,-10656.54
1764762889.8594315,-8378.369999999999,-9356.265,3216.645,-4510.53,-13025.205,-28611.63,-13579.245,-10658.07
1764762889.8594315,-8374.32,-9351.99,3221.01,-4507.065,-13023.27,-28611.225,-13577.31,-10653.795
1764762889.8594315,-8371.89,-9350.91,3220.605,-4506.705,-13022.64,-28612.485,-13577.355,-10649.925
1764762889.8594315,-8373.555,-9351.855,3221.235,-4504.815,-13017.33,-28604.52,-13575.645,-10653.93
1764762889.8594315,-8375.085,-9353.115,3219.57,-4507.065,-13020.57,-28607.4,-13577.04,-10655.82
1764762889.8594315,-8372.43,-9351.405,3220.155,-4507.514999999999,-13018.95,-28604.88,-13573.62,-10652.445
1764762889.8594315,-8373.824999999999,-9352.17,3220.425,-4507.605,-13020.165,-28606.185,-13574.7,-10653.75
1764762889.8594315,-8377.065,-9354.465,3217.995,-4509.72,-13022.46,-28608.12,-13577.31,-10656.315
1764762889.8594315,-8372.835,-9350.235,3221.82,-4506.03,-13018.815,-28604.34,-13574.16,-10651.995
1764762889.8594315,-8376.93,-9354.33,3217.995,-4509.945,-13022.505,-28607.58,-13577.355,-10655.73
1764762889.8594315,-8376.525,-9353.745,3218.715,-4508.91,-13021.83,-28607.49,-13576.365,-10655.37
1764762889.8594315,-8370.539999999999,-9348.435,3224.385,-4503.645,-13016.34,-28602.09,-13571.19,-10649.565
1764762889.8594315,-8370.585,-9348.705,3225.105,-4504.32,-13016.79,-28602.63,-13571.28,-10648.845
1764762889.8594315,-8375.805,-9354.6,3219.435,-4509.945,-13022.19,-28608.165,-13576.725,-10653.75
1764762889.9033055,-8374.904999999999,-9353.205,3219.66,-4509.09,-13021.74,-28607.625,-13577.085,-10654.155
1764762889.9033055,-8372.744999999999,-9351.63,3221.235,-4507.47,-13019.4,-28605.645,-13575.33,-10651.365
1764762889.9033055,-8376.57,-9354.915,3217.995,-4510.755,-13023.585,-28609.38,-13577.4,-10654.605
1764762889.9033055,-8377.65,-9354.555,3218.535,-4510.755,-13025.025,-28611.27,-13577.895,-10655.415
1764762889.9043145,-8378.055,-9355.14,3217.86,-4510.395,-13025.07,-28610.37,-13578.525,-10656.765
1764762889.9043145,-8377.695,-9354.42,3217.545,-4510.845,-13024.71,-28609.785,-13578.66,-10656.09
1764762889.9043145,-8375.13,-9352.08,3219.705,-4510.08,-13022.955,-28608.21,-13576.68,-10654.11
1764762889.9043145,-8368.02,-9345.69,3226.995,-4502.88,-13015.485,-28601.325,-13570.155,-10647.855
1764762889.9043145,-8367.119999999999,-9344.745,3228.21,-4501.215,-13013.73,-28600.965,-13569.525,-10646.955
1764762889.9043145,-8373.465,-9351.99,3220.245,-4508.595,-13022.145,-28610.37,-13576.41,-10652.085
1764762889.9043145,-8373.69,-9352.98,3218.535,-4509.63,-13023.675,-28611.54,-13577.22,-10650.15
1764762889.9043145,-8369.955,-9347.715,3223.98,-4504.23,-13018.545,-28602.855,-13572.0,-10648.62
1764762889.9043145,-8366.67,-9344.385,3227.22,-4500.764999999999,-13014.945,-28598.94,-13567.68,-10647.765
1764762889.9043145,-8368.74,-9345.825,3226.05,-4502.115,-13016.79,-28602.72,-13570.605,-10650.645
1764762889.9043145,-8376.21,-9354.33,3217.41,-4510.53,-13025.655,-28611.99,-13577.58,-10657.35
1764762889.9043145,-8374.14,-9351.765,3220.695,-4506.66,-13019.985,-28606.86,-13575.105,-10655.955
1764762889.9043145,-8369.505,-9348.435,3223.035,-4504.724999999999,-13017.195,-28603.44,-13570.29,-10652.085
1764762889.9043145,-8373.645,-9352.71,3218.625,-4508.55,-13021.245,-28608.615,-13574.88,-10655.145
1764762889.9059038,-8371.529999999999,-9350.055,3221.37,-4505.58,-13019.67,-28606.68,-13572.855,-10652.355
1764762889.9059038,-8377.695,-9354.915,3216.285,-4510.395,-13025.34,-28611.81,-13577.94,-10658.565
1764762889.9059038,-8376.84,-9352.935,3217.41,-4509.495,-13024.215,-28610.595,-13577.58,-10658.205
1764762889.9059038,-8373.06,-9350.64,3219.57,-4506.57,-13021.335,-28607.04,-13574.7,-10655.235
1764762889.94852,-8372.565,-9352.215,3217.635,-4508.505,-13022.82,-28606.95,-13572.54,-10653.705
1764762889.949029,-8372.88,-9352.71,3218.4,-4508.19,-13022.19,-28605.96,-13571.37,-10652.76
1764762889.949029,-8369.01,-9345.24,3226.005,-4501.125,-13017.015,-28603.935,-13571.19,-10650.465
1764762889.949029,-8364.869999999999,-9341.46,3228.795,-4498.155,-13014.63,-28600.47,-13568.625,-10646.19
1764762889.949029,-8370.855,-9347.985,3223.26,-4504.32,-13019.94,-28605.105,-13572.855,-10651.23
1764762889.949029,-8366.895,-9344.25,3227.985,-4500.54,-13015.62,-28602.225,-13569.39,-10646.865
1764762889.949029,-8368.065,-9346.545,3225.78,-4502.025,-13017.195,-28602.99,-13569.84,-10647.045
1764762889.949029,-8376.615,-9354.015,3218.76,-4508.82,-13024.53,-28609.2,-13575.555,-10656.045
1764762889.949029,-8376.615,-9353.385,3218.13,-4511.295,-13028.265,-28615.725,-13578.39,-10656.45
1764762889.949029,-8375.445,-9354.105,3216.465,-4512.915,-13027.68,-28613.16,-13576.68,-10653.615
1764762889.949029,-8367.21,-9343.53,3228.3,-4500.405,-13014.765,-28600.2,-13568.715,-10649.115
1764762889.949029,-8371.305,-9346.995,3224.97,-4503.599999999999,-13019.355,-28604.115,-13571.19,-10652.895
1764762889.949029,-8371.17,-9347.85,3224.295,-4504.365,-13019.76,-28605.51,-13571.145,-10651.905
1764762889.949029,-8372.07,-9349.335,3222.36,-4505.76,-13019.67,-28604.34,-13569.93,-10651.41
1764762889.949029,-8371.305,-9347.715,3223.89,-4504.05,-13019.49,-28603.71,-13569.12,-10651.005
1764762889.949029,-8364.33,-9340.56,3230.235,-4498.38,-13013.01,-28597.905,-13563.54,-10644.75
1764762889.949029,-8362.8,-9338.985,3231.495,-4497.3,-13011.57,-28597.5,-13562.595,-10642.815
1764762889.949029,-8367.705,-9344.25,3226.86,-4502.295,-13016.475,-28603.395,-13567.59,-10647.63
1764762889.949029,-8373.015,-9349.47,3221.64,-4507.11,-13020.435,-28608.12,-13573.71,-10652.58
1764762889.949029,-8368.605,-9344.7,3227.085,-4502.16,-13015.845,-28601.64,-13568.265,-10648.125
1764762889.949029,-8367.21,-9342.99,3227.67,-4500.855,-13016.025,-28600.92,-13566.645,-10647.585
1764762889.949029,-8370.18,-9346.05,3224.655,-4503.69,-13020.255,-28604.43,-13569.165,-10650.825
1764762889.9953265,-8371.305,-9347.175,3223.575,-4505.13,-13021.785,-28605.195,-13570.02,-10651.095
1764762889.9953265,-8369.279999999999,-9344.475,3226.005,-4502.79,-13019.175,-28603.53,-13569.795,-10649.16
1764762889.9953265,-8370.945,-9346.32,3224.16,-4504.32,-13020.255,-28604.88,-13570.245,-10650.69
1764762889.9953265,-8365.455,-9340.605,3230.64,-4497.345,-13013.055,-28598.49,-13565.295,-10645.605
1764762889.9953265,-8364.195,-9339.48,3231.36,-4496.4,-13011.75,-28596.06,-13563.54,-10644.795
1764762889.995859,-8370.765,-9346.815,3223.08,-4504.815,-13020.84,-28604.25,-13570.695,-10650.78
1764762889.995859,-8370.585,-9346.545,3222.765,-4504.905,-13021.56,-28605.42,-13570.515,-10650.825
1764762889.995859,-8366.67,-9342.675,3227.22,-4500.855,-13017.06,-28601.55,-13566.735,-10648.215
1764762889.995859,-8371.305,-9347.175,3222.855,-4504.41,-13021.065,-28605.33,-13571.595,-10652.355
