Timestamp,Channel1,Channel2,Channel3,Channel4,Channel5,Channel6,Channel7,Channel8
1764763511.5313644,-488.7,-1826.235,-27236.61,-7266.24,-18400.59,-26186.49,-5875.02,716.985
1764763511.5313644,-483.57,-1818.81,-27227.88,-7257.96,-18394.515,-26181.99,-5871.645,722.0699999999999
1764763511.5313644,-483.93,-1819.17,-27226.53,-7256.79,-18393.615,-26183.43,-5872.094999999999,721.2149999999999
1764763511.5313644,-481.77,-1816.515,-27224.19,-7254.269999999999,-18390.33,-26179.695,-5869.53,724.23
1764763511.5313644,-483.03,-1818.63,-27226.305,-7256.07,-18391.32,-26181.0,-5868.9,722.655
1764763511.5313644,-479.295,-1814.895,-27222.975,-7252.695,-18389.7,-26178.615,-5866.74,725.895
1764763511.5313644,-484.695,-1819.305,-27228.555,-7257.915,-18395.505,-26184.105,-5871.105,721.125
1764763511.5313644,-485.1,-1820.115,-27229.23,-7258.005,-18394.74,-26184.465,-5871.285,721.2149999999999
1764763511.5313644,-483.48,-1819.125,-27227.34,-7256.88,-18392.715,-26182.44,-5869.665,723.3299999999999
1764763511.5313644,-488.07,-1823.22,-27230.94,-7260.929999999999,-18396.27,-26185.32,-5871.87,719.1899999999999
1764763511.5313644,-483.075,-1817.55,-27226.305,-7255.575,-18392.22,-26181.72,-5868.675,723.555
1764763511.5313644,-481.995,-1815.84,-27225.18,-7255.08,-18392.58,-26182.62,-5868.764999999999,723.51
1764763511.5313644,-482.535,-1815.885,-27225.135,-7255.215,-18394.38,-26185.995,-5871.105,721.2149999999999
1764763511.5313644,-475.74,-1807.29,-27214.83,-7245.764999999999,-18387.585,-26180.325,-5867.054999999999,726.435
1764763511.5313644,-476.505,-1807.2,-27214.38,-7244.955,-18388.62,-26181.135,-5866.83,723.9599999999999
1764763511.5313644,-475.02,-1805.13,-27211.59,-7242.255,-18386.64,-26179.74,-5866.29,724.9499999999999
1764763511.5313644,-473.67,-1805.265,-27212.04,-7242.21,-18383.76,-26176.365,-5864.264999999999,727.605
1764763511.5313644,-477.675,-1813.05,-27222.255,-7250.58,-18388.305,-26178.12,-5865.255,725.625
1764763511.5313644,-478.665,-1815.48,-27224.775,-7253.594999999999,-18392.355,-26180.55,-5865.885,724.68
1764763511.5313644,-484.155,-1822.635,-27233.145,-7260.929999999999,-18397.215,-26185.095,-5869.125,720.855
1764763511.5313644,-486.9,-1827.09,-27239.265,-7264.755,-18396.315,-26183.385,-5868.764999999999,720.81
1764763511.5313644,-488.655,-1827.09,-27238.995,-7263.63,-18396.585,-26184.915,-5869.665,718.155
1764763511.5313644,-482.94,-1819.845,-27229.365,-7255.755,-18393.12,-26183.025,-5867.865,722.16
1764763511.5324762,-482.535,-1818.45,-27226.215,-7253.865,-18394.695,-26185.995,-5868.63,720.9
1764763511.577628,-478.17,-1813.365,-27220.095,-7248.554999999999,-18390.375,-26181.99,-5865.929999999999,724.545
1764763511.577628,-476.73,-1810.62,-27217.08,-7245.764999999999,-18389.565,-26181.585,-5864.49,725.4449999999999
1764763511.577628,-480.33,-1813.725,-27220.365,-7250.04,-18393.525,-26186.04,-5866.65,721.26
1764763511.577628,-481.095,-1816.515,-27223.965,-7253.099999999999,-18393.615,-26184.195,-5865.389999999999,722.295
1764763511.577628,-481.32,-1819.08,-27227.565,-7256.655,-18394.56,-26183.565,-5865.075,723.78
1764763511.578672,-486.63,-1824.345,-27234.18,-7262.37,-18399.06,-26187.525,-5868.99,718.785
1764763511.578672,-484.47,-1821.465,-27230.355,-7257.195,-18395.055,-26183.79,-5867.235,721.53
1764763511.578672,-485.64,-1822.77,-27230.985,-7258.005,-18396.405,-26184.78,-5866.92,720.225
1764763511.578672,-485.865,-1823.715,-27232.695,-7259.219999999999,-18395.19,-26183.88,-5866.92,721.395
1764763511.578672,-489.78,-1827.225,-27236.79,-7263.495,-18400.275,-26188.74,-5869.53,717.12
1764763511.578672,-487.755,-1825.425,-27234.72,-7261.605,-18399.42,-26189.01,-5869.98,718.02
1764763511.578672,-482.805,-1820.7,-27229.815,-7257.105,-18395.415,-26185.14,-5867.685,722.115
1764763511.578672,-484.38,-1822.185,-27232.515,-7259.67,-18396.855,-26186.445,-5868.224999999999,721.26
1764763511.5796764,-484.83,-1821.15,-27230.085,-7257.195,-18395.73,-26185.68,-5867.55,719.91
1764763511.5796764,-478.08,-1813.455,-27220.77,-7248.69,-18388.755,-26179.74,-5862.554999999999,725.895
1764763511.5796764,-480.195,-1814.49,-27222.93,-7250.355,-18390.24,-26181.585,-5864.175,723.9599999999999
1764763511.5796764,-482.355,-1817.46,-27225.09,-7252.695,-18393.435,-26184.42,-5866.695,720.765
1764763511.5796764,-479.745,-1815.705,-27224.64,-7251.84,-18391.185,-26180.775,-5864.13,724.77
1764763511.5801892,-483.705,-1820.205,-27229.995,-7256.88,-18395.28,-26184.915,-5865.255,721.98
1764763511.5801892,-477.63,-1813.23,-27221.265,-7248.554999999999,-18389.745,-26180.28,-5862.465,726.615
1764763511.5801892,-474.03,-1805.715,-27211.77,-7241.49,-18388.125,-26179.38,-5862.554999999999,727.785
1764763511.5801892,-474.03,-1802.52,-27206.865,-7237.755,-18387.36,-26181.315,-5861.925,726.0749999999999
1764763511.5801892,-474.84,-1804.32,-27207.99,-7238.429999999999,-18387.45,-26181.585,-5860.889999999999,725.805
1764763511.5801892,-477.405,-1810.935,-27217.62,-7246.304999999999,-18390.195,-26180.82,-5861.205,725.22
1764763511.6276324,-482.355,-1822.23,-27233.865,-7258.724999999999,-18392.94,-26178.57,-5862.375,725.175
1764763511.6276324,-487.395,-1828.305,-27241.2,-7266.014999999999,-18398.655,-26182.935,-5865.57,721.035
1764763511.6276324,-489.915,-1829.295,-27240.795,-7266.69,-18402.705,-26188.11,-5867.639999999999,716.9399999999999
1764763511.6276324,-487.44,-1825.92,-27235.935,-7262.505,-18401.13,-26187.165,-5867.46,717.615
1764763511.6276324,-483.12,-1820.52,-27229.275,-7255.755,-18395.865,-26183.34,-5864.804999999999,721.845
1764763511.6276324,-485.55,-1821.465,-27229.59,-7256.745,-18397.08,-26184.78,-5865.03,720.225
1764763511.6276324,-486.09,-1822.545,-27230.175,-7258.23,-18398.385,-26186.31,-5865.12,719.235
1764763511.6276324,-487.395,-1824.57,-27232.515,-7260.344999999999,-18400.5,-26188.155,-5866.469999999999,718.02
1764763511.6276324,-486.495,-1823.13,-27230.67,-7260.075,-18401.625,-26189.19,-5866.2,719.1899999999999
1764763511.6276324,-481.185,-1817.955,-27224.64,-7253.73,-18395.55,-26183.97,-5862.78,724.545
1764763511.6276324,-482.265,-1819.035,-27224.505,-7253.639999999999,-18395.595,-26184.78,-5863.905,722.61
1764763511.6276324,-486.09,-1824.165,-27230.13,-7258.365,-18400.275,-26189.415,-5867.325,718.6949999999999
1764763511.6276324,-487.575,-1829.34,-27236.88,-7264.259999999999,-18400.77,-26187.66,-5867.28,718.785
1764763511.6276324,-490.095,-1832.31,-27239.94,-7266.554999999999,-18402.885,-26189.865,-5867.28,716.535
1764763511.6276324,-486.27,-1825.515,-27232.245,-7260.929999999999,-18399.915,-26187.885,-5865.21,719.73
1764763511.6276324,-482.085,-1820.16,-27225.495,-7255.394999999999,-18395.955,-26184.87,-5863.275,722.5649999999999
1764763511.6276324,-480.915,-1819.62,-27224.955,-7254.63,-18393.975,-26183.61,-5862.465,724.14
1764763511.6276324,-485.955,-1825.695,-27232.425,-7261.245,-18399.015,-26187.255,-5865.48,719.415
1764763511.6276324,-485.505,-1824.84,-27230.715,-7259.309999999999,-18396.72,-26184.24,-5864.04,720.495
1764763511.6276324,-486.495,-1824.57,-27230.85,-7258.545,-18396.99,-26184.96,-5864.13,718.785
1764763511.6276324,-482.13,-1819.395,-27225.855,-7253.865,-18393.345,-26181.27,-5862.825,722.115
1764763511.6276324,-486.315,-1823.31,-27229.545,-7258.139999999999,-18398.7,-26187.3,-5866.245,717.615
1764763511.6719286,-486.45,-1824.39,-27231.3,-7259.804999999999,-18400.95,-26189.235,-5866.785,717.2099999999999
1764763511.6719286,-485.595,-1822.275,-27230.67,-7260.12,-18402.48,-26189.865,-5866.92,718.245
1764763511.6719286,-483.615,-1820.205,-27228.015,-7258.094999999999,-18401.22,-26188.065,-5865.3,720.18
1764763511.6719286,-487.485,-1824.39,-27231.48,-7261.38,-18402.48,-26189.505,-5865.344999999999,716.31
1764763511.6719286,-483.615,-1819.53,-27225.765,-7255.485,-18396.945,-26185.815,-5863.905,720.045
1764763511.6719286,-484.2,-1819.71,-27227.16,-7256.295,-18398.25,-26187.435,-5863.545,720.045
1764763511.6719286,-491.355,-1828.665,-27236.295,-7264.8,-18406.125,-26193.24,-5866.92,714.285
1764763511.6719286,-490.095,-1828.215,-27236.115,-7263.585,-18404.595,-26190.675,-5865.929999999999,715.905
1764763511.6719286,-482.265,-1817.145,-27223.695,-7252.605,-18396.18,-26184.42,-5860.665,722.0699999999999
1764763511.6719286,-480.06,-1812.645,-27217.8,-7248.87,-18395.505,-26185.59,-5861.205,721.0799999999999
1764763511.6719286,-476.91,-1809.72,-27214.02,-7244.684999999999,-18392.22,-26182.08,-5859.0,724.185
1764763511.6719286,-478.845,-1812.42,-27217.575,-7247.519999999999,-18393.48,-26182.845,-5858.235,723.1949999999999
1764763511.6719286,-486.45,-1823.895,-27232.245,-7260.66,-18401.13,-26188.065,-5861.835,718.11
1764763511.6719286,-492.03,-1833.165,-27243.315,-7270.019999999999,-18405.0,-26189.505,-5864.58,714.6
1764763511.6719286,-488.295,-1828.98,-27238.635,-7264.934999999999,-18400.32,-26185.995,-5862.69,717.345
1764763511.6729372,-485.955,-1824.435,-27232.47,-7259.94,-18398.295,-26186.49,-5861.925,718.74
1764763511.6729372,-488.79,-1826.235,-27233.955,-7261.965,-18401.49,-26190.18,-5864.219999999999,716.22
1764763511.6729372,-484.875,-1822.275,-27229.59,-7257.554999999999,-18397.665,-26185.32,-5861.429999999999,720.0
1764763511.6729372,-482.31,-1818.54,-27225.495,-7254.54,-18395.19,-26183.97,-5859.719999999999,721.53
1764763511.6729372,-483.345,-1818.945,-27225.81,-7254.945,-18396.135,-26185.68,-5861.34,719.8199999999999
1764763511.6729372,-484.92,-1822.455,-27228.78,-7257.554999999999,-18398.43,-26186.355,-5862.465,718.65
1764763511.6729372,-483.615,-1821.15,-27227.52,-7256.969999999999,-18398.43,-26186.22,-5861.115,720.405
1764763511.6729372,-484.47,-1821.375,-27228.645,-7259.264999999999,-18401.895,-26188.965,-5861.745,719.4599999999999
1764763511.6729372,-488.565,-1826.28,-27234.405,-7265.61,-18407.565,-26193.69,-5864.49,715.3199999999999
1764763511.7165508,-487.26,-1826.595,-27235.215,-7265.519999999999,-18405.99,-26191.485,-5863.679999999999,716.67
1764763511.7165508,-485.865,-1824.885,-27231.885,-7262.37,-18404.235,-26190.675,-5862.69,717.255
1764763511.7165508,-484.515,-1821.78,-27227.25,-7258.455,-18402.03,-26189.73,-5862.915,717.255
1764763511.7165508,-485.01,-1820.745,-27225.36,-7256.745,-18402.57,-26191.08,-5862.78,716.5799999999999
1764763511.7165508,-480.015,-1814.625,-27218.97,-7250.49,-18397.845,-26186.355,-5859.315,721.845
1764763511.7165508,-482.22,-1816.695,-27221.985,-7253.099999999999,-18399.69,-26188.425,-5861.16,719.8199999999999
1764763511.7165508,-489.42,-1826.91,-27233.685,-7263.764999999999,-18405.27,-26191.89,-5863.365,715.4549999999999
1764763511.7165508,-487.665,-1824.84,-27231.255,-7260.48,-18401.76,-26189.595,-5862.465,716.985
1764763511.7165508,-489.96,-1825.38,-27231.03,-7260.929999999999,-18404.415,-26193.69,-5865.57,713.61
1764763511.7165508,-491.94,-1828.215,-27234.495,-7264.08,-18405.675,-26194.41,-5866.065,713.385
1764763511.7165508,-488.61,-1826.28,-27233.235,-7264.17,-18406.845,-26194.365,-5865.12,715.365
1764763511.7165508,-492.03,-1830.555,-27237.51,-7268.355,-18411.345,-26198.37,-5866.74,712.0799999999999
1764763511.7165508,-490.815,-1828.125,-27234.675,-7265.115,-18407.655,-26195.67,-5865.795,713.97
1764763511.7165508,-483.975,-1819.53,-27224.685,-7254.945,-18398.835,-26187.57,-5859.855,721.0799999999999
1764763511.7165508,-482.22,-1818.675,-27224.775,-7254.269999999999,-18396.585,-26183.475,-5857.02,723.3299999999999
1764763511.7165508,-486.27,-1825.38,-27233.685,-7262.37,-18401.355,-26185.59,-5858.19,720.855
1764763511.7175708,-488.43,-1828.305,-27236.97,-7266.24,-18406.44,-26189.82,-5860.62,717.795
1764763511.7175708,-493.47,-1833.165,-27240.615,-7271.144999999999,-18410.805,-26195.67,-5863.86,713.43
1764763511.7175708,-491.715,-1830.69,-27237.735,-7266.96,-18407.61,-26193.06,-5862.87,714.78
1764763511.7175708,-483.93,-1821.465,-27227.655,-7257.599999999999,-18401.085,-26187.255,-5858.594999999999,720.18
1764763511.7181227,-482.265,-1816.83,-27221.4,-7252.11,-18398.43,-26186.445,-5857.245,721.485
1764763511.7181227,-480.51,-1813.41,-27217.08,-7247.745,-18396.855,-26185.725,-5856.389999999999,722.2049999999999
1764763511.7181227,-485.595,-1819.665,-27224.73,-7255.665,-18402.57,-26191.08,-5859.54,717.12
1764763511.7181227,-488.43,-1827.36,-27233.865,-7262.099999999999,-18403.38,-26188.965,-5858.82,716.805
1764763511.7640505,-485.055,-1823.535,-27230.445,-7258.5,-18398.34,-26183.79,-5855.804999999999,720.36
1764763511.7640505,-489.015,-1827.27,-27234.36,-7263.179999999999,-18404.01,-26189.73,-5859.54,715.545
1764763511.7640505,-487.665,-1826.145,-27233.145,-7261.83,-18403.38,-26188.38,-5858.685,717.345
1764763511.7640505,-487.665,-1825.47,-27231.705,-7261.965,-18405.09,-26189.955,-5858.37,717.3
1764763511.7640505,-487.845,-1826.145,-27231.885,-7262.505,-18405.315,-26190.765,-5858.865,717.48
1764763511.7640505,-484.38,-1821.825,-27227.07,-7257.69,-18400.275,-26187.84,-5856.705,719.865
1764763511.7640505,-483.66,-1820.43,-27225.54,-7255.934999999999,-18398.79,-26187.075,-5855.535,720.3149999999999
1764763511.7640505,-486.45,-1824.435,-27229.365,-7258.679999999999,-18401.22,-26188.245,-5855.13,718.11
1764763511.7640505,-487.035,-1825.74,-27230.22,-7260.344999999999,-18402.21,-26188.605,-5856.12,717.2099999999999
1764763511.7640505,-481.635,-1819.53,-27223.92,-7253.955,-18396.585,-26184.33,-5853.69,721.5749999999999
1764763511.7640505,-480.735,-1818.315,-27222.885,-7253.099999999999,-18396.27,-26184.06,-5852.655,722.16
1764763511.7640505,-489.69,-1828.935,-27236.385,-7265.205,-18405.945,-26192.115,-5859.0,714.78
1764763511.7640505,-488.43,-1829.205,-27235.755,-7264.8,-18404.325,-26190.405,-5858.639999999999,716.31
1764763511.7640505,-487.71,-1827.945,-27233.82,-7263.179999999999,-18403.65,-26190.72,-5857.065,716.805
1764763511.7640505,-488.385,-1829.565,-27235.35,-7264.394999999999,-18406.485,-26193.105,-5858.505,715.41
1764763511.7640505,-491.355,-1830.69,-27237.06,-7267.5,-18410.22,-26197.335,-5861.52,712.26
1764763511.7640505,-486.99,-1824.57,-27230.13,-7260.795,-18405.405,-26193.645,-5859.764999999999,715.635
1764763511.7640505,-482.715,-1818.63,-27221.715,-7253.054999999999,-18400.185,-26189.46,-5856.705,718.1999999999999
1764763511.7640505,-483.705,-1816.83,-27217.215,-7249.094999999999,-18397.53,-26188.74,-5856.12,716.76
1764763511.7640505,-480.015,-1813.185,-27214.155,-7245.36,-18392.22,-26184.195,-5852.34,721.26
1764763511.7640505,-486.495,-1824.21,-27230.22,-7258.905,-18398.34,-26187.615,-5854.679999999999,717.93
1764763511.7640505,-492.705,-1833.75,-27241.02,-7268.625,-18404.145,-26191.35,-5858.639999999999,713.97
1764763511.8111346,-490.185,-1831.23,-27238.095,-7267.634999999999,-18405.18,-26191.89,-5857.83,715.185
1764763511.8111346,-487.35,-1827.135,-27234.315,-7264.98,-18405.63,-26192.655,-5855.895,717.795
1764763511.8111346,-489.555,-1828.575,-27235.44,-7267.5,-18410.535,-26197.785,-5858.505,714.9599999999999
1764763511.8111346,-487.98,-1826.145,-27231.885,-7263.945,-18408.06,-26195.715,-5856.21,716.895
1764763511.8116453,-485.37,-1822.77,-27228.6,-7259.309999999999,-18403.605,-26192.52,-5854.545,719.145
1764763511.8116453,-488.205,-1824.48,-27229.77,-7261.425,-18406.17,-26196.075,-5857.605,715.095
1764763511.8116453,-488.745,-1825.335,-27230.4,-7261.92,-18406.305,-26195.58,-5858.37,713.52
1764763511.8116453,-485.505,-1822.905,-27227.79,-7258.139999999999,-18403.065,-26193.15,-5856.03,716.13
1764763511.8116453,-480.78,-1816.965,-27221.625,-7252.065,-18398.25,-26188.92,-5853.06,720.63
1764763511.8116453,-486.09,-1823.94,-27230.13,-7258.905,-18400.905,-26189.955,-5855.49,717.0749999999999
1764763511.8116453,-491.805,-1832.355,-27239.85,-7266.78,-18404.505,-26191.485,-5857.74,714.285
1764763511.8116453,-493.92,-1834.47,-27241.47,-7269.075,-18407.655,-26195.13,-5858.775,712.485
1764763511.8116453,-493.38,-1834.155,-27241.425,-7269.795,-18408.915,-26196.615,-5859.315,711.81
1764763511.8116453,-490.86,-1832.22,-27238.995,-7268.13,-18407.25,-26194.68,-5857.245,714.645
1764763511.8545363,-489.015,-1828.935,-27236.565,-7264.844999999999,-18404.28,-26193.42,-5855.715,716.265
1764763511.8545363,-491.49,-1830.87,-27238.41,-7266.285,-18407.43,-26196.255,-5857.83,712.98
1764763511.8545363,-488.43,-1827.63,-27234.09,-7262.37,-18404.235,-26193.645,-5855.58,714.6899999999999
1764763511.8545363,-483.165,-1820.34,-27226.17,-7254.855,-18397.62,-26187.84,-5851.665,719.73
1764763511.8545363,-482.265,-1817.64,-27222.66,-7251.929999999999,-18395.46,-26186.355,-5850.179999999999,720.9
1764763511.8545363,-485.235,-1821.645,-27226.17,-7256.205,-18398.79,-26189.505,-5852.969999999999,717.93
1764763511.8550453,-486.225,-1822.23,-27227.43,-7257.69,-18400.005,-26190.045,-5853.465,716.625
1764763511.8550453,-486.585,-1822.455,-27226.17,-7256.655,-18400.95,-26191.17,-5853.645,715.905
1764763511.8550453,-489.42,-1825.29,-27230.13,-7260.389999999999,-18405.675,-26195.94,-5856.3,712.4399999999999
1764763511.8550453,-490.32,-1826.955,-27233.055,-7262.505,-18404.82,-26194.365,-5855.085,713.0699999999999
1764763511.8550453,-493.515,-1832.58,-27241.695,-7269.03,-18406.305,-26193.6,-5855.4,713.25
1764763511.8550453,-494.46,-1835.595,-27244.98,-7271.865,-18407.385,-26193.78,-5856.255,712.755
1764763511.8550453,-494.595,-1834.695,-27242.955,-7270.65,-18408.69,-26194.995,-5857.02,711.63
1764763511.8550453,-492.615,-1831.545,-27237.96,-7266.24,-18406.755,-26193.96,-5854.995,712.53
1764763511.8550453,-485.01,-1823.49,-27228.69,-7257.69,-18399.015,-26187.795,-5850.27,719.37
1764763511.8550453,-483.03,-1820.925,-27225.63,-7253.505,-18396.405,-26185.095,-5849.955,720.3149999999999
1764763511.8550453,-481.455,-1817.955,-27222.705,-7251.03,-18394.425,-26183.88,-5847.974999999999,721.62
1764763511.8550453,-485.055,-1823.085,-27228.555,-7256.835,-18398.79,-26186.985,-5849.685,718.29
1764763511.8550453,-484.155,-1820.295,-27226.665,-7254.855,-18396.675,-26185.185,-5849.639999999999,719.775
1764763511.8550453,-481.905,-1815.48,-27220.23,-7250.219999999999,-18395.73,-26186.04,-5848.38,720.045
1764763511.8550453,-484.155,-1817.325,-27220.995,-7252.514999999999,-18400.68,-26190.765,-5850.27,717.3
1764763511.8550453,-483.165,-1816.155,-27219.645,-7251.57,-18398.79,-26189.685,-5849.37,718.8299999999999
1764763511.8550453,-484.47,-1822.14,-27227.25,-7257.195,-18399.555,-26188.695,-5850.045,719.685
1764763511.8550453,-493.02,-1837.53,-27246.78,-7273.259999999999,-18408.06,-26191.755,-5852.295,715.725
1764763511.8550453,-496.485,-1840.365,-27250.11,-7275.825,-18409.905,-26194.23,-5854.23,712.755
1764763511.8550453,-499.05,-1839.78,-27249.165,-7275.24,-18412.515,-26199.27,-5858.639999999999,707.85
1764763511.8550453,-497.025,-1836.18,-27243.99,-7270.335,-18410.13,-26198.37,-5857.29,709.0649999999999
1764763511.8550453,-492.525,-1830.42,-27237.465,-7263.54,-18405.09,-26193.69,-5853.87,712.8
1764763511.8550453,-493.515,-1830.51,-27237.015,-7264.44,-18406.8,-26196.12,-5854.23,710.55
1764763511.8550453,-489.69,-1827.045,-27233.955,-7261.38,-18404.325,-26193.645,-5853.014999999999,713.655
1764763511.8550453,-492.84,-1832.445,-27240.12,-7267.005,-18408.465,-26197.29,-5854.635,711.405
1764763511.8550453,-497.79,-1838.34,-27246.87,-7274.205,-18414.72,-26201.745,-5856.705,707.5799999999999
1764763511.900633,-496.08,-1835.55,-27243.18,-7271.55,-18413.28,-26200.035,-5856.344999999999,709.02
1764763511.900633,-489.555,-1827.405,-27234.495,-7263.134999999999,-18405.765,-26193.87,-5852.745,714.6899999999999
1764763511.900633,-488.88,-1825.38,-27231.795,-7261.155,-18405.18,-26193.96,-5852.79,714.06
1764763511.900633,-487.8,-1824.03,-27230.355,-7259.759999999999,-18405.765,-26194.68,-5852.88,713.97
1764763511.900633,-487.26,-1823.49,-27230.265,-7259.94,-18404.955,-26194.59,-5852.565,714.6899999999999
1764763511.900633,-490.32,-1826.37,-27232.515,-7261.11,-18406.215,-26195.985,-5853.645,713.025
1764763511.900633,-494.505,-1831.77,-27239.22,-7267.455,-18411.3,-26200.08,-5855.49,710.4599999999999
1764763511.900633,-499.995,-1838.655,-27247.05,-7275.33,-18416.97,-26204.67,-5858.505,706.68
1764763511.900633,-496.98,-1835.91,-27244.08,-7271.73,-18412.92,-26200.98,-5856.615,710.28
1764763511.900633,-494.82,-1834.065,-27241.74,-7269.66,-18411.12,-26199.63,-5855.31,710.505
1764763511.900633,-495.225,-1833.12,-27240.345,-7268.804999999999,-18411.75,-26200.17,-5855.804999999999,709.56
1764763511.900633,-496.17,-1832.94,-27239.94,-7268.219999999999,-18412.515,-26200.26,-5855.535,708.75
1764763511.900633,-491.175,-1827.27,-27233.325,-7261.83,-18406.485,-26195.04,-5851.889999999999,713.0699999999999
1764763511.900633,-487.98,-1823.4,-27228.645,-7257.465,-18402.48,-26193.33,-5849.73,715.23
1764763511.900633,-487.215,-1823.895,-27229.5,-7257.96,-18402.57,-26192.475,-5848.83,716.535
1764763511.900633,-490.05,-1828.215,-27235.53,-7263.585,-18406.395,-26195.04,-5849.955,714.285
1764763511.900633,-494.325,-1832.49,-27239.715,-7268.535,-18409.815,-26199.405,-5852.655,710.28
1764763511.900633,-491.445,-1828.8,-27234.585,-7264.215,-18407.07,-26196.165,-5849.685,713.43
1764763511.900633,-487.26,-1823.445,-27228.645,-7258.139999999999,-18402.345,-26192.115,-5847.255,717.12
1764763511.900633,-487.08,-1823.85,-27229.005,-7258.32,-18402.84,-26193.105,-5847.615,716.805
1764763511.900633,-490.05,-1827.81,-27233.64,-7263.045,-18406.62,-26196.39,-5849.19,714.1949999999999
1764763511.900633,-495.855,-1834.425,-27241.605,-7270.965,-18413.01,-26200.755,-5852.385,709.47
1764763511.900633,-495.18,-1833.93,-27240.84,-7270.29,-18411.48,-26199.945,-5852.34,710.3249999999999
1764763511.900633,-500.04,-1838.745,-27246.285,-7274.745,-18414.18,-26202.915,-5855.49,706.41
1764763511.950805,-502.83,-1841.22,-27248.94,-7276.995,-18416.745,-26205.3,-5857.469999999999,702.5849999999999
1764763511.950805,-498.105,-1835.955,-27243.135,-7271.955,-18413.19,-26201.295,-5855.58,706.3199999999999
1764763511.950805,-496.62,-1833.255,-27239.265,-7270.65,-18414.405,-26203.32,-5855.49,707.13
1764763511.950805,-487.98,-1822.815,-27226.665,-7261.335,-18409.59,-26199.54,-5851.665,713.745
1764763511.950805,-484.2,-1817.1,-27218.97,-7254.54,-18405.945,-26198.235,-5849.415,714.78
1764763511.950805,-487.665,-1819.71,-27221.13,-7254.809999999999,-18406.395,-26199.81,-5850.135,711.27
1764763511.950805,-487.035,-1821.78,-27225.18,-7256.835,-18405.585,-26196.615,-5849.37,713.295
1764763511.950805,-493.065,-1833.615,-27240.93,-7269.929999999999,-18410.445,-26197.965,-5850.224999999999,710.91
1764763511.950805,-501.39,-1845.315,-27254.205,-7281.36,-18417.42,-26202.33,-5854.545,705.015
1764763511.950805,-503.55,-1845.045,-27253.125,-7281.719999999999,-18419.4,-26204.895,-5855.94,703.0799999999999
1764763511.950805,-503.73,-1843.785,-27251.595,-7281.315,-18420.84,-26207.01,-5856.12,702.0
1764763511.950805,-497.745,-1835.19,-27243.09,-7273.215,-18416.07,-26203.32,-5854.275,706.725
1764763511.950805,-496.665,-1832.535,-27238.5,-7269.344999999999,-18414.045,-26203.23,-5853.645,706.77
1764763511.950805,-498.015,-1833.705,-27239.22,-7270.514999999999,-18415.08,-26204.535,-5852.745,705.1949999999999
1764763511.950805,-496.755,-1832.58,-27238.545,-7269.84,-18413.28,-26202.555,-5851.844999999999,707.175
1764763511.950805,-499.05,-1834.965,-27240.795,-7271.865,-18414.72,-26203.905,-5851.889999999999,705.555
1764763511.950805,-497.79,-1832.76,-27238.77,-7269.03,-18412.695,-26202.6,-5850.315,706.14
1764763511.950805,-497.34,-1833.255,-27240.12,-7269.75,-18412.335,-26200.98,-5848.38,707.4
1764763511.950805,-495.315,-1832.49,-27240.03,-7268.445,-18410.04,-26197.11,-5846.849999999999,710.28
1764763511.950805,-493.245,-1828.53,-27234.63,-7263.719999999999,-18406.62,-26194.59,-5845.455,711.495
1764763511.952355,-489.915,-1824.165,-27229.05,-7259.67,-18404.82,-26194.185,-5844.24,712.485
1764763511.952355,-492.075,-1825.245,-27229.905,-7262.639999999999,-18410.76,-26200.665,-5847.12,709.155
1764763511.995391,-492.93,-1826.19,-27231.525,-7265.205,-18413.37,-26203.725,-5848.29,708.615
1764763511.995899,-497.16,-1833.975,-27241.965,-7273.665,-18417.87,-26205.03,-5849.054999999999,707.0849999999999
1764763511.995899,-503.73,-1843.965,-27254.295,-7283.565,-18422.91,-26207.73,-5852.969999999999,703.395
1764763511.995899,-504.27,-1844.325,-27253.98,-7282.934999999999,-18422.19,-26207.955,-5853.195,702.135
1764763511.995899,-500.94,-1839.285,-27246.78,-7277.355,-18419.085,-26206.38,-5851.62,703.98
1764763511.995899,-493.785,-1830.465,-27237.645,-7268.715,-18411.93,-26199.855,-5846.355,709.8299999999999
1764763511.995899,-488.745,-1825.155,-27231.435,-7261.785,-18406.755,-26194.275,-5842.575,714.9599999999999
1764763511.995899,-492.39,-1827.945,-27233.595,-7264.62,-18409.185,-26196.75,-5845.724999999999,711.405
1764763511.995899,-494.325,-1830.06,-27235.845,-7266.644999999999,-18410.445,-26198.505,-5846.58,708.66
1764763511.995899,-495.72,-1832.22,-27237.645,-7267.455,-18411.3,-26199.63,-5846.219999999999,706.545
1764763511.995899,-489.195,-1824.975,-27229.545,-7259.715,-18405.585,-26194.905,-5842.844999999999,712.17
1764763511.995899,-488.97,-1823.85,-27229.23,-7261.469999999999,-18407.79,-26197.74,-5842.98,710.91
1764763511.995899,-485.865,-1820.655,-27225.765,-7258.455,-18405.27,-26195.67,-5841.54,714.06
1764763511.995899,-481.59,-1814.67,-27218.115,-7251.795,-18400.275,-26192.385,-5838.3,717.885
1764763511.995899,-479.97,-1813.275,-27216.63,-7249.455,-18398.475,-26190.585,-5836.185,719.415
1764763511.995899,-485.82,-1820.835,-27225.945,-7257.78,-18403.065,-26193.465,-5838.03,715.41
1764763511.995899,-489.015,-1828.08,-27236.205,-7266.554999999999,-18405.765,-26193.33,-5839.335,715.275
1764763511.995899,-493.425,-1834.425,-27244.62,-7275.014999999999,-18412.695,-26198.73,-5843.205,711.81
1764763511.995899,-497.07,-1837.575,-27247.185,-7277.715,-18416.655,-26202.735,-5845.77,707.895
1764763511.995899,-492.165,-1831.635,-27238.77,-7270.92,-18411.57,-26199.405,-5842.844999999999,711.495
1764763511.995899,-494.775,-1833.615,-27240.345,-7273.485,-18414.855,-26202.33,-5844.42,709.1999999999999
1764763511.995899,-492.795,-1830.24,-27238.005,-7270.245,-18412.38,-26199.63,-5842.485,711.5849999999999
1764763511.995899,-489.78,-1826.28,-27234.36,-7266.915,-18409.05,-26196.525,-5840.73,713.745
1764763511.995899,-492.12,-1827.855,-27235.89,-7267.679999999999,-18411.75,-26198.73,-5840.955,711.045
1764763512.0422504,-491.085,-1827.27,-27234.27,-7266.33,-18411.255,-26198.19,-5840.91,712.305
1764763512.0422504,-487.665,-1823.67,-27230.985,-7262.82,-18408.42,-26195.895,-5838.57,715.41
1764763512.0422504,-481.725,-1816.83,-27223.38,-7255.17,-18401.58,-26189.46,-5834.115,720.4499999999999
1764763512.0422504,-481.365,-1817.505,-27223.65,-7255.98,-18401.265,-26189.595,-5834.025,720.045
1764763512.0422504,-484.29,-1821.645,-27228.645,-7259.804999999999,-18403.695,-26190.585,-5835.15,718.3349999999999
1764763512.0422504,-489.735,-1827.81,-27236.115,-7265.565,-18408.195,-26194.68,-5836.679999999999,713.385
1764763512.0422504,-488.565,-1826.73,-27234.405,-7264.259999999999,-18407.295,-26195.175,-5836.545,713.5649999999999
1764763512.0422504,-486.63,-1824.345,-27232.02,-7261.065,-18405.315,-26193.195,-5835.06,715.905
1764763512.0422504,-487.305,-1825.695,-27233.82,-7263.855,-18407.925,-26195.31,-5835.645,715.5
1764763512.0422504,-485.46,-1823.805,-27231.705,-7262.37,-18406.53,-26193.87,-5834.655,717.03
1764763512.0422504,-479.655,-1815.21,-27221.265,-7252.155,-18398.88,-26188.065,-5831.145,722.295
1764763512.0422504,-476.955,-1810.755,-27216.27,-7247.835,-18395.19,-26185.32,-5829.03,724.4549999999999
1764763512.0422504,-478.845,-1813.995,-27220.05,-7252.065,-18398.34,-26187.615,-5829.255,722.79
1764763512.0422504,-487.17,-1826.46,-27234.18,-7265.07,-18406.305,-26193.645,-5833.125,717.48
1764763512.0422504,-487.08,-1827.81,-27237.195,-7266.33,-18404.64,-26191.305,-5832.315,718.92
1764763512.0422504,-484.65,-1824.075,-27232.515,-7262.19,-18402.57,-26190.0,-5831.054999999999,719.8199999999999
1764763512.0436108,-485.01,-1822.5,-27228.915,-7260.66,-18403.47,-26191.665,-5831.685,717.93
1764763512.0436108,-484.245,-1820.43,-27225.27,-7257.195,-18401.625,-26191.035,-5831.594999999999,718.47
1764763512.0436108,-481.905,-1815.705,-27221.355,-7253.639999999999,-18400.68,-26190.72,-5831.28,719.595
1764763512.0436108,-484.47,-1818.495,-27225.63,-7258.139999999999,-18405.225,-26193.195,-5832.81,718.155
1764763512.0436108,-493.245,-1831.095,-27239.535,-7271.55,-18413.055,-26199.72,-5836.86,711.81
1764763512.0436108,-490.455,-1827.54,-27236.07,-7267.365,-18409.635,-26196.57,-5835.105,714.375
1764763512.0436108,-482.985,-1818.135,-27225.27,-7257.285,-18404.055,-26192.475,-5831.594999999999,719.01
1764763512.0436108,-483.12,-1817.01,-27222.885,-7255.934999999999,-18406.305,-26196.165,-5833.215,717.0749999999999
1764763512.090634,-482.76,-1817.415,-27223.11,-7254.99,-18403.155,-26192.52,-5831.955,718.56
1764763512.090634,-488.385,-1823.625,-27230.535,-7261.74,-18407.025,-26195.895,-5833.08,715.095
1764763512.090634,-488.43,-1824.93,-27233.73,-7263.134999999999,-18404.55,-26191.755,-5830.38,717.93
1764763512.090634,-492.84,-1830.6,-27238.905,-7267.995,-18406.845,-26193.42,-5831.594999999999,714.735
1764763512.0911417,-488.7,-1824.66,-27232.38,-7262.505,-18404.01,-26191.845,-5830.785,716.805
1764763512.0911417,-488.835,-1823.58,-27232.245,-7263.315,-18407.7,-26195.715,-5831.91,714.735
1764763512.0911417,-490.995,-1826.64,-27236.565,-7268.085,-18413.055,-26198.955,-5834.295,712.53
1764763512.0911417,-487.035,-1823.445,-27232.965,-7264.755,-18410.76,-26196.885,-5832.764999999999,714.78
1764763512.0911417,-481.545,-1816.605,-27225.54,-7257.599999999999,-18404.415,-26192.385,-5828.76,719.28
1764763512.0911417,-483.705,-1818.405,-27227.745,-7258.545,-18404.64,-26192.745,-5830.02,717.885
1764763512.0911417,-485.055,-1819.26,-27227.295,-7257.78,-18404.73,-26193.915,-5831.01,715.725
1764763512.0911417,-487.53,-1821.015,-27228.915,-7259.04,-18406.89,-26196.3,-5832.0,712.98
1764763512.0911417,-486.09,-1819.44,-27227.205,-7257.33,-18405.0,-26193.42,-5830.065,715.3199999999999
1764763512.0911417,-485.415,-1821.69,-27231.165,-7261.469999999999,-18405.54,-26191.89,-5828.49,717.12
1764763512.0911417,-493.47,-1834.56,-27246.645,-7275.87,-18413.955,-26197.425,-5833.755,712.035
1764763512.0911417,-495.27,-1835.595,-27246.6,-7275.375,-18414.045,-26198.55,-5835.105,709.92
1764763512.0911417,-494.415,-1832.355,-27241.38,-7270.965,-18413.505,-26199.405,-5835.465,709.0649999999999
1764763512.0911417,-485.595,-1822.32,-27229.815,-7260.255,-18403.83,-26191.44,-5828.219999999999,717.345
1764763512.0911417,-477.81,-1813.86,-27220.32,-7251.344999999999,-18396.135,-26183.7,-5820.435,723.4649999999999
1764763512.0911417,-482.265,-1818.135,-27225.0,-7255.8,-18400.185,-26188.065,-5823.54,719.235
1764763512.0911417,-482.58,-1817.505,-27225.495,-7256.115,-18400.365,-26188.29,-5823.315,719.64
1764763512.0911417,-481.635,-1816.83,-27225.315,-7255.98,-18399.87,-26186.4,-5821.695,721.395
1764763512.0911417,-482.805,-1820.97,-27230.85,-7260.344999999999,-18400.815,-26186.175,-5822.594999999999,722.6999999999999
1764763512.0911417,-484.2,-1822.95,-27231.84,-7262.639999999999,-18403.965,-26189.955,-5824.215,720.81
1764763512.1337538,-478.935,-1816.92,-27225.495,-7256.745,-18399.42,-26186.715,-5821.155,724.5
1764763512.1337538,-479.115,-1816.155,-27224.145,-7255.304999999999,-18397.665,-26185.365,-5820.525,725.13
1764763512.1337538,-477.585,-1813.095,-27220.275,-7251.75,-18396.09,-26183.97,-5819.76,726.2099999999999
1764763512.1337538,-474.48,-1808.415,-27215.325,-7247.205,-18394.38,-26182.44,-5818.23,727.875
1764763512.1337538,-476.73,-1809.72,-27215.73,-7248.24,-18396.18,-26184.645,-5820.165,725.0849999999999
1764763512.1337538,-483.435,-1817.64,-27226.17,-7258.05,-18405.135,-26191.8,-5823.719999999999,719.145
1764763512.1829834,-487.305,-1824.795,-27236.115,-7267.365,-18410.265,-26194.815,-5825.745,716.895
1764763512.1829834,-488.745,-1826.325,-27237.015,-7267.769999999999,-18410.355,-26194.545,-5826.195,715.77
1764763512.1829834,-488.07,-1826.37,-27237.51,-7267.455,-18408.42,-26192.97,-5825.07,716.7149999999999
1764763512.1829834,-482.805,-1821.735,-27232.245,-7262.054999999999,-18402.12,-26188.11,-5821.514999999999,720.72
1764763512.1829834,-482.94,-1820.565,-27229.815,-7260.929999999999,-18402.12,-26188.605,-5820.795,719.91
1764763512.1829834,-480.105,-1816.83,-27225.855,-7256.655,-18399.78,-26185.5,-5818.724999999999,722.925
1764763512.1829834,-480.555,-1817.055,-27226.305,-7256.745,-18400.86,-26185.86,-5819.355,722.2049999999999
1764763512.1829834,-481.455,-1818.495,-27226.17,-7256.519999999999,-18401.085,-26186.985,-5819.355,720.4499999999999
1764763512.1829834,-479.43,-1815.795,-27224.145,-7254.134999999999,-18398.61,-26184.465,-5817.554999999999,723.06
1764763512.1829834,-482.76,-1819.17,-27227.025,-7257.87,-18401.265,-26186.76,-5819.67,720.135
1764763512.1829834,-482.445,-1819.53,-27228.015,-7258.23,-18401.805,-26187.165,-5819.849999999999,719.4599999999999
1764763512.1829834,-482.895,-1819.62,-27228.87,-7259.264999999999,-18404.28,-26188.875,-5821.335,719.1899999999999
1764763512.1829834,-478.35,-1814.355,-27222.39,-7253.684999999999,-18398.97,-26184.465,-5817.599999999999,724.005
1764763512.1829834,-478.395,-1814.22,-27221.895,-7253.37,-18398.34,-26184.465,-5817.69,723.4649999999999
1764763512.1829834,-481.455,-1818.135,-27225.36,-7256.61,-18401.04,-26187.84,-5818.95,720.54
1764763512.1829834,-482.355,-1818.72,-27227.115,-7257.644999999999,-18400.095,-26187.21,-5819.49,720.045
1764763512.1829834,-480.24,-1815.705,-27224.145,-7253.415,-18397.98,-26185.365,-5819.355,721.89
1764763512.1829834,-478.575,-1811.07,-27218.745,-7248.42,-18395.82,-26184.96,-5817.375,722.16
1764763512.1829834,-470.52,-1801.89,-27208.71,-7238.429999999999,-18387.225,-26177.445,-5811.525,729.135
1764763512.1829834,-471.42,-1803.96,-27210.51,-7240.995,-18389.205,-26177.94,-5811.3,729.495
1764763512.1829834,-478.08,-1813.23,-27221.94,-7250.759999999999,-18394.92,-26181.63,-5813.594999999999,725.535
1764763512.1829834,-479.43,-1815.885,-27225.045,-7252.559999999999,-18396.18,-26182.755,-5813.594999999999,724.41
1764763512.1829834,-481.635,-1818.765,-27228.69,-7256.519999999999,-18397.665,-26183.34,-5814.719999999999,723.42
1764763512.1829834,-482.49,-1821.78,-27232.29,-7260.075,-18397.89,-26181.81,-5814.945,724.5
1764763512.1829834,-481.77,-1820.835,-27230.49,-7259.264999999999,-18398.115,-26182.98,-5814.764999999999,724.68
1764763512.1829834,-480.915,-1819.08,-27227.295,-7257.105,-18398.115,-26183.52,-5814.54,725.0849999999999
1764763512.1829834,-479.385,-1817.505,-27226.35,-7256.07,-18398.52,-26183.61,-5813.639999999999,725.895
1764763512.1829834,-478.8,-1816.695,-27225.405,-7255.485,-18398.52,-26183.925,-5812.425,726.12
1764763512.1829834,-473.445,-1810.8,-27219.06,-7248.69,-18392.355,-26177.715,-5809.41,730.305
1764763512.1829834,-473.04,-1810.035,-27217.575,-7247.115,-18391.77,-26177.805,-5809.995,728.91
1764763512.1829834,-474.615,-1810.935,-27217.89,-7247.34,-18393.615,-26179.785,-5811.3,726.795
1764763512.1829834,-471.735,-1806.39,-27212.625,-7243.514999999999,-18388.8,-26177.085,-5809.094999999999,730.125
1764763512.1829834,-477.63,-1812.42,-27219.15,-7250.264999999999,-18392.94,-26181.36,-5811.389999999999,725.31
1764763512.1829834,-478.98,-1815.345,-27222.48,-7252.469999999999,-18393.795,-26181.045,-5811.705,725.13
1764763512.1829834,-473.49,-1808.955,-27215.82,-7245.63,-18388.665,-26176.365,-5808.465,729.4499999999999
1764763512.1829834,-473.4,-1809.09,-27216.54,-7245.585,-18389.25,-26176.545,-5807.969999999999,729.72
1764763512.1829834,-475.245,-1812.42,-27220.05,-7249.139999999999,-18391.095,-26178.165,-5808.915,728.4599999999999
1764763512.1829834,-471.96,-1806.93,-27213.525,-7244.37,-18388.89,-26176.815,-5807.655,730.2149999999999
1764763512.1829834,-470.385,-1803.015,-27208.575,-7240.139999999999,-18387.9,-26176.005,-5806.44,730.62
1764763512.1829834,-472.77,-1804.905,-27209.43,-7241.49,-18390.195,-26178.66,-5807.565,727.515
1764763512.2319798,-469.755,-1802.205,-27208.305,-7240.905,-18389.115,-26177.175,-5805.764999999999,730.845
1764763512.2319798,-479.34,-1816.335,-27225.225,-7254.63,-18397.755,-26183.295,-5811.12,724.095
1764763512.2319798,-483.3,-1822.095,-27231.93,-7260.075,-18400.77,-26185.32,-5813.37,720.9449999999999
1764763512.2319798,-481.365,-1819.53,-27229.365,-7258.005,-18399.555,-26184.69,-5812.425,721.62
1764763512.232895,-481.86,-1820.43,-27231.84,-7259.04,-18399.33,-26184.015,-5812.245,722.295
1764763512.232895,-480.6,-1819.53,-27230.94,-7258.41,-18398.655,-26184.825,-5812.56,723.24
1764763512.232895,-482.58,-1821.735,-27231.84,-7260.03,-18401.49,-26187.57,-5814.675,720.405
1764763512.232895,-476.955,-1815.255,-27224.595,-7254.09,-18397.44,-26183.07,-5811.344999999999,725.175
1764763512.232895,-474.93,-1811.115,-27220.59,-7251.48,-18397.62,-26183.655,-5810.04,726.255
1764763512.232895,-479.295,-1813.455,-27222.075,-7253.865,-18400.95,-26188.695,-5813.37,721.89
1764763512.232895,-477.675,-1811.745,-27220.68,-7252.245,-18400.14,-26188.02,-5812.335,723.015
1764763512.232895,-476.865,-1813.68,-27224.37,-7255.53,-18401.535,-26187.39,-5811.12,725.0849999999999
1764763512.232895,-485.415,-1825.605,-27237.96,-7267.184999999999,-18409.59,-26194.05,-5815.755,719.28
1764763512.232895,-488.025,-1829.43,-27242.73,-7270.335,-18409.995,-26194.68,-5816.745,718.1999999999999
1764763512.232895,-483.57,-1822.275,-27234.765,-7262.955,-18405.54,-26191.485,-5814.719999999999,721.0799999999999
1764763512.232895,-483.525,-1819.665,-27232.245,-7260.795,-18405.63,-26191.98,-5814.495,719.91
1764763512.232895,-481.14,-1817.55,-27228.42,-7257.69,-18403.425,-26191.08,-5813.639999999999,720.72
1764763512.232895,-477.135,-1812.15,-27221.13,-7251.615,-18398.97,-26187.615,-5810.49,723.555
1764763512.232895,-475.29,-1809.36,-27216.09,-7247.519999999999,-18394.695,-26184.195,-5807.205,725.985
1764763512.232895,-481.23,-1814.445,-27221.625,-7252.019999999999,-18399.78,-26189.865,-5811.12,721.2149999999999
1764763512.232895,-481.275,-1817.1,-27225.315,-7256.07,-18402.48,-26190.81,-5811.615,721.2149999999999
1764763512.233895,-484.47,-1824.39,-27234.27,-7264.035,-18405.54,-26190.9,-5812.02,719.37
1764763512.2765987,-486.315,-1827.45,-27238.365,-7266.915,-18408.15,-26192.115,-5812.965,718.6949999999999
1764763512.2765987,-483.66,-1823.265,-27233.685,-7263.09,-18404.82,-26189.82,-5811.255,720.99
1764763512.2765987,-484.695,-1823.715,-27233.595,-7263.495,-18406.305,-26192.43,-5812.335,718.515
1764763512.2765987,-482.445,-1820.61,-27230.04,-7260.21,-18403.695,-26190.225,-5811.21,720.54
1764763512.2776186,-484.2,-1822.23,-27231.48,-7261.65,-18405.225,-26191.125,-5812.425,718.29
1764763512.2776186,-479.07,-1816.74,-27225.855,-7255.934999999999,-18400.14,-26186.715,-5808.78,722.16
1764763512.2776186,-477.36,-1814.94,-27223.155,-7253.28,-18397.935,-26185.365,-5806.53,724.14
1764763512.2781303,-477.0,-1813.095,-27221.94,-7252.065,-18398.475,-26185.815,-5807.295,723.555
1764763512.2781303,-476.91,-1812.285,-27220.68,-7251.255,-18399.105,-26186.715,-5807.7,722.655
1764763512.2781303,-482.445,-1818.54,-27226.98,-7257.554999999999,-18405.855,-26192.115,-5810.445,718.6949999999999
1764763512.2781303,-483.345,-1820.16,-27229.05,-7259.804999999999,-18407.115,-26192.655,-5810.715,718.29
1764763512.2791452,-483.705,-1821.015,-27230.445,-7260.344999999999,-18405.585,-26191.395,-5809.995,719.4599999999999
1764763512.2791452,-478.89,-1815.795,-27224.28,-7254.63,-18400.275,-26187.48,-5807.52,723.06
1764763512.2791452,-476.01,-1811.115,-27217.845,-7249.05,-18397.305,-26185.05,-5805.99,723.78
1764763512.2791452,-476.01,-1809.09,-27214.56,-7246.44,-18397.035,-26185.095,-5805.315,723.9599999999999
1764763512.2791452,-475.29,-1808.505,-27214.74,-7246.755,-18396.765,-26184.33,-5803.92,725.13
1764763512.2791452,-477.045,-1811.79,-27219.465,-7250.355,-18397.53,-26184.465,-5804.37,724.41
1764763512.2791452,-481.185,-1818.0,-27227.43,-7257.87,-18402.84,-26188.515,-5807.25,721.305
1764763512.2791452,-484.605,-1823.4,-27234.63,-7263.269999999999,-18404.685,-26189.28,-5808.24,719.505
1764763512.2791452,-484.695,-1821.825,-27232.29,-7262.28,-18405.315,-26190.405,-5808.645,718.3349999999999
1764763512.2791452,-483.345,-1820.115,-27231.345,-7262.82,-18407.295,-26192.115,-5808.33,719.4599999999999
1764763512.2791452,-483.975,-1822.14,-27233.865,-7264.62,-18407.79,-26191.44,-5807.34,720.135
1764763512.2791452,-482.49,-1821.69,-27233.73,-7262.865,-18405.9,-26188.92,-5806.304999999999,721.4399999999999
1764763512.2791452,-484.2,-1823.085,-27234.585,-7263.945,-18407.475,-26191.215,-5807.429999999999,719.145
1764763512.2791452,-482.04,-1820.43,-27229.95,-7260.03,-18403.965,-26189.055,-5806.44,720.135
1764763512.2801456,-482.94,-1820.43,-27229.77,-7261.065,-18406.62,-26191.71,-5807.34,718.38
1764763512.3236828,-477.315,-1814.58,-27224.145,-7256.474999999999,-18402.885,-26187.975,-5803.83,723.735
1764763512.3236828,-478.98,-1816.245,-27225.495,-7258.139999999999,-18404.82,-26189.64,-5805.855,722.3399999999999
1764763512.3236828,-482.49,-1818.675,-27227.925,-7259.49,-18407.115,-26192.97,-5808.195,719.055
1764763512.3236828,-478.395,-1812.915,-27221.445,-7252.83,-18402.03,-26188.875,-5805.54,721.935
1764763512.3236828,-478.755,-1811.745,-27220.185,-7253.144999999999,-18403.245,-26190.09,-5804.415,721.035
1764763512.3236828,-478.53,-1812.06,-27220.68,-7253.505,-18402.39,-26189.955,-5803.74,721.2149999999999
1764763512.3236828,-482.085,-1817.235,-27226.215,-7258.139999999999,-18404.145,-26190.99,-5804.685,719.91
1764763512.3236828,-487.755,-1825.83,-27236.025,-7266.87,-18409.545,-26193.915,-5808.33,716.895
1764763512.3236828,-487.395,-1826.235,-27238.545,-7267.815,-18409.995,-26193.42,-5808.465,717.93
1764763512.3236828,-486.945,-1824.66,-27236.52,-7266.644999999999,-18410.04,-26193.06,-5807.429999999999,717.48
1764763512.3236828,-480.915,-1818.315,-27229.68,-7259.804999999999,-18402.885,-26186.265,-5802.929999999999,722.88
1764763512.3236828,-481.095,-1818.0,-27228.645,-7258.769999999999,-18402.84,-26187.255,-5803.02,722.6999999999999
1764763512.3236828,-481.14,-1816.74,-27227.79,-7256.969999999999,-18402.39,-26188.47,-5803.605,721.8
1764763512.3236828,-482.715,-1818.495,-27229.275,-7258.769999999999,-18405.045,-26191.17,-5805.764999999999,720.0
1764763512.3236828,-482.58,-1817.73,-27228.24,-7259.175,-18406.215,-26191.71,-5806.17,719.685
1764763512.3236828,-483.93,-1819.08,-27229.23,-7260.3,-18407.565,-26192.745,-5806.665,718.3349999999999
1764763512.3236828,-489.87,-1825.695,-27236.34,-7267.094999999999,-18413.505,-26197.695,-5809.77,713.61
1764763512.3236828,-486.18,-1821.915,-27232.155,-7263.36,-18410.355,-26194.905,-5808.24,716.535
1764763512.3236828,-479.925,-1815.93,-27225.54,-7257.105,-18404.64,-26190.135,-5804.415,722.25
1764763512.3236828,-481.32,-1817.595,-27227.295,-7258.679999999999,-18405.765,-26192.07,-5804.594999999999,719.91
1764763512.3236828,-477.495,-1811.34,-27220.77,-7252.65,-18401.58,-26188.425,-5802.75,722.385
1764763512.3236828,-479.385,-1810.215,-27218.88,-7251.255,-18402.21,-26189.82,-5804.099999999999,720.135
1764763512.369834,-482.49,-1813.005,-27221.625,-7254.134999999999,-18405.135,-26192.34,-5805.495,717.03
1764763512.369834,-483.525,-1815.48,-27224.73,-7256.519999999999,-18405.585,-26192.52,-5805.045,717.7049999999999
1764763512.369834,-482.58,-1817.145,-27227.79,-7257.24,-18403.74,-26189.415,-5802.84,719.4599999999999
1764763512.369834,-485.685,-1821.105,-27232.47,-7262.099999999999,-18407.43,-26192.115,-5803.965,716.4449999999999
1764763512.369834,-481.905,-1816.605,-27227.565,-7259.264999999999,-18406.665,-26191.53,-5803.469999999999,720.405
1764763512.369834,-482.04,-1813.995,-27222.75,-7255.44,-18406.71,-26193.195,-5803.29,719.145
1764763512.369834,-479.88,-1810.485,-27216.765,-7249.5,-18401.94,-26190.765,-5801.94,719.9549999999999
1764763512.369834,-479.34,-1810.755,-27218.43,-7250.49,-18401.49,-26189.73,-5801.175,721.8
1764763512.369834,-481.455,-1817.28,-27228.555,-7258.995,-18402.705,-26188.11,-5800.77,722.295
1764763512.369834,-490.815,-1831.32,-27245.835,-7273.17,-18410.445,-26193.105,-5805.719999999999,715.635
1764763512.369834,-496.08,-1837.305,-27252.135,-7279.65,-18418.005,-26200.125,-5810.445,710.55
1764763512.369834,-494.505,-1835.01,-27248.445,-7276.815,-18417.105,-26199.27,-5809.59,711.225
1764763512.369834,-490.86,-1829.79,-27243.225,-7272.179999999999,-18414.495,-26197.155,-5807.745,713.97
1764763512.369834,-491.49,-1829.52,-27241.605,-7272.09,-18415.755,-26199.765,-5808.195,712.53
1764763512.369834,-486.855,-1823.085,-27234.315,-7265.34,-18410.715,-26196.03,-5805.224999999999,716.67
1764763512.369834,-482.67,-1817.19,-27227.16,-7258.815,-18406.215,-26192.79,-5802.12,720.3149999999999
1764763512.369834,-483.93,-1817.37,-27226.845,-7258.86,-18406.845,-26194.41,-5803.514999999999,718.155
1764763512.369834,-487.17,-1821.24,-27230.805,-7262.82,-18410.4,-26197.74,-5805.54,714.3299999999999
1764763512.369834,-487.485,-1822.59,-27233.955,-7265.384999999999,-18411.165,-26196.165,-5805.9,715.77
1764763512.369834,-492.03,-1829.925,-27243.18,-7272.63,-18416.475,-26199.495,-5809.815,712.665
1764763512.369834,-494.775,-1833.525,-27246.42,-7275.825,-18418.815,-26201.835,-5811.255,709.74
1764763512.369834,-496.71,-1835.28,-27247.59,-7276.995,-18420.39,-26204.355,-5812.74,707.22
1764763512.369834,-493.38,-1830.69,-27242.325,-7271.775,-18416.34,-26200.845,-5810.849999999999,711.045
1764763512.369834,-492.57,-1829.115,-27240.21,-7269.48,-18415.89,-26200.71,-5808.78,711.81
1764763512.4162502,-494.595,-1830.465,-27240.84,-7270.74,-18418.95,-26203.815,-5810.175,709.0649999999999
1764763512.4162502,-491.265,-1826.955,-27236.115,-7267.139999999999,-18415.035,-26201.52,-5809.77,711.72
1764763512.4162502,-492.57,-1827.405,-27236.745,-7268.04,-18416.43,-26204.175,-5811.389999999999,709.8299999999999
1764763512.4162502,-486.945,-1821.87,-27231.345,-7262.955,-18410.625,-26199.09,-5806.665,714.87
1764763512.4162502,-488.16,-1824.03,-27234.315,-7264.98,-18411.345,-26198.73,-5806.08,714.78
1764763512.4162502,-494.415,-1831.68,-27243.72,-7272.224999999999,-18417.105,-26202.6,-5810.4,710.64
1764763512.4162502,-495.99,-1833.705,-27245.88,-7273.44,-18419.04,-26203.68,-5811.344999999999,708.7049999999999
1764763512.4162502,-495.54,-1832.625,-27244.17,-7272.045,-18419.4,-26204.895,-5810.715,707.9399999999999
1764763512.4162502,-496.845,-1833.615,-27243.765,-7273.08,-18420.66,-26207.055,-5811.75,705.645
1764763512.4162502,-492.93,-1829.79,-27238.995,-7269.12,-18416.52,-26204.625,-5809.995,709.02
1764763512.4162502,-495.315,-1831.545,-27240.57,-7271.639999999999,-18419.715,-26207.28,-5811.57,706.995
1764763512.4162502,-493.155,-1828.89,-27238.005,-7268.13,-18416.79,-26204.67,-5809.995,709.38
1764763512.4162502,-494.55,-1828.845,-27237.915,-7268.085,-18416.25,-26205.03,-5810.49,707.76
1764763512.4162502,-488.925,-1822.275,-27229.68,-7260.929999999999,-18410.67,-26200.395,-5807.429999999999,711.9
1764763512.4162502,-488.25,-1821.24,-27228.285,-7259.715,-18409.68,-26199.72,-5805.99,713.3399999999999
1764763512.4162502,-492.075,-1825.65,-27233.91,-7264.304999999999,-18412.92,-26201.88,-5808.285,710.3249999999999
1764763512.4162502,-493.56,-1828.215,-27236.925,-7267.32,-18416.025,-26203.68,-5809.139999999999,708.48
1764763512.4162502,-497.7,-1835.28,-27245.565,-7275.33,-18421.83,-26208.225,-5811.344999999999,705.51
1764763512.4162502,-498.285,-1838.205,-27250.155,-7278.165,-18421.74,-26207.145,-5811.344999999999,706.4549999999999
1764763512.4167857,-498.645,-1838.115,-27250.065,-7276.905,-18420.57,-26206.605,-5811.525,706.05
1764763512.4167857,-500.04,-1837.935,-27249.525,-7277.625,-18422.145,-26209.26,-5813.19,704.16
1764763512.4167857,-497.745,-1835.82,-27246.24,-7275.735,-18420.615,-26207.37,-5812.155,705.915
1764763512.4630768,-498.6,-1836.18,-27246.555,-7275.554999999999,-18421.29,-26208.045,-5813.19,704.97
1764763512.4630768,-496.62,-1831.905,-27242.28,-7270.605,-18417.735,-26205.255,-5809.545,705.9599999999999
1764763512.4630768,-490.68,-1825.965,-27235.665,-7264.575,-18412.155,-26200.305,-5805.81,711.135
1764763512.4630768,-492.165,-1828.17,-27237.285,-7266.87,-18414.855,-26203.185,-5806.575,709.875
1764763512.4630768,-495.81,-1831.59,-27241.425,-7270.83,-18419.085,-26206.965,-5807.969999999999,705.8249999999999
1764763512.4630768,-493.74,-1828.665,-27237.96,-7268.264999999999,-18418.005,-26206.92,-5808.06,707.265
1764763512.4630768,-493.245,-1828.17,-27237.24,-7267.815,-18418.095,-26206.47,-5807.295,708.48
1764763512.4630768,-491.67,-1828.035,-27237.69,-7267.769999999999,-18416.655,-26204.4,-5805.764999999999,709.875
1764763512.4630768,-489.465,-1826.82,-27236.07,-7266.105,-18415.395,-26203.23,-5804.82,712.89
1764763512.4630768,-493.155,-1833.12,-27244.035,-7273.304999999999,-18420.39,-26205.93,-5806.889999999999,710.37
1764763512.4630768,-495.135,-1837.305,-27249.48,-7277.49,-18421.02,-26204.58,-5806.844999999999,709.56
1764763512.4630768,-494.73,-1834.65,-27246.465,-7274.88,-18419.94,-26204.67,-5806.71,709.6949999999999
1764763512.4630768,-494.73,-1833.3,-27244.665,-7273.485,-18420.57,-26206.515,-5807.295,707.85
1764763512.4630768,-498.915,-1835.82,-27246.465,-7275.87,-18424.215,-26210.52,-5810.895,703.2149999999999
1764763512.4630768,-493.83,-1830.555,-27240.12,-7270.335,-18419.355,-26207.28,-5808.465,707.4449999999999
1764763512.4630768,-497.61,-1833.615,-27242.055,-7272.45,-18422.145,-26210.52,-5809.094999999999,704.43
1764763512.4630768,-498.555,-1834.515,-27243.18,-7273.304999999999,-18421.65,-26209.755,-5809.77,704.025
1764763512.4630768,-495.72,-1831.995,-27241.965,-7271.594999999999,-18419.805,-26206.965,-5808.014999999999,706.905
1764763512.4630768,-500.355,-1837.305,-27247.68,-7277.894999999999,-18425.115,-26211.375,-5809.86,703.0799999999999
1764763512.4630768,-499.23,-1836.675,-27246.555,-7276.95,-18424.305,-26211.33,-5809.679999999999,703.485
1764763512.4630768,-496.125,-1833.84,-27243.045,-7274.34,-18420.93,-26208.27,-5808.105,707.0849999999999
1764763512.4630768,-498.33,-1837.08,-27246.96,-7277.13,-18423.405,-26210.34,-5808.645,705.06
1764763512.4630768,-495.81,-1834.605,-27244.98,-7274.835,-18422.595,-26208.36,-5807.025,708.03
1764763512.4630768,-496.305,-1834.83,-27246.42,-7276.365,-18424.935,-26211.105,-5807.655,706.14
1764763512.5092945,-496.44,-1835.28,-27246.6,-7277.219999999999,-18425.835,-26212.635,-5809.365,705.105
1764763512.5092945,-497.385,-1835.28,-27245.7,-7276.545,-18425.115,-26211.96,-5809.455,704.3399999999999
1764763512.5092945,-499.365,-1836.45,-27246.285,-7275.69,-18425.565,-26213.715,-5809.86,702.36
1764763512.5092945,-494.55,-1829.97,-27239.94,-7269.57,-18420.525,-26209.08,-5805.99,707.04
1764763512.5092945,-493.83,-1829.115,-27238.455,-7269.48,-18420.48,-26209.53,-5806.395,707.13
1764763512.5092945,-494.19,-1828.98,-27238.14,-7269.795,-18419.94,-26209.845,-5806.125,706.05
1764763512.5092945,-495.36,-1830.15,-27237.555,-7269.884999999999,-18419.715,-26209.62,-5806.395,705.51
1764763512.5092945,-495.0,-1831.095,-27238.095,-7270.514999999999,-18420.525,-26209.44,-5806.575,706.05
1764763512.5092945,-492.39,-1827.63,-27234.855,-7267.679999999999,-18419.49,-26208.27,-5805.764999999999,707.985
1764763512.5092945,-495.27,-1829.925,-27237.645,-7270.065,-18422.325,-26211.33,-5806.98,705.78
1764763512.5092945,-499.32,-1834.29,-27242.91,-7275.465,-18427.095,-26214.75,-5809.365,702.495
1764763512.5092945,-499.32,-1837.485,-27247.545,-7278.48,-18426.645,-26212.545,-5808.78,704.295
1764763512.5092945,-502.155,-1841.22,-27252.405,-7281.54,-18426.96,-26213.04,-5808.42,702.54
1764763512.5092945,-497.835,-1834.74,-27244.035,-7274.34,-18423.405,-26210.61,-5806.035,705.42
1764763512.5092945,-492.165,-1827.9,-27237.06,-7269.344999999999,-18420.84,-26208.405,-5804.82,709.38
1764763512.5092945,-490.59,-1826.1,-27236.07,-7269.255,-18420.705,-26208.045,-5803.469999999999,710.73
1764763512.5092945,-492.57,-1829.25,-27240.48,-7273.394999999999,-18423.405,-26209.26,-5804.55,709.0649999999999
1764763512.5092945,-491.895,-1828.62,-27238.365,-7270.965,-18421.695,-26208.405,-5802.66,709.8299999999999
1764763512.5092945,-488.835,-1822.86,-27232.47,-7264.44,-18418.095,-26206.74,-5800.275,710.505
1764763512.5092945,-489.6,-1823.22,-27232.47,-7263.764999999999,-18418.635,-26207.73,-5801.58,709.38
1764763512.5092945,-497.835,-1835.415,-27248.04,-7277.804999999999,-18426.375,-26213.355,-5806.665,703.7099999999999
1764763512.5092945,-501.165,-1841.49,-27256.905,-7284.554999999999,-18426.96,-26211.42,-5806.8,703.8
1764763512.5575247,-499.995,-1837.98,-27252.18,-7281.99,-18427.14,-26211.735,-5807.025,704.0699999999999
1764763512.5575247,-495.855,-1831.32,-27243.63,-7276.455,-18426.06,-26211.465,-5806.755,705.9599999999999
1764763512.5575247,-492.03,-1826.37,-27237.915,-7270.65,-18422.28,-26209.125,-5804.639999999999,708.345
1764763512.5575247,-494.01,-1829.16,-27240.075,-7272.945,-18423.18,-26210.025,-5805.54,706.905
1764763512.5575247,-501.21,-1838.7,-27251.235,-7283.025,-18429.3,-26215.155,-5808.465,701.3249999999999
1764763512.5575247,-501.84,-1840.545,-27254.025,-7285.455,-18428.94,-26214.165,-5807.925,702.135
1764763512.5575247,-498.555,-1836.18,-27249.93,-7280.82,-18425.7,-26211.285,-5805.764999999999,705.375
1764763512.5575247,-502.83,-1839.735,-27253.305,-7283.474999999999,-18430.56,-26215.425,-5809.094999999999,700.875
1764763512.5575247,-500.94,-1836.9,-27249.705,-7281.315,-18429.255,-26214.795,-5808.825,701.595
1764763512.5575247,-499.86,-1834.605,-27246.195,-7279.425,-18428.085,-26214.12,-5808.014999999999,701.91
1764763512.5575247,-498.555,-1834.02,-27245.79,-7278.344999999999,-18427.14,-26212.815,-5807.025,703.305
1764763512.5575247,-495.675,-1833.12,-27245.16,-7277.58,-18426.15,-26211.375,-5805.719999999999,705.8249999999999
1764763512.5575247,-501.795,-1839.555,-27253.08,-7285.5,-18431.91,-26216.055,-5807.52,701.4599999999999
1764763512.5575247,-500.715,-1838.43,-27252.315,-7283.745,-18428.805,-26213.625,-5805.405,703.035
1764763512.5575247,-496.26,-1834.38,-27246.69,-7278.344999999999,-18425.025,-26209.17,-5802.57,706.86
1764763512.5575247,-494.505,-1832.76,-27245.025,-7276.679999999999,-18424.98,-26208.495,-5802.03,707.31
1764763512.5575247,-491.985,-1828.08,-27241.785,-7273.485,-18421.695,-26205.795,-5799.42,710.1899999999999
1764763512.5575247,-494.82,-1829.925,-27243.81,-7275.285,-18423.81,-26208.0,-5802.435,706.995
1764763512.5575247,-494.415,-1830.105,-27243.315,-7274.969999999999,-18424.125,-26208.675,-5802.344999999999,706.68
1764763512.5575247,-495.765,-1830.735,-27243.675,-7275.375,-18425.115,-26210.835,-5803.335,705.4649999999999
1764763512.5575247,-492.255,-1825.875,-27239.22,-7269.705,-18420.795,-26207.145,-5800.905,709.38
1764763512.5575247,-494.82,-1828.665,-27243.27,-7273.394999999999,-18424.215,-26210.115,-5801.804999999999,706.86
1764763512.5575247,-492.975,-1828.215,-27242.46,-7273.035,-18422.505,-26208.27,-5801.13,708.525
1764763512.5575247,-493.83,-1829.52,-27242.865,-7273.665,-18422.055,-26207.775,-5800.094999999999,708.615
1764763512.6012225,-499.14,-1834.29,-27248.67,-7279.514999999999,-18428.04,-26212.455,-5803.29,703.5749999999999
1764763512.6012225,-495.225,-1830.42,-27244.89,-7276.275,-18425.205,-26210.07,-5801.264999999999,706.8149999999999
1764763512.6012225,-494.055,-1830.195,-27244.26,-7274.745,-18424.53,-26210.07,-5801.895,707.5799999999999
1764763512.6012225,-500.805,-1836.99,-27251.865,-7281.63,-18429.165,-26213.94,-5806.304999999999,701.91
1764763512.6012225,-496.62,-1833.21,-27248.535,-7278.57,-18425.07,-26209.665,-5803.245,705.555
1764763512.6012225,-496.89,-1833.165,-27249.615,-7278.434999999999,-18425.205,-26210.34,-5802.795,705.645
1764763512.6012225,-500.85,-1836.585,-27252.855,-7282.394999999999,-18429.165,-26214.705,-5804.865,702.18
1764763512.6012225,-499.5,-1834.785,-27251.055,-7281.09,-18427.815,-26213.805,-5803.29,703.7099999999999
1764763512.6012225,-496.125,-1830.15,-27247.095,-7276.05,-18423.945,-26209.53,-5801.13,706.77
1764763512.6012225,-494.28,-1828.08,-27243.315,-7272.719999999999,-18422.37,-26208.405,-5801.175,706.86
1764763512.6012225,-492.57,-1826.1,-27240.075,-7270.065,-18421.29,-26208.09,-5801.445,706.995
1764763512.6012225,-491.085,-1824.03,-27236.34,-7266.33,-18418.5,-26205.795,-5799.87,708.66
1764763512.6012225,-489.915,-1822.635,-27234.855,-7264.71,-18416.565,-26202.825,-5797.53,710.505
1764763512.6012225,-493.785,-1827.495,-27241.83,-7271.594999999999,-18420.93,-26205.57,-5799.105,708.12
1764763512.6012225,-497.34,-1833.21,-27248.67,-7279.065,-18425.97,-26209.98,-5800.679999999999,705.645
1764763512.6012225,-493.83,-1829.655,-27243.945,-7274.655,-18421.38,-26206.92,-5798.295,708.48
1764763512.6012225,-496.035,-1831.815,-27246.375,-7278.255,-18426.645,-26211.69,-5801.4,705.24
1764763512.6012225,-495.135,-1830.465,-27246.87,-7278.165,-18426.285,-26210.565,-5800.679999999999,706.86
1764763512.6032372,-495.045,-1828.755,-27245.115,-7276.86,-18426.6,-26212.545,-5800.905,706.41
1764763512.6032372,-493.245,-1825.335,-27239.58,-7271.415,-18424.125,-26211.24,-5800.59,707.13
1764763512.6032372,-495.9,-1828.08,-27243.135,-7274.565,-18426.195,-26212.68,-5802.21,705.1949999999999
1764763512.6032372,-499.815,-1834.92,-27251.055,-7281.36,-18427.995,-26212.905,-5802.165,703.665
1764763512.6506667,-501.39,-1838.745,-27255.15,-7284.15,-18430.02,-26213.13,-5802.255,702.63
1764763512.6506667,-503.505,-1840.5,-27255.555,-7285.139999999999,-18432.27,-26215.785,-5804.28,699.7049999999999
1764763512.6506667,-501.12,-1837.485,-27252.495,-7281.224999999999,-18428.355,-26212.905,-5802.974999999999,702.36
1764763512.6506667,-502.74,-1837.755,-27252.495,-7282.259999999999,-18430.56,-26216.505,-5804.82,699.66
1764763512.6506667,-499.23,-1833.795,-27248.67,-7279.155,-18427.14,-26213.67,-5803.965,702.0899999999999
1764763512.6506667,-500.535,-1835.145,-27248.805,-7278.66,-18426.96,-26213.94,-5804.46,700.47
1764763512.6506667,-500.31,-1834.605,-27247.995,-7279.019999999999,-18429.84,-26216.055,-5805.405,699.93
1764763512.6506667,-499.815,-1835.055,-27249.255,-7281.54,-18432.27,-26217.72,-5806.125,700.3349999999999
1764763512.6506667,-502.02,-1838.43,-27254.025,-7285.679999999999,-18436.68,-26220.375,-5807.34,698.22
1764763512.6506667,-504.72,-1842.39,-27258.75,-7289.73,-18439.695,-26223.075,-5807.79,696.1949999999999
1764763512.6506667,-504.72,-1842.93,-27259.47,-7289.82,-18437.85,-26220.06,-5805.945,698.355
1764763512.6506667,-506.655,-1844.325,-27260.235,-7290.63,-18439.065,-26221.725,-5805.945,695.745
1764763512.6506667,-504.0,-1840.365,-27255.87,-7285.769999999999,-18435.555,-26219.655,-5804.415,696.4649999999999
1764763512.6506667,-502.605,-1837.755,-27252.495,-7282.304999999999,-18433.44,-26218.845,-5804.325,697.5899999999999
1764763512.6506667,-500.58,-1834.965,-27248.715,-7279.38,-18432.0,-26217.405,-5804.145,699.93
1764763512.6506667,-495.54,-1829.835,-27242.64,-7274.655,-18428.445,-26214.03,-5800.275,703.755
1764763512.6506667,-496.53,-1832.445,-27246.195,-7278.344999999999,-18432.045,-26216.46,-5799.96,702.99
1764763512.6506667,-501.615,-1837.8,-27252.0,-7284.42,-18436.005,-26218.62,-5801.49,700.38
1764763512.6506667,-499.59,-1835.505,-27249.255,-7281.045,-18432.495,-26215.515,-5799.645,703.395
1764763512.6506667,-499.545,-1835.685,-27249.885,-7281.315,-18431.64,-26214.57,-5799.42,703.8
1764763512.6506667,-499.455,-1836.45,-27251.01,-7281.719999999999,-18431.19,-26214.255,-5799.645,702.9
1764763512.6506667,-501.345,-1838.655,-27253.035,-7284.059999999999,-18434.115,-26216.775,-5802.84,700.11
1764763512.6506667,-502.065,-1838.295,-27253.305,-7283.7,-18434.79,-26218.17,-5803.695,698.805
1764763512.6506667,-503.055,-1837.62,-27251.82,-7282.755,-18435.195,-26218.89,-5804.55,697.9499999999999
1764763512.6965842,-503.145,-1834.74,-27248.445,-7279.83,-18434.79,-26219.835,-5804.28,696.8249999999999
1764763512.6965842,-495.855,-1825.38,-27237.555,-7270.785,-18428.085,-26214.975,-5800.41,701.235
1764763512.6965842,-496.755,-1825.92,-27236.34,-7270.29,-18428.895,-26216.505,-5800.139999999999,700.11
1764763512.6965842,-497.835,-1828.98,-27241.335,-7274.115,-18430.65,-26215.965,-5799.375,700.8299999999999
1764763512.6975994,-500.985,-1836.405,-27252.045,-7283.61,-18434.52,-26216.46,-5800.679999999999,700.245
1764763512.6975994,-503.865,-1841.265,-27257.445,-7288.605,-18437.625,-26217.99,-5801.535,698.895
1764763512.6975994,-503.73,-1840.365,-27255.78,-7286.94,-18436.77,-26217.72,-5801.67,698.7149999999999
1764763512.6975994,-507.24,-1843.92,-27259.155,-7291.125,-18442.08,-26223.12,-5805.405,694.0799999999999
1764763512.6975994,-505.53,-1841.22,-27256.455,-7288.695,-18441.675,-26223.885,-5805.495,694.26
1764763512.6975994,-499.095,-1831.32,-27245.295,-7277.894999999999,-18433.98,-26218.08,-5801.895,699.48
1764763512.6975994,-497.745,-1828.17,-27240.84,-7273.98,-18432.045,-26217.945,-5801.445,699.0749999999999
1764763512.6975994,-498.33,-1827.99,-27239.535,-7273.394999999999,-18433.035,-26219.52,-5801.895,698.355
1764763512.6975994,-503.595,-1836.27,-27248.85,-7281.99,-18439.29,-26224.515,-5804.505,694.53
1764763512.6975994,-511.605,-1848.33,-27264.285,-7294.094999999999,-18443.655,-26224.92,-5806.26,690.975
1764763512.6975994,-512.28,-1849.995,-27266.985,-7296.344999999999,-18443.205,-26223.255,-5805.764999999999,691.65
1764763512.6975994,-511.335,-1847.745,-27262.62,-7293.105,-18443.52,-26225.685,-5805.675,690.975
1764763512.6975994,-506.385,-1841.715,-27256.185,-7287.03,-18439.74,-26221.68,-5804.054999999999,695.655
1764763512.6975994,-508.5,-1843.38,-27258.255,-7289.28,-18443.43,-26225.055,-5806.485,693.18
1764763512.6975994,-507.78,-1841.445,-27255.15,-7288.2,-18443.295,-26225.325,-5805.99,694.485
1764763512.698596,-504.27,-1838.565,-27252.045,-7285.455,-18439.92,-26222.4,-5802.974999999999,697.86
1764763512.698596,-506.52,-1840.635,-27253.575,-7285.139999999999,-18439.335,-26222.67,-5803.155,695.43
1764763512.698596,-502.2,-1834.515,-27246.42,-7278.075,-18433.485,-26217.315,-5799.915,699.48
1764763512.698596,-503.82,-1837.845,-27252.225,-7283.835,-18437.265,-26219.205,-5800.679999999999,697.68
1764763512.698596,-505.71,-1841.49,-27256.455,-7286.58,-18439.065,-26220.015,-5801.67,697.77
1764763512.7418578,-507.465,-1842.615,-27256.86,-7286.49,-18438.75,-26220.87,-5802.66,696.1949999999999
1764763512.7418578,-506.115,-1840.725,-27254.115,-7284.644999999999,-18437.94,-26219.745,-5800.545,697.095
1764763512.7418578,-503.955,-1838.25,-27251.325,-7283.115,-18438.39,-26219.34,-5799.645,697.995
1764763512.7418578,-507.015,-1841.22,-27254.295,-7286.49,-18443.565,-26224.92,-5803.65,693.54
1764763512.7418578,-504.63,-1839.195,-27251.145,-7283.655,-18440.325,-26222.67,-5803.02,696.1949999999999
1764763512.7418578,-502.92,-1839.015,-27251.595,-7283.115,-18437.535,-26219.385,-5801.625,699.03
1764763512.7418578,-508.14,-1843.875,-27256.5,-7287.929999999999,-18442.44,-26223.12,-5803.965,694.665
1764763512.7418578,-507.105,-1843.155,-27255.78,-7287.615,-18442.08,-26222.67,-5803.335,695.97
1764763512.7418578,-510.12,-1845.585,-27258.435,-7290.495,-18444.105,-26225.28,-5804.099999999999,693.405
1764763512.7418578,-508.275,-1842.435,-27255.105,-7286.445,-18440.325,-26222.13,-5802.48,696.15
1764763512.7418578,-509.58,-1842.39,-27255.105,-7286.04,-18441.54,-26223.12,-5803.875,694.0799999999999
1764763512.7418578,-504.315,-1836.765,-27249.48,-7281.134999999999,-18437.58,-26219.295,-5800.905,698.04
1764763512.7418578,-502.38,-1835.415,-27248.4,-7279.875,-18436.365,-26218.575,-5799.554999999999,699.66
1764763512.7418578,-504.405,-1838.52,-27252.495,-7282.755,-18437.445,-26218.665,-5799.96,697.86
1764763512.7418578,-503.28,-1837.89,-27251.235,-7281.495,-18437.04,-26218.08,-5799.375,697.995
1764763512.7418578,-502.29,-1835.595,-27248.445,-7279.29,-18436.095,-26218.08,-5798.88,698.625
1764763512.7418578,-505.17,-1836.495,-27248.895,-7282.17,-18439.155,-26222.4,-5800.815,695.655
1764763512.743384,-504.36,-1835.73,-27248.715,-7281.405,-18439.155,-26222.085,-5800.275,696.78
1764763512.743384,-506.07,-1839.645,-27253.305,-7284.735,-18440.775,-26221.95,-5800.679999999999,696.24
1764763512.743384,-503.73,-1836.72,-27251.145,-7281.945,-18438.48,-26218.89,-5799.24,698.67
1764763512.743384,-504.675,-1839.105,-27254.43,-7285.139999999999,-18439.65,-26220.285,-5800.185,697.905
1764763512.743384,-504.315,-1839.645,-27253.935,-7283.79,-18439.155,-26220.24,-5799.42,697.68
1764763512.7886186,-501.885,-1836.99,-27250.74,-7281.315,-18438.075,-26219.34,-5797.665,700.155
1764763512.7886186,-504.405,-1839.33,-27254.025,-7285.32,-18441.54,-26222.13,-5800.05,697.86
1764763512.7886186,-507.825,-1843.515,-27258.615,-7289.955,-18445.815,-26225.055,-5801.58,694.53
1764763512.7886186,-504.72,-1840.59,-27257.175,-7287.75,-18442.98,-26222.715,-5799.825,697.3199999999999
1764763512.7886186,-502.425,-1837.08,-27254.115,-7285.95,-18442.305,-26222.535,-5799.42,699.03
1764763512.7886186,-501.345,-1835.64,-27251.415,-7284.014999999999,-18441.63,-26222.535,-5799.87,699.2099999999999
1764763512.7886186,-501.39,-1836.09,-27252.045,-7283.969999999999,-18440.505,-26221.905,-5799.33,699.93
1764763512.7886186,-501.165,-1836.36,-27252.945,-7284.195,-18439.425,-26220.69,-5797.575,700.6949999999999
1764763512.7886186,-501.48,-1837.44,-27253.35,-7284.554999999999,-18440.055,-26221.455,-5797.665,699.615
1764763512.7886186,-504.45,-1839.33,-27254.52,-7285.634999999999,-18441.27,-26222.94,-5797.755,698.5799999999999
1764763512.7886186,-498.015,-1831.185,-27244.17,-7275.059999999999,-18433.215,-26215.38,-5792.715,704.0699999999999
1764763512.7886186,-498.15,-1829.07,-27241.425,-7273.394999999999,-18432.36,-26215.2,-5793.48,703.0799999999999
1764763512.7886186,-500.985,-1832.805,-27246.555,-7277.715,-18435.06,-26216.775,-5794.65,701.73
1764763512.7886186,-503.775,-1837.215,-27252.135,-7282.17,-18437.445,-26218.98,-5795.37,700.02
1764763512.7886186,-503.28,-1836.405,-27249.885,-7280.73,-18436.68,-26219.43,-5795.82,699.12
1764763512.7886186,-500.49,-1833.03,-27245.97,-7277.58,-18435.105,-26218.125,-5794.74,701.4599999999999
1764763512.7886186,-502.245,-1835.1,-27249.12,-7279.92,-18436.455,-26219.475,-5796.0,700.6949999999999
1764763512.7886186,-506.61,-1841.22,-27255.24,-7285.815,-18439.29,-26220.96,-5797.304999999999,697.41
1764763512.7886186,-510.75,-1846.395,-27260.595,-7290.315,-18443.205,-26223.93,-5799.42,693.72
1764763512.7886186,-506.745,-1842.165,-27256.59,-7286.445,-18439.695,-26220.375,-5797.485,697.185
1764763512.7886186,-506.52,-1842.57,-27257.715,-7287.884999999999,-18440.865,-26221.32,-5797.035,697.3199999999999
1764763512.7886186,-509.85,-1845.99,-27262.305,-7292.925,-18443.79,-26224.245,-5799.51,694.305
1764763512.7886186,-507.24,-1842.48,-27258.615,-7291.08,-18443.88,-26223.345,-5799.105,696.42
1764763512.7896135,-508.86,-1842.975,-27258.39,-7291.259999999999,-18445.095,-26225.73,-5800.094999999999,694.395
1764763512.7896135,-505.935,-1840.095,-27254.07,-7286.085,-18440.64,-26222.49,-5797.844999999999,696.87
1764763512.7896135,-504.99,-1837.755,-27251.01,-7282.934999999999,-18439.2,-26222.445,-5797.215,696.87
1764763512.835708,-499.68,-1830.87,-27243.855,-7275.825,-18434.565,-26217.63,-5794.65,701.4599999999999
1764763512.835708,-497.07,-1827.54,-27240.12,-7272.045,-18431.685,-26215.83,-5792.445,703.53
1764763512.835708,-498.33,-1828.845,-27241.11,-7273.215,-18432.315,-26216.145,-5792.355,703.62
1764763512.835708,-499.86,-1832.715,-27246.645,-7278.12,-18432.99,-26215.11,-5791.95,703.35
1764763512.835708,-499.32,-1833.57,-27246.915,-7278.57,-18432.9,-26213.4,-5790.33,703.98
1764763512.835708,-500.76,-1836.045,-27249.57,-7281.09,-18435.645,-26215.83,-5791.59,702.72
1764763512.835708,-504.36,-1841.175,-27256.14,-7286.67,-18439.155,-26218.665,-5794.11,699.12
1764763512.835708,-505.755,-1842.345,-27258.03,-7287.795,-18439.605,-26220.06,-5795.73,697.23
1764763512.8367195,-506.295,-1842.705,-27258.3,-7287.12,-18438.84,-26220.015,-5795.639999999999,697.095
1764763512.8367195,-503.955,-1840.095,-27255.24,-7284.24,-18437.175,-26218.44,-5793.795,698.85
1764763512.8367195,-504.27,-1840.545,-27255.105,-7284.78,-18439.065,-26218.8,-5794.29,697.995
1764763512.8367195,-499.815,-1835.19,-27249.705,-7280.55,-18436.68,-26216.82,-5792.175,701.73
1764763512.8367195,-502.605,-1836.81,-27251.415,-7283.295,-18440.73,-26220.555,-5794.335,698.67
1764763512.8367195,-498.69,-1832.265,-27245.52,-7277.219999999999,-18435.555,-26216.37,-5791.724999999999,702.27
1764763512.8367195,-496.665,-1830.015,-27242.865,-7273.665,-18431.775,-26213.445,-5789.34,703.845
1764763512.8367195,-500.49,-1835.595,-27248.805,-7278.57,-18435.33,-26215.83,-5791.635,701.145
1764763512.8367195,-506.205,-1841.715,-27254.385,-7284.375,-18440.415,-26221.185,-5794.92,696.06
1764763512.8367195,-503.955,-1837.62,-27249.615,-7279.83,-18436.86,-26220.105,-5793.705,697.5
1764763512.8367195,-498.42,-1831.23,-27243.045,-7274.565,-18433.44,-26217.18,-5791.23,701.865
1764763512.8367195,-500.715,-1833.21,-27246.375,-7278.075,-18438.03,-26220.69,-5793.435,699.885
1764763512.8367195,-505.665,-1837.395,-27250.965,-7282.44,-18443.115,-26225.055,-5797.035,695.5649999999999
1764763512.8367195,-504.045,-1834.47,-27245.295,-7278.929999999999,-18441.09,-26223.705,-5795.639999999999,696.375
1764763512.8842034,-503.64,-1834.155,-27245.655,-7279.019999999999,-18441.72,-26224.38,-5795.415,696.51
1764763512.8842034,-507.15,-1840.77,-27253.53,-7285.41,-18444.015,-26224.515,-5795.639999999999,695.88
1764763512.8847122,-507.825,-1845.0,-27259.065,-7288.605,-18442.17,-26220.78,-5793.435,698.535
1764763512.8847122,-510.39,-1848.735,-27264.78,-7293.599999999999,-18446.49,-26224.065,-5796.27,694.98
1764763512.8847122,-509.76,-1846.17,-27259.74,-7290.315,-18445.635,-26225.55,-5796.945,693.9449999999999
1764763512.8847122,-502.335,-1836.45,-27247.995,-7279.29,-18437.67,-26220.285,-5792.715,699.2099999999999
1764763512.8847122,-502.92,-1835.82,-27246.825,-7278.434999999999,-18438.525,-26221.68,-5792.445,697.9499999999999
1764763512.8847122,-499.32,-1831.68,-27242.19,-7273.62,-18434.295,-26217.765,-5790.06,701.415
1764763512.8847122,-502.245,-1835.55,-27247.545,-7278.344999999999,-18437.22,-26219.07,-5791.724999999999,699.75
1764763512.8847122,-509.535,-1846.665,-27261.63,-7290.585,-18444.87,-26223.975,-5795.01,695.655
1764763512.8847122,-508.725,-1847.205,-27262.665,-7293.554999999999,-18447.03,-26224.83,-5795.145,696.375
1764763512.8847122,-508.905,-1848.015,-27263.43,-7294.679999999999,-18448.74,-26226.18,-5794.65,695.385
1764763512.8847122,-501.3,-1840.23,-27255.42,-7286.13,-18440.505,-26217.675,-5788.349999999999,702.405
1764763512.885731,-507.375,-1845.495,-27260.055,-7290.179999999999,-18445.05,-26222.715,-5792.94,696.735
1764763512.885731,-508.59,-1844.46,-27258.255,-7289.82,-18445.86,-26224.65,-5794.38,695.385
1764763512.885731,-504.855,-1840.815,-27252.54,-7284.69,-18443.745,-26223.84,-5791.59,697.275
1764763512.885731,-501.48,-1835.82,-27245.79,-7278.795,-18440.01,-26221.275,-5790.06,699.3
1764763512.885731,-498.69,-1831.32,-27241.47,-7274.429999999999,-18437.4,-26219.655,-5788.62,701.145
1764763512.885731,-497.07,-1831.545,-27242.505,-7273.98,-18435.915,-26217.45,-5787.719999999999,702.855
1764763512.885731,-500.355,-1835.505,-27246.33,-7277.355,-18437.625,-26219.205,-5787.54,699.795
1764763512.885731,-499.32,-1833.255,-27244.62,-7275.014999999999,-18437.265,-26218.98,-5785.875,700.155
1764763512.8867316,-499.005,-1834.02,-27246.87,-7277.535,-18437.67,-26218.395,-5785.29,702.405
1764763512.8867316,-497.115,-1834.47,-27247.5,-7277.264999999999,-18435.465,-26214.345,-5783.67,705.1949999999999
1764763512.8867316,-501.93,-1838.52,-27250.965,-7279.92,-18438.795,-26217.855,-5785.83,701.055
1764763512.9310734,-502.965,-1839.15,-27251.19,-7281.495,-18440.595,-26220.195,-5787.945,699.48
1764763512.9310734,-504.27,-1841.76,-27255.285,-7284.78,-18441.99,-26221.77,-5788.935,697.77
1764763512.9310734,-502.2,-1839.465,-27253.08,-7282.349999999999,-18439.245,-26219.07,-5787.09,700.6949999999999
1764763512.9310734,-501.615,-1836.945,-27250.605,-7279.74,-18439.335,-26220.24,-5787.315,700.245
1764763512.9320774,-506.475,-1840.95,-27254.835,-7285.184999999999,-18444.69,-26225.19,-5790.42,695.79
1764763512.9320774,-509.715,-1847.88,-27263.475,-7292.835,-18449.1,-26228.07,-5792.175,693.675
1764763512.9320774,-507.06,-1846.305,-27261.855,-7291.08,-18447.3,-26225.955,-5791.32,695.97
1764763512.9320774,-506.655,-1845.09,-27260.145,-7289.639999999999,-18447.255,-26225.19,-5790.33,696.9599999999999
1764763512.9320774,-504.72,-1843.155,-27259.245,-7288.11,-18444.465,-26221.68,-5788.665,699.615
1764763512.9320774,-507.06,-1845.225,-27261.675,-7290.179999999999,-18446.22,-26223.75,-5789.429999999999,697.725
1764763512.9320774,-508.725,-1846.395,-27261.675,-7291.08,-18448.29,-26226.855,-5790.014999999999,695.295
1764763512.9320774,-507.195,-1842.795,-27257.58,-7288.965,-18447.48,-26227.17,-5789.745,696.375
1764763512.9320774,-506.115,-1842.615,-27256.365,-7288.019999999999,-18447.165,-26227.71,-5790.33,696.3299999999999
1764763512.9320774,-505.53,-1842.48,-27257.58,-7288.695,-18447.03,-26227.035,-5789.07,697.23
1764763512.9320774,-503.955,-1840.995,-27256.095,-7286.355,-18444.465,-26224.02,-5787.405,699.3
1764763512.9320774,-501.975,-1837.665,-27251.775,-7281.675,-18441.585,-26222.715,-5785.38,701.4599999999999
1764763512.9320774,-500.76,-1836.09,-27249.75,-7279.019999999999,-18441.18,-26222.58,-5784.84,702.225
1764763512.9320774,-497.79,-1834.38,-27249.255,-7278.344999999999,-18441.405,-26222.355,-5783.895,703.62
1764763512.9320774,-497.88,-1834.83,-27249.525,-7280.19,-18443.655,-26224.38,-5784.84,702.765
1764763512.9320774,-500.58,-1836.27,-27250.785,-7282.125,-18446.355,-26226.63,-5786.955,701.235
1764763512.9320774,-502.695,-1838.43,-27252.09,-7283.25,-18448.47,-26229.375,-5787.09,699.39
1764763512.9320774,-500.49,-1835.55,-27248.265,-7279.469999999999,-18446.22,-26228.52,-5786.145,701.055
1764763512.9320774,-499.5,-1835.505,-27249.255,-7279.65,-18445.005,-26226.36,-5785.83,702.0899999999999
1764763512.9320774,-505.935,-1844.235,-27258.93,-7288.2,-18449.955,-26229.105,-5787.54,698.0849999999999
1764763512.977979,-504.63,-1842.57,-27257.355,-7286.804999999999,-18447.705,-26226.36,-5785.785,700.47
1764763512.977979,-506.97,-1845.72,-27260.505,-7289.054999999999,-18450.765,-26228.745,-5787.63,697.4549999999999
1764763512.977979,-507.15,-1845.09,-27258.795,-7285.724999999999,-18447.615,-26226.9,-5787.09,697.635
1764763512.977979,-505.845,-1843.11,-27255.285,-7284.285,-18446.535,-26227.62,-5787.764999999999,697.5899999999999
1764763512.977979,-496.98,-1835.73,-27249.705,-7280.955,-18444.33,-26224.38,-5784.21,705.6899999999999
1764763512.977979,-498.735,-1835.865,-27250.605,-7281.0,-18445.275,-26224.515,-5784.615,704.6999999999999
1764763512.977979,-500.175,-1835.82,-27249.21,-7279.245,-18444.69,-26224.695,-5785.245,702.72
1764763512.977979,-498.96,-1833.93,-27246.87,-7277.13,-18443.97,-26224.515,-5783.76,703.0799999999999
1764763512.977979,-497.43,-1831.905,-27244.44,-7274.34,-18443.115,-26224.02,-5783.085,704.115
1764763512.977979,-497.295,-1832.94,-27244.215,-7275.014999999999,-18443.655,-26225.28,-5783.219999999999,704.655
1764763512.977979,-501.3,-1838.97,-27251.955,-7284.24,-18450.18,-26230.32,-5785.65,700.605
1764763512.977979,-502.47,-1840.59,-27254.025,-7284.87,-18449.775,-26229.015,-5784.615,700.47
1764763512.977979,-499.32,-1836.855,-27249.435,-7280.82,-18446.76,-26228.385,-5784.255,701.73
1764763512.977979,-495.18,-1833.75,-27246.69,-7277.67,-18443.025,-26224.56,-5781.33,705.6
1764763512.977979,-494.235,-1831.005,-27242.955,-7273.98,-18440.37,-26222.265,-5781.735,705.51
1764763512.977979,-492.57,-1825.065,-27235.125,-7267.05,-18438.21,-26221.905,-5781.285,705.87
1764763512.977979,-490.095,-1821.285,-27230.445,-7262.775,-18436.185,-26219.88,-5778.63,707.0849999999999
1764763512.977979,-494.19,-1827.045,-27236.385,-7266.15,-18435.555,-26218.26,-5776.92,705.3299999999999
1764763512.977979,-499.725,-1839.195,-27253.26,-7282.304999999999,-18444.06,-26223.03,-5779.665,703.0799999999999
1764763512.977979,-499.365,-1843.245,-27261.72,-7291.62,-18450.45,-26226.36,-5781.915,704.88
1764763512.977979,-500.895,-1843.245,-27260.37,-7289.415,-18449.91,-26226.99,-5782.365,703.17
1764763512.977979,-501.165,-1842.255,-27259.065,-7288.019999999999,-18449.19,-26227.215,-5783.04,702.27
1764763512.977979,-504.045,-1845.405,-27261.945,-7290.315,-18450.765,-26229.195,-5785.065,699.435
1764763512.977979,-502.245,-1842.93,-27257.58,-7285.905,-18447.93,-26227.62,-5784.525,699.48
1764763513.0247507,-499.32,-1837.35,-27250.83,-7279.74,-18444.195,-26225.145,-5782.545,702.0
1764763513.0247507,-497.205,-1833.345,-27246.87,-7275.42,-18443.925,-26224.155,-5781.465,703.53
1764763513.0247507,-494.505,-1830.645,-27244.71,-7273.08,-18442.395,-26223.12,-5780.655,704.97
1764763513.0247507,-495.99,-1833.795,-27248.67,-7277.175,-18443.655,-26223.435,-5780.565,703.845
1764763513.0247507,-501.255,-1841.085,-27258.705,-7286.264999999999,-18449.01,-26227.035,-5782.275,701.145
1764763513.0247507,-504.09,-1843.965,-27261.54,-7289.054999999999,-18452.43,-26231.445,-5784.615,697.5899999999999
1764763513.0247507,-502.155,-1840.995,-27257.805,-7285.545,-18451.53,-26231.445,-5784.344999999999,698.985
1764763513.0247507,-498.24,-1836.09,-27252.225,-7281.179999999999,-18448.74,-26228.205,-5781.51,703.035
1764763513.0247507,-501.03,-1836.945,-27251.37,-7282.53,-18451.62,-26231.625,-5783.264999999999,700.245
1764763513.0247507,-499.365,-1833.975,-27247.41,-7278.884999999999,-18449.415,-26230.68,-5782.365,701.685
1764763513.0247507,-494.865,-1829.07,-27242.505,-7272.63,-18443.79,-26225.595,-5779.17,705.555
1764763513.0247507,-498.96,-1834.065,-27247.635,-7277.894999999999,-18447.165,-26228.34,-5781.33,701.4599999999999
1764763513.0247507,-502.515,-1840.455,-27256.05,-7284.465,-18450.81,-26230.14,-5782.275,700.425
1764763513.0257614,-504.045,-1844.73,-27262.125,-7289.37,-18451.305,-26228.7,-5781.825,701.91
1764763513.0257614,-505.26,-1844.82,-27261.27,-7288.785,-18452.115,-26230.815,-5782.59,698.9399999999999
1764763513.0257614,-499.455,-1836.99,-27252.765,-7281.269999999999,-18447.03,-26225.415,-5779.035,704.115
1764763513.0257614,-501.66,-1839.195,-27255.69,-7283.565,-18449.19,-26226.63,-5780.52,702.3149999999999
1764763513.0257614,-507.24,-1845.315,-27261.585,-7289.505,-18453.78,-26231.4,-5784.705,696.1949999999999
1764763513.0257614,-507.555,-1844.415,-27260.055,-7288.335,-18454.05,-26232.975,-5785.469999999999,695.0699999999999
1764763513.0257614,-502.38,-1837.665,-27252.495,-7281.495,-18448.155,-26228.475,-5782.139999999999,699.435
1764763513.0257614,-496.215,-1830.69,-27244.17,-7273.17,-18441.63,-26223.615,-5779.575,704.025
1764763513.0257614,-500.13,-1834.155,-27247.86,-7277.4,-18446.76,-26228.07,-5783.13,699.255
1764763513.0257614,-502.965,-1837.665,-27252.405,-7281.675,-18450.405,-26230.365,-5784.12,697.995
1764763513.0257614,-507.915,-1844.865,-27260.955,-7289.415,-18455.49,-26234.145,-5786.639999999999,695.385
1764763513.071163,-511.605,-1849.455,-27266.22,-7295.13,-18459.045,-26236.08,-5788.665,693.405
1764763513.071163,-509.67,-1847.295,-27263.79,-7294.005,-18458.01,-26235.495,-5787.855,694.5749999999999
1764763513.071163,-508.725,-1845.63,-27261.945,-7293.014999999999,-18458.685,-26236.395,-5787.495,694.4399999999999
1764763513.071163,-506.97,-1843.83,-27260.415,-7291.575,-18457.245,-26234.775,-5786.82,696.285
1764763513.071163,-503.415,-1839.015,-27254.835,-7285.724999999999,-18452.25,-26230.365,-5784.165,699.8399999999999
1764763513.071163,-503.505,-1838.655,-27254.52,-7284.96,-18451.89,-26230.905,-5782.815,698.5799999999999
1764763513.071163,-502.065,-1838.295,-27253.845,-7282.98,-18449.19,-26227.26,-5781.24,700.38
1764763513.071163,-506.295,-1840.77,-27255.375,-7281.179999999999,-18446.535,-26224.695,-5781.014999999999,697.905
1764763513.071163,-504.945,-1840.005,-27258.12,-7285.995,-18452.565,-26230.275,-5784.12,697.8149999999999
1764763513.071163,-504.99,-1841.94,-27261.9,-7292.745,-18459.945,-26236.62,-5785.38,696.9599999999999
1764763513.071163,-505.35,-1840.86,-27259.47,-7289.955,-18456.435,-26233.515,-5783.264999999999,697.14
1764763513.071163,-504.54,-1839.24,-27254.835,-7283.835,-18449.82,-26227.665,-5779.755,699.12
1764763513.071163,-506.475,-1841.715,-27258.12,-7286.715,-18452.745,-26229.51,-5781.195,696.42
1764763513.071163,-508.68,-1845.63,-27263.16,-7291.08,-18455.265,-26231.265,-5783.219999999999,695.2049999999999
1764763513.071163,-505.89,-1844.73,-27262.755,-7291.44,-18456.075,-26232.12,-5781.42,698.355
1764763513.071163,-498.915,-1833.48,-27250.515,-7282.485,-18452.655,-26231.49,-5781.24,700.515
1764763513.071163,-492.3,-1824.255,-27239.22,-7271.144999999999,-18444.375,-26224.875,-5776.469999999999,706.095
1764763513.071163,-494.865,-1825.11,-27238.005,-7269.929999999999,-18444.195,-26225.37,-5775.974999999999,704.6999999999999
1764763513.071163,-497.25,-1830.015,-27244.17,-7274.295,-18445.545,-26225.055,-5776.29,703.395
1764763513.071163,-501.39,-1837.935,-27256.23,-7284.42,-18449.64,-26225.37,-5776.965,701.865
1764763513.071163,-508.365,-1847.475,-27268.695,-7295.759999999999,-18458.055,-26231.895,-5780.969999999999,696.24
1764763513.071163,-507.105,-1846.53,-27266.94,-7295.264999999999,-18458.595,-26232.93,-5781.69,697.05
1764763513.0728884,-502.425,-1840.545,-27259.425,-7288.92,-18453.33,-26229.06,-5779.575,700.6949999999999
1764763513.0728884,-501.705,-1838.43,-27256.14,-7286.085,-18451.755,-26228.655,-5778.315,701.235
1764763513.120227,-504.09,-1840.905,-27257.94,-7287.57,-18454.05,-26230.77,-5779.08,698.355
1764763513.120227,-501.75,-1837.62,-27254.88,-7285.455,-18452.925,-26230.5,-5777.955,700.56
1764763513.120227,-494.595,-1829.475,-27246.195,-7278.75,-18448.65,-26226.72,-5775.344999999999,706.41
1764763513.120227,-494.37,-1828.395,-27243.36,-7275.644999999999,-18447.48,-26225.685,-5775.3,705.1949999999999
1764763513.120736,-496.08,-1829.925,-27244.755,-7276.05,-18447.345,-26226.09,-5775.165,703.035
1764763513.120736,-498.69,-1832.085,-27245.745,-7276.41,-18447.705,-26228.385,-5775.795,700.245
1764763513.120736,-504.81,-1839.465,-27252.945,-7282.53,-18449.73,-26229.33,-5776.92,697.365
1764763513.120736,-508.815,-1846.215,-27261.405,-7289.594999999999,-18453.375,-26231.76,-5778.855,695.655
1764763513.120736,-505.98,-1845.63,-27264.015,-7293.42,-18459.09,-26236.62,-5781.825,696.375
1764763513.120736,-504.18,-1843.245,-27261.675,-7292.429999999999,-18459.585,-26236.755,-5781.33,697.8149999999999
1764763513.120736,-504.54,-1842.345,-27260.235,-7290.45,-18457.245,-26234.73,-5780.429999999999,697.41
1764763513.120736,-501.03,-1839.33,-27257.31,-7286.49,-18454.32,-26231.805,-5778.585,699.93
1764763513.120736,-498.465,-1837.17,-27254.88,-7284.195,-18451.62,-26229.015,-5776.605,702.63
1764763513.120736,-499.77,-1838.115,-27254.88,-7285.32,-18452.565,-26230.545,-5776.74,702.27
1764763513.1219292,-500.13,-1839.195,-27255.735,-7285.995,-18454.5,-26231.265,-5777.415,702.135
1764763513.1219292,-498.735,-1837.395,-27254.52,-7284.87,-18453.87,-26231.04,-5776.065,703.035
1764763513.1219292,-503.415,-1840.68,-27258.12,-7289.144999999999,-18458.055,-26235.99,-5779.08,698.175
1764763513.1219292,-505.845,-1842.885,-27260.19,-7290.63,-18459.99,-26237.97,-5781.24,695.8349999999999
1764763513.1219292,-506.205,-1843.29,-27261.0,-7291.394999999999,-18460.215,-26238.015,-5781.69,696.1949999999999
1764763513.1219292,-503.82,-1840.59,-27258.3,-7288.83,-18457.74,-26236.44,-5779.62,697.86
1764763513.165619,-503.235,-1839.78,-27257.13,-7287.974999999999,-18457.83,-26236.035,-5779.755,697.68
1764763513.165619,-499.05,-1835.37,-27252.72,-7283.745,-18453.87,-26231.715,-5776.965,701.91
1764763513.165619,-497.97,-1833.705,-27251.865,-7281.9,-18452.34,-26230.095,-5774.895,702.81
1764763513.165619,-499.14,-1836.18,-27253.89,-7282.98,-18453.105,-26230.725,-5776.155,701.64
1764763513.165619,-498.735,-1834.92,-27252.225,-7281.9,-18452.565,-26231.49,-5777.145,700.8299999999999
1764763513.165619,-496.35,-1830.915,-27246.105,-7276.905,-18449.325,-26229.69,-5775.255,702.36
1764763513.167156,-495.315,-1829.34,-27244.305,-7275.15,-18448.11,-26228.7,-5773.995,703.53
1764763513.167156,-492.21,-1824.03,-27237.645,-7269.57,-18445.095,-26226.27,-5771.969999999999,706.635
1764763513.167156,-491.805,-1822.32,-27235.89,-7268.894999999999,-18446.445,-26227.755,-5771.969999999999,706.3199999999999
1764763513.167156,-498.6,-1832.625,-27248.985,-7280.144999999999,-18452.25,-26232.48,-5775.12,701.055
1764763513.167156,-504.27,-1842.84,-27261.18,-7290.315,-18456.75,-26233.65,-5778.585,697.77
1764763513.167156,-508.59,-1848.105,-27268.29,-7296.48,-18461.385,-26236.89,-5779.844999999999,694.035
1764763513.167156,-504.9,-1844.55,-27263.97,-7292.745,-18458.775,-26233.425,-5777.19,697.545
1764763513.167156,-506.34,-1844.28,-27261.45,-7291.44,-18460.98,-26236.71,-5779.665,695.2049999999999
1764763513.167156,-502.515,-1838.025,-27255.24,-7285.41,-18458.415,-26236.395,-5778.0,697.68
1764763513.167156,-501.12,-1837.575,-27255.87,-7285.679999999999,-18458.64,-26235.495,-5777.37,699.48
1764763513.167156,-501.615,-1840.23,-27257.805,-7287.165,-18457.335,-26232.75,-5776.74,700.8299999999999
1764763513.167156,-498.24,-1833.39,-27248.355,-7278.795,-18451.62,-26229.375,-5774.264999999999,702.63
1764763513.167156,-493.605,-1826.865,-27241.245,-7272.764999999999,-18449.73,-26229.645,-5773.545,704.655
1764763513.167156,-496.665,-1832.31,-27248.625,-7278.66,-18453.105,-26231.22,-5774.219999999999,702.72
1764763513.167156,-503.28,-1841.49,-27258.75,-7286.264999999999,-18456.03,-26233.245,-5775.795,696.915
1764763513.167156,-500.4,-1838.52,-27256.23,-7283.88,-18453.105,-26229.825,-5773.77,700.605
1764763513.167156,-504.585,-1844.055,-27263.34,-7290.63,-18457.92,-26233.155,-5776.245,698.9399999999999
1764763513.167156,-510.345,-1851.795,-27271.845,-7297.65,-18463.365,-26237.07,-5778.945,694.665
1764763513.167156,-508.095,-1848.87,-27268.965,-7294.094999999999,-18459.99,-26234.1,-5777.55,697.5899999999999
1764763513.167156,-508.5,-1847.655,-27265.905,-7293.375,-18461.25,-26236.17,-5778.855,696.15
1764763513.216645,-504.72,-1842.255,-27259.74,-7288.965,-18459.0,-26234.865,-5777.73,697.86
1764763513.216645,-503.235,-1839.78,-27256.68,-7286.13,-18457.47,-26232.975,-5775.615,699.0749999999999
1764763513.216645,-505.845,-1840.905,-27255.78,-7284.24,-18456.03,-26233.02,-5775.929999999999,697.095
1764763513.216645,-507.6,-1844.46,-27260.37,-7290.179999999999,-18461.745,-26238.285,-5779.17,694.98
1764763513.216645,-507.51,-1845.945,-27264.33,-7292.835,-18464.22,-26238.78,-5779.935,695.16
1764763513.216645,-504.81,-1842.795,-27261.585,-7289.775,-18460.935,-26235.09,-5776.83,698.22
1764763513.216645,-503.685,-1841.76,-27260.19,-7289.19,-18461.07,-26235.09,-5776.065,699.03
1764763513.216645,-504.09,-1842.255,-27260.055,-7290.405,-18462.24,-26236.755,-5777.73,697.725
1764763513.216645,-505.395,-1843.74,-27261.945,-7292.25,-18463.815,-26238.195,-5778.99,697.275
1764763513.216645,-510.84,-1848.24,-27266.175,-7297.155,-18469.395,-26243.145,-5782.905,692.9549999999999
1764763513.216645,-510.255,-1847.205,-27265.275,-7295.355,-18468.0,-26242.38,-5782.32,692.8199999999999
1764763513.216645,-508.23,-1846.08,-27263.925,-7292.925,-18466.245,-26241.795,-5781.735,693.765
1764763513.216645,-504.495,-1842.345,-27259.92,-7289.415,-18461.88,-26238.78,-5778.764999999999,697.095
1764763513.216645,-507.375,-1843.83,-27262.44,-7291.755,-18465.48,-26241.615,-5779.71,694.4399999999999
1764763513.216645,-505.215,-1841.355,-27259.47,-7290.45,-18465.165,-26241.48,-5780.115,694.7099999999999
1764763513.216645,-499.23,-1834.605,-27250.92,-7282.71,-18458.01,-26235.72,-5776.02,700.47
1764763513.216645,-497.475,-1831.725,-27247.095,-7278.795,-18455.355,-26234.28,-5774.219999999999,701.055
1764763513.216645,-498.195,-1831.725,-27247.815,-7278.075,-18454.14,-26233.92,-5773.77,700.29
1764763513.216645,-504.855,-1840.635,-27257.355,-7287.165,-18460.305,-26237.745,-5776.02,696.105
1764763513.216645,-502.92,-1840.14,-27257.085,-7287.344999999999,-18458.865,-26236.08,-5774.49,698.67
1764763513.216645,-501.525,-1838.97,-27256.05,-7287.255,-18461.07,-26237.385,-5773.41,699.8399999999999
1764763513.216645,-500.085,-1838.07,-27256.68,-7288.695,-18462.195,-26237.52,-5773.95,701.8199999999999
1764763513.216645,-502.29,-1841.445,-27259.74,-7291.575,-18463.095,-26239.185,-5774.58,700.47
1764763513.216645,-502.47,-1841.625,-27259.065,-7290.495,-18463.14,-26239.23,-5774.804999999999,699.0749999999999
1764763513.216645,-503.415,-1841.355,-27258.75,-7289.82,-18463.32,-26240.49,-5775.66,697.86
1764763513.216645,-502.83,-1839.33,-27256.005,-7286.804999999999,-18461.925,-26239.995,-5775.12,697.905
1764763513.262791,-497.115,-1832.355,-27248.94,-7280.415,-18456.345,-26235.045,-5771.295,702.675
1764763513.262791,-500.085,-1835.595,-27252.495,-7283.925,-18459.54,-26238.465,-5772.645,699.435
1764763513.262791,-502.38,-1838.295,-27255.33,-7286.58,-18462.015,-26239.455,-5773.905,697.635
1764763513.262791,-502.29,-1839.015,-27256.365,-7287.75,-18463.32,-26239.23,-5774.13,697.68
1764763513.262791,-502.515,-1839.555,-27256.905,-7287.884999999999,-18461.43,-26238.015,-5773.77,698.895
1764763513.262791,-497.07,-1832.985,-27248.58,-7279.335,-18454.455,-26232.93,-5769.63,703.4399999999999
1764763513.262791,-498.33,-1833.12,-27248.355,-7280.144999999999,-18456.975,-26236.665,-5770.575,701.37
1764763513.262791,-494.505,-1829.115,-27244.575,-7277.219999999999,-18454.005,-26233.47,-5768.594999999999,704.97
1764763513.262791,-499.005,-1834.695,-27251.145,-7282.844999999999,-18457.785,-26235.63,-5770.08,701.91
1764763513.262791,-506.655,-1845.09,-27261.99,-7290.719999999999,-18460.485,-26235.27,-5770.53,697.905
1764763513.262791,-512.55,-1851.615,-27268.29,-7294.23,-18461.745,-26234.955,-5771.565,693.9449999999999
1764763513.262791,-510.21,-1852.965,-27273.42,-7301.835,-18471.015,-26244.36,-5776.38,693.765
1764763513.262791,-499.14,-1840.545,-27261.45,-7295.355,-18469.8,-26245.53,-5777.594999999999,698.985
1764763513.2637966,-499.32,-1838.79,-27257.85,-7291.755,-18467.145,-26242.83,-5774.67,699.885
1764763513.2637966,-500.355,-1838.835,-27257.22,-7290.719999999999,-18465.03,-26241.525,-5773.23,700.29
1764763513.2637966,-500.265,-1838.88,-27257.355,-7289.505,-18462.555,-26238.78,-5772.33,702.045
1764763513.2637966,-499.635,-1839.42,-27258.03,-7288.74,-18459.99,-26236.215,-5771.07,702.495
1764763513.2637966,-503.37,-1841.49,-27259.155,-7289.91,-18461.97,-26238.33,-5773.094999999999,698.985
1764763513.2637966,-501.93,-1839.15,-27255.915,-7287.389999999999,-18461.88,-26238.195,-5773.635,698.9399999999999
1764763513.2637966,-497.52,-1833.66,-27250.245,-7282.575,-18458.235,-26234.145,-5770.349999999999,702.63
1764763513.3072836,-492.255,-1828.26,-27243.495,-7276.41,-18454.005,-26230.095,-5767.92,706.995
1764763513.3072836,-493.695,-1831.005,-27246.69,-7278.795,-18455.13,-26230.365,-5769.315,705.51
1764763513.3072836,-500.355,-1840.77,-27256.14,-7286.715,-18459.45,-26234.01,-5771.969999999999,701.4599999999999
1764763513.3072836,-499.23,-1839.69,-27255.51,-7285.59,-18456.93,-26231.76,-5770.575,702.99
1764763513.3072836,-499.725,-1839.285,-27256.32,-7287.075,-18458.55,-26233.11,-5771.295,702.9449999999999
1764763513.3072836,-502.02,-1841.49,-27259.245,-7289.955,-18461.295,-26236.35,-5773.185,700.1999999999999
1764763513.3072836,-506.97,-1846.395,-27265.275,-7295.58,-18466.155,-26240.445,-5776.605,695.25
1764763513.3072836,-505.215,-1844.415,-27263.475,-7293.96,-18464.13,-26237.43,-5776.29,698.4
1764763513.3072836,-503.955,-1841.94,-27260.01,-7290.495,-18461.475,-26236.755,-5775.705,698.49
1764763513.3072836,-502.245,-1840.32,-27257.67,-7287.795,-18459.045,-26235.135,-5773.815,698.355
1764763513.3072836,-502.605,-1840.005,-27257.265,-7286.759999999999,-18458.055,-26233.515,-5773.724999999999,697.905
1764763513.3072836,-507.87,-1845.81,-27262.62,-7292.384999999999,-18462.87,-26237.97,-5777.235,693.045
1764763513.3072836,-509.22,-1847.07,-27264.375,-7294.139999999999,-18463.905,-26239.365,-5777.73,691.92
1764763513.3072836,-509.58,-1847.295,-27265.815,-7295.309999999999,-18464.085,-26238.87,-5778.405,692.4599999999999
1764763513.3072836,-506.115,-1843.425,-27262.755,-7291.98,-18462.285,-26236.8,-5777.82,695.52
1764763513.3072836,-504.72,-1840.68,-27259.605,-7289.28,-18460.71,-26235.9,-5777.37,696.06
1764763513.3082838,-504.855,-1840.77,-27259.695,-7289.28,-18460.575,-26235.495,-5776.965,696.06
1764763513.3082838,-503.955,-1840.59,-27259.605,-7289.55,-18459.63,-26234.64,-5775.165,697.185
1764763513.3082838,-506.79,-1844.28,-27263.205,-7292.745,-18461.925,-26237.115,-5776.155,694.53
1764763513.3082838,-508.995,-1847.745,-27267.885,-7296.75,-18464.715,-26238.87,-5777.235,693.0899999999999
1764763513.3082838,-504.54,-1841.805,-27263.025,-7291.215,-18460.17,-26234.505,-5774.31,697.68
1764763513.3082838,-503.37,-1840.725,-27260.82,-7289.639999999999,-18459.45,-26234.28,-5774.49,697.635
1764763513.3560152,-505.485,-1842.39,-27261.765,-7290.405,-18461.43,-26235.945,-5775.84,695.6999999999999
1764763513.3560152,-507.87,-1844.595,-27264.645,-7292.79,-18464.625,-26238.24,-5777.235,693.63
1764763513.3560152,-503.73,-1840.455,-27260.55,-7288.695,-18460.935,-26233.965,-5774.355,697.275
1764763513.3560152,-505.08,-1841.22,-27261.09,-7289.82,-18461.34,-26235.27,-5774.94,697.005
1764763513.3560152,-510.48,-1846.485,-27265.86,-7293.96,-18465.165,-26239.59,-5777.28,692.145
1764763513.3570404,-511.155,-1848.015,-27267.12,-7294.995,-18466.335,-26239.905,-5778.405,690.0749999999999
1764763513.3570404,-512.64,-1848.87,-27267.255,-7294.815,-18465.255,-26238.33,-5777.82,689.67
1764763513.3570404,-508.815,-1845.0,-27264.465,-7292.655,-18464.76,-26239.185,-5776.965,692.91
1764763513.3570404,-501.435,-1839.735,-27261.63,-7291.53,-18464.805,-26238.465,-5775.795,698.4
1764763513.3570404,-503.775,-1841.805,-27261.63,-7290.315,-18463.23,-26236.53,-5775.795,695.88
1764763513.3570404,-503.505,-1841.67,-27259.38,-7288.019999999999,-18459.99,-26233.92,-5773.995,696.78
1764763513.3570404,-502.56,-1839.96,-27257.58,-7286.04,-18458.595,-26232.21,-5772.87,698.355
1764763513.3570404,-504.405,-1841.355,-27258.885,-7287.615,-18460.35,-26234.73,-5773.23,696.9599999999999
1764763513.3570404,-505.89,-1842.525,-27260.37,-7288.74,-18461.79,-26237.43,-5773.275,695.295
1764763513.3570404,-503.865,-1840.455,-27259.065,-7288.425,-18461.79,-26236.98,-5773.094999999999,697.635
1764763513.3580532,-505.845,-1842.975,-27262.125,-7292.205,-18466.245,-26240.715,-5774.895,694.62
1764763513.3580532,-505.665,-1843.11,-27260.505,-7289.82,-18464.355,-26239.185,-5774.219999999999,695.3399999999999
1764763513.3580532,-498.465,-1834.65,-27251.865,-7281.269999999999,-18456.795,-26232.39,-5768.865,701.235
1764763513.3580532,-498.015,-1832.445,-27248.895,-7278.255,-18455.04,-26231.985,-5768.594999999999,701.595
1764763513.3580532,-501.57,-1834.47,-27249.345,-7278.795,-18456.66,-26235.18,-5771.7,697.185
1764763513.3580532,-499.545,-1833.03,-27248.22,-7279.019999999999,-18457.155,-26235.945,-5771.025,697.995
1764763513.3580532,-501.615,-1836.18,-27252.855,-7284.465,-18461.88,-26238.51,-5772.69,696.24
1764763513.359049,-504.27,-1840.05,-27258.3,-7289.054999999999,-18465.795,-26240.94,-5774.175,694.53
1764763513.359049,-503.37,-1840.32,-27259.605,-7289.82,-18464.715,-26239.14,-5773.635,696.1949999999999
1764763513.4009347,-506.835,-1844.37,-27264.465,-7294.905,-18469.305,-26242.695,-5776.02,693.81
1764763513.4009347,-510.165,-1847.88,-27268.245,-7298.684999999999,-18473.895,-26246.79,-5777.865,691.11
1764763513.4009347,-507.195,-1843.155,-27263.16,-7293.554999999999,-18469.71,-26242.65,-5776.514999999999,694.035
1764763513.4009347,-505.62,-1841.715,-27261.18,-7291.575,-18467.73,-26240.805,-5774.849999999999,695.385
1764763513.4009347,-503.505,-1838.655,-27257.895,-7288.83,-18465.795,-26239.68,-5772.33,697.4549999999999
1764763513.4009347,-507.105,-1842.255,-27262.08,-7292.429999999999,-18468.765,-26243.55,-5774.31,694.26
1764763513.4009347,-505.44,-1841.355,-27260.235,-7291.08,-18466.155,-26241.345,-5772.87,695.52
1764763513.4009347,-500.49,-1837.935,-27256.32,-7287.03,-18462.33,-26237.655,-5770.395,699.7049999999999
1764763513.4009347,-501.165,-1839.24,-27257.58,-7287.48,-18462.825,-26237.97,-5770.035,698.9399999999999
1764763513.4009347,-502.875,-1839.105,-27256.815,-7287.075,-18464.94,-26241.255,-5771.385,697.005
1764763513.4009347,-499.455,-1832.67,-27248.94,-7280.865,-18461.565,-26239.455,-5770.17,699.7049999999999
1764763513.4009347,-501.255,-1834.2,-27250.83,-7283.61,-18465.48,-26242.02,-5770.844999999999,696.735
1764763513.4023004,-503.415,-1838.205,-27254.97,-7288.245,-18468.495,-26243.64,-5771.34,695.97
1764763513.4023004,-504.45,-1841.895,-27261.18,-7293.105,-18470.43,-26244.09,-5771.7,697.185
1764763513.4023004,-506.655,-1847.34,-27269.595,-7300.17,-18473.445,-26244.405,-5772.375,697.4549999999999
1764763513.4023004,-511.47,-1850.85,-27272.7,-7302.24,-18477.045,-26248.185,-5775.84,692.235
1764763513.4023004,-510.615,-1847.115,-27267.795,-7298.28,-18476.145,-26248.545,-5776.155,691.6949999999999
1764763513.4023004,-508.635,-1843.74,-27261.765,-7292.61,-18472.32,-26245.845,-5774.49,693.5849999999999
1764763513.4023004,-509.355,-1842.66,-27258.39,-7288.38,-18468.855,-26243.28,-5773.95,692.91
1764763513.4023004,-505.395,-1840.185,-27258.525,-7289.91,-18471.33,-26244.765,-5774.04,695.61
1764763513.4023004,-502.335,-1840.05,-27260.64,-7291.304999999999,-18470.655,-26243.64,-5772.78,698.9399999999999
1764763513.4023004,-503.91,-1841.445,-27261.315,-7291.889999999999,-18470.34,-26243.955,-5773.23,697.275
1764763513.4023004,-505.98,-1843.065,-27262.89,-7294.23,-18472.995,-26246.52,-5775.57,694.98
1764763513.4023004,-508.005,-1844.235,-27264.195,-7295.175,-18474.21,-26248.05,-5776.245,692.685
1764763513.4528155,-504.765,-1840.455,-27259.38,-7290.54,-18469.26,-26243.82,-5774.4,695.16
1764763513.4528155,-508.59,-1843.65,-27263.025,-7294.59,-18472.86,-26247.195,-5777.325,691.245
1764763513.4528155,-507.51,-1841.805,-27260.64,-7292.969999999999,-18472.365,-26246.7,-5777.325,692.01
1764763513.4528155,-508.545,-1842.435,-27259.965,-7292.835,-18472.95,-26247.69,-5777.145,691.11
1764763513.4528155,-507.6,-1842.795,-27260.505,-7292.925,-18470.205,-26244.99,-5776.2,694.035
1764763513.4528155,-510.12,-1846.8,-27266.31,-7297.38,-18472.14,-26245.89,-5776.74,691.6949999999999
1764763513.4528155,-514.4399999999999,-1852.29,-27272.79,-7304.04,-18478.215,-26250.84,-5779.17,688.185
1764763513.4528155,-513.855,-1852.29,-27273.195,-7304.759999999999,-18479.295,-26250.3,-5779.304999999999,689.0849999999999
1764763513.4528155,-513.855,-1850.94,-27272.34,-7304.264999999999,-18479.115,-26249.895,-5779.8,688.5
1764763513.4528155,-511.605,-1848.42,-27268.695,-7301.34,-18476.955,-26248.5,-5778.9,690.12
1764763513.4528155,-508.77,-1845.09,-27264.645,-7295.94,-18471.51,-26244.99,-5776.605,693.0899999999999
1764763513.4528155,-509.895,-1846.08,-27265.905,-7298.009999999999,-18472.77,-26245.53,-5777.775,691.47
1764763513.4528155,-510.705,-1846.62,-27265.905,-7299.315,-18474.435,-26246.97,-5778.63,690.66
1764763513.4528155,-510.39,-1846.845,-27265.77,-7299.269999999999,-18474.39,-26247.825,-5778.54,691.155
1764763513.4528155,-513.405,-1848.645,-27266.94,-7299.63,-18474.345,-26248.365,-5779.17,689.535
1764763513.4528155,-515.6999999999999,-1850.49,-27268.515,-7300.844999999999,-18476.46,-26249.805,-5779.98,687.1949999999999
1764763513.4528155,-513.63,-1848.78,-27267.255,-7301.34,-18477.27,-26249.805,-5780.52,687.87
1764763513.4528155,-513.765,-1849.68,-27268.425,-7300.755,-18475.65,-26249.94,-5781.15,687.42
1764763513.4528155,-511.38,-1847.43,-27266.4,-7297.38,-18471.6,-26246.16,-5779.215,689.0849999999999
1764763513.4528155,-510.075,-1846.395,-27265.455,-7296.344999999999,-18470.655,-26244.99,-5777.73,689.895
1764763513.4528155,-510.75,-1846.89,-27266.625,-7298.19,-18472.725,-26247.015,-5778.63,689.5799999999999
1764763513.4528155,-514.935,-1850.67,-27271.89,-7302.42,-18478.395,-26251.155,-5781.915,686.0699999999999
1764763513.4528155,-512.505,-1848.15,-27269.145,-7300.304999999999,-18476.1,-26248.05,-5779.53,689.13
1764763513.4528155,-512.415,-1848.6,-27268.47,-7300.844999999999,-18476.73,-26249.13,-5779.304999999999,689.175
1764763513.4528155,-514.035,-1849.23,-27269.82,-7302.014999999999,-18479.205,-26252.505,-5781.915,687.42
1764763513.4528155,-515.2049999999999,-1849.995,-27270.81,-7302.509999999999,-18479.565,-26253.225,-5781.78,685.035
1764763513.4990351,-510.795,-1845.27,-27264.87,-7297.065,-18473.67,-26248.95,-5778.855,688.545
1764763513.4990351,-510.705,-1843.92,-27262.62,-7294.545,-18471.735,-26248.68,-5778.224999999999,687.87
1764763513.4990351,-508.365,-1840.86,-27259.425,-7290.809999999999,-18469.665,-26246.7,-5776.695,689.49
1764763513.4990351,-503.505,-1836.72,-27255.645,-7287.344999999999,-18467.055,-26242.02,-5773.185,694.89
1764763513.4995618,-504.63,-1840.41,-27261.45,-7291.934999999999,-18468.675,-26241.93,-5772.78,695.43
1764763513.4995618,-507.195,-1844.73,-27267.03,-7297.605,-18472.095,-26244.405,-5774.625,693.0899999999999
1764763513.4995618,-508.14,-1842.75,-27263.655,-7293.735,-18470.025,-26243.19,-5773.679999999999,692.4599999999999
1764763513.4995618,-504.225,-1835.19,-27252.9,-7284.014999999999,-18463.635,-26240.265,-5771.34,694.935
1764763513.4995618,-496.665,-1826.91,-27245.025,-7280.19,-18464.04,-26241.84,-5770.215,699.165
1764763513.4995618,-500.13,-1829.565,-27247.365,-7283.519999999999,-18468.54,-26245.89,-5772.24,695.8349999999999
1764763513.4995618,-501.12,-1831.32,-27249.885,-7285.275,-18471.015,-26248.005,-5773.77,695.385
1764763513.4995618,-504.675,-1838.115,-27258.39,-7291.08,-18472.545,-26247.465,-5774.355,694.845
1764763513.4995618,-508.365,-1843.695,-27264.6,-7295.445,-18473.985,-26247.87,-5775.615,692.595
1764763513.4995618,-502.29,-1835.865,-27256.05,-7287.66,-18468.315,-26244.54,-5772.554999999999,696.6
1764763513.4995618,-499.95,-1834.2,-27255.24,-7285.41,-18464.985,-26240.31,-5769.764999999999,700.155
1764763513.4995618,-506.34,-1844.145,-27266.805,-7295.355,-18470.295,-26244.09,-5772.87,695.655
1764763513.4995618,-512.775,-1851.03,-27274.995,-7302.644999999999,-18476.82,-26249.625,-5776.875,690.165
1764763513.4995618,-511.785,-1849.725,-27272.295,-7300.575,-18476.415,-26249.445,-5776.335,690.93
1764763513.4995618,-509.76,-1846.53,-27269.19,-7297.65,-18475.02,-26248.635,-5775.389999999999,692.145
1764763513.4995618,-504.315,-1840.95,-27262.62,-7291.44,-18469.395,-26244.495,-5772.42,697.005
1764763513.4995618,-503.865,-1838.745,-27258.885,-7288.785,-18470.205,-26245.665,-5772.195,696.8249999999999
1764763513.4995618,-498.105,-1828.845,-27245.745,-7277.309999999999,-18465.435,-26243.19,-5770.215,699.03
1764763513.4995618,-492.705,-1821.015,-27235.53,-7268.445,-18459.18,-26238.465,-5766.615,702.63
1764763513.4995618,-488.7,-1817.595,-27232.47,-7265.835,-18455.805,-26234.46,-5762.34,707.31
1764763513.542735,-493.605,-1826.37,-27244.98,-7276.365,-18460.35,-26236.845,-5763.645,705.1949999999999
1764763513.542735,-504.99,-1843.02,-27264.51,-7292.429999999999,-18468.72,-26242.155,-5769.585,697.77
1764763513.542735,-508.77,-1847.88,-27270.855,-7297.335,-18473.175,-26246.25,-5772.554999999999,694.755
1764763513.542735,-506.025,-1845.36,-27268.605,-7295.309999999999,-18469.17,-26242.335,-5770.08,698.805
1764763513.542735,-508.68,-1845.495,-27267.795,-7294.455,-18470.88,-26245.755,-5772.51,694.845
1764763513.542735,-509.04,-1844.415,-27266.22,-7294.59,-18472.455,-26247.915,-5774.13,693.72
1764763513.542735,-512.145,-1851.03,-27273.78,-7301.34,-18475.695,-26249.805,-5776.83,691.425
1764763513.542735,-508.545,-1847.025,-27269.685,-7296.929999999999,-18471.915,-26246.745,-5774.849999999999,694.305
1764763513.542735,-508.86,-1845.9,-27266.895,-7295.13,-18472.59,-26248.365,-5775.21,692.595
1764763513.542735,-504.99,-1839.555,-27260.235,-7288.785,-18468.315,-26244.81,-5772.87,695.43
1764763513.542735,-501.84,-1834.74,-27254.205,-7283.565,-18464.67,-26241.345,-5770.935,698.4449999999999
1764763513.542735,-505.845,-1840.77,-27262.395,-7290.675,-18468.585,-26243.46,-5772.554999999999,695.475
1764763513.542735,-513.135,-1850.445,-27273.825,-7301.07,-18476.775,-26249.805,-5776.38,689.5799999999999
1764763513.542735,-508.545,-1844.235,-27265.185,-7293.915,-18472.95,-26247.42,-5773.77,693.135
1764763513.542735,-501.705,-1834.245,-27253.44,-7283.835,-18466.965,-26243.415,-5770.395,697.8149999999999
1764763513.542735,-498.825,-1827.135,-27243.135,-7275.644999999999,-18463.05,-26242.74,-5769.179999999999,698.31
1764763513.542735,-498.15,-1825.38,-27241.335,-7273.349999999999,-18461.565,-26242.2,-5769.63,699.03
1764763513.542735,-499.365,-1830.555,-27249.84,-7280.73,-18461.79,-26241.03,-5769.179999999999,700.155
1764763513.542735,-503.505,-1835.28,-27255.195,-7284.285,-18462.69,-26240.67,-5769.719999999999,697.545
1764763513.542735,-503.145,-1833.255,-27250.83,-7280.099999999999,-18462.285,-26240.94,-5769.27,696.87
1764763513.542735,-507.285,-1842.39,-27263.115,-7291.889999999999,-18468.72,-26243.595,-5771.7,696.105
1764763513.5437412,-520.245,-1863.675,-27290.565,-7314.929999999999,-18478.845,-26248.41,-5776.965,688.545
1764763513.589906,-524.745,-1866.69,-27292.905,-7317.179999999999,-18480.42,-26251.965,-5779.17,684.135
1764763513.589906,-518.9399999999999,-1856.925,-27279.72,-7305.615,-18475.965,-26250.345,-5778.585,685.7099999999999
1764763513.589906,-514.53,-1849.68,-27271.62,-7297.965,-18471.015,-26246.835,-5776.29,689.5799999999999
1764763513.589906,-509.445,-1843.875,-27266.49,-7292.61,-18466.065,-26241.885,-5772.96,694.5749999999999
1764763513.589906,-508.995,-1844.505,-27266.4,-7293.78,-18467.235,-26242.74,-5772.465,694.26
1764763513.589906,-512.3249999999999,-1849.59,-27271.395,-7299.269999999999,-18471.375,-26245.575,-5774.76,691.02
1764763513.589906,-512.55,-1849.275,-27272.925,-7300.304999999999,-18470.745,-26242.92,-5774.13,691.9649999999999
1764763513.589906,-509.985,-1845.405,-27269.19,-7295.985,-18467.775,-26240.85,-5772.465,693.4499999999999
1764763513.589906,-506.7,-1842.03,-27265.455,-7293.24,-18466.965,-26240.805,-5771.16,695.655
1764763513.589906,-509.895,-1846.08,-27269.46,-7297.514999999999,-18469.98,-26243.055,-5773.23,693.0899999999999
1764763513.589906,-515.745,-1852.74,-27277.38,-7303.724999999999,-18474.84,-26247.105,-5776.29,688.41
1764763513.589906,-512.73,-1849.905,-27274.14,-7301.474999999999,-18472.185,-26245.485,-5775.12,691.47
1764763513.589906,-510.75,-1846.845,-27271.125,-7300.035,-18472.095,-26245.845,-5774.355,692.55
1764763513.589906,-509.715,-1844.46,-27267.93,-7297.29,-18471.285,-26245.485,-5774.804999999999,691.3349999999999
1764763513.589906,-508.815,-1842.12,-27264.87,-7294.05,-18469.215,-26244.72,-5773.86,692.37
1764763513.589906,-509.355,-1843.155,-27264.87,-7294.815,-18470.205,-26246.475,-5773.455,691.1999999999999
1764763513.589906,-508.32,-1843.515,-27265.995,-7295.04,-18467.82,-26243.415,-5772.51,693.045
1764763513.589906,-510.39,-1845.315,-27268.2,-7295.759999999999,-18468.045,-26243.55,-5773.41,692.1899999999999
1764763513.589906,-510.165,-1844.28,-27267.525,-7295.355,-18470.79,-26244.99,-5774.625,691.9649999999999
1764763513.589906,-509.49,-1843.29,-27267.525,-7295.264999999999,-18472.14,-26246.385,-5774.895,691.425
1764763513.589906,-511.785,-1844.595,-27269.73,-7297.2,-18474.39,-26249.04,-5775.48,688.905
1764763513.590958,-512.91,-1845.99,-27270.945,-7298.639999999999,-18474.345,-26248.095,-5774.67,689.13
1764763513.6389506,-513.09,-1847.205,-27272.745,-7300.125,-18474.345,-26246.7,-5775.075,688.77
1764763513.6389506,-508.14,-1842.12,-27266.94,-7294.094999999999,-18469.17,-26243.595,-5772.06,692.4599999999999
1764763513.6389506,-509.4,-1843.47,-27268.605,-7296.165,-18471.555,-26245.53,-5773.005,692.73
1764763513.6389506,-508.455,-1842.705,-27268.11,-7295.49,-18470.25,-26243.415,-5771.429999999999,693.9
1764763513.6389506,-508.005,-1840.95,-27265.365,-7293.644999999999,-18470.745,-26243.325,-5771.205,693.54
1764763513.6399558,-506.34,-1837.98,-27262.44,-7290.0,-18468.045,-26241.525,-5769.27,695.385
1764763513.6399558,-507.24,-1841.13,-27266.85,-7294.365,-18469.98,-26242.2,-5769.27,694.2149999999999
1764763513.6399558,-513.0,-1848.465,-27275.67,-7301.61,-18475.56,-26247.51,-5772.554999999999,688.77
1764763513.6399558,-510.93,-1846.305,-27273.105,-7299.179999999999,-18473.94,-26246.655,-5771.25,690.66
1764763513.6399558,-506.745,-1841.175,-27266.22,-7293.554999999999,-18469.53,-26242.605,-5768.415,695.3399999999999
1764763513.6399558,-507.06,-1839.645,-27263.835,-7291.485,-18470.295,-26244.045,-5769.764999999999,694.62
1764763513.6399558,-503.505,-1832.67,-27255.78,-7284.554999999999,-18467.415,-26243.28,-5767.469999999999,696.645
1764763513.6399558,-500.535,-1826.28,-27247.86,-7277.849999999999,-18464.355,-26243.055,-5766.03,698.0849999999999
1764763513.6399558,-500.22,-1826.82,-27248.13,-7279.155,-18465.66,-26244.99,-5765.355,696.78
1764763513.6399558,-504.765,-1836.225,-27261.495,-7291.215,-18471.465,-26247.285,-5767.92,695.61
1764763513.6399558,-507.15,-1843.965,-27273.42,-7300.71,-18472.905,-26245.215,-5767.965,696.6
1764763513.6399558,-509.22,-1845.99,-27274.59,-7301.474999999999,-18474.165,-26246.205,-5769.09,695.0699999999999
1764763513.6399558,-510.795,-1845.81,-27271.62,-7299.495,-18473.85,-26247.195,-5770.755,692.37
1764763513.6399558,-510.255,-1842.39,-27266.94,-7295.219999999999,-18470.79,-26246.565,-5771.07,691.155
1764763513.6399558,-504.54,-1835.64,-27261.54,-7291.98,-18470.34,-26247.555,-5769.63,694.7099999999999
1764763513.6399558,-504.405,-1834.2,-27260.46,-7290.719999999999,-18471.015,-26248.905,-5769.09,693.855
1764763513.6399558,-503.91,-1834.335,-27261.45,-7290.09,-18470.205,-26246.34,-5767.785,695.61
1764763513.6399558,-511.965,-1846.44,-27276.39,-7303.5,-18478.395,-26252.28,-5772.33,690.2099999999999
1764763513.6399558,-510.885,-1846.395,-27276.345,-7303.275,-18477.18,-26249.22,-5772.06,691.605
1764763513.6830845,-510.57,-1843.875,-27271.89,-7299.99,-18476.775,-26250.66,-5772.554999999999,690.255
1764763513.6830845,-511.74,-1843.74,-27271.215,-7299.224999999999,-18478.395,-26253.315,-5773.815,687.78
1764763513.6830845,-508.365,-1840.77,-27268.29,-7295.355,-18475.155,-26250.075,-5771.7,691.605
1764763513.6830845,-511.965,-1843.065,-27271.44,-7299.405,-18478.62,-26253.54,-5774.355,688.68
1764763513.6830845,-514.53,-1846.305,-27274.725,-7303.094999999999,-18483.21,-26257.14,-5776.02,685.485
1764763513.6830845,-511.83,-1845.18,-27273.06,-7299.405,-18478.305,-26252.28,-5773.905,688.77
1764763513.6830845,-515.385,-1848.15,-27275.445,-7301.16,-18478.215,-26253.81,-5775.165,685.62
1764763513.6840944,-510.39,-1839.15,-27265.275,-7291.889999999999,-18470.43,-26248.005,-5771.79,690.885
1764763513.6840944,-507.15,-1835.1,-27260.19,-7286.49,-18468.09,-26245.98,-5770.575,691.47
1764763513.6846006,-508.995,-1837.935,-27263.385,-7289.19,-18469.62,-26246.52,-5770.44,689.7149999999999
1764763513.6846006,-511.695,-1843.515,-27271.08,-7296.795,-18472.995,-26247.015,-5770.665,690.03
1764763513.6846006,-517.59,-1852.38,-27283.005,-7308.315,-18482.22,-26253.045,-5773.905,685.4399999999999
1764763513.6846006,-515.16,-1849.23,-27281.565,-7306.965,-18482.085,-26252.64,-5774.4,688.05
1764763513.6846006,-513.9,-1847.205,-27278.82,-7305.705,-18481.815,-26253.225,-5775.66,688.185
1764763513.6855764,-513.3149999999999,-1846.575,-27277.605,-7304.94,-18481.905,-26254.035,-5775.165,687.87
1764763513.6855764,-515.655,-1848.24,-27278.505,-7305.525,-18482.715,-26255.295,-5775.929999999999,685.0799999999999
1764763513.6855764,-513.855,-1845.315,-27274.23,-7300.889999999999,-18477.99,-26251.83,-5774.219999999999,687.51
1764763513.6855764,-512.64,-1843.245,-27271.665,-7298.415,-18476.37,-26251.065,-5773.365,687.8249999999999
1764763513.6855764,-512.415,-1842.39,-27270.045,-7298.235,-18477.945,-26253.135,-5773.815,687.555
1764763513.6855764,-514.395,-1844.055,-27272.34,-7301.115,-18483.21,-26258.355,-5776.38,684.045
1764763513.6855764,-513.855,-1842.975,-27270.495,-7299.495,-18481.815,-26257.635,-5776.514999999999,684.405
1764763513.6855764,-514.125,-1844.055,-27271.845,-7299.09,-18479.61,-26254.755,-5775.165,684.855
1764763513.6855764,-511.605,-1842.57,-27271.305,-7296.525,-18474.57,-26249.22,-5771.429999999999,688.905
1764763513.6855764,-514.665,-1845.675,-27274.68,-7299.719999999999,-18477.405,-26251.74,-5773.23,685.53
1764763513.7281425,-511.605,-1843.515,-27272.79,-7297.155,-18474.57,-26248.77,-5770.395,688.275
1764763513.7281425,-508.905,-1842.93,-27272.97,-7296.84,-18473.49,-26246.7,-5768.639999999999,691.47
1764763513.7291694,-510.705,-1844.325,-27274.59,-7298.955,-18475.965,-26249.31,-5769.81,689.805
1764763513.7291694,-506.52,-1837.755,-27267.615,-7291.934999999999,-18470.205,-26244.405,-5766.389999999999,693.4499999999999
1764763513.7291694,-504.27,-1833.03,-27260.19,-7286.264999999999,-18467.595,-26243.73,-5764.455,694.26
1764763513.7291694,-495.99,-1821.645,-27245.835,-7273.44,-18458.73,-26235.765,-5758.514999999999,700.875
1764763513.7291694,-492.66,-1817.595,-27241.245,-7268.94,-18456.885,-26233.965,-5756.625,703.035
1764763513.7291694,-498.24,-1825.785,-27252.405,-7278.57,-18462.78,-26237.34,-5758.245,700.02
1764763513.7291694,-502.695,-1834.875,-27264.24,-7288.559999999999,-18466.65,-26237.115,-5759.145,699.255
1764763513.7291694,-508.635,-1842.795,-27272.115,-7297.29,-18472.68,-26242.11,-5763.78,694.485
1764763513.7291694,-512.37,-1845.405,-27274.995,-7300.08,-18475.245,-26246.52,-5766.705,690.5699999999999
1764763513.7291694,-512.685,-1844.82,-27274.14,-7298.28,-18474.525,-26247.42,-5767.514999999999,690.5699999999999
1764763513.7291694,-508.59,-1841.265,-27269.55,-7293.915,-18471.465,-26244.09,-5764.995,694.62
1764763513.7291694,-506.25,-1839.33,-27267.39,-7292.745,-18470.07,-26242.2,-5763.51,696.9599999999999
1764763513.7291694,-503.685,-1834.515,-27261.81,-7287.705,-18467.55,-26241.075,-5762.34,698.0849999999999
1764763513.7291694,-501.435,-1829.475,-27255.555,-7282.035,-18464.13,-26238.735,-5760.945,699.2099999999999
1764763513.7291694,-501.39,-1828.395,-27254.25,-7280.684999999999,-18464.85,-26239.77,-5760.9,697.995
1764763513.7291694,-496.08,-1823.49,-27248.895,-7275.87,-18458.91,-26233.965,-5756.895,703.17
1764763513.7301674,-499.545,-1830.42,-27257.355,-7282.125,-18460.575,-26233.02,-5756.445,701.9549999999999
1764763513.7301674,-504.54,-1837.575,-27265.275,-7288.559999999999,-18464.31,-26235.72,-5758.83,698.0849999999999
1764763513.7301674,-509.67,-1841.67,-27268.92,-7291.889999999999,-18468.405,-26240.355,-5762.115,693.27
1764763513.7301674,-510.12,-1841.58,-27268.695,-7292.969999999999,-18471.42,-26243.235,-5763.87,692.4599999999999
1764763513.7763226,-508.14,-1840.725,-27268.245,-7292.969999999999,-18471.195,-26242.38,-5762.79,694.7099999999999
1764763513.7763226,-505.845,-1838.43,-27266.22,-7291.44,-18469.89,-26241.345,-5761.62,696.78
1764763513.7763226,-503.145,-1835.595,-27263.34,-7289.325,-18469.08,-26240.625,-5760.63,698.76
1764763513.7763226,-503.82,-1836.54,-27264.915,-7290.945,-18470.07,-26240.58,-5760.764999999999,698.76
1764763513.7763226,-502.29,-1835.46,-27264.285,-7290.99,-18470.52,-26240.985,-5760.719999999999,699.66
1764763513.7763226,-501.66,-1834.02,-27261.54,-7289.28,-18470.475,-26241.21,-5760.315,699.5699999999999
1764763513.7763226,-502.47,-1833.345,-27260.19,-7287.974999999999,-18469.935,-26240.355,-5761.215,698.5799999999999
1764763513.7763226,-502.965,-1834.065,-27260.505,-7287.344999999999,-18468.54,-26239.185,-5761.53,698.895
1764763513.7763226,-503.37,-1834.695,-27260.775,-7287.12,-18468.765,-26239.905,-5760.36,699.03
1764763513.7763226,-505.89,-1837.215,-27263.295,-7290.855,-18473.175,-26243.595,-5762.655,696.105
1764763513.7763226,-504.045,-1837.125,-27264.15,-7290.719999999999,-18472.005,-26241.795,-5761.71,697.995
1764763513.7763226,-505.035,-1837.215,-27264.645,-7291.125,-18472.725,-26243.055,-5761.304999999999,696.015
1764763513.7763226,-505.215,-1835.955,-27263.88,-7290.405,-18472.455,-26242.425,-5761.485,696.06
1764763513.7763226,-504.765,-1836.99,-27264.78,-7291.349999999999,-18472.14,-26241.075,-5759.91,697.185
1764763513.7763226,-501.84,-1835.325,-27263.25,-7289.28,-18469.395,-26238.015,-5757.525,700.3349999999999
1764763513.7763226,-502.425,-1835.595,-27261.72,-7288.514999999999,-18468.99,-26237.565,-5757.03,700.47
1764763513.7763226,-499.14,-1831.68,-27257.445,-7284.195,-18464.445,-26233.2,-5754.645,703.98
1764763513.7763226,-502.65,-1835.145,-27261.09,-7286.58,-18467.01,-26236.665,-5758.335,699.435
1764763513.7763226,-504.63,-1835.955,-27262.215,-7288.965,-18469.44,-26239.005,-5758.965,697.86
1764763513.7773285,-505.665,-1836.09,-27263.475,-7291.71,-18473.04,-26242.65,-5759.955,697.14
1764763513.7773285,-500.76,-1831.545,-27258.39,-7287.57,-18469.755,-26239.545,-5758.02,701.28
1764763513.7773285,-498.645,-1828.395,-27255.105,-7285.05,-18468.945,-26239.275,-5757.705,702.495
1764763513.7773285,-496.215,-1823.805,-27249.885,-7279.514999999999,-18465.705,-26237.97,-5755.815,702.765
1764763513.7773285,-496.215,-1821.195,-27245.97,-7276.365,-18465.345,-26238.015,-5755.86,702.135
1764763513.823304,-493.83,-1818.315,-27242.235,-7274.07,-18464.13,-26236.845,-5755.455,702.72
1764763513.823304,-493.11,-1820.475,-27244.26,-7275.735,-18463.77,-26235.18,-5754.42,703.98
1764763513.823304,-495.495,-1825.65,-27251.865,-7280.144999999999,-18462.285,-26232.57,-5754.42,703.845
1764763513.823304,-502.83,-1834.965,-27263.16,-7289.46,-18467.505,-26236.665,-5758.605,698.5799999999999
1764763513.823304,-510.84,-1845.675,-27275.535,-7300.44,-18474.48,-26242.155,-5762.07,693.045
1764763513.823304,-510.165,-1845.675,-27274.455,-7298.505,-18471.105,-26238.915,-5761.215,693.63
1764763513.823304,-508.23,-1842.12,-27269.685,-7294.95,-18471.015,-26239.59,-5760.719999999999,693.9
1764763513.8243132,-504.495,-1837.71,-27266.355,-7294.184999999999,-18472.365,-26240.58,-5761.349999999999,696.78
1764763513.8243132,-504.135,-1837.98,-27268.605,-7297.83,-18476.91,-26243.73,-5762.745,697.5
1764763513.8243132,-503.37,-1836.765,-27266.67,-7296.705,-18477.27,-26243.055,-5762.25,698.85
1764763513.8243132,-499.995,-1832.67,-27261.585,-7292.07,-18474.345,-26240.445,-5759.594999999999,701.1
1764763513.824818,-497.07,-1829.43,-27257.04,-7286.715,-18470.025,-26237.79,-5756.67,703.305
1764763513.824818,-497.88,-1828.53,-27255.96,-7285.815,-18469.08,-26237.565,-5757.03,702.3149999999999
1764763513.824818,-502.785,-1832.67,-27260.325,-7289.91,-18474.165,-26243.1,-5761.71,696.42
1764763513.824818,-499.905,-1829.205,-27257.13,-7286.219999999999,-18470.745,-26240.13,-5759.19,699.75
1764763513.824818,-496.665,-1826.055,-27253.845,-7283.655,-18466.38,-26235.81,-5756.04,704.385
1764763513.824818,-496.305,-1825.065,-27253.08,-7282.755,-18465.21,-26235.765,-5755.23,704.61
1764763513.824818,-498.555,-1827.315,-27256.005,-7284.69,-18466.29,-26236.98,-5755.995,702.36
1764763513.824818,-496.215,-1827.405,-27255.915,-7283.655,-18462.555,-26232.66,-5753.34,705.51
1764763513.824818,-493.695,-1824.75,-27252.18,-7279.92,-18460.665,-26232.39,-5751.315,706.86
1764763513.824818,-493.02,-1823.355,-27251.505,-7279.469999999999,-18462.24,-26232.525,-5751.135,707.13
1764763513.8258345,-495.72,-1826.325,-27255.78,-7283.34,-18464.085,-26232.885,-5752.215,706.4549999999999
1764763513.8258345,-498.105,-1827.72,-27257.175,-7284.644999999999,-18465.345,-26235.405,-5754.15,704.25
1764763513.8258345,-501.525,-1830.645,-27259.83,-7287.03,-18468.405,-26237.7,-5755.995,701.37
1764763513.8689356,-498.6,-1828.98,-27258.705,-7284.78,-18465.39,-26234.37,-5753.745,704.745
1764763513.8689356,-500.49,-1832.04,-27263.25,-7288.65,-18466.92,-26236.08,-5754.33,703.305
1764763513.8705757,-504.45,-1835.64,-27266.175,-7291.71,-18470.745,-26240.13,-5757.525,698.0849999999999
1764763513.8705757,-504.0,-1834.155,-27264.735,-7289.82,-18469.26,-26238.78,-5757.255,698.4449999999999
1764763513.8705757,-501.615,-1831.14,-27260.325,-7286.67,-18466.875,-26237.385,-5756.67,700.0649999999999
1764763513.8705757,-499.23,-1827.855,-27256.68,-7283.79,-18465.075,-26235.18,-5754.69,701.91
1764763513.8705757,-497.16,-1826.505,-27255.51,-7281.99,-18462.78,-26232.795,-5752.98,703.935
1764763513.8705757,-491.265,-1819.53,-27246.78,-7274.07,-18456.255,-26227.305,-5748.974999999999,710.01
1764763513.8705757,-493.83,-1820.745,-27246.42,-7274.384999999999,-18458.64,-26230.365,-5752.304999999999,706.3199999999999
1764763513.8705757,-494.505,-1821.87,-27246.555,-7274.565,-18459.45,-26232.075,-5753.61,705.105
1764763513.8705757,-495.18,-1821.24,-27246.555,-7273.755,-18457.83,-26230.905,-5752.935,704.88
