Timestamp,Channel1,Channel2,Channel3,Channel4,Channel5,Channel6,Channel7,Channel8
1764762809.732901,-7999.92,-8998.154999999999,3778.155,-4170.33,-12291.615,-28265.625,-13367.88,-10583.37
1764762809.732901,-7995.69,-8993.34,3782.475,-4165.38,-12286.89,-28259.73,-13363.155,-10578.015
1764762809.732901,-7997.4,-8994.69,3781.44,-4166.415,-12288.375,-28260.765,-13364.325,-10579.455
1764762809.732901,-8002.575,-8999.91,3776.445,-4171.68,-12293.91,-28266.48,-13369.32,-10585.395
1764762809.732901,-8003.115,-9000.045,3775.68,-4171.95,-12294.63,-28266.885,-13368.285,-10585.485
1764762809.732901,-8004.96,-9002.07,3773.88,-4174.335,-12297.69,-28270.755,-13369.995,-10587.375
1764762809.732901,-8005.995,-9003.779999999999,3772.395,-4176.405,-12299.13,-28272.555,-13370.445,-10588.5
1764762809.732901,-8003.34,-9001.98,3774.96,-4174.2,-12296.475,-28271.07,-13371.795,-10585.845
1764762809.732901,-7997.804999999999,-8996.85,3780.675,-4168.53,-12290.49,-28265.67,-13370.58,-10579.95
1764762809.732901,-8002.44,-9001.44,3776.13,-4173.255,-12293.55,-28265.175,-13369.905,-10583.595
1764762809.732901,-7999.11,-8997.57,3779.415,-4169.925,-12290.445,-28262.295,-13365.045,-10579.905
1764762809.732901,-8000.73,-8999.234999999999,3777.66,-4172.49,-12292.875,-28265.715,-13367.52,-10582.155
1764762809.732901,-7997.58,-8995.77,3781.035,-4169.025,-12289.365,-28261.53,-13364.145,-10578.555
1764762809.732901,-8002.394999999999,-8999.64,3777.39,-4172.31,-12292.83,-28265.445,-13369.32,-10583.73
1764762809.732901,-8001.315,-8999.055,3778.065,-4171.59,-12291.705,-28265.265,-13369.5,-10582.875
1764762809.732901,-7998.929999999999,-8997.029999999999,3779.955,-4169.25,-12289.005,-28262.52,-13367.295,-10580.355
1764762809.732901,-8004.554999999999,-9002.88,3774.33,-4175.55,-12295.845,-28270.17,-13372.875,-10586.79
1764762809.732901,-8002.665,-9000.765,3775.5,-4174.38,-12295.035,-28268.37,-13371.255,-10584.18
1764762809.732901,-7996.41,-8993.699999999999,3781.935,-4168.485,-12288.69,-28262.61,-13365.18,-10577.925
1764762809.732901,-7997.085,-8995.095,3780.585,-4169.474999999999,-12289.365,-28263.87,-13366.71,-10578.33
1764762809.732901,-8002.394999999999,-9001.17,3775.275,-4174.965,-12294.855,-28268.505,-13371.345,-10584.54
1764762809.732901,-7998.344999999999,-8996.67,3780.855,-4168.305,-12289.545,-28262.7,-13366.35,-10582.11
1764762809.7789824,-7999.245,-8996.13,3781.485,-4167.405,-12288.465,-28262.025,-13365.765,-10583.64
1764762809.7794895,-8001.54,-8998.515,3778.38,-4170.645,-12291.345,-28264.86,-13368.06,-10585.035
1764762809.7794895,-8002.215,-8999.414999999999,3777.885,-4171.139999999999,-12292.065,-28265.49,-13369.32,-10585.395
1764762809.7794895,-8007.974999999999,-9005.175,3772.17,-4176.675,-12297.465,-28271.025,-13374.36,-10590.705
1764762809.7794895,-8007.57,-9004.77,3772.8,-4176.99,-12297.645,-28271.115,-13375.035,-10591.065
1764762809.7794895,-8005.634999999999,-9003.24,3774.105,-4176.045,-12297.15,-28269.945,-13374.09,-10589.04
1764762809.7794895,-8003.384999999999,-9001.17,3775.5,-4173.525,-12295.305,-28268.82,-13371.975,-10585.665
1764762809.7794895,-8000.009999999999,-8998.425,3778.785,-4170.87,-12292.29,-28265.805,-13366.98,-10581.525
1764762809.7794895,-8005.005,-9002.115,3775.185,-4173.795,-12296.115,-28269.63,-13372.2,-10586.61
1764762809.7794895,-8003.429999999999,-9000.63,3777.57,-4171.005,-12293.865,-28267.29,-13371.255,-10585.44
1764762809.7794895,-8000.865,-8998.335,3779.685,-4168.395,-12291.57,-28266.57,-13369.95,-10582.695
1764762809.7794895,-8003.969999999999,-9000.675,3776.31,-4171.77,-12294.36,-28270.89,-13374.855,-10586.61
1764762809.7794895,-8006.49,-9003.33,3774.285,-4174.74,-12296.745,-28273.365,-13376.25,-10588.77
1764762809.7794895,-8000.865,-8999.19,3778.515,-4170.69,-12291.66,-28267.02,-13368.555,-10582.605
1764762809.7794895,-8001.405,-8999.505,3777.615,-4170.645,-12292.155,-28265.04,-13367.565,-10582.605
1764762809.7794895,-8007.75,-9005.4,3772.035,-4176.45,-12297.915,-28269.765,-13372.74,-10588.365
1764762809.7794895,-8006.13,-9004.59,3772.71,-4176.495,-12296.79,-28268.73,-13372.29,-10587.825
1764762809.7794895,-8005.995,-9003.555,3773.745,-4175.055,-12295.395,-28268.1,-13372.47,-10588.23
1764762809.7794895,-8005.365,-9002.115,3775.32,-4172.4,-12293.685,-28268.055,-13370.22,-10586.475
1764762809.7794895,-8000.37,-8997.705,3779.46,-4168.215,-12290.22,-28265.49,-13366.35,-10582.47
1764762809.7794895,-7999.424999999999,-8995.77,3780.54,-4167.27,-12289.185,-28263.78,-13364.1,-10581.21
1764762809.7794895,-8001.945,-8998.74,3778.38,-4169.88,-12292.065,-28263.645,-13361.895,-10582.56
1764762809.7794895,-7999.424999999999,-8996.67,3781.575,-4167.72,-12289.5,-28261.44,-13366.665,-10580.49
1764762809.7794895,-7998.48,-8996.625,3781.215,-4167.945,-12289.005,-28260.315,-13365.63,-10580.22
1764762809.8251095,-8001.63,-8999.46,3778.02,-4170.645,-12292.92,-28265.715,-13365.99,-10582.245
1764762809.8251095,-8003.429999999999,-9000.765,3776.715,-4171.815,-12295.62,-28268.235,-13368.015,-10583.55
1764762809.8251095,-8006.67,-9004.725,3773.205,-4175.865,-12299.13,-28271.295,-13370.715,-10586.88
1764762809.8251095,-8000.594999999999,-8999.46,3779.145,-4168.98,-12291.345,-28262.61,-13367.52,-10582.245
1764762809.8251095,-7999.38,-8998.425,3780.045,-4167.855,-12288.6,-28259.01,-13365.945,-10581.165
1764762809.8251095,-8002.215,-9000.539999999999,3777.615,-4170.465,-12292.65,-28263.33,-13368.195,-10583.28
1764762809.825633,-7998.434999999999,-8995.859999999999,3781.98,-4166.55,-12288.24,-28259.55,-13364.19,-10578.33
1764762809.825633,-7998.615,-8996.445,3780.945,-4167.855,-12289.14,-28260.495,-13365.315,-10578.42
1764762809.8721273,-7999.514999999999,-8997.255,3780.72,-4168.62,-12289.815,-28261.845,-13366.305,-10579.455
1764762809.8721273,-8001.674999999999,-8999.73,3777.885,-4170.599999999999,-12292.155,-28263.87,-13368.33,-10581.75
1764762809.8721273,-8005.634999999999,-9003.24,3774.195,-4174.65,-12296.16,-28268.055,-13370.76,-10585.98
1764762809.8721273,-8000.37,-8998.244999999999,3779.91,-4169.295,-12291.57,-28263.105,-13366.35,-10580.94
1764762809.8721273,-7998.57,-8996.67,3781.035,-4168.08,-12290.31,-28262.07,-13364.505,-10579.455
1764762809.8721273,-7996.815,-8994.734999999999,3782.79,-4165.74,-12288.375,-28260.405,-13364.415,-10578.015
1764762809.8721273,-8000.505,-8999.64,3778.155,-4169.655,-12292.065,-28263.555,-13367.745,-10581.525
1764762809.8721273,-7999.019999999999,-8998.065,3779.46,-4167.99,-12290.58,-28262.16,-13366.125,-10579.05
1764762809.8721273,-7994.34,-8992.664999999999,3784.23,-4163.4,-12285.18,-28257.57,-13362.345,-10574.82
1764762809.8721273,-7998.03,-8995.68,3781.485,-4165.83,-12287.43,-28259.55,-13365.18,-10579.14
1764762809.8721273,-8000.775,-8998.109999999999,3779.595,-4168.305,-12290.445,-28262.34,-13366.35,-10580.355
1764762809.8721273,-8004.554999999999,-9001.125,3776.4,-4172.22,-12294.585,-28266.705,-13369.77,-10583.235
1764762809.8721273,-8008.065,-9005.715,3771.63,-4176.54,-12298.32,-28271.385,-13374.99,-10588.815
1764762809.8721273,-8008.29,-9006.119999999999,3771.18,-4176.945,-12298.905,-28271.07,-13375.98,-10589.175
1764762809.873137,-8009.009999999999,-9006.074999999999,3770.82,-4176.855,-12299.535,-28271.07,-13374.72,-10588.635
1764762809.873137,-8008.785,-9006.029999999999,3770.91,-4176.09,-12299.94,-28271.34,-13373.955,-10588.005
1764762809.873137,-8008.469999999999,-9005.67,3771.27,-4175.37,-12299.49,-28271.52,-13375.215,-10588.455
1764762809.873137,-8007.12,-9003.555,3773.16,-4174.56,-12299.49,-28272.78,-13374.945,-10587.42
1764762809.873137,-8001.179999999999,-8997.705,3778.515,-4169.79,-12294.945,-28269.54,-13369.32,-10581.48
1764762809.873137,-8002.62,-9000.0,3777.255,-4171.545,-12297.195,-28272.915,-13371.795,-10583.415
1764762809.873137,-8004.195,-9000.99,3776.805,-4171.41,-12295.62,-28269.225,-13371.84,-10584.225
1764762809.873137,-8008.38,-9005.355,3772.395,-4174.83,-12296.565,-28266.975,-13373.64,-10588.23
1764762809.873137,-8009.594999999999,-9006.255,3770.73,-4175.91,-12297.915,-28269.18,-13374.855,-10589.49
1764762809.873137,-8005.005,-9001.755,3775.185,-4170.645,-12290.58,-28260.045,-13368.555,-10585.08
1764762809.873137,-8004.33,-9001.215,3775.095,-4170.465,-12290.895,-28260.27,-13366.53,-10583.145
1764762809.873137,-8003.115,-9000.404999999999,3776.625,-4169.745,-12290.49,-28261.575,-13369.59,-10581.03
1764762809.873137,-8004.69,-9002.34,3775.545,-4171.77,-12293.415,-28266.165,-13377.24,-10584.495
1764762809.873137,-8001.855,-8999.414999999999,3778.065,-4169.025,-12290.445,-28262.385,-13371.48,-10582.2
1764762809.873137,-8000.594999999999,-8998.605,3778.83,-4168.305,-12289.905,-28261.305,-13368.645,-10579.68
1764762809.873137,-8002.125,-9000.765,3776.85,-4169.474999999999,-12291.93,-28262.925,-13371.12,-10580.22
1764762809.873137,-8003.565,-9002.34,3775.545,-4170.825,-12293.37,-28265.31,-13371.795,-10582.695
1764762809.873137,-8004.375,-9002.025,3776.535,-4170.33,-12293.1,-28265.715,-13373.055,-10585.665
1764762809.873137,-8009.099999999999,-9005.94,3772.17,-4174.695,-12298.365,-28272.51,-13378.905,-10591.11
1764762809.873137,-8006.759999999999,-9004.59,3773.835,-4172.76,-12296.385,-28270.395,-13376.43,-10587.915
1764762809.873137,-8002.665,-9000.63,3777.21,-4169.474999999999,-12291.12,-28262.835,-13369.005,-10582.065
1764762809.873137,-8007.434999999999,-9005.715,3772.17,-4174.74,-12295.215,-28268.01,-13374.135,-10585.89
1764762809.873137,-8007.344999999999,-9006.029999999999,3771.99,-4175.235,-12296.43,-28271.205,-13375.62,-10587.015
1764762809.873137,-8003.16,-9001.17,3776.175,-4171.095,-12293.01,-28266.165,-13370.13,-10581.57
1764762809.918518,-8005.32,-9003.195,3773.52,-4173.21,-12294.63,-28268.235,-13372.2,-10583.46
1764762809.918518,-8007.48,-9005.175,3771.72,-4175.415,-12296.115,-28269.72,-13374.945,-10586.205
1764762809.918518,-8006.849999999999,-9004.275,3773.07,-4174.965,-12296.115,-28270.215,-13374.72,-10585.845
1764762809.918518,-8011.259999999999,-9008.595,3768.885,-4178.88,-12299.985,-28274.04,-13379.625,-10590.705
1764762809.9190226,-8012.519999999999,-9010.755,3766.32,-4181.805,-12302.37,-28275.255,-13378.68,-10592.145
1764762809.9190226,-8012.025,-9010.305,3766.14,-4181.22,-12301.695,-28273.275,-13376.97,-10590.93
1764762809.9190226,-8009.144999999999,-9007.2,3769.83,-4177.395,-12298.725,-28271.25,-13373.505,-10587.915
1764762809.9190226,-8005.23,-9003.465,3773.52,-4174.965,-12295.665,-28268.415,-13369.185,-10584.045
1764762809.9190226,-8008.469999999999,-9006.93,3769.47,-4179.599999999999,-12299.94,-28272.195,-13368.645,-10586.565
1764762809.9190226,-8006.04,-9004.59,3771.18,-4177.98,-12298.095,-28270.935,-13365.9,-10584.18
1764762809.9190226,-8001.179999999999,-8999.955,3775.32,-4172.895,-12292.65,-28264.545,-13360.905,-10578.645
1764762809.9190226,-7997.309999999999,-8996.13,3779.28,-4167.855,-12287.925,-28262.295,-13368.6,-10577.61
1764762809.9190226,-7999.11,-8997.255,3777.57,-4169.79,-12291.255,-28267.155,-13371.615,-10579.77
1764762809.9190226,-7996.995,-8995.68,3779.19,-4168.575,-12289.725,-28265.22,-13368.69,-10577.295
1764762809.9190226,-7998.255,-8996.13,3778.155,-4170.06,-12289.905,-28265.805,-13369.275,-10578.285
1764762809.9190226,-8003.61,-9000.539999999999,3772.44,-4175.099999999999,-12294.675,-28270.89,-13372.83,-10583.37
1764762809.9190226,-8004.285,-9001.035,3772.8,-4175.595,-12295.17,-28269.54,-13372.74,-10585.485
1764762809.9190226,-8001.495,-8998.289999999999,3776.13,-4172.31,-12291.615,-28264.59,-13369.005,-10581.795
1764762809.9200575,-8007.03,-9003.645,3770.505,-4176.945,-12296.97,-28271.25,-13374.72,-10586.565
1764762809.9200575,-8005.455,-9002.565,3771.225,-4175.955,-12295.26,-28269.81,-13374.765,-10585.035
1764762809.9200575,-8004.465,-9001.98,3771.99,-4175.91,-12295.08,-28269.18,-13373.28,-10584.585
1764762809.9200575,-8010.179999999999,-9007.83,3766.32,-4181.76,-12300.48,-28273.365,-13377.285,-10589.715
1764762809.9200575,-8009.28,-9006.57,3767.49,-4181.58,-12300.345,-28272.78,-13372.83,-10587.735
1764762809.9200575,-8009.684999999999,-9006.705,3767.535,-4181.4,-12299.445,-28271.88,-13372.74,-10588.095
1764762809.920575,-8006.355,-9004.185,3770.82,-4178.565,-12296.745,-28272.015,-13378.455,-10586.61
1764762809.920575,-8004.915,-9003.105,3772.17,-4177.395,-12294.99,-28270.98,-13377.645,-10584.495
1764762809.9665062,-8003.34,-9001.664999999999,3773.16,-4176.18,-12293.595,-28269.495,-13373.37,-10582.695
1764762809.9665062,-8008.785,-9004.994999999999,3769.155,-4181.715,-12299.265,-28274.94,-13377.015,-10588.455
1764762809.9665062,-8006.355,-9002.789999999999,3770.955,-4179.42,-12297.6,-28272.33,-13374.99,-10586.565
1764762809.9665062,-8003.07,-8999.955,3774.105,-4175.099999999999,-12294.09,-28268.145,-13371.39,-10581.93
1764762809.9665062,-7999.74,-8996.31,3777.57,-4171.815,-12292.065,-28266.795,-13368.375,-10579.275
1764762809.9665062,-8002.889999999999,-9000.045,3773.97,-4175.01,-12295.8,-28270.44,-13372.335,-10582.38
1764762809.9665062,-8006.804999999999,-9003.914999999999,3770.28,-4178.43,-12298.32,-28273.59,-13374.945,-10586.34
1764762809.9665062,-8004.465,-9001.529999999999,3772.53,-4175.955,-12295.035,-28269.09,-13372.38,-10584.54
1764762809.9665062,-8003.07,-9000.045,3774.285,-4175.01,-12292.29,-28264.41,-13370.49,-10582.605
1764762809.9665062,-8003.429999999999,-9000.585,3773.52,-4176.315,-12293.235,-28266.885,-13371.975,-10583.055
1764762809.9665062,-8008.155,-9005.49,3768.795,-4181.04,-12298.455,-28273.005,-13380.165,-10588.14
1764762809.9665062,-8008.065,-9005.4,3769.38,-4180.545,-12298.275,-28273.095,-13379.085,-10588.095
1764762809.9665062,-8003.025,-9000.18,3775.095,-4174.02,-12292.785,-28267.605,-13372.38,-10581.66
1764762809.9665062,-8006.219999999999,-9004.185,3771.63,-4177.305,-12296.295,-28269.45,-13372.74,-10583.28
1764762809.9665062,-8003.565,-9002.115,3773.7,-4177.035,-12294.27,-28268.82,-13371.345,-10581.615
1764762809.9665062,-8007.255,-9004.77,3770.55,-4179.42,-12296.79,-28271.115,-13375.395,-10586.565
1764762809.9665062,-8014.184999999999,-9010.98,3764.88,-4184.865,-12302.415,-28277.37,-13380.57,-10594.395
1764762809.9665062,-8014.905,-9011.115,3764.43,-4185.495,-12301.74,-28277.325,-13381.83,-10594.08
1764762809.9665062,-8011.259999999999,-9008.145,3767.13,-4182.93,-12298.77,-28273.68,-13377.735,-10589.85
1764762809.9665062,-8006.49,-9003.645,3771.54,-4178.34,-12293.73,-28268.37,-13373.055,-10585.17
1764762809.9665062,-8006.174999999999,-9003.15,3772.305,-4178.025,-12295.08,-28270.395,-13374.765,-10585.845
1764762809.9665062,-8006.849999999999,-9004.095,3771.225,-4179.33,-12297.42,-28272.645,-13378.185,-10587.915
1764762809.9665062,-8012.835,-9009.945,3764.925,-4185.0,-12303.63,-28279.44,-13386.87,-10593.36
1764762809.9665062,-8011.215,-9008.46,3765.69,-4184.099999999999,-12302.415,-28278.405,-13386.42,-10591.335
1764762810.0162654,-8007.165,-9004.859999999999,3769.83,-4179.42,-12297.465,-28272.87,-13380.255,-10586.655
1764762810.0162654,-8011.304999999999,-9008.145,3767.805,-4181.625,-12299.58,-28274.31,-13383.045,-10591.02
1764762810.0162654,-8010.719999999999,-9007.695,3768.165,-4181.49,-12299.445,-28272.24,-13380.3,-10590.615
1764762810.0162654,-8008.605,-9005.67,3769.695,-4179.555,-12296.565,-28269.45,-13379.13,-10587.555
1764762810.0162654,-8011.304999999999,-9008.595,3767.085,-4182.615,-12299.58,-28274.13,-13383.72,-10591.425
1764762810.0162654,-8010.674999999999,-9007.74,3767.4,-4182.57,-12300.39,-28273.77,-13380.255,-10591.065
1764762810.0162654,-8010.63,-9008.325,3767.67,-4182.48,-12301.155,-28272.825,-13374.945,-10589.805
1764762810.0162654,-8011.98,-9009.09,3766.59,-4183.38,-12302.19,-28274.31,-13378.545,-10590.93
1764762810.0162654,-8011.394999999999,-9008.37,3767.085,-4183.47,-12300.84,-28273.455,-13377.06,-10590.48
1764762810.0162654,-8005.184999999999,-9002.025,3774.33,-4177.755,-12294.315,-28266.795,-13372.605,-10585.98
1764762810.0162654,-8003.07,-8999.414999999999,3776.76,-4174.56,-12291.885,-28264.995,-13371.795,-10584.54
1764762810.0162654,-8005.769999999999,-9002.88,3772.98,-4178.205,-12294.9,-28267.29,-13372.56,-10586.7
1764762810.0162654,-8006.985,-9004.32,3771.63,-4179.915,-12297.24,-28270.845,-13377.105,-10587.555
1764762810.0162654,-8006.535,-9004.365,3771.09,-4180.365,-12299.625,-28273.68,-13379.4,-10586.295
1764762810.0162654,-8009.73,-9006.885,3768.435,-4181.985,-12302.64,-28276.38,-13383.63,-10590.57
1764762810.0162654,-8006.355,-9002.699999999999,3772.62,-4177.98,-12299.85,-28276.47,-13385.205,-10587.915
1764762810.0162654,-8001.54,-8998.92,3776.31,-4174.875,-12294.495,-28270.62,-13376.655,-10583.19
1764762810.0162654,-8004.69,-9002.565,3773.295,-4177.889999999999,-12294.18,-28267.02,-13377.015,-10586.88
1764762810.0162654,-8000.684999999999,-8998.605,3777.705,-4173.93,-12290.04,-28262.52,-13373.37,-10582.29
1764762810.0162654,-8001.134999999999,-8998.56,3777.705,-4173.66,-12286.665,-28257.84,-13372.47,-10582.29
1764762810.0630178,-8001.405,-8999.279999999999,3776.445,-4173.84,-12287.565,-28257.525,-13371.3,-10582.38
1764762810.0630178,-8001.585,-8999.64,3775.32,-4175.055,-12290.13,-28261.485,-13373.73,-10582.335
1764762810.0630178,-8002.665,-9000.72,3774.51,-4176.045,-12292.38,-28264.545,-13375.98,-10583.19
1764762810.0630178,-8007.615,-9005.13,3770.91,-4179.96,-12295.845,-28268.145,-13378.905,-10586.88
1764762810.0630178,-8002.53,-8998.515,3777.39,-4172.175,-12288.735,-28261.53,-13372.515,-10583.37
1764762810.0630178,-8003.025,-8999.279999999999,3777.21,-4172.805,-12289.995,-28263.195,-13373.37,-10583.37
1764762810.0630178,-8001.405,-8998.65,3778.02,-4172.355,-12289.725,-28264.725,-13372.785,-10581.615
1764762810.0630178,-8002.349999999999,-8999.73,3775.95,-4174.02,-12292.11,-28267.245,-13375.08,-10582.65
1764762810.0630178,-8008.245,-9004.904999999999,3770.685,-4179.87,-12298.095,-28273.545,-13379.265,-10587.69
1764762810.0630178,-8002.53,-8998.695,3776.085,-4174.514999999999,-12292.2,-28268.37,-13373.19,-10582.155
1764762810.0630178,-8002.53,-8998.02,3776.58,-4174.47,-12290.715,-28267.02,-13371.885,-10581.795
1764762810.0630178,-8008.245,-9003.914999999999,3771.27,-4178.97,-12294.45,-28268.82,-13376.385,-10587.15
1764762810.0630178,-8007.705,-9002.835,3772.395,-4178.025,-12295.305,-28269.225,-13377.555,-10587.915
1764762810.0630178,-8002.53,-8998.154999999999,3777.12,-4173.255,-12290.895,-28263.915,-13372.965,-10582.92
1764762810.0630178,-8006.04,-9002.744999999999,3771.99,-4178.34,-12294.36,-28265.715,-13375.755,-10585.53
1764762810.0630178,-8002.17,-8999.324999999999,3776.4,-4174.245,-12289.86,-28261.62,-13372.2,-10580.4
1764762810.0630178,-8001.585,-8998.244999999999,3777.165,-4174.47,-12290.76,-28263.69,-13371.165,-10578.825
1764762810.0630178,-8002.485,-8997.84,3776.67,-4175.055,-12291.03,-28264.455,-13371.525,-10581.165
1764762810.0630178,-8007.12,-9001.529999999999,3772.26,-4178.745,-12294.855,-28268.19,-13375.395,-10586.565
1764762810.0630178,-8005.23,-9000.404999999999,3773.79,-4177.305,-12292.92,-28265.985,-13374.135,-10584.135
1764762810.0630178,-8001.045,-8995.994999999999,3778.245,-4173.03,-12287.835,-28261.35,-13369.815,-10579.68
1764762810.0630178,-8005.769999999999,-9000.09,3773.16,-4178.655,-12294.09,-28266.615,-13375.17,-10583.28
1764762810.0630178,-8001.495,-8996.805,3776.805,-4174.92,-12290.04,-28263.015,-13371.615,-10577.97
1764762810.0630178,-8001.809999999999,-8997.84,3776.22,-4175.37,-12290.805,-28264.77,-13371.615,-10579.635
1764762810.0630178,-8002.394999999999,-8998.83,3775.545,-4176.72,-12291.84,-28266.75,-13373.595,-10581.435
1764762810.0630178,-8006.985,-9002.654999999999,3771.765,-4181.895,-12297.195,-28272.465,-13380.48,-10584.99
1764762810.1106646,-8006.67,-9003.645,3770.01,-4183.92,-12298.86,-28274.715,-13380.795,-10582.605
1764762810.1106646,-8002.44,-8999.505,3773.025,-4179.42,-12294.675,-28269.18,-13374.405,-10577.475
1764762810.1106646,-8007.84,-9002.88,3769.965,-4181.985,-12296.97,-28271.205,-13377.69,-10584.63
1764762810.1106646,-8007.84,-9001.395,3771.765,-4180.635,-12295.53,-28269.405,-13377.51,-10586.88
1764762810.1106646,-8001.99,-8993.205,3780.585,-4171.724999999999,-12287.79,-28262.655,-13370.895,-10584.54
1764762810.1106646,-8003.115,-8995.32,3776.895,-4176.405,-12294.09,-28269.27,-13374.63,-10584.09
1764762810.1106646,-8005.32,-8999.505,3772.035,-4181.355,-12299.85,-28276.2,-13378.86,-10583.37
1764762810.1106646,-8005.455,-9000.0,3772.26,-4181.715,-12300.165,-28276.29,-13378.995,-10583.145
1764762810.1106646,-8008.83,-9002.34,3770.055,-4183.38,-12299.445,-28273.635,-13377.69,-10585.17
1764762810.1106646,-8013.78,-9006.39,3766.635,-4184.955,-12296.655,-28267.56,-13378.635,-10592.235
1764762810.1106646,-8009.28,-9002.654999999999,3770.145,-4181.4,-12294.9,-28267.38,-13375.35,-10587.42
1764762810.1106646,-8008.514999999999,-9000.315,3772.62,-4179.42,-12293.865,-28268.865,-13376.655,-10589.49
1764762810.1106646,-7999.469999999999,-8988.615,3784.095,-4168.62,-12285.315,-28262.115,-13373.595,-10581.84
1764762810.1106646,-7999.785,-8992.125,3780.54,-4172.849999999999,-12288.645,-28261.44,-13369.05,-10578.78
1764762810.1106646,-8002.889999999999,-8996.22,3775.77,-4177.08,-12291.75,-28263.105,-13372.425,-10581.93
1764762810.1106646,-8005.365,-8997.93,3774.645,-4178.34,-12291.615,-28265.04,-13375.665,-10584.18
1764762810.1116705,-8003.34,-8995.77,3776.85,-4176.27,-12290.175,-28264.005,-13373.235,-10582.65
1764762810.1116705,-8000.505,-8994.42,3777.885,-4175.055,-12290.715,-28264.14,-13370.13,-10580.265
1764762810.1116705,-7999.245,-8993.744999999999,3778.785,-4174.02,-12287.835,-28260.855,-13366.845,-10578.285
1764762810.1116705,-8005.634999999999,-8998.695,3773.97,-4178.43,-12289.68,-28262.97,-13374.09,-10584.36
1764762810.1116705,-8006.13,-8999.64,3772.53,-4180.23,-12295.395,-28270.44,-13377.06,-10585.215
1764762810.1116705,-8000.865,-8994.869999999999,3776.31,-4176.81,-12292.695,-28267.2,-13373.37,-10578.78
1764762810.1116705,-8004.33,-8997.164999999999,3773.61,-4179.78,-12297.24,-28273.005,-13380.255,-10583.37
1764762810.1116705,-8002.62,-8994.869999999999,3775.86,-4177.98,-12295.62,-28270.935,-13376.295,-10581.39
1764762810.1584558,-8005.634999999999,-8997.795,3772.89,-4179.06,-12294.99,-28270.395,-13375.89,-10583.19
1764762810.1584558,-8007.12,-8999.46,3771.81,-4180.95,-12298.41,-28275.84,-13379.355,-10583.37
1764762810.1584558,-8006.4,-8999.775,3770.955,-4182.21,-12297.645,-28272.465,-13378.14,-10581.885
1764762810.1584558,-8008.965,-9002.565,3767.67,-4186.17,-12300.885,-28268.865,-13377.915,-10584.09
1764762810.1584558,-8014.32,-9007.47,3762.495,-4189.995,-12304.305,-28268.415,-13380.795,-10590.615
1764762810.1584558,-8006.04,-8997.705,3773.88,-4178.79,-12294.045,-28263.78,-13376.475,-10585.89
1764762810.1584558,-8009.505,-9000.765,3770.955,-4180.59,-12291.705,-28263.96,-13377.015,-10588.545
1764762810.1584558,-8007.434999999999,-8998.965,3770.955,-4179.87,-12289.5,-28260.36,-13373.82,-10585.53
1764762810.1584558,-8012.474999999999,-9004.59,3766.23,-4185.9,-12297.33,-28269.18,-13380.84,-10589.445
1764762810.1584558,-8008.965,-9000.585,3770.955,-4181.31,-12293.595,-28265.04,-13377.285,-10586.7
1764762810.1584558,-8007.615,-8999.955,3771.765,-4180.995,-12293.55,-28265.265,-13376.43,-10587.15
1764762810.1584558,-8009.775,-9001.395,3769.155,-4184.37,-12297.51,-28267.245,-13379.04,-10587.105
1764762810.1584558,-8011.215,-9003.15,3766.905,-4186.71,-12300.57,-28269.765,-13381.065,-10587.51
1764762810.1584558,-8014.365,-9006.525,3763.71,-4189.68,-12304.305,-28275.12,-13384.215,-10590.3
1764762810.1584558,-8011.665,-9003.105,3767.58,-4185.764999999999,-12301.02,-28273.95,-13380.705,-10586.925
1764762810.1584558,-8013.014999999999,-9002.43,3768.345,-4184.82,-12299.445,-28275.12,-13381.695,-10589.445
1764762810.1584558,-8017.11,-9007.605,3762.945,-4189.995,-12304.62,-28280.07,-13385.115,-10594.17
1764762810.1584558,-8015.219999999999,-9006.029999999999,3764.16,-4189.5,-12303.495,-28277.055,-13383.045,-10593.45
1764762810.1584558,-8011.08,-9002.565,3767.49,-4186.485,-12300.21,-28272.915,-13377.825,-10587.915
1764762810.1584558,-8011.17,-9002.835,3767.4,-4186.44,-12299.445,-28272.555,-13379.175,-10587.69
1764762810.1584558,-8010.719999999999,-9002.565,3768.795,-4186.44,-12300.48,-28272.915,-13383.63,-10587.915
1764762810.1584558,-8015.04,-9005.355,3765.735,-4189.05,-12305.43,-28275.975,-13386.24,-10593.495
1764762810.2050543,-8020.844999999999,-9010.935,3760.29,-4194.18,-12310.83,-28280.925,-13390.155,-10598.265
1764762810.2050543,-8019.9,-9010.755,3761.19,-4193.145,-12307.32,-28278.675,-13387.545,-10596.69
1764762810.2050543,-8017.605,-9007.65,3764.295,-4189.77,-12300.75,-28275.075,-13383.18,-10593.855
1764762810.2050543,-8014.365,-9004.23,3766.23,-4188.195,-12298.68,-28271.52,-13378.23,-10589.31
1764762810.2050543,-8017.11,-9007.965,3762.72,-4192.11,-12304.08,-28275.48,-13379.67,-10591.515
1764762810.2050543,-8014.23,-9005.265,3766.23,-4188.825,-12300.84,-28273.995,-13382.19,-10589.355
1764762810.2050543,-8017.605,-9007.38,3764.07,-4191.389999999999,-12304.215,-28279.845,-13394.97,-10594.71
1764762810.2050543,-8017.514999999999,-9006.705,3764.16,-4191.255,-12304.26,-28279.17,-13392.405,-10594.89
1764762810.2050543,-8013.24,-9003.105,3767.445,-4187.16,-12300.57,-28273.86,-13385.565,-10589.49
1764762810.2050543,-8014.455,-9004.32,3765.645,-4188.014999999999,-12301.155,-28274.67,-13386.24,-10591.02
1764762810.2050543,-8014.32,-9004.275,3765.87,-4188.465,-12301.425,-28274.805,-13386.06,-10590.48
1764762810.2050543,-8014.905,-9005.715,3764.52,-4190.085,-12302.595,-28275.615,-13383.855,-10589.535
1764762810.2050543,-8016.12,-9007.065,3763.26,-4191.389999999999,-12305.07,-28279.485,-13386.015,-10591.965
1764762810.2050543,-8018.639999999999,-9009.45,3761.46,-4194.405,-12308.67,-28283.58,-13388.67,-10596.555
1764762810.20651,-8018.594999999999,-9009.315,3761.37,-4194.675,-12308.265,-28282.815,-13387.68,-10595.43
1764762810.20651,-8016.03,-9006.435,3763.17,-4191.615,-12303.405,-28275.975,-13384.845,-10592.01
1764762810.20651,-8010.585,-9000.9,3768.435,-4185.9,-12297.015,-28267.965,-13377.78,-10585.845
1764762810.20651,-8012.61,-9002.835,3766.905,-4187.88,-12299.625,-28272.6,-13381.47,-10588.77
1764762810.20651,-8013.69,-9003.24,3766.32,-4188.69,-12300.705,-28277.73,-13386.555,-10592.28
1764762810.20651,-8014.005,-9004.77,3764.385,-4190.715,-12303.855,-28281.555,-13389.255,-10593.36
1764762810.20651,-8014.365,-9004.949999999999,3763.935,-4191.255,-12305.025,-28281.87,-13388.58,-10592.01
1764762810.20651,-8013.915,-9004.095,3765.555,-4190.355,-12303.765,-28279.17,-13385.79,-10590.48
1764762810.20651,-8012.969999999999,-9004.455,3765.6,-4189.995,-12301.605,-28273.545,-13381.29,-10589.04
1764762810.20651,-8013.96,-9005.67,3762.855,-4191.93,-12305.34,-28277.865,-13382.145,-10589.265
1764762810.2521436,-8016.255,-9005.49,3762.63,-4192.065,-12306.285,-28280.745,-13384.89,-10592.37
1764762810.2521436,-8019.134999999999,-9006.705,3762.945,-4192.2,-12304.845,-28280.385,-13387.32,-10596.555
1764762810.2521436,-8015.04,-9003.779999999999,3765.69,-4188.465,-12298.32,-28271.88,-13383.855,-10591.56
1764762810.2526548,-8016.525,-9006.164999999999,3762.27,-4191.435,-12302.055,-28274.67,-13385.97,-10592.64
1764762810.2526548,-8011.215,-9001.484999999999,3766.455,-4187.07,-12299.22,-28271.745,-13380.795,-10587.51
1764762810.2526548,-8013.42,-9003.24,3765.33,-4189.005,-12302.37,-28274.67,-13382.865,-10589.265
1764762810.2526548,-8014.094999999999,-9003.33,3765.285,-4189.905,-12302.325,-28274.895,-13383.36,-10589.31
1764762810.2526548,-8015.715,-9006.119999999999,3762.945,-4191.705,-12304.62,-28277.64,-13386.69,-10592.055
1764762810.2526548,-8012.969999999999,-9003.824999999999,3764.655,-4189.185,-12302.37,-28275.435,-13384.71,-10588.815
1764762810.2526548,-8017.695,-9008.325,3760.245,-4194.855,-12307.32,-28280.88,-13388.805,-10592.82
1764762810.2526548,-8017.469999999999,-9007.29,3761.28,-4194.764999999999,-12307.14,-28281.69,-13389.93,-10593.585
1764762810.2526548,-8013.554999999999,-9001.755,3766.725,-4188.96,-12301.56,-28277.73,-13387.86,-10590.885
1764762810.2526548,-8016.389999999999,-9005.039999999999,3763.17,-4192.02,-12305.115,-28281.33,-13391.64,-10593.0
1764762810.2526548,-8014.139999999999,-9004.14,3764.565,-4190.76,-12306.24,-28282.365,-13389.165,-10590.48
1764762810.2526548,-8008.92,-8999.505,3769.47,-4186.215,-12302.37,-28277.325,-13380.12,-10584.54
1764762810.2526548,-8012.969999999999,-9003.33,3764.745,-4190.445,-12307.23,-28282.905,-13382.775,-10588.275
1764762810.2526548,-8016.255,-9005.805,3761.865,-4193.01,-12306.825,-28280.475,-13382.91,-10590.885
1764762810.2526548,-8020.799999999999,-9009.99,3757.455,-4196.115,-12308.985,-28280.655,-13385.835,-10595.565
1764762810.2526548,-8018.73,-9008.19,3761.235,-4192.92,-12306.915,-28280.115,-13387.86,-10595.34
1764762810.2526548,-8017.11,-9007.695,3762.405,-4192.56,-12303.135,-28272.465,-13383.495,-10593.27
1764762810.2526548,-8009.955,-9000.63,3769.47,-4185.09,-12296.925,-28268.865,-13384.08,-10586.43
1764762810.2526548,-8010.045,-9000.18,3769.38,-4184.639999999999,-12298.095,-28272.33,-13385.925,-10585.845
1764762810.2967818,-8013.465,-9003.195,3766.725,-4187.655,-12300.075,-28273.095,-13385.115,-10588.68
1764762810.2967818,-8017.065,-9007.245,3762.855,-4191.165,-12302.415,-28273.32,-13386.915,-10592.865
1764762810.2967818,-8011.215,-9001.8,3768.255,-4185.63,-12298.05,-28269.72,-13382.775,-10586.7
1764762810.2967818,-8015.58,-9005.4,3765.375,-4189.68,-12302.28,-28274.76,-13387.545,-10592.145
1764762810.2967818,-8014.139999999999,-9003.69,3767.22,-4188.735,-12301.47,-28273.23,-13385.025,-10589.31
1764762810.2967818,-8019.719999999999,-9008.685,3761.595,-4193.775,-12307.275,-28278.81,-13391.145,-10593.81
1764762810.2967818,-8016.525,-9005.984999999999,3764.7,-4190.895,-12305.34,-28278.405,-13391.505,-10590.75
1764762810.2967818,-8015.355,-9005.175,3766.68,-4189.139999999999,-12304.395,-28278.54,-13389.525,-10589.67
1764762810.2967818,-8014.5,-9004.59,3766.77,-4188.014999999999,-12304.215,-28277.19,-13384.665,-10586.79
1764762810.2967818,-8013.554999999999,-9004.095,3766.635,-4187.115,-12302.37,-28272.24,-13378.365,-10585.035
1764762810.2967818,-8016.525,-9006.93,3763.755,-4191.075,-12306.24,-28277.415,-13383.405,-10589.265
1764762810.2967818,-8019.585,-9008.82,3762.18,-4192.74,-12306.15,-28279.8,-13388.895,-10593.135
1764762810.2967818,-8018.28,-9009.045,3761.73,-4191.57,-12302.505,-28274.04,-13386.06,-10590.345
1764762810.2967818,-8020.755,-9010.305,3760.38,-4192.875,-12304.53,-28276.56,-13393.62,-10594.08
1764762810.2977958,-8017.2,-9004.095,3767.085,-4186.845,-12299.985,-28272.78,-13389.48,-10592.82
1764762810.2977958,-8011.08,-8998.92,3772.26,-4182.03,-12295.305,-28268.19,-13384.485,-10587.645
1764762810.2977958,-8011.394999999999,-9001.035,3769.695,-4184.19,-12296.79,-28269.585,-13384.665,-10586.61
1764762810.2977958,-8015.355,-9003.869999999999,3766.68,-4186.8,-12300.03,-28272.87,-13386.645,-10591.245
1764762810.2977958,-8008.875,-8996.984999999999,3772.845,-4181.625,-12294.495,-28267.695,-13379.715,-10585.71
1764762810.2977958,-8010.179999999999,-8999.055,3770.415,-4184.19,-12296.34,-28268.55,-13380.03,-10585.305
1764762810.2977958,-8008.74,-8996.85,3772.485,-4181.715,-12294.945,-28267.56,-13379.265,-10583.955
1764762810.2977958,-8010.36,-8998.92,3770.595,-4183.2,-12295.98,-28268.505,-13381.245,-10585.755
1764762810.2977958,-8006.04,-8995.095,3774.78,-4178.88,-12291.705,-28264.14,-13377.285,-10581.975
1764762810.2977958,-8011.665,-9000.855,3769.785,-4184.91,-12298.77,-28271.52,-13383.765,-10587.69
1764762810.3452358,-8012.924999999999,-9001.305,3768.615,-4187.025,-12301.515,-28275.345,-13385.385,-10588.815
1764762810.3452358,-8010.045,-8998.425,3771.045,-4183.65,-12298.185,-28273.05,-13382.505,-10585.215
1764762810.3452358,-8013.014999999999,-9000.9,3768.705,-4185.855,-12298.41,-28272.78,-13384.26,-10587.105
1764762810.3452358,-8013.644999999999,-9001.8,3768.12,-4185.99,-12295.62,-28266.75,-13381.38,-10587.33
1764762810.3452358,-8010.674999999999,-8998.605,3770.73,-4183.47,-12295.08,-28265.58,-13379.94,-10585.395
1764762810.3452358,-8007.389999999999,-8995.23,3774.33,-4180.815,-12294.585,-28264.14,-13377.015,-10582.11
1764762810.3452358,-8011.44,-8999.279999999999,3770.82,-4184.46,-12297.78,-28269.09,-13380.66,-10586.475
1764762810.3452358,-8006.355,-8994.33,3775.995,-4179.69,-12292.965,-28266.075,-13376.52,-10580.535
1764762810.3452358,-8004.42,-8992.89,3777.3,-4178.25,-12291.39,-28264.995,-13375.305,-10577.88
1764762810.3452358,-8008.785,-8997.164999999999,3774.105,-4182.165,-12294.99,-28269.09,-13379.985,-10582.515
1764762810.3452358,-8004.195,-8992.845,3778.605,-4177.575,-12288.645,-28261.44,-13373.82,-10578.015
1764762810.3452358,-8008.29,-8997.029999999999,3774.51,-4181.355,-12292.02,-28264.68,-13377.555,-10582.38
1764762810.3452358,-8007.884999999999,-8996.535,3775.095,-4181.49,-12293.865,-28268.685,-13378.59,-10581.615
1764762810.3452358,-8004.599999999999,-8993.07,3779.37,-4178.88,-12290.76,-28266.03,-13376.205,-10578.555
1764762810.3452358,-8008.335,-8997.435,3774.645,-4183.29,-12294.405,-28269.045,-13379.58,-10582.155
1764762810.3452358,-8009.73,-8998.785,3772.575,-4185.315,-12296.025,-28267.695,-13378.86,-10583.505
1764762810.3452358,-8011.485,-9000.449999999999,3770.37,-4186.62,-12297.195,-28268.325,-13378.23,-10585.395
1764762810.3452358,-8010.315,-8998.695,3771.81,-4185.045,-12295.665,-28267.56,-13376.745,-10585.08
1764762810.3452358,-8005.23,-8992.8,3777.39,-4179.105,-12289.725,-28261.845,-13372.2,-10579.095
1764762810.3452358,-8006.94,-8995.365,3775.455,-4181.13,-12291.705,-28262.565,-13372.47,-10580.67
1764762810.3452358,-8010.945,-8998.965,3772.26,-4185.045,-12295.89,-28268.1,-13380.57,-10584.495
1764762810.3452358,-8006.13,-8994.195,3777.12,-4180.455,-12291.93,-28265.625,-13381.065,-10581.03
1764762810.3452358,-8008.875,-8997.029999999999,3773.925,-4183.74,-12295.035,-28268.055,-13380.3,-10582.875
1764762810.3452358,-8005.905,-8994.69,3776.535,-4181.445,-12293.19,-28265.715,-13376.115,-10579.77
1764762810.3452358,-8008.92,-8998.02,3773.295,-4184.685,-12296.97,-28269.45,-13378.815,-10583.37
1764762810.3452358,-8005.365,-8994.69,3775.77,-4181.67,-12293.64,-28265.94,-13375.665,-10580.49
1764762810.3928545,-8004.42,-8994.105,3776.85,-4181.04,-12293.055,-28265.04,-13373.685,-10579.365
1764762810.3928545,-8004.105,-8994.465,3776.94,-4180.455,-12292.965,-28264.59,-13372.155,-10579.455
1764762810.3928545,-8004.69,-8995.005,3775.725,-4181.58,-12293.595,-28264.14,-13373.55,-10580.355
1764762810.3928545,-8007.75,-8997.75,3773.07,-4183.605,-12296.43,-28267.47,-13379.94,-10584.315
1764762810.3928545,-8007.389999999999,-8998.244999999999,3773.205,-4183.65,-12296.43,-28267.245,-13378.59,-10583.82
1764762810.3928545,-8005.32,-8995.725,3775.77,-4181.94,-12294.405,-28265.445,-13377.375,-10581.93
1764762810.3928545,-8002.125,-8993.25,3777.93,-4179.69,-12291.615,-28262.88,-13374.72,-10578.465
1764762810.3928545,-8002.71,-8994.645,3776.085,-4181.625,-12293.145,-28265.49,-13376.295,-10579.77
1764762810.3928545,-8007.705,-8998.695,3771.81,-4186.665,-12297.06,-28270.305,-13381.515,-10585.215
1764762810.3928545,-8004.465,-8995.005,3776.175,-4183.065,-12293.415,-28265.715,-13378.455,-10583.595
1764762810.3938646,-8006.94,-8997.39,3773.07,-4185.18,-12295.845,-28269.675,-13382.73,-10585.755
1764762810.3938646,-8004.33,-8994.6,3776.49,-4181.715,-12292.425,-28266.93,-13381.335,-10582.515
1764762810.3938646,-7999.875,-8990.369999999999,3780.315,-4177.98,-12289.095,-28263.105,-13374.585,-10577.43
1764762810.3938646,-8005.094999999999,-8996.085,3774.87,-4184.19,-12294.18,-28267.83,-13377.465,-10581.3
1764762810.3938646,-8003.7,-8994.824999999999,3776.355,-4183.38,-12292.785,-28265.535,-13375.395,-10580.355
1764762810.3938646,-8006.219999999999,-8997.615,3773.835,-4185.36,-12295.17,-28265.535,-13375.935,-10582.29
1764762810.3938646,-8009.325,-9000.539999999999,3769.92,-4189.59,-12299.265,-28269.54,-13380.3,-10585.755
1764762810.3938646,-8005.41,-8997.435,3772.89,-4186.755,-12295.755,-28267.02,-13377.24,-10581.57
1764762810.3938646,-8008.29,-8999.595,3770.685,-4189.005,-12298.455,-28269.585,-13378.005,-10584.315
1764762810.3938646,-8006.894999999999,-8998.109999999999,3771.945,-4188.105,-12297.96,-28268.595,-13376.295,-10582.92
1764762810.3938646,-8011.17,-9001.35,3768.39,-4191.165,-12301.2,-28271.34,-13377.825,-10585.8
1764762810.3938646,-8004.87,-8996.22,3773.7,-4184.865,-12294.72,-28264.815,-13371.435,-10579.275
1764762810.436721,-8000.28,-8992.17,3778.38,-4180.095,-12289.32,-28261.08,-13372.56,-10576.08
1764762810.436721,-8005.184999999999,-8995.545,3774.96,-4183.92,-12293.55,-28266.615,-13380.84,-10580.22
1764762810.436721,-8001.045,-8991.359999999999,3778.56,-4180.68,-12290.445,-28262.835,-13376.385,-10576.08
1764762810.436721,-8001.315,-8991.315,3778.605,-4180.365,-12289.365,-28261.08,-13374.18,-10577.295
1764762810.436721,-8003.745,-8992.8,3777.165,-4181.985,-12291.165,-28263.42,-13373.91,-10580.04
1764762810.436721,-8007.615,-8997.84,3772.17,-4186.71,-12296.61,-28268.64,-13376.61,-10582.56
1764762810.436721,-8002.844999999999,-8994.195,3775.095,-4184.37,-12296.16,-28267.56,-13371.57,-10577.115
1764762810.436721,-8001.495,-8993.25,3776.04,-4184.955,-12298.455,-28271.565,-13378.545,-10576.71
1764762810.436721,-8005.905,-8998.02,3771.585,-4188.645,-12302.595,-28275.525,-13382.28,-10582.47
1764762810.436721,-8002.394999999999,-8993.295,3777.48,-4182.345,-12294.315,-28267.38,-13376.295,-10579.23
1764762810.436721,-8002.799999999999,-8992.44,3778.605,-4179.555,-12288.285,-28260.585,-13373.415,-10578.195
1764762810.436721,-8005.59,-8995.275,3775.185,-4182.345,-12291.03,-28262.7,-13375.215,-10579.59
1764762810.436721,-8008.65,-8999.279999999999,3771.405,-4186.395,-12294.405,-28265.58,-13381.29,-10582.29
1764762810.436721,-8004.33,-8995.545,3775.095,-4182.525,-12288.42,-28257.975,-13377.15,-10578.645
1764762810.436721,-8004.465,-8995.32,3775.77,-4182.57,-12290.265,-28260.855,-13377.105,-10580.67
1764762810.436721,-8008.83,-8998.244999999999,3773.205,-4184.73,-12293.37,-28266.57,-13382.415,-10586.655
1764762810.436721,-8005.634999999999,-8994.465,3777.075,-4181.13,-12289.905,-28264.005,-13379.49,-10584.09
1764762810.436721,-8008.11,-8997.119999999999,3774.06,-4184.955,-12293.955,-28267.065,-13382.145,-10585.215
1764762810.436721,-8003.565,-8993.97,3776.67,-4182.525,-12291.705,-28264.095,-13374.9,-10579.14
1764762810.436721,-8002.755,-8993.925,3775.455,-4183.02,-12292.515,-28263.465,-13371.345,-10576.44
1764762810.436721,-7997.67,-8989.199999999999,3780.855,-4177.395,-12287.655,-28260.27,-13369.5,-10572.12
1764762810.436721,-7999.245,-8988.255,3783.24,-4176.045,-12285.855,-28258.965,-13370.85,-10576.8
1764762810.4839137,-8000.325,-8988.705,3782.205,-4176.495,-12286.62,-28258.74,-13370.535,-10577.475
1764762810.4839137,-8004.42,-8993.565,3777.075,-4181.04,-12290.715,-28260.63,-13374.45,-10580.13
1764762810.4839137,-8008.92,-8997.75,3773.205,-4185.99,-12294.585,-28264.995,-13378.68,-10585.62
1764762810.4839137,-8004.105,-8993.07,3777.795,-4180.815,-12289.59,-28262.34,-13375.44,-10581.3
1764762810.4839137,-8004.644999999999,-8994.105,3777.03,-4182.705,-12291.66,-28264.095,-13376.07,-10581.39
1764762810.4839137,-8004.87,-8994.105,3777.165,-4183.38,-12292.02,-28263.735,-13375.305,-10580.22
1764762810.4849205,-8004.69,-8992.98,3777.255,-4182.615,-12290.58,-28263.69,-13374.99,-10579.995
1764762810.4849205,-8003.745,-8991.404999999999,3778.695,-4181.04,-12288.915,-28262.295,-13375.035,-10578.195
1764762810.4849205,-8005.769999999999,-8994.42,3775.86,-4183.965,-12291.21,-28264.905,-13378.095,-10580.535
1764762810.4849205,-8014.275,-9003.195,3767.625,-4192.47,-12298.995,-28272.51,-13386.375,-10589.49
1764762810.4849205,-8015.58,-9003.645,3766.545,-4193.28,-12299.67,-28271.25,-13384.665,-10589.805
1764762810.4849205,-8011.125,-9000.404999999999,3769.65,-4188.915,-12295.44,-28266.435,-13379.22,-10585.26
1764762810.4849205,-8010.945,-9000.09,3770.235,-4188.24,-12296.25,-28268.865,-13380.48,-10586.25
1764762810.4849205,-8005.815,-8994.869999999999,3776.58,-4183.245,-12291.345,-28264.725,-13375.125,-10580.94
1764762810.485427,-8005.815,-8994.375,3776.445,-4184.19,-12292.02,-28264.815,-13372.335,-10580.4
1764762810.485427,-8007.255,-8995.77,3774.24,-4186.215,-12294.0,-28265.58,-13374.045,-10581.705
1764762810.485427,-8005.86,-8993.88,3775.5,-4184.505,-12292.92,-28265.715,-13378.455,-10580.805
1764762810.485427,-8005.86,-8993.88,3774.555,-4184.505,-12296.07,-28270.845,-13380.705,-10579.905
1764762810.485427,-8004.15,-8993.07,3775.32,-4184.865,-12296.16,-28270.89,-13375.665,-10578.6
1764762810.485427,-8008.605,-8997.435,3771.045,-4189.365,-12299.715,-28274.67,-13383.405,-10584.405
1764762810.485427,-8007.389999999999,-8994.779999999999,3774.555,-4185.405,-12294.09,-28267.2,-13381.11,-10584.27
1764762810.485427,-8012.7,-8999.505,3769.875,-4189.139999999999,-12292.11,-28262.07,-13383.36,-10590.39
1764762810.4859312,-8006.4,-8993.25,3775.86,-4184.055,-12289.14,-28261.35,-13383.045,-10582.92
1764762810.4859312,-8005.545,-8992.935,3775.455,-4184.145,-12290.535,-28263.105,-13378.95,-10579.86
1764762810.5295794,-8009.73,-8997.39,3772.035,-4188.33,-12294.855,-28267.245,-13380.525,-10583.19
1764762810.5295794,-8009.955,-8997.029999999999,3772.08,-4188.42,-12294.36,-28266.885,-13380.93,-10583.415
1764762810.5295794,-8007.12,-8994.42,3774.51,-4185.405,-12292.515,-28264.455,-13377.015,-10581.345
1764762810.5295794,-8007.705,-8995.005,3774.825,-4184.73,-12293.055,-28263.195,-13376.7,-10581.21
1764762810.5295794,-8002.394999999999,-8990.19,3779.775,-4180.139999999999,-12288.375,-28258.605,-13373.01,-10575.99
1764762810.5295794,-8004.465,-8991.315,3777.885,-4182.48,-12289.23,-28259.505,-13375.665,-10577.07
1764762810.5295794,-8004.33,-8990.414999999999,3778.56,-4181.895,-12289.68,-28260.54,-13377.24,-10576.305
1764762810.5295794,-8004.644999999999,-8991.18,3777.165,-4182.84,-12291.075,-28263.915,-13377.465,-10577.745
1764762810.5295794,-8010.09,-8996.715,3771.495,-4188.96,-12296.34,-28269.09,-13380.84,-10582.425
1764762810.5295794,-8011.035,-8997.75,3770.685,-4190.625,-12296.97,-28269.45,-13382.64,-10583.64
1764762810.5295794,-8009.415,-8995.725,3772.62,-4189.32,-12295.53,-28269.495,-13384.26,-10583.19
1764762810.5295794,-8005.5,-8991.945,3776.67,-4185.0,-12291.165,-28264.725,-13378.77,-10579.095
1764762810.5295794,-8006.67,-8993.295,3777.075,-4183.965,-12290.94,-28265.4,-13379.58,-10580.085
1764762810.5295794,-8010.99,-8996.895,3773.745,-4187.205,-12294.405,-28269.09,-13382.415,-10583.865
1764762810.5295794,-8007.165,-8993.789999999999,3775.77,-4184.55,-12292.065,-28266.255,-13379.04,-10579.005
1764762810.5295794,-8012.7,-8999.865,3769.605,-4191.255,-12297.96,-28271.52,-13384.26,-10583.28
1764762810.5295794,-8011.844999999999,-8998.244999999999,3771.315,-4189.365,-12295.395,-28269.54,-13383.495,-10582.56
1764762810.5295794,-8006.985,-8993.43,3776.76,-4184.145,-12289.455,-28265.805,-13379.31,-10578.87
1764762810.5295794,-8006.355,-8992.215,3778.56,-4181.805,-12288.015,-28263.735,-13377.33,-10579.995
1764762810.5295794,-8006.849999999999,-8993.295,3778.335,-4182.03,-12288.735,-28263.24,-13377.735,-10581.03
1764762810.5309684,-8010.54,-8997.119999999999,3774.51,-4187.205,-12294.09,-28267.335,-13381.02,-10583.595
1764762810.5322762,-8007.344999999999,-8993.789999999999,3777.66,-4184.055,-12291.075,-28263.06,-13378.05,-10580.04
1764762810.578877,-8007.929999999999,-8995.68,3775.995,-4185.585,-12292.74,-28266.12,-13379.355,-10580.895
1764762810.578877,-8003.205,-8990.82,3780.765,-4180.23,-12287.88,-28262.7,-13375.845,-10575.855
1764762810.578877,-8005.365,-8993.43,3778.38,-4182.255,-12290.22,-28264.815,-13377.24,-10578.195
1764762810.578877,-8012.205,-9000.045,3771.855,-4187.88,-12296.565,-28270.26,-13383.945,-10584.99
1764762810.578877,-8012.16,-8999.73,3771.855,-4188.33,-12296.745,-28267.74,-13383.99,-10584.945
1764762810.578877,-8009.73,-8997.615,3774.285,-4186.349999999999,-12293.28,-28263.825,-13382.505,-10583.01
1764762810.578877,-8012.519999999999,-9000.27,3772.26,-4188.33,-12295.935,-28266.795,-13385.7,-10585.17
1764762810.578877,-8007.57,-8995.994999999999,3775.77,-4184.28,-12292.335,-28263.69,-13381.92,-10580.805
1764762810.578877,-8008.74,-8996.805,3774.285,-4185.855,-12293.55,-28266.12,-13380.57,-10581.795
1764762810.578877,-8014.905,-9002.565,3769.335,-4190.805,-12298.86,-28271.07,-13383.945,-10588.095
1764762810.578877,-8014.545,-9002.475,3770.415,-4190.67,-12299.445,-28272.78,-13382.28,-10586.97
1764762810.578877,-8010.405,-8999.64,3772.305,-4187.565,-12296.79,-28270.755,-13383.855,-10583.37
1764762810.578877,-8004.24,-8993.88,3778.47,-4181.985,-12290.895,-28267.83,-13387.23,-10577.115
1764762810.578877,-8008.514999999999,-8996.355,3775.95,-4184.055,-12291.3,-28264.905,-13385.43,-10580.13
1764762810.5798807,-8010.945,-8997.525,3775.05,-4184.415,-12292.11,-28264.275,-13383.405,-10583.595
1764762810.5798807,-8009.415,-8995.635,3777.66,-4182.255,-12290.715,-28263.015,-13380.39,-10582.29
1764762810.5798807,-8015.535,-9002.88,3771.36,-4189.455,-12299.805,-28270.575,-13385.025,-10587.645
1764762810.5798807,-8012.565,-9001.17,3772.845,-4188.96,-12300.255,-28272.555,-13385.205,-10584.81
1764762810.5798807,-8010.179999999999,-8999.055,3773.97,-4186.755,-12298.68,-28273.995,-13393.17,-10584.855
1764762810.5798807,-8006.219999999999,-8995.635,3777.84,-4180.724999999999,-12289.86,-28262.34,-13388.31,-10580.13
1764762810.5798807,-8006.264999999999,-8997.255,3776.355,-4182.255,-12290.895,-28259.955,-13378.005,-10576.485
1764762810.5798807,-8001.54,-8992.71,3781.665,-4176.495,-12284.37,-28251.945,-13371.57,-10571.085
1764762810.5798807,-8003.655,-8992.44,3781.98,-4176.54,-12282.525,-28248.435,-13371.48,-10574.415
1764762810.580395,-8009.549999999999,-8995.725,3778.065,-4180.995,-12288.195,-28254.6,-13378.905,-10582.83
1764762810.580395,-8009.775,-8996.355,3777.075,-4182.3,-12291.435,-28260.045,-13379.76,-10583.1
1764762810.580395,-8004.509999999999,-8992.08,3781.71,-4177.935,-12287.7,-28258.47,-13375.26,-10576.755
1764762810.6262567,-8005.634999999999,-8993.925,3779.055,-4180.005,-12289.815,-28260.63,-13374.9,-10576.71
1764762810.6262567,-8009.19,-8997.84,3775.86,-4183.785,-12294.36,-28265.265,-13380.84,-10582.2
1764762810.6262567,-8003.655,-8990.91,3782.655,-4176.72,-12285.945,-28257.345,-13378.815,-10577.295
1764762810.6262567,-8004.554999999999,-8991.855,3781.62,-4177.305,-12284.505,-28253.205,-13375.89,-10577.025
1764762810.6262567,-8010.045,-8998.154999999999,3775.77,-4183.83,-12292.065,-28261.125,-13381.02,-10582.785
1764762810.6262567,-8009.144999999999,-8996.67,3776.67,-4182.84,-12292.02,-28262.07,-13380.93,-10581.84
1764762810.6262567,-8002.304999999999,-8989.56,3782.88,-4176.36,-12285.27,-28255.545,-13374.27,-10575.09
1764762810.6262567,-8004.644999999999,-8992.305,3779.955,-4180.23,-12289.185,-28257.705,-13375.71,-10576.125
1764762810.6262567,-8007.12,-8995.095,3777.21,-4182.84,-12292.425,-28260.9,-13377.915,-10578.285
1764762810.6262567,-8010.179999999999,-8997.66,3774.51,-4185.18,-12294.315,-28264.815,-13384.44,-10583.82
1764762810.6262567,-8007.255,-8994.779999999999,3777.165,-4181.67,-12290.715,-28262.925,-13383.495,-10581.345
1764762810.6262567,-8003.745,-8991.539999999999,3780.81,-4177.575,-12285.72,-28258.155,-13379.22,-10578.015
1764762810.6262567,-8008.065,-8995.59,3776.58,-4181.94,-12289.725,-28261.125,-13382.145,-10581.39
1764762810.6262567,-8006.4,-8993.52,3778.02,-4180.41,-12288.33,-28258.515,-13378.14,-10579.14
1764762810.6262567,-8001.36,-8988.615,3784.14,-4174.965,-12283.38,-28253.835,-13370.355,-10574.235
1764762810.6262567,-8002.08,-8990.01,3782.385,-4176.81,-12285.63,-28255.545,-13371.75,-10575.18
1764762810.6262567,-8003.474999999999,-8991.315,3781.305,-4178.07,-12286.935,-28257.615,-13374.405,-10576.89
1764762810.6262567,-8002.53,-8989.425,3783.105,-4176.09,-12285.855,-28259.595,-13382.595,-10577.205
1764762810.6262567,-8004.69,-8991.09,3780.855,-4178.07,-12287.16,-28259.46,-13382.73,-10577.88
1764762810.6262567,-8008.514999999999,-8995.365,3776.355,-4183.38,-12290.58,-28259.505,-13382.46,-10580.085
1764762810.6262567,-8005.86,-8993.385,3778.245,-4180.905,-12288.195,-28257.93,-13378.905,-10578.375
1764762810.6262567,-8010.179999999999,-8997.66,3773.88,-4185.63,-12293.055,-28264.005,-13383.405,-10582.74
1764762810.6262567,-8008.83,-8996.085,3775.725,-4183.785,-12291.525,-28262.835,-13382.775,-10582.515
1764762810.6262567,-8004.69,-8991.539999999999,3780.81,-4178.97,-12285.81,-28257.21,-13378.995,-10579.455
1764762810.6725967,-8006.67,-8994.33,3777.885,-4182.57,-12288.6,-28260.405,-13381.92,-10581.705
1764762810.6725967,-8004.465,-8992.215,3779.955,-4180.365,-12286.89,-28257.975,-13379.805,-10579.275
1764762810.6730568,-8000.235,-8987.94,3784.41,-4175.415,-12282.165,-28253.88,-13375.485,-10574.595
1764762810.6730568,-8004.42,-8992.215,3780.135,-4179.599999999999,-12286.44,-28259.235,-13381.065,-10578.96
1764762810.6730568,-8003.16,-8991.404999999999,3780.765,-4178.474999999999,-12286.08,-28259.415,-13379.85,-10577.385
1764762810.6730568,-7999.559999999999,-8987.58,3783.375,-4175.73,-12283.29,-28256.49,-13373.685,-10573.02
1764762810.6730568,-8003.295,-8991.449999999999,3779.73,-4179.78,-12286.845,-28260.9,-13377.465,-10576.62
1764762810.6730568,-8001.315,-8988.885,3782.43,-4178.205,-12285.405,-28257.075,-13373.325,-10574.055
1764762810.6730568,-8001.54,-8990.279999999999,3780.315,-4179.42,-12285.72,-28256.895,-13372.335,-10573.83
1764762810.6730568,-8006.085,-8993.789999999999,3776.895,-4182.3,-12289.05,-28260.855,-13377.15,-10579.095
1764762810.6730568,-8003.295,-8990.595,3780.54,-4179.195,-12286.035,-28258.785,-13375.395,-10576.26
1764762810.6730568,-8006.445,-8993.16,3778.155,-4181.94,-12288.285,-28260.585,-13377.6,-10578.24
1764762810.6730568,-8001.269999999999,-8987.67,3782.7,-4177.53,-12283.875,-28255.275,-13373.235,-10573.83
1764762810.6730568,-8001.719999999999,-8988.21,3782.88,-4178.295,-12285.045,-28256.625,-13374.36,-10574.01
1764762810.6730568,-8003.205,-8990.775,3780.81,-4180.455,-12287.34,-28259.595,-13376.205,-10574.91
1764762810.6736033,-8004.285,-8991.99,3778.785,-4182.345,-12288.105,-28260.945,-13376.565,-10574.955
1764762810.6736033,-8005.769999999999,-8993.43,3776.49,-4185.0,-12290.13,-28262.61,-13377.555,-10577.025
1764762810.6736033,-8008.65,-8994.645,3775.68,-4185.945,-12291.705,-28263.825,-13380.795,-10583.01
1764762810.6736033,-8005.59,-8991.765,3779.01,-4183.245,-12288.33,-28261.08,-13377.15,-10580.4
1764762810.6736033,-8000.37,-8986.949999999999,3783.825,-4178.43,-12283.245,-28256.445,-13372.38,-10573.92
1764762810.6736033,-8000.054999999999,-8987.265,3782.745,-4178.34,-12283.515,-28256.4,-13373.595,-10573.965
1764762810.6736033,-8000.73,-8988.93,3781.35,-4180.23,-12284.64,-28257.39,-13373.415,-10574.955
1764762810.716024,-8002.349999999999,-8990.145,3779.91,-4181.715,-12286.665,-28258.02,-13372.65,-10575.945
1764762810.716024,-8008.74,-8996.039999999999,3773.97,-4188.24,-12293.73,-28264.005,-13378.68,-10581.84
1764762810.716024,-8008.605,-8996.445,3773.115,-4188.465,-12293.82,-28265.49,-13379.58,-10581.84
1764762810.716024,-8002.665,-8991.72,3778.065,-4183.065,-12287.43,-28260.855,-13378.32,-10575.495
1764762810.716024,-8001.0,-8990.46,3778.92,-4182.165,-12287.565,-28262.745,-13381.47,-10573.875
1764762810.716024,-8007.12,-8996.49,3772.575,-4189.275,-12294.495,-28269.675,-13384.935,-10579.365
1764762810.716024,-8006.715,-8993.565,3775.005,-4186.44,-12292.245,-28267.695,-13383.495,-10582.605
1764762810.716024,-8005.59,-8992.17,3775.815,-4185.315,-12291.435,-28264.77,-13382.595,-10580.895
1764762810.716024,-8008.469999999999,-8994.914999999999,3773.7,-4188.105,-12292.965,-28264.005,-13386.015,-10581.84
1764762810.716024,-8009.415,-8996.039999999999,3773.385,-4188.96,-12293.28,-28265.04,-13386.195,-10583.28
1764762810.716024,-8003.88,-8991.585,3777.885,-4184.55,-12287.97,-28260.315,-13378.815,-10577.745
1764762810.716024,-8005.545,-8993.43,3775.905,-4186.395,-12289.455,-28261.665,-13378.77,-10577.07
1764762810.716024,-8007.929999999999,-8995.59,3772.44,-4189.545,-12293.055,-28265.895,-13380.39,-10579.14
1764762810.716024,-8003.924999999999,-8990.955,3776.985,-4184.28,-12288.06,-28261.26,-13377.195,-10576.98
1764762810.716024,-8004.014999999999,-8990.64,3778.605,-4183.65,-12288.015,-28263.465,-13381.02,-10578.42
1764762810.716024,-8003.969999999999,-8990.775,3777.93,-4184.46,-12289.635,-28265.715,-13382.505,-10577.79
1764762810.716024,-8006.58,-8992.98,3774.33,-4186.665,-12289.68,-28263.87,-13383.27,-10579.005
1764762810.716024,-8008.965,-8996.49,3771.27,-4189.905,-12291.255,-28264.185,-13384.89,-10580.535
1764762810.7176564,-8016.03,-9001.26,3766.185,-4195.215,-12298.41,-28269.99,-13387.95,-10588.275
1764762810.7176564,-8015.309999999999,-9000.18,3766.455,-4195.17,-12298.455,-28269.945,-13385.475,-10587.15
1764762810.7176564,-8005.95,-8991.99,3775.005,-4187.655,-12291.615,-28263.24,-13375.44,-10575.63
1764762810.7176564,-8006.804999999999,-8993.34,3774.24,-4188.375,-12293.955,-28265.04,-13375.17,-10574.865
1764762810.7176564,-8006.759999999999,-8991.855,3775.905,-4186.665,-12292.02,-28266.12,-13382.64,-10577.43
1764762810.7176564,-8008.965,-8992.529999999999,3774.87,-4187.61,-12294.27,-28269.495,-13383.63,-10582.515
1764762810.763958,-8005.365,-8989.244999999999,3777.3,-4185.45,-12290.13,-28264.365,-13378.905,-10578.6
1764762810.763958,-8009.37,-8993.97,3772.035,-4190.94,-12295.305,-28268.325,-13382.19,-10580.895
1764762810.763958,-8006.759999999999,-8991.09,3775.14,-4188.24,-12292.965,-28266.66,-13379.22,-10577.79
1764762810.763958,-8008.514999999999,-8992.935,3773.475,-4188.645,-12288.06,-28259.19,-13378.995,-10579.77
1764762810.763958,-8002.394999999999,-8986.545,3780.0,-4180.905,-12279.24,-28248.705,-13372.155,-10573.965
1764762810.763958,-8001.99,-8986.095,3780.405,-4181.67,-12280.725,-28253.655,-13373.595,-10573.605
1764762810.763958,-8004.059999999999,-8988.39,3778.245,-4184.415,-12284.28,-28257.12,-13375.665,-10573.695
1764762810.763958,-8009.594999999999,-8993.475,3773.205,-4190.31,-12292.245,-28262.745,-13381.02,-10577.205
1764762810.763958,-8007.48,-8991.945,3774.51,-4188.735,-12290.67,-28262.025,-13379.715,-10574.865
1764762810.763958,-8007.929999999999,-8991.72,3774.285,-4188.87,-12290.085,-28262.205,-13380.255,-10577.07
1764762810.763958,-8006.445,-8990.145,3775.86,-4187.655,-12287.7,-28260.99,-13379.13,-10577.655
1764762810.763958,-8002.575,-8986.68,3778.965,-4184.639999999999,-12284.865,-28258.965,-13375.44,-10572.57
1764762810.763958,-8004.96,-8988.885,3776.265,-4187.115,-12287.79,-28262.835,-13377.915,-10573.875
1764762810.763958,-8002.035,-8985.375,3779.505,-4183.965,-12285.0,-28260.495,-13376.25,-10572.03
1764762810.763958,-8004.285,-8987.715,3777.885,-4185.675,-12286.35,-28262.385,-13378.005,-10574.46
1764762810.763958,-8000.054999999999,-8984.925,3780.72,-4182.345,-12283.29,-28258.38,-13370.94,-10569.33
1764762810.763958,-7999.065,-8982.945,3781.89,-4180.185,-12281.715,-28256.22,-13368.825,-10567.845
1764762810.763958,-8001.855,-8984.565,3780.72,-4182.525,-12283.11,-28257.525,-13371.165,-10570.725
1764762810.763958,-8006.94,-8989.425,3775.86,-4187.655,-12288.15,-28263.915,-13379.67,-10575.99
1764762810.763958,-8006.804999999999,-8990.01,3775.005,-4188.195,-12288.285,-28265.715,-13382.055,-10576.755
1764762810.763958,-8003.07,-8985.779999999999,3778.74,-4184.73,-12285.09,-28262.655,-13380.705,-10573.515
1764762810.763958,-8006.445,-8988.75,3775.635,-4187.925,-12288.825,-28265.715,-13383.18,-10576.125
1764762810.763958,-8006.67,-8988.705,3775.95,-4187.835,-12288.69,-28264.545,-13378.77,-10575.0
1764762810.763958,-8006.13,-8988.39,3776.31,-4187.474999999999,-12288.51,-28263.87,-13374.855,-10573.38
1764762810.813866,-8002.394999999999,-8984.789999999999,3780.135,-4184.235,-12285.135,-28259.955,-13366.845,-10568.43
1764762810.813866,-8001.9,-8985.15,3778.515,-4185.0,-12285.225,-28260.0,-13363.02,-10567.17
1764762810.813866,-8002.665,-8985.15,3779.055,-4184.46,-12284.19,-28259.82,-13366.395,-10568.745
1764762810.813866,-8003.519999999999,-8985.195,3779.775,-4184.415,-12284.19,-28262.43,-13377.015,-10570.365
1764762810.813866,-8006.13,-8986.23,3778.785,-4185.18,-12286.665,-28267.65,-13385.7,-10575.585
1764762810.813866,-8007.525,-8988.48,3776.31,-4187.43,-12289.41,-28267.56,-13383.81,-10576.44
1764762810.813866,-8007.12,-8989.425,3776.085,-4188.825,-12289.095,-28266.165,-13382.19,-10575.36
1764762810.813866,-8001.585,-8983.664999999999,3781.935,-4183.29,-12283.29,-28262.205,-13377.915,-10571.58
1764762810.813866,-8000.505,-8982.359999999999,3782.385,-4182.93,-12281.58,-28258.2,-13375.395,-10571.175
1764762810.813866,-8003.295,-8984.789999999999,3780.045,-4185.945,-12283.29,-28259.82,-13376.52,-10572.705
1764762810.813866,-8010.179999999999,-8991.315,3773.88,-4192.155,-12290.085,-28265.22,-13382.145,-10578.465
1764762810.813866,-8010.54,-8992.08,3772.935,-4192.514999999999,-12290.58,-28265.355,-13381.29,-10579.095
1764762810.813866,-8005.679999999999,-8986.859999999999,3777.66,-4187.925,-12285.81,-28262.115,-13377.645,-10574.505
1764762810.813866,-8011.394999999999,-8991.675,3772.305,-4193.46,-12291.84,-28267.695,-13381.965,-10578.87
1764762810.813866,-8008.83,-8989.83,3773.43,-4192.56,-12290.31,-28264.725,-13378.32,-10575.225
1764762810.813866,-8005.32,-8985.51,3777.435,-4188.105,-12285.045,-28259.1,-13373.64,-10571.805
1764762810.813866,-8008.38,-8988.39,3775.41,-4190.085,-12287.655,-28263.105,-13378.005,-10576.08
1764762810.813866,-8007.66,-8988.345,3776.085,-4189.995,-12287.745,-28264.14,-13379.67,-10575.18
1764762810.813866,-8003.79,-8984.25,3779.145,-4187.34,-12284.46,-28260.72,-13375.755,-10571.49
1764762810.813866,-8005.815,-8985.105,3777.66,-4189.005,-12286.755,-28264.095,-13380.3,-10573.38
1764762810.813866,-8008.019999999999,-8987.94,3775.635,-4190.445,-12289.05,-28266.705,-13384.125,-10575.315
1764762810.813866,-8006.94,-8986.949999999999,3776.895,-4189.095,-12286.98,-28264.905,-13382.64,-10574.19
1764762810.857253,-8002.44,-8983.845,3779.82,-4185.495,-12281.895,-28257.795,-13371.615,-10568.745
1764762810.857253,-8003.655,-8985.465,3779.28,-4185.855,-12283.245,-28258.2,-13372.335,-10569.33
1764762810.857253,-8007.48,-8987.4,3777.57,-4188.42,-12286.53,-28262.07,-13377.015,-10573.965
1764762810.857253,-8003.025,-8982.539999999999,3782.16,-4183.155,-12282.165,-28256.49,-13370.535,-10569.96
1764762810.857253,-8006.58,-8987.625,3777.615,-4187.43,-12287.115,-28261.44,-13376.205,-10573.47
1764762810.857253,-8003.34,-8984.52,3780.675,-4185.45,-12283.92,-28259.64,-13375.08,-10568.97
1764762810.857253,-8001.764999999999,-8983.395,3780.72,-4185.764999999999,-12283.65,-28260.27,-13374.045,-10566.54
1764762810.857253,-8003.34,-8984.744999999999,3778.605,-4187.52,-12285.405,-28261.755,-13375.305,-10567.215
1764762810.857253,-8004.465,-8985.15,3779.1,-4187.205,-12285.405,-28260.81,-13375.305,-10570.365
1764762810.857253,-8007.299999999999,-8987.4,3777.93,-4188.195,-12285.9,-28261.35,-13377.015,-10574.64
1764762810.8582687,-8001.0,-8981.145,3784.095,-4182.165,-12279.33,-28254.24,-13371.48,-10567.395
1764762810.8582687,-8002.304999999999,-8983.035,3783.195,-4183.245,-12280.5,-28255.455,-13372.965,-10569.33
1764762810.8582687,-8007.344999999999,-8987.039999999999,3779.145,-4186.035,-12284.46,-28260.045,-13377.645,-10574.505
1764762810.8582687,-8004.644999999999,-8984.34,3780.855,-4184.055,-12283.11,-28258.515,-13375.98,-10570.68
1764762810.8582687,-8006.58,-8986.095,3778.83,-4185.81,-12285.36,-28261.26,-13377.195,-10571.22
1764762810.8582687,-8003.025,-8982.27,3782.745,-4182.66,-12281.76,-28258.245,-13372.38,-10566.765
1764762810.8582687,-8005.094999999999,-8984.295,3780.945,-4185.045,-12283.74,-28260.27,-13373.685,-10568.97
1764762810.8582687,-8010.179999999999,-8989.244999999999,3776.31,-4189.41,-12288.42,-28265.31,-13378.455,-10575.225
1764762810.8582687,-8007.344999999999,-8986.095,3779.865,-4186.305,-12285.765,-28261.89,-13375.08,-10571.67
1764762810.8582687,-8009.775,-8988.84,3777.435,-4189.95,-12288.645,-28264.365,-13375.53,-10573.38
1764762810.8582687,-8007.344999999999,-8987.13,3779.01,-4187.52,-12288.06,-28262.655,-13369.815,-10570.905
1764762810.8582687,-8009.28,-8988.66,3778.695,-4187.97,-12288.645,-28265.04,-13374.63,-10574.865
1764762810.8582687,-8010.54,-8989.74,3777.435,-4189.455,-12289.68,-28267.74,-13385.025,-10576.35
1764762810.8582687,-8008.514999999999,-8988.119999999999,3779.19,-4186.305,-12284.235,-28261.575,-13385.745,-10574.595
1764762810.9040782,-8006.445,-8986.005,3780.81,-4184.775,-12282.345,-28257.345,-13380.165,-10572.03
1764762810.9040782,-8013.105,-8992.935,3773.655,-4192.38,-12290.67,-28265.04,-13384.845,-10577.295
1764762810.9040782,-8008.424999999999,-8987.895,3779.01,-4187.025,-12286.125,-28262.745,-13383.36,-10574.46
1764762810.9040782,-8008.65,-8986.994999999999,3779.82,-4186.8,-12286.62,-28265.985,-13384.44,-10574.865
1764762810.9040782,-8004.87,-8983.44,3783.15,-4182.705,-12282.48,-28261.755,-13377.645,-10570.095
1764762810.9040782,-8008.83,-8987.58,3778.65,-4186.62,-12286.935,-28264.545,-13379.4,-10572.795
1764762810.9040782,-8005.455,-8984.609999999999,3781.8,-4184.055,-12282.12,-28256.535,-13373.82,-10569.375
1764762810.9040782,-8011.125,-8990.775,3776.625,-4189.365,-12286.71,-28260.18,-13380.435,-10574.64
1764762810.9040782,-8012.25,-8991.99,3775.905,-4191.615,-12289.095,-28264.725,-13383.045,-10575.495
1764762810.9040782,-8008.469999999999,-8988.164999999999,3779.37,-4188.24,-12287.205,-28263.825,-13379.805,-10571.04
1764762810.9040782,-8008.965,-8988.705,3778.56,-4188.78,-12289.455,-28267.065,-13377.87,-10571.49
1764762810.9040782,-8005.365,-8984.52,3781.89,-4185.72,-12286.98,-28265.805,-13375.665,-10568.07
1764762810.9040782,-8005.634999999999,-8985.105,3780.09,-4186.53,-12285.765,-28263.24,-13376.025,-10569.195
1764762810.9040782,-8006.219999999999,-8986.41,3779.955,-4186.575,-12284.235,-28258.2,-13375.665,-10569.78
1764762810.9040782,-8009.19,-8989.289999999999,3777.66,-4189.185,-12287.34,-28263.015,-13380.435,-10573.245
1764762810.9040782,-8004.33,-8983.98,3782.655,-4183.74,-12279.69,-28254.465,-13376.745,-10567.575
1764762810.9040782,-8004.195,-8983.44,3784.005,-4183.29,-12278.745,-28256.04,-13376.25,-10567.305
1764762810.9040782,-8012.34,-8991.404999999999,3776.58,-4190.355,-12287.79,-28265.76,-13384.665,-10574.505
1764762810.9059107,-8013.599999999999,-8991.404999999999,3774.96,-4191.75,-12290.355,-28266.885,-13383.99,-10575.18
1764762810.9059107,-8011.304999999999,-8989.695,3777.03,-4190.13,-12287.835,-28260.99,-13378.275,-10573.065
1764762810.9059107,-8007.03,-8985.51,3781.8,-4186.215,-12282.66,-28254.555,-13373.82,-10569.465
1764762810.9059107,-8009.865,-8987.94,3779.325,-4189.139999999999,-12285.855,-28259.865,-13379.535,-10573.695
1764762810.9059107,-8011.304999999999,-8989.154999999999,3777.21,-4190.625,-12288.69,-28263.195,-13382.505,-10574.73
1764762810.9059107,-8011.215,-8989.38,3777.12,-4190.13,-12288.87,-28263.465,-13382.37,-10575.045
1764762810.951587,-8006.67,-8984.609999999999,3782.07,-4185.135,-12284.28,-28259.055,-13377.6,-10569.015
1764762810.951587,-8006.264999999999,-8984.295,3782.16,-4184.82,-12284.235,-28258.695,-13377.87,-10568.115
1764762810.951587,-8003.79,-8983.08,3783.645,-4183.335,-12282.57,-28256.805,-13373.37,-10564.695
1764762810.9521086,-8009.639999999999,-8990.505,3776.76,-4190.22,-12288.87,-28263.105,-13377.285,-10568.925
1764762810.9521086,-8008.965,-8988.615,3778.56,-4188.915,-12287.61,-28262.385,-13378.005,-10569.6
1764762810.9521086,-8005.455,-8983.664999999999,3783.285,-4184.55,-12282.39,-28258.065,-13375.755,-10570.32
1764762810.9521086,-8000.775,-8979.164999999999,3787.92,-4179.42,-12278.295,-28254.42,-13370.67,-10566.36
1764762810.9521086,-8001.45,-8979.525,3786.57,-4180.59,-12279.555,-28255.275,-13370.85,-10565.28
1764762810.9521086,-8002.349999999999,-8980.965,3785.67,-4181.535,-12280.77,-28255.905,-13370.805,-10565.73
1764762810.9521086,-8004.105,-8983.215,3784.185,-4183.514999999999,-12282.795,-28258.38,-13372.47,-10567.44
1764762810.9521086,-8006.355,-8986.14,3781.485,-4187.385,-12286.53,-28262.34,-13376.34,-10569.78
1764762810.9521086,-8007.974999999999,-8986.904999999999,3779.055,-4189.005,-12288.105,-28262.97,-13376.07,-10571.085
1764762810.9521086,-8007.12,-8985.734999999999,3780.27,-4187.745,-12286.305,-28261.53,-13379.985,-10571.535
1764762810.9521086,-8011.394999999999,-8990.414999999999,3776.76,-4190.445,-12288.555,-28263.78,-13382.37,-10576.08
1764762810.9521086,-8011.53,-8990.279999999999,3777.57,-4188.375,-12287.07,-28262.52,-13379.175,-10576.17
1764762810.9521086,-8007.974999999999,-8987.13,3779.955,-4185.72,-12284.685,-28260.09,-13375.665,-10572.39
1764762810.9521086,-8007.075,-8986.59,3780.54,-4185.81,-12286.125,-28261.26,-13374.0,-10571.805
1764762810.9521086,-8010.36,-8989.56,3777.84,-4188.915,-12289.59,-28265.67,-13377.87,-10574.73
1764762810.9521086,-8013.554999999999,-8992.574999999999,3774.465,-4192.56,-12292.605,-28269.99,-13387.725,-10579.095
1764762810.9521086,-8008.605,-8987.76,3780.045,-4187.655,-12287.34,-28266.39,-13386.6,-10573.695
1764762810.9521086,-8012.474999999999,-8991.945,3775.41,-4191.389999999999,-12289.95,-28267.38,-13385.43,-10577.385
1764762810.9521086,-8010.495,-8989.74,3777.795,-4188.06,-12285.495,-28262.115,-13382.1,-10575.09
1764762810.998893,-8002.259999999999,-8981.234999999999,3785.4,-4180.815,-12278.88,-28255.815,-13372.56,-10565.865
1764762810.998893,-8004.644999999999,-8983.08,3783.105,-4183.335,-12281.535,-28257.75,-13373.865,-10569.195
1764762810.998893,-8008.38,-8988.029999999999,3778.47,-4189.05,-12287.07,-28261.845,-13376.655,-10572.525
1764762810.998893,-8010.315,-8990.145,3776.76,-4191.255,-12289.815,-28264.455,-13379.49,-10574.055
1764762810.998893,-8011.755,-8991.539999999999,3775.005,-4192.56,-12291.255,-28265.805,-13380.795,-10575.135
1764762810.998893,-8012.34,-8992.125,3773.61,-4193.235,-12292.11,-28266.795,-13380.21,-10575.0
1764762810.998893,-8012.969999999999,-8992.26,3772.845,-4193.28,-12291.57,-28266.57,-13378.725,-10575.0
1764762810.998893,-8006.264999999999,-8986.23,3780.72,-4186.305,-12284.055,-28259.82,-13375.575,-10571.355
1764762810.998893,-8006.085,-8986.185,3779.685,-4187.97,-12285.225,-28262.52,-13379.895,-10573.02
1764762810.998893,-8011.125,-8990.955,3775.23,-4192.92,-12290.625,-28267.11,-13384.08,-10576.62
1764762810.998893,-8006.219999999999,-8985.555,3780.765,-4186.305,-12283.38,-28259.64,-13377.69,-10571.67
1764762810.998893,-8008.245,-8987.22,3778.83,-4187.295,-12284.595,-28261.035,-13379.31,-10574.775
1764762810.9999022,-8008.559999999999,-8986.77,3779.19,-4187.565,-12285.315,-28262.88,-13379.4,-10574.595
1764762810.9999022,-8013.42,-8992.845,3773.295,-4193.82,-12291.255,-28268.37,-13385.07,-10578.96
1764762810.9999022,-8012.025,-8992.215,3773.565,-4192.965,-12289.995,-28268.055,-13384.395,-10577.115
1764762810.9999022,-8008.335,-8987.94,3778.335,-4189.05,-12285.675,-28263.645,-13380.93,-10573.38
1764762810.9999022,-8012.34,-8991.09,3775.23,-4193.19,-12290.58,-28268.28,-13384.62,-10576.845
1764762810.9999022,-8011.08,-8989.109999999999,3777.3,-4192.02,-12290.76,-28268.415,-13383.675,-10575.72
1764762810.9999022,-8013.69,-8992.44,3773.79,-4194.99,-12294.0,-28272.105,-13386.24,-10578.465
1764762810.9999022,-8009.684999999999,-8989.785,3776.58,-4191.57,-12290.22,-28268.37,-13381.785,-10573.965
1764762810.9999022,-8010.719999999999,-8990.865,3775.68,-4191.255,-12287.745,-28265.265,-13381.29,-10575.0
1764762810.9999022,-8016.165,-8995.005,3771.99,-4194.36,-12288.6,-28264.23,-13385.565,-10581.21
1764762810.9999022,-8011.17,-8990.279999999999,3777.66,-4190.175,-12285.63,-28261.53,-13383.045,-10577.565
1764762810.9999022,-8011.215,-8990.19,3777.12,-4191.57,-12286.89,-28262.835,-13382.685,-10577.88
1764762811.0474308,-8014.049999999999,-8992.935,3774.195,-4194.99,-12290.76,-28267.245,-13383.27,-10579.815
1764762811.0474308,-8009.144999999999,-8988.345,3778.965,-4190.22,-12286.26,-28263.78,-13378.05,-10574.46
1764762811.0474308,-8010.179999999999,-8990.145,3776.895,-4191.75,-12287.7,-28264.365,-13377.015,-10574.82
1764762811.0474308,-8008.065,-8988.57,3778.785,-4190.085,-12284.91,-28261.35,-13374.09,-10570.68
1764762811.0474308,-8008.29,-8987.58,3779.505,-4188.735,-12284.415,-28263.6,-13383.09,-10571.22
1764762811.0474308,-8008.155,-8986.59,3780.045,-4187.88,-12284.64,-28263.33,-13382.415,-10572.03
1764762811.0474308,-8007.75,-8985.15,3781.665,-4187.115,-12283.47,-28262.88,-13381.92,-10573.785
1764762811.0474308,-8008.38,-8985.105,3780.72,-4187.295,-12283.245,-28262.88,-13382.415,-10576.395
1764762811.0474308,-8012.519999999999,-8989.74,3776.04,-4192.02,-12286.89,-28265.67,-13384.395,-10578.375
1764762811.0474308,-8015.715,-8992.71,3772.98,-4195.125,-12289.635,-28266.795,-13384.125,-10579.725
1764762811.0474308,-8016.75,-8993.88,3771.72,-4196.43,-12290.94,-28267.605,-13383.585,-10579.5
1764762811.0474308,-8016.48,-8994.15,3772.035,-4196.88,-12291.21,-28267.065,-13384.215,-10578.015
1764762811.0474308,-8012.295,-8989.289999999999,3776.985,-4192.335,-12286.665,-28263.825,-13380.39,-10574.145
1764762811.0474308,-8014.815,-8990.82,3775.77,-4193.865,-12288.915,-28266.84,-13383.09,-10577.97
1764762811.0474308,-8013.33,-8989.65,3777.03,-4192.965,-12288.87,-28267.74,-13382.64,-10577.385
1764762811.0474308,-8007.974999999999,-8984.43,3781.575,-4188.06,-12284.64,-28265.085,-13379.04,-10571.85
1764762811.0474308,-8008.11,-8983.619999999999,3782.745,-4186.305,-12283.695,-28265.535,-13380.66,-10571.895
1764762811.0474308,-8012.429999999999,-8987.13,3778.47,-4190.49,-12287.745,-28268.415,-13385.745,-10575.225
1764762811.0474308,-8019.224999999999,-8995.095,3770.505,-4198.32,-12293.055,-28269.765,-13390.065,-10581.435
1764762811.0474308,-8019.179999999999,-8995.77,3769.83,-4198.095,-12291.165,-28265.94,-13390.155,-10583.37
1764762811.0474308,-8016.389999999999,-8992.755,3772.125,-4195.98,-12289.59,-28266.48,-13386.24,-10580.265
1764762811.0474308,-8012.384999999999,-8989.154999999999,3775.41,-4193.415,-12287.385,-28263.96,-13376.745,-10574.55
1764762811.0474308,-8015.13,-8991.494999999999,3773.16,-4196.115,-12290.67,-28267.965,-13378.14,-10575.81
1764762811.0474308,-8011.889999999999,-8988.39,3776.355,-4192.2,-12287.745,-28266.66,-13378.995,-10573.065
1764762811.0936687,-8013.554999999999,-8990.414999999999,3774.78,-4193.955,-12288.33,-28267.605,-13381.425,-10574.775
1764762811.0936687,-8014.094999999999,-8989.425,3776.94,-4192.245,-12286.26,-28266.57,-13387.005,-10578.51
1764762811.0936687,-8007.884999999999,-8984.295,3782.07,-4187.34,-12281.805,-28259.46,-13378.59,-10572.48
1764762811.0936687,-8010.674999999999,-8987.31,3778.605,-4190.535,-12284.46,-28260.855,-13378.59,-10574.145
1764762811.0936687,-8012.25,-8989.695,3776.175,-4192.83,-12287.025,-28263.105,-13379.22,-10575.27
1764762811.0936687,-8016.12,-8992.484999999999,3773.43,-4195.395,-12289.995,-28266.12,-13382.865,-10579.455
1764762811.0941818,-8012.745,-8987.355,3777.66,-4191.795,-12285.495,-28263.33,-13382.865,-10575.945
1764762811.0941818,-8016.929999999999,-8992.08,3771.27,-4197.915,-12292.155,-28268.415,-13386.645,-10579.095
1764762811.0941818,-8018.37,-8993.654999999999,3769.515,-4200.705,-12296.16,-28273.545,-13387.905,-10579.995
1764762811.0941818,-8018.009999999999,-8994.015,3770.46,-4200.795,-12297.645,-28277.01,-13387.995,-10579.905
1764762811.0941818,-8016.929999999999,-8992.44,3772.665,-4197.599999999999,-12295.755,-28276.155,-13386.33,-10580.715
1764762811.0941818,-8014.59,-8989.74,3775.365,-4194.585,-12291.48,-28272.105,-13386.015,-10579.05
1764762811.0941818,-8012.969999999999,-8986.68,3778.38,-4191.255,-12284.37,-28262.565,-13381.74,-10577.655
1764762811.0946603,-8015.849999999999,-8989.83,3774.78,-4195.125,-12287.61,-28264.545,-13383.81,-10580.625
1764762811.0946603,-8018.235,-8993.07,3771.585,-4197.24,-12287.97,-28264.185,-13387.455,-10581.21
1764762811.0946603,-8014.815,-8990.64,3774.195,-4195.17,-12285.315,-28259.55,-13380.66,-10577.565
1764762811.0946603,-8011.304999999999,-8986.5,3777.93,-4191.705,-12282.795,-28258.47,-13376.34,-10573.875
1764762811.0946603,-8015.49,-8990.73,3773.61,-4196.295,-12287.97,-28264.365,-13382.55,-10578.375
1764762811.0946603,-8015.13,-8990.369999999999,3774.555,-4195.305,-12288.375,-28267.065,-13388.895,-10580.175
1764762811.0946603,-8016.705,-8991.72,3773.88,-4196.385,-12289.5,-28267.83,-13390.29,-10581.705
1764762811.1381729,-8018.099999999999,-8993.565,3771.495,-4198.455,-12291.345,-28268.64,-13388.895,-10582.065
1764762811.1381729,-8014.724999999999,-8990.91,3774.555,-4195.665,-12288.51,-28265.445,-13387.005,-10579.095
1764762811.1381729,-8010.405,-8986.275,3778.47,-4191.255,-12284.955,-28260.81,-13381.425,-10574.73
1764762811.1381729,-8015.804999999999,-8991.855,3773.88,-4196.52,-12289.5,-28264.5,-13384.125,-10578.735
1764762811.1381729,-8013.915,-8989.335,3776.175,-4194.72,-12287.52,-28264.005,-13382.145,-10576.08
1764762811.1381729,-8017.74,-8993.34,3772.35,-4198.41,-12290.715,-28268.415,-13386.195,-10579.815
1764762811.1381729,-8014.094999999999,-8989.605,3775.86,-4193.82,-12287.43,-28265.715,-13383.18,-10577.205
1764762811.1381729,-8016.21,-8990.955,3773.205,-4196.16,-12289.815,-28268.37,-13386.24,-10580.445
1764762811.1381729,-8017.019999999999,-8991.855,3772.395,-4197.42,-12290.445,-28269.405,-13387.365,-10579.77
1764762811.1387086,-8017.785,-8993.97,3771.09,-4198.545,-12292.74,-28271.295,-13388.49,-10579.995
1764762811.1387086,-8016.929999999999,-8993.205,3771.945,-4197.78,-12292.965,-28272.465,-13388.13,-10578.87
1764762811.1387086,-8018.955,-8994.914999999999,3770.235,-4199.94,-12294.63,-28274.535,-13390.02,-10582.29
1764762811.1387086,-8013.24,-8988.795,3776.355,-4193.325,-12287.295,-28266.48,-13384.17,-10577.205
1764762811.1387086,-8013.105,-8988.93,3776.31,-4192.605,-12284.865,-28262.295,-13383.495,-10577.07
1764762811.1387086,-8015.4,-8990.865,3773.79,-4194.855,-12287.565,-28266.885,-13386.87,-10578.87
1764762811.1387086,-8010.405,-8986.545,3778.605,-4190.849999999999,-12283.83,-28264.005,-13383.36,-10574.145
1764762811.1387086,-8011.53,-8988.029999999999,3777.885,-4192.245,-12285.54,-28265.625,-13385.295,-10576.125
1764762811.1387086,-8017.065,-8993.34,3773.295,-4197.465,-12291.03,-28271.745,-13393.17,-10582.92
1764762811.1387086,-8018.28,-8994.69,3770.91,-4199.49,-12292.245,-28270.62,-13392.72,-10582.92
1764762811.1387086,-8015.264999999999,-8991.99,3773.835,-4196.34,-12288.33,-28264.095,-13386.15,-10579.905
1764762811.1387086,-8015.715,-8991.27,3774.96,-4195.575,-12287.52,-28264.95,-13384.755,-10580.67
1764762811.1387086,-8018.19,-8993.88,3771.495,-4198.545,-12291.03,-28268.595,-13384.935,-10581.345
1764762811.1387086,-8017.38,-8992.98,3771.945,-4197.69,-12290.58,-28268.595,-13385.25,-10580.265
1764762811.1387086,-8025.03,-8999.73,3765.195,-4204.935,-12297.69,-28276.065,-13392.54,-10587.645
1764762811.1858532,-8026.155,-9001.305,3764.745,-4205.97,-12299.67,-28277.46,-13392.765,-10588.275
1764762811.1858532,-8025.929999999999,-9001.26,3764.88,-4206.195,-12299.67,-28277.64,-13393.08,-10587.825
1764762811.1858532,-8024.67,-9000.27,3765.51,-4204.845,-12297.555,-28275.93,-13390.83,-10586.295
1764762811.1858532,-8021.115,-8996.31,3768.84,-4200.885,-12293.955,-28271.295,-13393.845,-10584.72
1764762811.1858532,-8019.495,-8995.41,3770.415,-4199.445,-12293.55,-28270.35,-13391.46,-10583.865
1764762811.1858532,-8017.155,-8994.015,3771.0,-4197.195,-12291.255,-28267.47,-13386.24,-10581.3
1764762811.1858532,-8022.24,-8998.92,3765.285,-4202.639999999999,-12297.195,-28273.77,-13389.705,-10585.935
1764762811.1858532,-8015.94,-8992.71,3772.62,-4195.935,-12290.76,-28269.765,-13389.435,-10578.87
1764762811.1858532,-8014.59,-8991.315,3773.835,-4194.99,-12291.075,-28273.365,-13392.09,-10577.565
1764762811.1858532,-8018.639999999999,-8994.195,3771.45,-4197.645,-12294.585,-28276.065,-13393.44,-10583.685
1764762811.1858532,-8024.759999999999,-9000.315,3766.095,-4202.415,-12297.915,-28277.865,-13397.445,-10589.355
1764762811.1858532,-8023.545,-8998.83,3766.455,-4201.02,-12293.46,-28270.035,-13393.035,-10587.06
1764762811.1858532,-8019.855,-8995.545,3770.145,-4198.68,-12291.255,-28264.815,-13387.995,-10583.055
1764762811.1858532,-8016.389999999999,-8992.755,3773.61,-4195.125,-12288.69,-28263.24,-13386.375,-10579.455
1764762811.1858532,-8019.134999999999,-8996.085,3770.505,-4197.87,-12292.065,-28268.865,-13389.345,-10583.01
1764762811.1858532,-8018.775,-8996.085,3770.775,-4197.105,-12291.435,-28267.965,-13388.895,-10582.065
1764762811.1858532,-8018.37,-8995.14,3771.18,-4195.98,-12290.04,-28266.48,-13387.185,-10581.885
1764762811.1858532,-8019.945,-8996.265,3770.01,-4197.014999999999,-12291.48,-28267.92,-13388.85,-10583.505
1764762811.1858532,-8015.715,-8991.855,3774.87,-4192.875,-12286.665,-28262.655,-13385.115,-10578.735
1764762811.1858532,-8021.07,-8996.13,3771.045,-4197.645,-12291.615,-28267.83,-13390.56,-10584.54
1764762811.1858532,-8019.45,-8995.14,3772.62,-4195.53,-12289.41,-28266.75,-13389.57,-10583.1
1764762811.1858532,-8015.4,-8991.404999999999,3775.995,-4191.435,-12285.765,-28263.465,-13385.34,-10577.88
1764762811.1858532,-8014.545,-8990.19,3777.57,-4190.535,-12284.955,-28262.97,-13383.9,-10576.575
1764762811.1858532,-8014.769999999999,-8990.55,3776.58,-4190.715,-12285.855,-28263.33,-13383.765,-10576.71
1764762811.1858532,-8016.929999999999,-8993.07,3774.645,-4193.37,-12288.06,-28265.4,-13383.585,-10578.24
1764762811.1858532,-8012.519999999999,-8988.84,3779.595,-4188.42,-12282.885,-28259.01,-13378.095,-10573.605
1764762811.230307,-8013.059999999999,-8989.785,3778.605,-4189.005,-12283.92,-28261.035,-13382.37,-10575.9
1764762811.230307,-8016.48,-8993.295,3775.905,-4192.695,-12287.43,-28265.13,-13387.77,-10579.59
1764762811.230307,-8014.545,-8990.46,3778.02,-4190.13,-12285.315,-28262.745,-13386.78,-10577.115
1764762811.230307,-8016.255,-8991.27,3776.49,-4191.345,-12287.43,-28265.13,-13389.48,-10579.185
1764762811.230307,-8019.315,-8995.185,3772.08,-4196.88,-12292.605,-28270.305,-13391.685,-10581.705
1764762811.230307,-8018.235,-8994.734999999999,3772.08,-4196.79,-12291.84,-28267.695,-13386.465,-10578.51
1764762811.230307,-8014.094999999999,-8990.46,3776.715,-4191.75,-12286.17,-28260.495,-13379.94,-10574.415
1764762811.230307,-8011.755,-8988.119999999999,3779.64,-4187.61,-12281.175,-28256.49,-13379.715,-10571.715
1764762811.2308347,-8017.83,-8993.565,3773.97,-4192.29,-12286.26,-28262.745,-13384.98,-10578.33
1764762811.2308347,-8016.615,-8991.0,3776.85,-4189.86,-12284.055,-28261.53,-13385.34,-10580.22
1764762811.2308347,-8010.674999999999,-8985.33,3782.475,-4184.865,-12278.7,-28257.93,-13381.605,-10574.46
1764762811.2308347,-8009.594999999999,-8985.734999999999,3782.34,-4184.73,-12278.07,-28256.805,-13381.47,-10572.165
1764762811.2308347,-8010.54,-8985.6,3782.7,-4184.595,-12277.845,-28256.715,-13379.94,-10572.885
1764762811.2308347,-8014.275,-8989.47,3779.055,-4188.285,-12282.39,-28261.305,-13382.82,-10576.53
1764762811.2308347,-8013.059999999999,-8988.615,3778.29,-4188.735,-12282.795,-28261.62,-13380.525,-10574.37
1764762811.2308347,-8008.74,-8984.52,3782.7,-4185.54,-12277.755,-28257.255,-13378.59,-10570.365
1764762811.2308347,-8009.775,-8985.105,3781.98,-4186.8,-12278.97,-28260.135,-13385.205,-10571.13
1764762811.2308347,-8015.849999999999,-8992.17,3775.68,-4193.28,-12285.45,-28262.88,-13386.6,-10576.845
1764762811.2308347,-8016.705,-8992.619999999999,3775.455,-4193.865,-12285.9,-28261.89,-13382.01,-10577.745
1764762811.2308347,-8019.764999999999,-8994.914999999999,3772.53,-4197.06,-12288.69,-28264.905,-13383.315,-10581.885
1764762811.2308347,-8016.165,-8993.025,3773.61,-4196.07,-12288.285,-28264.995,-13380.165,-10578.42
1764762811.2308347,-8014.905,-8991.404999999999,3775.095,-4194.405,-12286.215,-28263.285,-13379.67,-10576.845
1764762811.2772477,-8008.245,-8984.115,3782.07,-4186.755,-12279.015,-28257.615,-13379.58,-10571.445
1764762811.2772477,-8013.96,-8990.505,3776.13,-4193.73,-12283.965,-28262.295,-13383.225,-10576.98
1764762811.2772477,-8012.519999999999,-8988.84,3778.605,-4192.785,-12282.165,-28261.395,-13384.035,-10575.81
1764762811.2772477,-8007.84,-8983.71,3783.06,-4187.97,-12278.385,-28257.165,-13379.805,-10570.32
1764762811.278265,-8007.48,-8983.484999999999,3782.835,-4187.205,-12278.565,-28257.705,-13378.14,-10569.285
1764762811.278265,-8009.054999999999,-8984.52,3781.53,-4189.005,-12281.535,-28262.025,-13379.13,-10569.915
1764762811.278265,-8012.384999999999,-8988.164999999999,3777.84,-4193.099999999999,-12287.565,-28267.515,-13383.855,-10573.515
1764762811.278265,-8013.105,-8988.3,3777.525,-4193.685,-12289.185,-28269.72,-13385.52,-10573.875
1764762811.278265,-8015.219999999999,-8991.18,3774.285,-4196.205,-12289.32,-28269.45,-13387.23,-10577.385
1764762811.278265,-8012.655,-8989.335,3776.4,-4193.505,-12283.29,-28261.53,-13382.46,-10575.315
1764762811.278265,-8006.625,-8982.315,3782.97,-4187.07,-12277.8,-28258.245,-13377.87,-10569.24
1764762811.278265,-8012.205,-8987.265,3778.56,-4192.065,-12282.48,-28263.24,-13382.55,-10573.11
1764762811.278265,-8008.38,-8983.35,3782.565,-4188.465,-12280.59,-28260.81,-13378.635,-10569.69
1764762811.278265,-8007.884999999999,-8983.44,3782.52,-4188.915,-12281.94,-28260.495,-13377.78,-10568.97
1764762811.278265,-8008.74,-8984.835,3780.495,-4190.625,-12281.085,-28259.1,-13379.445,-10570.23
1764762811.278265,-8009.28,-8985.24,3780.36,-4190.175,-12276.405,-28252.62,-13379.67,-10570.905
1764762811.278265,-8010.674999999999,-8987.94,3778.065,-4193.055,-12279.42,-28255.77,-13381.965,-10572.57
1764762811.278265,-8014.545,-8991.539999999999,3775.545,-4195.305,-12284.1,-28262.205,-13385.88,-10575.855
1764762811.278265,-8009.235,-8985.015,3782.205,-4187.79,-12277.845,-28257.255,-13380.39,-10570.86
1764762811.278265,-8010.09,-8986.095,3781.71,-4187.7,-12277.755,-28256.175,-13377.24,-10571.13
1764762811.278265,-8007.795,-8983.44,3783.555,-4186.349999999999,-12275.325,-28253.34,-13372.965,-10566.99
1764762811.279775,-8010.719999999999,-8985.824999999999,3781.89,-4187.97,-12278.07,-28255.815,-13376.835,-10570.32
1764762811.279775,-8011.62,-8987.175,3780.495,-4189.59,-12279.825,-28257.795,-13378.005,-10572.3
1764762811.279775,-8010.315,-8986.365,3780.27,-4189.724999999999,-12279.78,-28258.515,-13378.14,-10570.905
1764762811.3263192,-8009.955,-8985.69,3779.865,-4189.59,-12280.14,-28258.83,-13378.14,-10570.59
1764762811.3263192,-8015.355,-8990.369999999999,3775.95,-4194.27,-12284.595,-28264.14,-13384.215,-10575.45
1764762811.3263192,-8011.799999999999,-8986.455,3780.675,-4189.05,-12279.51,-28260.135,-13380.615,-10573.02
1764762811.3263192,-8010.315,-8986.14,3781.08,-4188.195,-12279.015,-28259.595,-13379.67,-10572.12
1764762811.3263192,-8011.08,-8987.22,3778.785,-4190.94,-12280.905,-28261.44,-13380.705,-10572.795
1764762811.3263192,-8010.315,-8986.455,3778.47,-4190.445,-12280.185,-28259.685,-13378.905,-10571.175
1764762811.3263192,-8011.53,-8987.039999999999,3778.605,-4190.535,-12280.275,-28259.37,-13379.67,-10571.355
1764762811.3263192,-8017.605,-8992.125,3774.24,-4194.945,-12285.27,-28264.14,-13384.395,-10578.555
1764762811.3263192,-8017.514999999999,-8991.855,3774.87,-4194.405,-12284.82,-28263.735,-13383.045,-10578.33
1764762811.3263192,-8015.49,-8990.1,3776.535,-4193.055,-12282.705,-28262.295,-13382.82,-10576.665
1764762811.3263192,-8008.065,-8983.8,3782.88,-4187.07,-12276.99,-28259.505,-13385.745,-10570.815
1764762811.3263192,-8011.215,-8986.77,3779.595,-4190.58,-12281.445,-28264.545,-13392.765,-10573.605
1764762811.3263192,-8013.78,-8988.705,3777.03,-4192.335,-12283.425,-28264.275,-13389.975,-10574.28
1764762811.3263192,-8013.42,-8988.705,3777.705,-4191.84,-12282.03,-28262.7,-13387.365,-10574.46
1764762811.3263192,-8006.219999999999,-8981.775,3784.365,-4185.18,-12274.065,-28252.575,-13372.29,-10565.415
1764762811.3263192,-8003.519999999999,-8978.895,3787.47,-4181.625,-12270.87,-28247.895,-13364.505,-10560.51
1764762811.3263192,-8003.79,-8979.3,3787.83,-4181.4,-12270.375,-28249.605,-13369.815,-10562.4
1764762811.3263192,-8004.554999999999,-8978.445,3787.785,-4181.58,-12271.725,-28252.98,-13376.79,-10565.82
1764762811.3263192,-8006.804999999999,-8979.84,3786.03,-4183.695,-12274.875,-28254.915,-13375.89,-10566.765
1764762811.3263192,-8009.505,-8982.72,3783.105,-4186.575,-12277.35,-28257.39,-13377.195,-10568.43
1764762811.3263192,-8012.295,-8986.32,3778.83,-4191.12,-12281.22,-28261.89,-13379.895,-10570.095
1764762811.3263192,-8006.355,-8979.345,3784.725,-4184.639999999999,-12275.145,-28255.905,-13378.68,-10564.785
1764762811.3712862,-8009.009999999999,-8982.494999999999,3781.53,-4187.295,-12278.565,-28259.73,-13383.945,-10567.98
1764762811.3712862,-8010.179999999999,-8984.654999999999,3779.82,-4189.095,-12280.095,-28259.1,-13381.02,-10568.205
1764762811.3712862,-8007.84,-8982.09,3782.43,-4186.215,-12276.54,-28254.06,-13375.71,-10566.72
1764762811.3712862,-8009.054999999999,-8982.315,3783.555,-4186.305,-12276.315,-28254.555,-13377.105,-10569.105
1764762811.3712862,-8005.905,-8979.345,3786.435,-4182.93,-12274.38,-28253.34,-13374.72,-10565.01
1764762811.3712862,-8009.865,-8983.035,3782.61,-4186.889999999999,-12278.745,-28258.065,-13379.265,-10567.935
1764762811.3712862,-8004.825,-8978.805,3786.795,-4182.48,-12274.65,-28254.195,-13374.225,-10562.85
1764762811.3712862,-8007.66,-8981.414999999999,3784.41,-4184.775,-12276.495,-28256.13,-13376.565,-10564.965
1764762811.3712862,-8004.105,-8976.824999999999,3789.225,-4180.545,-12272.31,-28252.215,-13373.19,-10562.085
1764762811.3712862,-8007.344999999999,-8980.154999999999,3785.355,-4184.145,-12277.62,-28258.11,-13378.14,-10566.405
1764762811.3712862,-8006.58,-8979.435,3785.22,-4183.83,-12277.53,-28258.83,-13377.375,-10565.28
1764762811.3712862,-8005.815,-8978.67,3785.985,-4183.02,-12276.63,-28257.93,-13376.925,-10563.795
1764762811.3712862,-8002.08,-8975.115,3790.035,-4178.52,-12270.735,-28250.415,-13371.84,-10560.105
1764762811.3712862,-8005.32,-8977.994999999999,3786.885,-4181.805,-12272.355,-28250.28,-13372.92,-10562.445
1764762811.3712862,-8004.599999999999,-8978.22,3787.335,-4181.849999999999,-12273.075,-28251.45,-13373.64,-10561.455
1764762811.3712862,-8010.764999999999,-8984.34,3780.945,-4188.014999999999,-12279.555,-28258.02,-13380.525,-10568.7
1764762811.3712862,-8009.235,-8983.26,3781.755,-4186.665,-12278.07,-28257.03,-13379.265,-10567.215
1764762811.3712862,-8004.78,-8978.22,3786.435,-4182.165,-12273.66,-28253.43,-13376.43,-10562.13
1764762811.3712862,-8009.099999999999,-8982.18,3781.845,-4186.935,-12277.98,-28258.425,-13380.57,-10565.91
1764762811.3712862,-8005.815,-8978.67,3785.58,-4183.29,-12274.515,-28255.635,-13377.51,-10563.03
1764762811.3712862,-8004.195,-8977.275,3787.47,-4181.04,-12273.03,-28254.105,-13376.79,-10562.985
1764762811.3712862,-8004.87,-8978.039999999999,3787.155,-4181.849999999999,-12273.12,-28254.015,-13376.025,-10562.895
1764762811.3712862,-8010.495,-8983.89,3781.08,-4187.474999999999,-12278.79,-28258.155,-13376.79,-10567.125
1764762811.3712862,-8009.82,-8982.765,3782.16,-4186.125,-12277.665,-28256.58,-13375.89,-10567.17
1764762811.4187894,-8004.915,-8979.029999999999,3785.58,-4182.57,-12273.84,-28252.125,-13372.065,-10562.67
1764762811.4187894,-8003.745,-8978.445,3786.12,-4182.12,-12273.345,-28252.89,-13377.825,-10561.59
1764762811.4187894,-8002.98,-8976.779999999999,3787.785,-4179.96,-12271.86,-28252.575,-13379.265,-10560.915
1764762811.4187894,-8005.545,-8979.795,3785.58,-4182.389999999999,-12274.2,-28255.68,-13378.815,-10564.74
1764762811.4187894,-8008.065,-8983.305,3782.43,-4184.955,-12277.215,-28260.18,-13381.155,-10567.215
1764762811.4187894,-8006.49,-8980.515,3784.455,-4183.425,-12275.505,-28258.47,-13379.67,-10565.145
1764762811.4187894,-8013.014999999999,-8987.31,3778.065,-4190.49,-12282.165,-28264.68,-13386.33,-10572.255
1764762811.419317,-8012.565,-8988.074999999999,3777.435,-4190.67,-12282.435,-28262.43,-13385.205,-10571.4
1764762811.419317,-8010.09,-8985.51,3779.325,-4188.555,-12278.655,-28257.255,-13380.705,-10568.115
1764762811.419317,-8003.16,-8978.13,3786.75,-4181.535,-12271.5,-28250.775,-13374.72,-10562.13
1764762811.419317,-8002.755,-8976.824999999999,3788.28,-4180.139999999999,-12270.825,-28250.82,-13376.79,-10561.86
1764762811.419317,-8006.49,-8980.47,3784.95,-4184.19,-12274.245,-28255.23,-13381.74,-10564.74
1764762811.419317,-8007.21,-8981.73,3784.185,-4185.63,-12275.55,-28257.66,-13382.91,-10565.055
1764762811.419317,-8008.29,-8983.395,3781.89,-4187.61,-12277.62,-28258.515,-13382.505,-10565.865
1764762811.419317,-8013.195,-8988.93,3775.95,-4193.595,-12283.965,-28263.06,-13384.71,-10570.095
1764762811.419317,-8011.62,-8987.355,3777.885,-4192.514999999999,-12283.065,-28260.9,-13379.22,-10569.24
1764762811.419317,-8007.929999999999,-8982.765,3782.61,-4186.62,-12277.755,-28257.345,-13375.395,-10566.0
1764762811.419317,-8003.7,-8978.22,3787.695,-4181.04,-12271.095,-28252.98,-13374.675,-10562.265
1764762811.419317,-8006.174999999999,-8980.515,3785.49,-4182.57,-12272.49,-28254.33,-13377.645,-10564.65
1764762811.419317,-8011.44,-8985.24,3779.775,-4187.745,-12277.575,-28258.56,-13381.155,-10569.42
1764762811.419317,-8008.695,-8982.494999999999,3783.195,-4185.224999999999,-12275.1,-28256.22,-13377.465,-10565.505
1764762811.419317,-8010.719999999999,-8984.565,3780.9,-4186.889999999999,-12278.475,-28260.54,-13380.165,-10567.08
1764762811.4198253,-8012.79,-8986.725,3779.01,-4189.545,-12282.39,-28266.075,-13385.16,-10569.69
1764762811.4198253,-8007.21,-8980.875,3783.735,-4185.585,-12279.375,-28264.5,-13380.12,-10564.335
1764762811.4645417,-8007.255,-8981.775,3782.745,-4186.44,-12280.32,-28264.995,-13377.465,-10563.885
1764762811.4645417,-8012.429999999999,-8986.994999999999,3778.56,-4190.94,-12282.12,-28264.725,-13383.045,-10568.43
1764762811.4645417,-8008.785,-8983.619999999999,3782.16,-4187.52,-12280.815,-28263.645,-13385.475,-10566.045
1764762811.4645417,-8007.75,-8983.574999999999,3781.62,-4187.16,-12277.89,-28258.695,-13381.065,-10564.56
1764762811.4645417,-8012.07,-8988.21,3777.345,-4189.185,-12277.26,-28255.68,-13382.235,-10568.61
1764762811.4645417,-8004.735,-8980.289999999999,3786.435,-4180.545,-12267.855,-28245.015,-13374.72,-10561.905
1764762811.4645417,-8003.115,-8978.355,3787.695,-4179.33,-12266.595,-28244.88,-13374.585,-10560.87
1764762811.4645417,-8010.585,-8985.33,3780.405,-4187.474999999999,-12275.415,-28255.905,-13385.52,-10568.07
1764762811.4645417,-8008.019999999999,-8981.91,3783.645,-4184.325,-12273.435,-28254.6,-13383.72,-10565.865
1764762811.4645417,-8008.245,-8980.47,3784.14,-4183.155,-12272.49,-28254.69,-13382.235,-10567.755
1764762811.4645417,-8011.08,-8983.98,3780.72,-4186.53,-12275.775,-28257.345,-13379.94,-10568.88
1764762811.465554,-8007.03,-8980.515,3784.995,-4183.38,-12273.57,-28253.385,-13371.975,-10563.39
1764762811.465554,-8002.485,-8975.88,3789.675,-4178.835,-12269.205,-28247.76,-13366.08,-10558.08
1764762811.465554,-8004.014999999999,-8977.095,3788.505,-4180.139999999999,-12269.565,-28248.3,-13372.11,-10559.655
1764762811.465554,-8006.219999999999,-8980.289999999999,3785.535,-4181.94,-12271.95,-28250.775,-13376.88,-10561.995
1764762811.4665534,-8009.505,-8983.44,3782.205,-4185.27,-12274.74,-28254.33,-13378.59,-10565.01
1764762811.4665534,-8008.74,-8981.865,3783.69,-4183.65,-12273.885,-28253.385,-13377.69,-10563.57
1764762811.4665534,-8010.045,-8983.395,3782.835,-4184.955,-12274.74,-28254.24,-13379.265,-10564.155
1764762811.4665534,-8012.384999999999,-8985.779999999999,3781.035,-4187.745,-12277.755,-28257.255,-13381.875,-10566.54
1764762811.4665534,-8014.769999999999,-8988.48,3777.75,-4190.085,-12280.41,-28260.0,-13384.17,-10568.925
1764762811.5110202,-8010.54,-8984.43,3781.485,-4186.17,-12276.81,-28256.22,-13380.3,-10565.775
1764762811.5110202,-8012.295,-8985.914999999999,3780.045,-4187.97,-12278.565,-28257.93,-13382.415,-10568.25
1764762811.5110202,-8011.665,-8985.914999999999,3780.135,-4188.285,-12279.105,-28258.965,-13381.92,-10566.81
1764762811.5110202,-8007.57,-8981.369999999999,3784.815,-4184.01,-12274.29,-28254.42,-13378.545,-10562.67
1764762811.5110202,-8009.549999999999,-8982.494999999999,3783.465,-4185.405,-12275.01,-28255.905,-13379.985,-10564.335
1764762811.5110202,-8008.965,-8982.81,3783.42,-4185.045,-12274.47,-28254.645,-13379.04,-10563.345
1764762811.5110202,-8010.764999999999,-8984.205,3781.395,-4186.665,-12276.36,-28256.355,-13379.67,-10564.065
1764762811.5110202,-8016.255,-8989.47,3776.445,-4191.345,-12281.22,-28261.845,-13386.51,-10570.185
1764762811.5110202,-8017.065,-8989.92,3775.68,-4191.57,-12281.4,-28262.79,-13387.005,-10571.625
1764762811.5110202,-8016.389999999999,-8988.48,3776.85,-4190.264999999999,-12279.105,-28260.72,-13385.655,-10570.995
1764762811.5110202,-8015.715,-8987.805,3777.57,-4190.625,-12279.69,-28261.89,-13385.43,-10570.185
1764762811.5110202,-8014.815,-8987.265,3778.785,-4189.68,-12279.555,-28262.295,-13384.665,-10568.745
1764762811.5110202,-8014.905,-8987.355,3778.2,-4190.715,-12280.095,-28262.88,-13384.305,-10568.61
1764762811.5110202,-8014.139999999999,-8986.77,3779.46,-4189.68,-12278.61,-28261.125,-13383.27,-10567.665
1764762811.5110202,-8008.514999999999,-8981.145,3785.22,-4183.605,-12271.995,-28254.51,-13377.33,-10561.185
1764762811.5110202,-8010.99,-8983.98,3781.53,-4186.98,-12275.415,-28258.155,-13379.445,-10564.245
1764762811.5110202,-8009.73,-8982.225,3783.15,-4185.36,-12274.29,-28256.895,-13376.745,-10563.03
1764762811.5110202,-8014.455,-8986.815,3778.38,-4189.905,-12279.105,-28260.945,-13380.39,-10568.43
1764762811.5110202,-8009.73,-8981.46,3782.97,-4184.865,-12275.01,-28256.94,-13377.87,-10563.795
1764762811.5110202,-8009.639999999999,-8980.02,3784.14,-4183.605,-12272.94,-28255.635,-13381.155,-10563.615
1764762811.5120337,-8014.094999999999,-8985.105,3779.415,-4188.105,-12277.44,-28262.295,-13390.83,-10568.79
1764762811.5120337,-8011.799999999999,-8983.845,3779.595,-4188.645,-12277.215,-28260.495,-13383.855,-10565.82
1764762811.5120337,-8006.355,-8979.525,3783.96,-4184.82,-12273.57,-28255.995,-13373.82,-10559.115
1764762811.5120337,-8007.615,-8979.93,3783.735,-4185.045,-12273.345,-28254.285,-13371.93,-10560.645
1764762811.5598812,-8014.679999999999,-8985.105,3779.685,-4189.995,-12277.98,-28257.75,-13375.845,-10568.115
1764762811.5598812,-8011.17,-8982.404999999999,3782.025,-4187.07,-12275.73,-28257.075,-13380.165,-10564.83
1764762811.560545,-8005.5,-8976.645,3786.57,-4181.94,-12271.005,-28253.97,-13379.085,-10558.53
1764762811.560545,-8008.2,-8979.029999999999,3785.67,-4184.055,-12273.525,-28256.67,-13379.625,-10561.995
1764762811.560545,-8009.639999999999,-8981.01,3784.41,-4185.315,-12274.155,-28256.22,-13380.435,-10563.705
1764762811.560545,-8015.49,-8986.59,3777.93,-4190.895,-12277.62,-28257.84,-13383.09,-10567.215
1764762811.560545,-8016.12,-8986.365,3778.605,-4189.995,-12278.34,-28260.63,-13382.505,-10568.79
1764762811.560545,-8013.644999999999,-8984.97,3780.99,-4187.835,-12276.405,-28259.73,-13379.535,-10567.17
1764762811.560545,-8008.92,-8979.48,3785.76,-4183.425,-12271.995,-28255.365,-13375.215,-10561.365
1764762811.560545,-8010.179999999999,-8980.335,3784.05,-4184.37,-12273.3,-28255.86,-13377.105,-10562.13
1764762811.560545,-8016.525,-8986.455,3778.2,-4190.58,-12277.89,-28259.505,-13384.845,-10567.665
1764762811.560545,-8012.07,-8982.72,3782.43,-4185.45,-12272.895,-28256.49,-13384.89,-10564.02
1764762811.560545,-8011.799999999999,-8981.505,3784.185,-4183.29,-12272.355,-28257.345,-13385.565,-10563.705
1764762811.560545,-8015.625,-8985.015,3780.855,-4186.395,-12276.36,-28259.865,-13387.32,-10566.99
1764762811.560545,-8020.304999999999,-8990.279999999999,3775.14,-4192.29,-12281.49,-28260.945,-13382.82,-10569.69
1764762811.560545,-8013.96,-8984.34,3780.81,-4187.115,-12276.18,-28254.555,-13372.605,-10561.86
1764762811.560545,-8014.094999999999,-8984.97,3779.595,-4189.139999999999,-12277.89,-28258.245,-13376.97,-10562.13
1764762811.560545,-8014.995,-8986.859999999999,3777.03,-4191.3,-12280.23,-28261.125,-13380.39,-10563.075
1764762811.560545,-8017.11,-8988.119999999999,3775.41,-4192.514999999999,-12282.255,-28262.655,-13380.93,-10565.865
1764762811.560545,-8022.554999999999,-8991.135,3773.205,-4195.08,-12283.965,-28265.535,-13385.7,-10572.21
1764762811.560545,-8019.719999999999,-8988.21,3777.93,-4189.455,-12278.52,-28260.405,-13382.82,-10570.995
1764762811.560545,-8014.905,-8984.205,3782.61,-4183.83,-12272.715,-28254.465,-13377.51,-10566.045
1764762811.560545,-8015.58,-8985.33,3780.72,-4186.17,-12274.83,-28257.075,-13378.635,-10566.765
1764762811.560545,-8023.32,-8993.16,3772.8,-4194.54,-12283.785,-28266.615,-13386.33,-10573.74
1764762811.6050177,-8021.924999999999,-8992.44,3772.935,-4194.27,-12282.885,-28265.715,-13385.205,-10572.12
1764762811.6050177,-8015.625,-8985.869999999999,3779.235,-4187.97,-12276.315,-28259.28,-13379.58,-10565.595
1764762811.6050177,-8015.715,-8985.779999999999,3779.73,-4187.925,-12276.045,-28259.955,-13380.165,-10566.585
1764762811.6050177,-8019.54,-8990.279999999999,3774.735,-4192.695,-12279.735,-28264.5,-13384.935,-10570.545
1764762811.6050177,-8020.98,-8991.404999999999,3773.475,-4194.224999999999,-12281.04,-28265.85,-13384.98,-10571.13
1764762811.6050177,-8020.394999999999,-8990.64,3774.555,-4193.505,-12281.535,-28265.49,-13384.8,-10570.14
1764762811.6050177,-8015.804999999999,-8986.455,3777.93,-4189.139999999999,-12276.81,-28260.36,-13380.75,-10564.425
1764762811.6050177,-8015.67,-8986.14,3777.975,-4190.085,-12277.35,-28259.91,-13380.345,-10564.245
1764762811.6050177,-8016.165,-8986.455,3778.065,-4190.445,-12277.035,-28259.82,-13380.84,-10565.865
1764762811.6050177,-8021.745,-8991.72,3773.745,-4194.72,-12281.895,-28265.265,-13387.095,-10573.155
1764762811.6050177,-8021.16,-8991.539999999999,3773.97,-4195.395,-12281.94,-28265.13,-13385.295,-10571.85
1764762811.6050177,-8020.394999999999,-8991.494999999999,3774.555,-4194.764999999999,-12281.49,-28263.645,-13383.225,-10570.815
1764762811.6050177,-8016.299999999999,-8987.58,3777.525,-4191.795,-12278.79,-28260.45,-13378.095,-10566.72
1764762811.6050177,-8019.719999999999,-8990.955,3773.79,-4195.125,-12281.49,-28262.475,-13380.255,-10569.555
1764762811.6050177,-8016.165,-8986.904999999999,3779.01,-4190.4,-12276.27,-28259.91,-13382.235,-10566.225
1764762811.6050177,-8018.415,-8988.795,3778.11,-4192.2,-12278.25,-28261.935,-13385.88,-10569.87
1764762811.6050177,-8017.2,-8987.895,3778.02,-4191.389999999999,-12278.475,-28261.305,-13384.845,-10569.015
1764762811.6050177,-8013.554999999999,-8983.8,3781.26,-4187.295,-12274.47,-28256.58,-13379.355,-10564.335
1764762811.6050177,-8014.545,-8985.06,3780.045,-4188.24,-12275.235,-28256.985,-13378.41,-10563.885
1764762811.6050177,-8019.09,-8989.02,3776.355,-4192.245,-12278.565,-28259.955,-13385.79,-10568.835
1764762811.6050177,-8015.445,-8984.699999999999,3780.18,-4188.105,-12274.92,-28257.21,-13384.8,-10566.225
1764762811.6050177,-8016.66,-8987.625,3778.11,-4190.67,-12277.53,-28259.235,-13383.225,-10566.675
1764762811.6050177,-8017.469999999999,-8987.355,3777.795,-4191.255,-12278.43,-28261.575,-13384.53,-10567.53
1764762811.6050177,-8015.535,-8985.06,3779.775,-4189.095,-12276.99,-28260.315,-13384.44,-10565.28
1764762811.6050177,-8011.844999999999,-8981.369999999999,3783.78,-4185.45,-12273.12,-28256.085,-13376.34,-10560.285
1764762811.6050177,-8012.969999999999,-8981.595,3784.455,-4184.82,-12273.03,-28256.805,-13376.295,-10562.355
1764762811.6529305,-8019.315,-8987.67,3778.83,-4190.49,-12278.295,-28260.585,-13382.145,-10570.68
1764762811.6529305,-8020.125,-8990.64,3775.905,-4193.685,-12280.455,-28262.295,-13383.045,-10571.265
1764762811.6529305,-8016.434999999999,-8987.039999999999,3778.83,-4189.635,-12277.845,-28260.585,-13381.11,-10566.135
1764762811.6529305,-8022.105,-8992.395,3773.43,-4194.99,-12284.505,-28267.38,-13389.345,-10571.58
1764762811.6529305,-8021.88,-8991.945,3773.43,-4195.08,-12284.28,-28267.92,-13389.3,-10572.03
1764762811.6529305,-8016.75,-8986.77,3777.885,-4189.68,-12278.745,-28261.845,-13384.035,-10566.315
1764762811.6529305,-8016.48,-8986.904999999999,3777.66,-4189.815,-12281.22,-28266.57,-13384.89,-10565.685
1764762811.6529305,-8022.96,-8992.89,3771.36,-4196.115,-12285.495,-28270.125,-13389.12,-10571.535
1764762811.6529305,-8022.78,-8992.44,3772.485,-4195.755,-12281.445,-28262.025,-13380.795,-10570.14
1764762811.6529305,-8018.73,-8988.795,3776.985,-4191.84,-12277.935,-28258.605,-13378.14,-10567.53
1764762811.6529305,-8016.165,-8986.275,3779.28,-4188.599999999999,-12273.165,-28254.195,-13378.77,-10565.235
1764762811.6529305,-8016.615,-8985.914999999999,3779.01,-4189.32,-12273.75,-28255.86,-13381.92,-10565.145
1764762811.6529305,-8017.065,-8986.77,3778.11,-4189.77,-12276.18,-28259.01,-13384.305,-10567.215
1764762811.6529305,-8023.23,-8993.43,3772.395,-4195.755,-12282.75,-28265.355,-13387.86,-10572.57
1764762811.6529305,-8022.15,-8992.17,3773.025,-4195.62,-12281.715,-28264.275,-13384.44,-10570.86
1764762811.6529305,-8016.705,-8987.175,3777.795,-4191.03,-12276.45,-28257.615,-13376.475,-10564.38
1764762811.6529305,-8017.875,-8989.109999999999,3776.13,-4193.099999999999,-12279.24,-28260.765,-13376.205,-10564.29
1764762811.6529305,-8018.955,-8989.38,3775.635,-4193.37,-12279.87,-28261.89,-13378.14,-10566.585
1764762811.6529305,-8016.165,-8985.734999999999,3779.235,-4190.085,-12277.395,-28260.63,-13382.19,-10565.64
1764762811.6529305,-8019.54,-8988.75,3776.175,-4193.37,-12280.905,-28264.23,-13383.495,-10568.7
1764762811.7010903,-8015.715,-8985.69,3779.505,-4189.995,-12277.08,-28259.595,-13378.77,-10564.425
1764762811.7016208,-8015.04,-8985.914999999999,3779.505,-4190.04,-12277.215,-28259.55,-13379.895,-10564.02
1764762811.7016208,-8017.38,-8988.029999999999,3777.435,-4191.66,-12279.285,-28261.8,-13381.965,-10565.37
1764762811.7016208,-8019.63,-8989.785,3776.13,-4193.055,-12279.87,-28263.555,-13382.775,-10566.405
1764762811.7016208,-8021.07,-8992.529999999999,3773.655,-4195.98,-12284.01,-28269.045,-13384.035,-10568.34
1764762811.7016208,-8023.815,-8993.789999999999,3772.575,-4197.285,-12286.845,-28272.285,-13390.875,-10572.435
1764762811.7016208,-8020.259999999999,-8989.515,3775.995,-4193.145,-12283.38,-28269.225,-13386.915,-10569.42
1764762811.7016208,-8023.32,-8993.699999999999,3771.585,-4196.97,-12284.955,-28268.055,-13386.915,-10571.715
1764762811.7016208,-8021.565,-8991.81,3773.745,-4194.54,-12279.69,-28258.83,-13381.155,-10569.555
1764762811.7016208,-8025.344999999999,-8996.085,3769.65,-4198.59,-12284.91,-28264.86,-13385.61,-10573.29
1764762811.7016208,-8024.13,-8994.42,3771.72,-4197.78,-12284.64,-28265.625,-13385.475,-10572.48
1764762811.7016208,-8019.63,-8988.84,3778.155,-4192.02,-12278.88,-28260.585,-13381.515,-10567.71
1764762811.7016208,-8019.54,-8988.975,3778.605,-4191.21,-12277.935,-28260.765,-13380.39,-10567.08
1764762811.7016208,-8021.835,-8991.135,3775.86,-4192.92,-12280.05,-28262.745,-13381.02,-10569.06
1764762811.7016208,-8022.69,-8991.045,3774.87,-4194.09,-12281.895,-28263.24,-13381.29,-10569.33
1764762811.7016208,-8021.16,-8989.47,3775.815,-4193.639999999999,-12281.265,-28262.835,-13383.045,-10569.195
1764762811.7016208,-8020.08,-8987.895,3778.38,-4190.94,-12278.97,-28262.385,-13388.265,-10568.7
1764762811.7016208,-8024.58,-8993.565,3772.62,-4195.935,-12284.055,-28267.56,-13389.93,-10572.75
1764762811.7016208,-8019.809999999999,-8987.76,3777.57,-4191.795,-12278.61,-28262.655,-13384.305,-10567.62
1764762811.7016208,-8018.325,-8985.69,3779.73,-4189.139999999999,-12276.765,-28260.945,-13382.82,-10565.505
1764762811.7016208,-8018.73,-8985.69,3779.46,-4189.59,-12277.125,-28260.54,-13382.685,-10565.73
1764762811.7016208,-8020.71,-8988.48,3777.21,-4191.389999999999,-12279.825,-28261.395,-13384.53,-10567.575
1764762811.7016208,-8017.514999999999,-8986.23,3779.46,-4188.24,-12277.305,-28259.775,-13381.47,-10564.155
1764762811.7016208,-8023.32,-8991.99,3773.745,-4194.54,-12284.055,-28268.235,-13387.77,-10569.555
1764762811.7452357,-8025.165,-8993.744999999999,3771.945,-4196.97,-12286.215,-28270.53,-13390.605,-10571.13
1764762811.7452357,-8023.724999999999,-8992.529999999999,3774.015,-4194.945,-12284.1,-28268.46,-13389.705,-10569.78
1764762811.7452357,-8018.235,-8985.914999999999,3780.27,-4188.465,-12276.315,-28257.84,-13381.425,-10565.595
1764762811.745766,-8018.865,-8986.545,3779.055,-4189.23,-12277.26,-28257.03,-13379.625,-10564.83
1764762811.745766,-8023.32,-8991.315,3774.825,-4193.505,-12281.715,-28262.34,-13383.54,-10568.52
1764762811.745766,-8021.07,-8989.289999999999,3776.085,-4191.974999999999,-12279.825,-28261.665,-13383.54,-10566.99
1764762811.745766,-8020.17,-8988.525,3777.075,-4191.165,-12279.555,-28262.7,-13383.99,-10566.63
1764762811.745766,-8019.719999999999,-8988.39,3777.03,-4190.445,-12278.565,-28261.665,-13382.73,-10567.17
1764762811.745766,-8017.74,-8984.565,3780.72,-4187.295,-12276.09,-28259.235,-13382.55,-10564.83
1764762811.745766,-8019.764999999999,-8987.715,3777.615,-4190.22,-12279.285,-28262.745,-13385.43,-10566.18
1764762811.745766,-8022.014999999999,-8990.73,3774.78,-4192.74,-12281.715,-28263.78,-13384.71,-10569.195
1764762811.745766,-8023.995,-8993.115,3772.71,-4194.945,-12282.975,-28264.005,-13386.645,-10571.355
1764762811.745766,-8024.58,-8993.654999999999,3772.665,-4195.665,-12283.29,-28263.645,-13385.655,-10569.465
1764762811.745766,-8024.174999999999,-8993.789999999999,3772.26,-4196.79,-12283.29,-28264.59,-13384.53,-10569.42
1764762811.745766,-8021.474999999999,-8991.359999999999,3774.33,-4194.495,-12281.4,-28263.015,-13383.585,-10567.26
1764762811.745766,-8017.469999999999,-8986.859999999999,3779.73,-4189.139999999999,-12277.395,-28259.73,-13381.065,-10564.74
1764762811.745766,-8017.559999999999,-8987.085,3779.37,-4189.545,-12277.44,-28259.775,-13381.965,-10564.245
1764762811.745766,-8017.019999999999,-8986.14,3780.36,-4188.915,-12276.9,-28258.695,-13381.11,-10562.355
1764762811.745766,-8019.54,-8988.57,3778.695,-4191.435,-12279.33,-28260.315,-13383.99,-10564.47
1764762811.745766,-8023.769999999999,-8993.025,3773.43,-4195.485,-12283.425,-28264.95,-13387.905,-10569.33
1764762811.745766,-8020.035,-8989.244999999999,3776.94,-4191.57,-12279.51,-28261.215,-13383.99,-10566.09
1764762811.745766,-8019.495,-8988.615,3778.2,-4191.3,-12278.745,-28260.9,-13383.54,-10565.64
1764762811.793724,-8017.335,-8986.59,3780.495,-4189.365,-12276.63,-28259.055,-13381.11,-10563.615
1764762811.793724,-8016.299999999999,-8985.779999999999,3781.485,-4188.42,-12275.505,-28257.48,-13382.055,-10563.345
1764762811.793724,-8019.45,-8988.705,3778.65,-4191.57,-12278.34,-28260.27,-13385.115,-10566.36
1764762811.793724,-8017.83,-8986.904999999999,3779.595,-4190.895,-12277.755,-28259.595,-13383.315,-10564.56
1764762811.793724,-8013.24,-8981.865,3784.635,-4185.764999999999,-12273.615,-28255.32,-13377.6,-10558.035
1764762811.793724,-8012.115,-8982.225,3784.545,-4185.72,-12273.39,-28254.915,-13376.52,-10556.955
1764762811.793724,-8013.87,-8983.89,3782.745,-4187.07,-12274.74,-28255.995,-13378.095,-10558.98
1764762811.793724,-8020.755,-8990.145,3776.895,-4192.92,-12280.86,-28262.205,-13385.07,-10566.765
1764762811.793724,-8017.74,-8987.49,3779.955,-4189.77,-12277.305,-28258.875,-13383.63,-10565.37
1764762811.793724,-8020.394999999999,-8990.1,3777.075,-4193.01,-12281.175,-28262.295,-13388.355,-10567.755
1764762811.793724,-8019.045,-8987.895,3778.56,-4191.57,-12280.14,-28260.63,-13385.565,-10566.135
1764762811.793724,-8022.509999999999,-8991.045,3775.095,-4194.945,-12283.83,-28264.77,-13388.625,-10569.33
1764762811.793724,-8020.17,-8989.02,3776.445,-4192.695,-12282.255,-28263.15,-13383.63,-10566.99
1764762811.793724,-8015.49,-8984.565,3781.755,-4187.835,-12277.8,-28258.2,-13378.68,-10562.67
1764762811.793724,-8014.23,-8982.99,3783.15,-4187.43,-12277.08,-28258.83,-13380.075,-10561.815
1764762811.793724,-8014.365,-8983.17,3783.105,-4188.014999999999,-12277.62,-28258.92,-13378.59,-10561.455
1764762811.793724,-8016.03,-8985.33,3781.53,-4190.175,-12279.15,-28259.82,-13381.02,-10563.48
1764762811.793724,-8019.674999999999,-8989.56,3777.345,-4193.415,-12280.59,-28260.855,-13384.08,-10567.44
1764762811.793724,-8015.804999999999,-8984.88,3782.61,-4187.88,-12274.47,-28255.32,-13378.5,-10562.58
1764762811.793724,-8017.065,-8986.23,3781.485,-4189.905,-12277.035,-28257.615,-13378.005,-10563.345
1764762811.794947,-8019.269999999999,-8988.615,3779.955,-4192.74,-12279.915,-28259.91,-13378.365,-10565.955
1764762811.794947,-8024.13,-8992.17,3777.345,-4194.81,-12284.595,-28268.415,-13389.12,-10572.48
1764762811.794947,-8019.855,-8988.48,3780.315,-4192.38,-12283.695,-28270.665,-13390.83,-10568.61
1764762811.794947,-8014.769999999999,-8983.395,3785.805,-4187.295,-12279.33,-28266.93,-13384.53,-10563.03
1764762811.8387072,-8011.125,-8980.065,3789.315,-4183.065,-12273.705,-28258.515,-13378.995,-10558.17
1764762811.8387072,-8012.205,-8981.955,3786.93,-4184.37,-12272.445,-28250.64,-13375.035,-10557.99
1764762811.8387072,-8012.924999999999,-8983.08,3785.04,-4185.99,-12274.47,-28253.88,-13377.915,-10558.845
1764762811.8387072,-8017.605,-8987.355,3781.08,-4190.085,-12276.945,-28256.94,-13384.08,-10564.83
1764762811.8387072,-8020.17,-8988.119999999999,3779.82,-4191.84,-12279.33,-28258.965,-13387.32,-10568.475
1764762811.8387072,-8016.48,-8984.43,3782.97,-4187.79,-12273.93,-28254.24,-13382.19,-10564.29
1764762811.8387072,-8020.394999999999,-8988.3,3778.56,-4192.245,-12276.99,-28257.21,-13384.035,-10567.17
1764762811.8387072,-8016.705,-8983.664999999999,3782.52,-4187.79,-12274.74,-28256.445,-13381.965,-10563.39
1764762811.8392284,-8018.054999999999,-8984.97,3781.53,-4188.645,-12275.235,-28259.595,-13385.97,-10565.145
1764762811.8392284,-8019.764999999999,-8986.23,3779.91,-4190.22,-12277.26,-28261.755,-13387.05,-10566.765
1764762811.8392284,-8024.13,-8990.505,3776.355,-4193.775,-12281.49,-28266.12,-13390.47,-10569.825
1764762811.8392284,-8022.24,-8988.66,3777.885,-4192.65,-12280.005,-28264.095,-13386.465,-10567.44
1764762811.8392284,-8017.38,-8984.43,3782.07,-4187.34,-12274.605,-28257.3,-13379.355,-10562.49
1764762811.8392284,-8019.764999999999,-8987.175,3779.505,-4190.715,-12278.115,-28257.66,-13378.68,-10564.245
1764762811.8392284,-8021.429999999999,-8987.805,3778.11,-4192.605,-12279.915,-28260.09,-13380.3,-10565.73
1764762811.8392284,-8024.804999999999,-8992.08,3773.745,-4195.845,-12282.255,-28264.005,-13384.485,-10569.87
1764762811.8392284,-8017.965,-8985.6,3780.18,-4189.68,-12276.18,-28258.425,-13381.155,-10563.57
1764762811.8392284,-8016.165,-8983.619999999999,3783.15,-4187.61,-12275.1,-28258.515,-13383.405,-10561.995
1764762811.8392284,-8020.17,-8988.029999999999,3779.1,-4192.245,-12279.33,-28262.565,-13387.05,-10565.37
1764762811.8392284,-8024.355,-8992.395,3774.285,-4197.195,-12283.785,-28266.48,-13390.065,-10569.195
1764762811.8392284,-8020.889999999999,-8989.38,3776.76,-4194.315,-12281.715,-28263.24,-13385.25,-10564.83
1764762811.8392284,-8025.21,-8994.24,3771.855,-4198.995,-12285.54,-28267.65,-13389.795,-10567.98
1764762811.8392284,-8023.139999999999,-8990.955,3774.96,-4195.889999999999,-12281.94,-28265.445,-13387.95,-10566.855
1764762811.8392284,-8023.905,-8990.73,3774.195,-4195.98,-12282.705,-28265.4,-13386.15,-10568.025
1764762811.8392284,-8026.469999999999,-8993.88,3771.72,-4198.365,-12285.72,-28267.47,-13390.38,-10570.905
1764762811.8392284,-8027.415,-8994.42,3771.81,-4198.005,-12284.955,-28267.515,-13391.73,-10572.705
1764762811.8854733,-8027.144999999999,-8994.33,3771.63,-4198.139999999999,-12285.135,-28268.235,-13391.19,-10572.615
1764762811.8854733,-8028.269999999999,-8995.005,3770.505,-4199.175,-12286.395,-28270.26,-13391.865,-10574.1
1764762811.8854733,-8026.514999999999,-8993.744999999999,3771.81,-4198.68,-12286.26,-28270.215,-13390.335,-10571.76
1764762811.8854733,-8022.105,-8989.965,3775.41,-4194.855,-12283.56,-28266.615,-13387.095,-10566.675
1764762811.8854733,-8019.9,-8987.49,3777.615,-4192.29,-12281.445,-28264.77,-13386.24,-10565.64
1764762811.8854733,-8021.115,-8988.705,3776.805,-4193.505,-12282.48,-28266.165,-13387.86,-10567.845
1764762811.8854733,-8017.245,-8984.88,3780.36,-4189.41,-12277.395,-28260.855,-13383.0,-10563.255
1764762811.8854733,-8023.094999999999,-8990.82,3773.7,-4194.81,-12280.68,-28261.755,-13386.42,-10568.07
1764762811.8870344,-8023.005,-8991.359999999999,3772.575,-4195.845,-12282.705,-28263.24,-13386.915,-10567.755
1764762811.8870344,-8019.495,-8987.49,3776.85,-4192.65,-12279.87,-28261.665,-13385.295,-10565.73
1764762811.8870344,-8021.07,-8988.255,3776.355,-4193.055,-12280.365,-28263.825,-13386.105,-10567.17
1764762811.8870344,-8016.344999999999,-8984.789999999999,3780.045,-4189.095,-12276.27,-28258.74,-13381.065,-10562.265
1764762811.8870344,-8016.03,-8984.34,3780.18,-4188.465,-12276.18,-28258.695,-13381.155,-10562.265
1764762811.8870344,-8021.07,-8988.57,3775.185,-4193.685,-12280.815,-28263.06,-13386.6,-10566.855
1764762811.8870344,-8021.969999999999,-8988.705,3775.635,-4193.865,-12281.13,-28263.51,-13386.69,-10567.395
1764762811.8870344,-8020.575,-8987.49,3776.94,-4192.065,-12279.69,-28261.98,-13383.855,-10565.865
1764762811.8870344,-8016.12,-8982.81,3781.305,-4187.79,-12274.74,-28256.76,-13377.645,-10561.005
1764762811.8870344,-8023.094999999999,-8990.82,3772.98,-4196.205,-12282.57,-28264.32,-13383.315,-10567.755
1764762811.8870344,-8022.69,-8989.92,3773.61,-4195.935,-12282.255,-28266.84,-13392.405,-10567.35
1764762811.8870344,-8020.755,-8989.244999999999,3775.05,-4194.585,-12281.04,-28265.22,-13391.595,-10566.18
1764762811.8870344,-8013.554999999999,-8981.505,3782.835,-4187.295,-12273.345,-28258.11,-13386.78,-10560.33
1764762811.8870344,-8011.304999999999,-8978.039999999999,3785.805,-4183.965,-12270.015,-28253.655,-13377.915,-10557.945
1764762811.9343498,-8013.87,-8980.47,3783.285,-4185.72,-12272.22,-28255.005,-13377.78,-10559.655
1764762811.9343498,-8020.17,-8986.994999999999,3776.4,-4192.38,-12278.43,-28261.71,-13385.025,-10565.82
1764762811.9343498,-8020.889999999999,-8987.13,3776.67,-4192.83,-12278.565,-28262.34,-13385.61,-10565.235
1764762811.935568,-8015.219999999999,-8981.955,3782.16,-4187.565,-12273.795,-28257.03,-13381.2,-10560.42
1764762811.935568,-8014.049999999999,-8981.145,3783.06,-4187.025,-12273.21,-28256.22,-13379.49,-10559.565
1764762811.935568,-8019.269999999999,-8986.77,3777.66,-4191.84,-12279.015,-28261.395,-13384.575,-10564.605
1764762811.935568,-8025.389999999999,-8992.755,3770.595,-4198.77,-12285.405,-28267.47,-13389.84,-10570.77
1764762811.935568,-8024.715,-8990.955,3771.72,-4196.97,-12283.155,-28265.895,-13387.185,-10568.79
1764762811.935568,-8018.684999999999,-8984.43,3778.065,-4190.535,-12276.585,-28259.1,-13380.525,-10561.815
1764762811.935568,-8018.46,-8984.609999999999,3779.73,-4190.895,-12276.855,-28261.215,-13383.585,-10562.715
1764762811.935568,-8024.715,-8990.505,3774.06,-4197.014999999999,-12283.83,-28269.18,-13391.505,-10568.925
1764762811.935568,-8027.054999999999,-8992.529999999999,3772.26,-4199.58,-12286.215,-28271.745,-13394.88,-10571.04
1764762811.935568,-8025.48,-8991.359999999999,3774.15,-4197.465,-12284.1,-28270.125,-13395.42,-10570.05
1764762811.935568,-8020.485,-8986.545,3778.785,-4192.695,-12279.06,-28263.87,-13388.76,-10564.695
1764762811.935568,-8022.42,-8989.425,3776.13,-4194.9,-12281.58,-28263.645,-13386.645,-10567.395
1764762811.935568,-8028.54,-8995.32,3770.82,-4199.895,-12286.08,-28267.335,-13390.47,-10573.335
1764762811.935568,-8027.28,-8993.925,3771.585,-4199.04,-12285.18,-28267.29,-13389.84,-10572.3
1764762811.935568,-8024.894999999999,-8992.619999999999,3772.665,-4198.455,-12285.495,-28266.48,-13385.34,-10568.475
1764762811.935568,-8022.33,-8990.279999999999,3775.23,-4196.295,-12283.56,-28264.725,-13382.865,-10565.01
1764762811.935568,-8026.74,-8994.555,3771.36,-4200.165,-12287.655,-28272.06,-13389.66,-10570.68
1764762811.935568,-8023.724999999999,-8991.63,3774.375,-4195.889999999999,-12284.055,-28271.385,-13387.905,-10568.25
1764762811.935568,-8022.465,-8988.525,3776.535,-4193.505,-12282.48,-28270.89,-13391.37,-10567.215
1764762811.9365735,-8023.634999999999,-8991.135,3774.06,-4197.06,-12287.025,-28273.455,-13393.575,-10567.98
1764762811.9365735,-8028.9,-8997.885,3766.995,-4203.99,-12292.785,-28274.22,-13393.71,-10570.86
1764762811.9795413,-8024.804999999999,-8994.555,3770.64,-4199.49,-12285.9,-28264.995,-13387.68,-10565.64
1764762811.9795413,-8022.285,-8990.145,3776.445,-4193.415,-12279.33,-28261.35,-13390.29,-10566.675
1764762811.9795413,-8024.309999999999,-8990.055,3776.67,-4194.09,-12279.96,-28263.42,-13391.37,-10571.31
1764762811.9795413,-8027.91,-8994.69,3770.91,-4199.715,-12285.945,-28269.495,-13393.845,-10573.245
1764762811.9795413,-8024.849999999999,-8992.035,3773.25,-4197.645,-12284.19,-28266.84,-13391.055,-10569.78
1764762811.9795413,-8027.37,-8994.645,3771.045,-4199.535,-12286.26,-28268.055,-13391.28,-10571.85
1764762811.9795413,-8023.005,-8990.1,3775.77,-4194.99,-12281.355,-28262.43,-13386.015,-10568.88
1764762811.9795413,-8023.005,-8990.775,3775.095,-4195.98,-12282.165,-28263.465,-13387.77,-10568.655
1764762811.9795413,-8024.894999999999,-8992.845,3773.475,-4197.645,-12284.685,-28266.795,-13390.245,-10570.095
1764762811.9795413,-8028.855,-8996.31,3770.73,-4200.795,-12287.7,-28271.34,-13396.23,-10574.415
1764762811.9795413,-8025.795,-8993.565,3773.295,-4198.139999999999,-12285.225,-28269.855,-13395.96,-10571.67
1764762811.9795413,-8031.014999999999,-8998.695,3768.21,-4203.495,-12291.255,-28275.525,-13400.865,-10576.35
1764762811.9795413,-8027.775,-8995.185,3771.0,-4200.615,-12288.42,-28271.295,-13393.53,-10571.13
1764762811.9795413,-8025.434999999999,-8992.529999999999,3772.845,-4199.805,-12288.105,-28271.025,-13388.85,-10568.7
1764762811.9795413,-8026.74,-8993.97,3771.63,-4200.75,-12290.715,-28275.39,-13393.215,-10570.545
1764762811.9795413,-8027.639999999999,-8994.914999999999,3770.955,-4202.955,-12293.1,-28279.35,-13395.015,-10571.895
1764762811.9795413,-8031.96,-9000.09,3766.23,-4207.59,-12296.115,-28282.5,-13398.48,-10576.98
1764762811.9795413,-8030.79,-8998.875,3766.86,-4205.745,-12292.74,-28276.74,-13394.52,-10575.315
1764762811.9795413,-8025.165,-8993.52,3772.215,-4200.03,-12287.745,-28271.43,-13388.04,-10569.735
1764762811.9795413,-8028.945,-8996.67,3768.57,-4202.955,-12287.925,-28268.145,-13389.93,-10572.255
1764762811.9795413,-8023.815,-8990.82,3774.465,-4196.745,-12278.835,-28258.83,-13390.155,-10567.8
1764762811.9795413,-8027.37,-8993.925,3771.585,-4200.255,-12283.605,-28263.465,-13394.295,-10571.04
1764762812.0259347,-8021.429999999999,-8988.435,3776.895,-4195.44,-12279.69,-28260.45,-13387.5,-10564.965
1764762812.0259347,-8022.285,-8989.289999999999,3775.995,-4196.474999999999,-12280.995,-28261.935,-13387.095,-10565.28
1764762812.0259347,-8024.535,-8991.539999999999,3773.43,-4199.715,-12283.92,-28266.12,-13389.39,-10568.7
1764762812.0259347,-8020.62,-8987.67,3777.48,-4195.395,-12280.005,-28262.655,-13385.655,-10564.245
1764762812.0259347,-8018.775,-8986.815,3779.055,-4194.99,-12278.88,-28262.43,-13383.72,-10563.075
1764762812.0259347,-8023.094999999999,-8990.64,3775.23,-4198.455,-12282.705,-28266.435,-13389.48,-10567.17
1764762812.0259347,-8023.365,-8990.145,3774.87,-4199.22,-12282.84,-28266.795,-13388.4,-10566.63
1764762812.0259347,-8018.594999999999,-8985.555,3779.595,-4194.585,-12277.62,-28261.485,-13383.225,-10561.77
1764762812.0259347,-8019.9,-8986.5,3777.84,-4195.125,-12278.97,-28261.845,-13383.18,-10562.445
1764762812.0259347,-8024.355,-8990.369999999999,3774.33,-4199.13,-12283.245,-28266.57,-13387.23,-10566.0
1764762812.0259347,-8028.63,-8992.935,3771.27,-4202.19,-12286.395,-28270.215,-13390.515,-10570.14
1764762812.0259347,-8024.264999999999,-8989.244999999999,3775.005,-4198.139999999999,-12282.615,-28266.885,-13386.42,-10564.92
1764762812.0259347,-8022.599999999999,-8987.49,3776.58,-4196.7,-12281.58,-28265.355,-13384.845,-10562.31
1764762812.0269525,-8023.724999999999,-8987.895,3775.86,-4198.455,-12282.66,-28266.03,-13386.015,-10563.21
1764762812.0269525,-8024.894999999999,-8988.75,3774.465,-4198.86,-12284.01,-28268.055,-13388.445,-10565.145
1764762812.0269525,-8027.19,-8990.865,3772.575,-4199.895,-12285.72,-28269.495,-13390.065,-10566.675
1764762812.0269525,-8032.094999999999,-8995.455,3767.94,-4204.98,-12291.345,-28275.21,-13393.98,-10570.77
1764762812.0269525,-8029.394999999999,-8993.16,3769.605,-4202.055,-12288.51,-28273.23,-13393.845,-10568.205
1764762812.0269525,-8025.344999999999,-8989.289999999999,3774.42,-4198.05,-12283.785,-28270.845,-13392.945,-10564.92
1764762812.0269525,-8031.014999999999,-8995.77,3767.76,-4204.62,-12290.265,-28276.83,-13399.38,-10570.815
