Timestamp,Channel1,Channel2,Channel3,Channel4,Channel5,Channel6,Channel7,Channel8
1764762809.7313454,-494.865,-2059.695,-25696.215,-9673.02,-17936.19,-25231.5,-4932.179999999999,-650.745
1764762809.7313454,-496.215,-2060.055,-25696.305,-9672.165,-17936.594999999998,-25231.23,-4932.54,-651.6
1764762809.7313454,-503.505,-2066.58,-25703.415,-9679.59,-17943.12,-25237.485,-4937.94,-658.215
1764762809.7313454,-502.92,-2068.155,-25705.665,-9680.985,-17943.48,-25236.54,-4936.77,-656.4599999999999
1764762809.7313454,-509.355,-2078.37,-25718.13,-9693.45,-17952.66,-25242.885,-4940.865,-661.41
1764762809.7313454,-504.27,-2073.825,-25712.595,-9688.545,-17950.274999999998,-25240.905,-4939.785,-657.495
1764762809.7313454,-500.985,-2068.695,-25706.97,-9683.82,-17949.87,-25243.29,-4939.83,-656.8199999999999
1764762809.7313454,-499.455,-2064.69,-25702.47,-9680.04,-17948.79,-25243.065,-4938.12,-656.8199999999999
1764762809.7313454,-496.305,-2061.9,-25699.59,-9676.845,-17944.515,-25238.295,-4936.05,-653.4449999999999
1764762809.7313454,-498.915,-2066.49,-25705.845,-9682.29,-17946.135,-25237.62,-4936.41,-654.12
1764762809.7313454,-504.09,-2073.555,-25711.56,-9686.745,-17947.44,-25238.34,-4937.04,-658.215
1764762809.7313454,-503.055,-2071.62,-25709.4,-9684.225,-17946.045,-25237.89,-4936.679999999999,-656.9549999999999
1764762809.731878,-507.735,-2075.985,-25714.89,-9689.985,-17951.399999999998,-25242.57,-4939.425,-661.59
1764762809.731878,-505.89,-2074.14,-25714.755,-9689.76,-17950.23,-25241.58,-4938.345,-659.97
1764762809.731878,-502.155,-2070.045,-25711.065,-9687.96,-17950.545,-25242.165,-4938.795,-657.18
1764762809.731878,-502.065,-2069.865,-25711.02,-9688.86,-17952.75,-25244.64,-4939.92,-658.53
1764762809.731878,-501.84,-2068.74,-25709.85,-9687.735,-17953.335,-25246.125,-4940.91,-658.62
1764762809.731878,-502.245,-2067.795,-25708.05,-9685.17,-17951.13,-25244.46,-4940.235,-657.72
1764762809.731878,-500.31,-2067.03,-25705.08,-9681.03,-17947.395,-25241.085,-4937.58,-656.01
1764762809.731878,-498.06,-2065.815,-25704.405,-9680.4,-17945.73,-25239.015,-4934.88,-653.805
1764762809.731878,-499.68,-2067.84,-25707.105,-9682.2,-17945.505,-25238.475,-4934.655,-654.615
1764762809.777975,-502.785,-2069.955,-25708.635,-9683.73,-17947.53,-25240.995,-4936.995,-658.5749999999999
1764762809.777975,-509.67,-2076.48,-25715.205,-9690.48,-17955.27,-25248.015,-4942.08,-665.73
1764762809.777975,-507.78,-2074.995,-25713.315,-9688.95,-17953.559999999998,-25246.08,-4940.19,-662.895
1764762809.777975,-499.275,-2065.59,-25702.155,-9678.33,-17944.739999999998,-25239.24,-4935.15,-655.245
1764762809.777975,-502.425,-2068.965,-25706.52,-9682.515,-17948.655,-25241.49,-4936.455,-657.675
1764762809.777975,-509.355,-2078.055,-25719.075,-9694.215,-17953.965,-25244.955,-4939.92,-661.86
1764762809.777975,-507.915,-2076.885,-25718.49,-9693.27,-17953.155,-25244.19,-4938.48,-660.87
1764762809.777975,-502.695,-2070.945,-25710.84,-9686.475,-17948.43,-25240.41,-4936.23,-656.1899999999999
1764762809.777975,-502.56,-2070.405,-25710.525,-9686.34,-17950.094999999998,-25242.57,-4937.04,-656.595
1764762809.777975,-502.065,-2070.315,-25710.75,-9687.33,-17950.905,-25242.795,-4936.815,-656.595
1764762809.777975,-503.955,-2071.98,-25712.865,-9689.265,-17953.155,-25244.64,-4937.715,-657.765
1764762809.777975,-511.2,-2077.74,-25718.715,-9695.34,-17959.77,-25252.38,-4943.474999999999,-665.505
1764762809.777975,-507.195,-2072.655,-25712.235,-9688.635,-17956.485,-25250.895,-4941.405,-663.3
1764762809.777975,-501.615,-2065.5,-25703.415,-9680.04,-17950.184999999998,-25245.99,-4937.715,-658.935
1764762809.777975,-497.16,-2060.145,-25698.69,-9674.82,-17945.91,-25241.85,-4934.474999999999,-654.885
1764762809.777975,-503.865,-2069.865,-25710.975,-9687.105,-17954.91,-25247.97,-4936.905,-659.79
1764762809.777975,-506.97,-2077.47,-25720.02,-9693.81,-17956.755,-25246.755,-4936.77,-660.6899999999999
1764762809.777975,-502.47,-2071.98,-25713.855,-9688.14,-17952.704999999998,-25243.83,-4935.51,-657.54
1764762809.777975,-502.29,-2070.72,-25711.92,-9686.61,-17951.805,-25242.345,-4935.285,-657.9
1764762809.777975,-503.73,-2072.52,-25713.675,-9688.14,-17952.84,-25242.615,-4934.97,-658.665
1764762809.777975,-506.115,-2075.715,-25718.265,-9692.46,-17957.024999999998,-25245.315,-4937.085,-660.3299999999999
1764762809.7789824,-511.965,-2080.62,-25722.09,-9697.365,-17961.975,-25251.345,-4941.9,-665.9549999999999
1764762809.825633,-508.59,-2076.12,-25718.805,-9693.45,-17958.735,-25249.095,-4940.595,-663.615
1764762809.825633,-511.29,-2077.605,-25720.74,-9695.88,-17961.84,-25251.975,-4942.44,-666.855
1764762809.825633,-509.895,-2076.84,-25719.75,-9694.845,-17961.614999999998,-25251.3,-4941.9,-665.8199999999999
1764762809.825633,-508.95,-2075.895,-25718.58,-9694.08,-17960.67,-25250.625,-4940.775,-664.605
1764762809.825633,-505.395,-2070.63,-25713.09,-9687.96,-17956.305,-25247.385,-4938.795,-661.275
1764762809.825633,-507.555,-2071.845,-25712.37,-9687.555,-17956.755,-25249.95,-4940.054999999999,-664.29
1764762809.825633,-507.465,-2071.89,-25711.965,-9686.52,-17954.505,-25246.71,-4938.3,-663.7049999999999
1764762809.825633,-503.775,-2068.965,-25710.255,-9682.92,-17948.52,-25238.655,-4933.62,-657.405
1764762809.825633,-500.31,-2066.31,-25707.87,-9680.67,-17948.79,-25238.34,-4932.045,-654.885
1764762809.825633,-505.215,-2071.305,-25713.135,-9686.655,-17955.765,-25245.405,-4936.455,-661.005
1764762809.825633,-505.89,-2070.54,-25711.965,-9686.205,-17955.225,-25246.44,-4937.264999999999,-661.545
1764762809.825633,-508.365,-2073.465,-25715.34,-9689.895,-17957.295,-25248.015,-4938.03,-662.67
1764762809.825633,-507.69,-2075.13,-25716.915,-9690.39,-17957.52,-25247.7,-4937.355,-661.86
1764762809.825633,-504.855,-2073.015,-25714.44,-9687.015,-17953.739999999998,-25243.875,-4934.52,-658.4399999999999
1764762809.825633,-505.845,-2074.455,-25716.33,-9689.04,-17955.045,-25244.01,-4935.105,-659.295
1764762809.825633,-504.45,-2072.025,-25714.035,-9686.565,-17953.829999999998,-25243.56,-4934.835,-658.98
1764762809.825633,-506.655,-2072.43,-25714.17,-9686.34,-17954.55,-25245.63,-4935.554999999999,-661.545
1764762809.825633,-499.995,-2065.59,-25705.17,-9677.61,-17947.305,-25239.96,-4931.595,-656.8199999999999
1764762809.825633,-495.855,-2062.215,-25701.705,-9674.055,-17944.38,-25237.395,-4929.12,-653.355
1764762809.825633,-502.695,-2070.405,-25712.235,-9684.495,-17952.434999999998,-25242.39,-4932.855,-657.27
1764762809.825633,-509.085,-2077.875,-25721.55,-9693.18,-17959.14,-25247.655,-4936.59,-661.8149999999999
1764762809.825633,-508.095,-2076.84,-25720.515,-9691.65,-17957.7,-25246.89,-4936.815,-661.5
1764762809.825633,-509.94,-2078.415,-25721.55,-9692.28,-17959.68,-25249.59,-4938.929999999999,-665.595
1764762809.825633,-506.61,-2074.23,-25717.095,-9688.5,-17957.204999999998,-25247.97,-4938.255,-662.22
1764762809.8716087,-507.42,-2072.88,-25716.375,-9687.465,-17958.42,-25250.04,-4938.075,-663.435
1764762809.8716087,-503.685,-2068.47,-25711.425,-9683.505,-17954.82,-25247.16,-4935.78,-660.375
1764762809.8716087,-506.565,-2072.385,-25714.53,-9686.97,-17958.555,-25250.895,-4937.67,-663.615
1764762809.8716087,-510.48,-2078.415,-25721.91,-9693.72,-17962.29,-25252.245,-4939.56,-665.37
1764762809.8716087,-508.095,-2077.245,-25720.785,-9691.74,-17958.059999999998,-25247.205,-4937.04,-661.905
1764762809.8716087,-508.77,-2077.83,-25721.01,-9691.245,-17958.059999999998,-25247.52,-4936.724999999999,-662.985
1764762809.8716087,-512.73,-2081.205,-25723.98,-9694.98,-17962.29,-25252.11,-4939.02,-667.53
1764762809.8716087,-508.905,-2076.165,-25717.86,-9688.905,-17957.88,-25249.455,-4937.4,-664.11
1764762809.8716087,-503.235,-2069.37,-25709.94,-9681.12,-17950.95,-25243.965,-4933.889999999999,-659.0699999999999
1764762809.8716087,-500.31,-2064.42,-25704.99,-9675.72,-17946.765,-25240.86,-4930.514999999999,-656.64
1764762809.8716087,-499.32,-2063.745,-25704.315,-9674.82,-17946.855,-25240.68,-4929.615,-655.65
1764762809.8716087,-501.525,-2067.39,-25706.79,-9677.52,-17947.62,-25240.68,-4930.74,-657.27
1764762809.8716087,-500.58,-2065.68,-25704.675,-9675.81,-17947.44,-25239.735,-4929.795,-656.145
1764762809.8716087,-498.87,-2064.375,-25705.305,-9676.98,-17949.69,-25240.455,-4929.615,-654.615
1764762809.8716087,-498.78,-2064.915,-25705.755,-9677.205,-17949.645,-25239.51,-4929.03,-654.5699999999999
1764762809.8716087,-505.755,-2073.375,-25715.07,-9685.395,-17953.965,-25242.795,-4933.304999999999,-660.15
1764762809.8721273,-505.665,-2076.48,-25720.245,-9689.94,-17952.885,-25239.96,-4933.17,-658.4399999999999
1764762809.8721273,-505.08,-2076.12,-25721.685,-9691.965,-17955.585,-25242.21,-4933.395,-657.72
1764762809.8721273,-503.055,-2072.88,-25718.49,-9688.815,-17955.18,-25243.38,-4932.135,-656.37
1764762809.8721273,-502.695,-2071.62,-25715.205,-9685.89,-17953.065,-25242.03,-4930.38,-655.38
1764762809.8721273,-502.155,-2070.855,-25713.405,-9685.305,-17952.344999999998,-25241.31,-4929.389999999999,-654.7049999999999
1764762809.8721273,-499.545,-2068.965,-25711.245,-9683.64,-17951.94,-25240.635,-4927.679999999999,-652.905
1764762809.8721273,-503.055,-2071.53,-25714.08,-9685.53,-17954.235,-25242.705,-4930.47,-656.3249999999999
1764762809.8721273,-501.165,-2068.29,-25710.345,-9681.48,-17950.32,-25239.015,-4928.13,-654.93
1764762809.9190226,-494.865,-2063.07,-25703.415,-9674.595,-17943.795,-25232.13,-4924.17,-649.17
1764762809.9190226,-496.89,-2064.915,-25705.485,-9677.07,-17945.505,-25233.795,-4925.925,-651.105
1764762809.9190226,-496.395,-2064.915,-25705.755,-9676.845,-17944.965,-25233.66,-4924.08,-650.79
1764762809.9190226,-498.6,-2066.175,-25707.24,-9677.565,-17946.855,-25236.18,-4924.889999999999,-652.8149999999999
1764762809.9200575,-495.36,-2061.63,-25702.47,-9672.93,-17943.614999999998,-25233.57,-4921.92,-649.395
1764762809.9200575,-498.24,-2064.69,-25705.44,-9677.025,-17947.89,-25238.34,-4925.52,-653.22
1764762809.9200575,-498.06,-2064.78,-25706.97,-9678.195,-17947.215,-25235.955,-4924.755,-651.285
1764762809.9200575,-497.295,-2066.13,-25708.995,-9680.13,-17947.8,-25235.19,-4923.585,-650.0699999999999
1764762809.9200575,-499.005,-2067.75,-25710.75,-9682.2,-17950.815,-25238.61,-4925.7,-653.49
1764762809.9200575,-495.045,-2063.205,-25706.295,-9678.195,-17946.63,-25235.01,-4924.485,-650.25
1764762809.920575,-496.485,-2065.23,-25708.41,-9680.22,-17945.954999999998,-25234.38,-4923.9,-650.2049999999999
1764762809.920575,-501.03,-2068.965,-25711.02,-9682.875,-17948.07,-25235.91,-4926.465,-654.795
1764762809.920575,-503.685,-2070.495,-25713.045,-9684.0,-17950.95,-25239.285,-4927.545,-657.4499999999999
1764762809.920575,-502.02,-2070.315,-25712.46,-9683.055,-17952.12,-25239.33,-4927.095,-656.055
1764762809.920575,-499.5,-2067.795,-25709.04,-9680.625,-17950.32,-25238.43,-4926.645,-653.355
1764762809.920575,-500.22,-2068.335,-25710.12,-9681.48,-17952.93,-25241.445,-4927.095,-654.75
1764762809.920575,-500.13,-2067.795,-25710.48,-9681.57,-17953.02,-25240.995,-4927.095,-654.165
1764762809.920575,-498.645,-2066.715,-25709.805,-9680.715,-17949.555,-25236.405,-4925.79,-651.735
1764762809.9210262,-499.905,-2067.57,-25709.625,-9680.13,-17950.59,-25238.79,-4925.79,-654.5699999999999
1764762809.9210262,-496.035,-2061.63,-25701.75,-9672.075,-17945.46,-25235.865,-4923.36,-652.005
1764762809.9210262,-489.375,-2053.08,-25692.12,-9662.94,-17938.305,-25229.925,-4919.625,-646.47
1764762809.9210262,-494.955,-2058.84,-25697.655,-9668.43,-17943.57,-25235.145,-4923.45,-652.23
1764762809.9210262,-495.45,-2062.665,-25704.63,-9674.28,-17945.19,-25234.38,-4923.675,-650.79
1764762809.9210262,-500.445,-2071.305,-25715.925,-9683.865,-17949.105,-25235.82,-4925.205,-652.86
1764762809.9685116,-500.58,-2072.205,-25717.005,-9685.53,-17949.645,-25236.18,-4924.485,-652.635
1764762809.9685116,-500.04,-2070.45,-25714.845,-9683.595,-17949.195,-25235.775,-4923.135,-652.185
1764762809.9685116,-501.615,-2070.225,-25713.18,-9681.93,-17948.745,-25237.395,-4923.179999999999,-654.03
1764762809.9690225,-498.285,-2067.525,-25710.435,-9679.86,-17947.44,-25236.315,-4922.145,-651.555
1764762809.9690225,-494.37,-2064.24,-25707.33,-9676.53,-17944.605,-25232.535,-4920.165,-647.64
1764762809.9690225,-498.24,-2068.965,-25712.235,-9681.165,-17947.485,-25234.38,-4920.795,-650.43
1764762809.9690225,-491.175,-2061.945,-25706.52,-9675.855,-17943.48,-25230.105,-4917.69,-644.4
1764762809.9690225,-491.76,-2061.63,-25705.35,-9675.63,-17944.695,-25232.805,-4920.3,-646.605
1764762809.9690225,-493.29,-2062.935,-25704.945,-9675.315,-17944.605,-25234.155,-4920.525,-648.99
1764762809.9690225,-496.35,-2065.41,-25707.69,-9677.655,-17948.43,-25238.52,-4922.505,-652.05
1764762809.9690225,-492.885,-2061.675,-25704.225,-9673.74,-17944.739999999998,-25234.92,-4920.84,-648.18
1764762809.9690225,-493.29,-2062.08,-25704.81,-9674.73,-17946.315,-25236.135,-4922.19,-648.27
1764762809.9690225,-493.515,-2061.855,-25704.18,-9674.46,-17946.855,-25236.855,-4922.685,-649.0799999999999
1764762809.9690225,-495.0,-2061.81,-25704.315,-9673.965,-17947.62,-25238.43,-4923.27,-650.115
1764762809.9690225,-496.395,-2063.385,-25706.88,-9675.135,-17947.89,-25238.565,-4923.585,-651.375
1764762809.9690225,-502.38,-2072.52,-25718.22,-9686.16,-17953.335,-25240.905,-4925.429999999999,-654.975
1764762809.9690225,-500.085,-2072.79,-25719.345,-9687.06,-17951.13,-25237.17,-4922.235,-651.3299999999999
1764762809.9690225,-504.045,-2076.39,-25722.9,-9690.075,-17955.045,-25241.04,-4925.474999999999,-656.01
1764762809.9690225,-500.445,-2071.575,-25717.14,-9684.765,-17950.5,-25237.665,-4923.99,-652.77
1764762809.9690225,-498.78,-2070.045,-25713.18,-9681.525,-17948.88,-25236.72,-4924.125,-651.105
1764762809.9690225,-498.555,-2069.595,-25712.55,-9681.615,-17949.42,-25238.295,-4923.945,-651.555
1764762809.9690225,-499.365,-2069.82,-25712.28,-9681.39,-17950.094999999998,-25239.735,-4923.945,-652.3199999999999
1764762809.9690225,-497.565,-2066.445,-25709.355,-9679.14,-17948.34,-25238.07,-4922.685,-650.88
1764762809.9690225,-491.805,-2059.605,-25702.02,-9672.39,-17942.94,-25232.94,-4919.13,-645.48
1764762810.0128753,-489.915,-2057.175,-25699.365,-9669.195,-17940.69,-25231.815,-4917.24,-644.265
1764762810.0128753,-491.625,-2060.775,-25704.675,-9674.28,-17943.165,-25233.075,-4917.645,-645.7049999999999
1764762810.0128753,-495.045,-2066.355,-25711.875,-9680.94,-17946.09,-25234.02,-4918.32,-646.92
1764762810.0128753,-499.815,-2070.855,-25715.745,-9684.855,-17950.995,-25238.79,-4922.55,-651.8249999999999
1764762810.0140302,-496.53,-2067.615,-25711.515,-9679.905,-17947.665,-25236.0,-4921.02,-649.17
1764762810.0140302,-498.105,-2067.84,-25711.92,-9680.94,-17949.645,-25238.295,-4922.28,-651.8249999999999
1764762810.0140302,-494.955,-2064.51,-25708.005,-9677.835,-17947.125,-25235.28,-4920.66,-648.765
1764762810.0140302,-496.98,-2066.67,-25710.03,-9680.535,-17949.465,-25237.53,-4920.165,-650.43
1764762810.0140302,-496.44,-2066.805,-25710.66,-9680.13,-17948.565,-25236.63,-4918.905,-649.125
1764762810.0140302,-493.92,-2064.645,-25707.645,-9677.16,-17945.505,-25233.57,-4917.78,-646.155
1764762810.0140302,-497.34,-2068.38,-25712.46,-9682.155,-17950.635,-25238.025,-4919.895,-649.7099999999999
1764762810.0140302,-497.205,-2067.345,-25711.47,-9681.165,-17950.454999999998,-25237.665,-4919.49,-649.89
1764762810.0140302,-492.525,-2062.17,-25706.655,-9674.73,-17944.2,-25232.22,-4915.62,-644.715
1764762810.0140302,-494.37,-2062.845,-25707.915,-9676.755,-17946.54,-25235.415,-4917.825,-647.055
1764762810.0140302,-498.105,-2065.005,-25709.805,-9679.14,-17949.645,-25239.195,-4920.885,-651.105
1764762810.0140302,-497.88,-2063.565,-25707.465,-9676.62,-17947.17,-25237.845,-4920.705,-651.3299999999999
1764762810.0140302,-496.53,-2063.07,-25706.205,-9675.045,-17943.704999999998,-25234.695,-4918.679999999999,-649.89
1764762810.015257,-493.785,-2061.63,-25704.225,-9672.525,-17941.094999999998,-25231.41,-4916.52,-647.3249999999999
1764762810.015257,-492.93,-2061.99,-25705.53,-9674.55,-17944.245,-25233.525,-4916.205,-647.055
1764762810.015257,-497.25,-2067.03,-25711.155,-9680.49,-17950.364999999998,-25238.475,-4918.59,-650.0699999999999
1764762810.015257,-497.565,-2065.635,-25709.76,-9678.06,-17948.34,-25237.305,-4918.995,-649.5749999999999
1764762810.015257,-491.31,-2057.265,-25700.49,-9669.69,-17943.03,-25233.615,-4916.115,-644.5799999999999
1764762810.015257,-487.44,-2053.08,-25695.405,-9665.82,-17940.735,-25231.68,-4914.495,-642.1949999999999
1764762810.015257,-491.67,-2058.39,-25700.76,-9670.095,-17943.93,-25234.695,-4917.599999999999,-646.875
1764762810.0650482,-496.53,-2063.88,-25707.195,-9673.605,-17946.27,-25237.035,-4919.085,-651.6899999999999
1764762810.0660543,-502.29,-2071.98,-25717.005,-9682.47,-17949.825,-25238.43,-4921.605,-654.3
1764762810.0660543,-502.245,-2074.23,-25719.57,-9684.585,-17948.565,-25235.28,-4920.57,-651.87
1764762810.0660543,-501.57,-2073.555,-25718.805,-9684.9,-17949.329999999998,-25235.415,-4919.849999999999,-651.06
1764762810.0660543,-500.445,-2072.655,-25719.03,-9685.44,-17950.59,-25237.215,-4920.48,-651.15
1764762810.0660543,-495.315,-2067.12,-25713.495,-9682.02,-17951.04,-25237.89,-4918.995,-647.8199999999999
1764762810.0660543,-493.02,-2063.07,-25709.265,-9679.14,-17951.535,-25239.735,-4919.355,-647.28
1764762810.0660543,-490.59,-2060.055,-25704.99,-9674.685,-17948.7,-25238.205,-4917.735,-646.1999999999999
1764762810.0660543,-490.59,-2059.875,-25704.54,-9672.93,-17945.325,-25235.1,-4915.665,-645.48
1764762810.0660543,-494.73,-2064.33,-25708.905,-9676.17,-17945.1,-25234.605,-4916.34,-648.72
1764762810.0660543,-495.18,-2066.625,-25713.135,-9678.96,-17945.415,-25233.84,-4916.16,-648.9449999999999
1764762810.0660543,-497.7,-2070.495,-25717.59,-9683.145,-17949.239999999998,-25236.045,-4917.465,-649.935
1764762810.0660543,-501.12,-2073.645,-25719.57,-9685.98,-17953.92,-25241.175,-4920.48,-654.3
1764762810.0660543,-499.32,-2071.305,-25717.455,-9684.99,-17953.739999999998,-25242.48,-4920.435,-653.0849999999999
1764762810.0660543,-497.025,-2068.65,-25715.52,-9683.73,-17953.335,-25241.67,-4919.895,-651.78
1764762810.0660543,-500.22,-2070.0,-25718.22,-9685.755,-17955.405,-25243.47,-4921.2,-655.02
1764762810.0660543,-497.34,-2067.255,-25714.935,-9682.2,-17952.075,-25239.735,-4919.985,-652.14
1764762810.0660543,-496.35,-2066.67,-25714.125,-9681.165,-17951.04,-25239.015,-4919.04,-651.555
1764762810.0660543,-494.82,-2065.14,-25712.46,-9679.905,-17950.005,-25237.215,-4917.195,-649.35
1764762810.0660543,-497.295,-2067.705,-25713.27,-9681.48,-17952.12,-25239.735,-4918.095,-651.1949999999999
1764762810.0660543,-493.965,-2064.105,-25708.68,-9676.665,-17947.35,-25235.865,-4916.295,-647.865
1764762810.0660543,-497.52,-2066.265,-25711.47,-9679.275,-17948.925,-25238.61,-4917.78,-651.6
1764762810.1091502,-496.665,-2065.14,-25710.345,-9676.755,-17947.17,-25237.53,-4917.24,-650.655
1764762810.1091502,-493.74,-2061.945,-25707.33,-9673.29,-17944.155,-25234.47,-4915.44,-647.55
1764762810.1091502,-495.99,-2063.79,-25709.085,-9675.63,-17946.675,-25238.07,-4916.655,-649.53
1764762810.1091502,-492.75,-2060.19,-25706.52,-9672.435,-17944.02,-25234.92,-4915.17,-646.0649999999999
1764762810.1091502,-493.92,-2061.495,-25708.095,-9674.325,-17945.28,-25235.46,-4915.304999999999,-647.145
1764762810.1091502,-499.23,-2066.67,-25713.99,-9679.365,-17949.42,-25238.295,-4917.735,-651.3299999999999
1764762810.1091502,-496.215,-2063.745,-25710.66,-9675.945,-17946.54,-25234.92,-4915.575,-647.8199999999999
1764762810.1091502,-497.115,-2065.005,-25711.245,-9676.62,-17948.204999999998,-25236.99,-4917.24,-649.53
1764762810.1091502,-499.185,-2068.695,-25716.15,-9681.3,-17950.995,-25237.89,-4918.185,-651.24
1764762810.1091502,-502.47,-2074.365,-25722.045,-9686.61,-17954.415,-25240.725,-4920.795,-654.435
1764762810.1091502,-501.39,-2072.205,-25719.21,-9684.495,-17953.245,-25241.445,-4921.47,-654.525
1764762810.1091502,-501.48,-2070.09,-25716.195,-9681.525,-17952.255,-25242.165,-4920.885,-655.38
1764762810.1091502,-499.005,-2065.455,-25709.805,-9675.495,-17948.385,-25240.005,-4918.32,-653.49
1764762810.1091502,-496.305,-2062.755,-25706.475,-9671.355,-17942.94,-25233.21,-4914.54,-649.62
1764762810.1091502,-497.97,-2066.085,-25710.39,-9675.27,-17945.28,-25235.01,-4915.8,-650.115
1764762810.1091502,-498.15,-2068.65,-25714.575,-9679.95,-17948.969999999998,-25236.945,-4916.655,-650.745
1764762810.1091502,-498.015,-2069.55,-25716.24,-9682.47,-17950.364999999998,-25237.89,-4916.16,-650.43
1764762810.1091502,-505.305,-2077.785,-25724.79,-9691.02,-17957.88,-25244.865,-4922.595,-657.99
1764762810.1091502,-503.415,-2075.49,-25722.18,-9688.455,-17956.53,-25244.235,-4922.46,-656.505
1764762810.1091502,-500.94,-2071.53,-25715.97,-9682.155,-17952.344999999998,-25242.075,-4920.84,-655.155
1764762810.1091502,-502.02,-2069.685,-25712.325,-9680.22,-17952.704999999998,-25243.47,-4920.435,-656.1899999999999
1764762810.1091502,-500.535,-2068.515,-25712.73,-9679.77,-17951.94,-25241.445,-4918.95,-654.165
1764762810.1091502,-502.425,-2073.6,-25720.245,-9684.675,-17951.805,-25238.79,-4917.465,-652.68
1764762810.1091502,-506.835,-2079.54,-25727.715,-9692.055,-17957.7,-25243.605,-4920.389999999999,-656.8199999999999
1764762810.1091502,-503.28,-2074.365,-25721.73,-9687.6,-17955.719999999998,-25242.39,-4920.255,-654.2099999999999
1764762810.1091502,-500.085,-2069.64,-25715.88,-9683.145,-17954.594999999998,-25242.795,-4919.625,-652.995
1764762810.157431,-497.97,-2064.645,-25709.715,-9678.33,-17954.82,-25244.865,-4920.03,-652.68
1764762810.157431,-498.24,-2063.88,-25707.24,-9676.215,-17955.18,-25245.585,-4920.974999999999,-654.75
1764762810.157431,-496.44,-2064.33,-25710.93,-9678.195,-17952.48,-25240.545,-4918.59,-651.1949999999999
1764762810.157431,-505.98,-2078.955,-25730.19,-9695.745,-17959.77,-25243.83,-4921.245,-656.055
1764762810.157431,-510.3,-2082.06,-25733.655,-9699.615,-17964.405,-25249.23,-4924.26,-661.005
1764762810.157431,-508.77,-2079.0,-25728.345,-9694.71,-17962.605,-25248.915,-4923.36,-660.1949999999999
1764762810.157431,-506.88,-2076.12,-25726.005,-9691.47,-17961.03,-25247.835,-4922.775,-659.655
1764762810.157431,-505.305,-2074.23,-25722.855,-9688.995,-17960.219999999998,-25248.51,-4923.135,-659.115
1764762810.157431,-503.595,-2071.755,-25719.615,-9686.295,-17958.42,-25248.015,-4922.73,-657.54
1764762810.157431,-499.095,-2065.635,-25712.55,-9678.915,-17952.21,-25242.345,-4919.264999999999,-654.345
1764762810.157431,-494.865,-2060.64,-25707.825,-9674.28,-17946.45,-25236.315,-4915.215,-649.215
1764762810.157431,-503.415,-2070.225,-25718.985,-9684.99,-17954.64,-25243.425,-4921.29,-656.145
1764762810.157431,-504.495,-2073.645,-25723.755,-9689.31,-17957.969999999998,-25244.82,-4921.92,-656.1899999999999
1764762810.157431,-502.695,-2072.385,-25721.955,-9689.085,-17957.925,-25245.585,-4920.885,-655.425
1764762810.157431,-499.77,-2069.64,-25718.13,-9684.72,-17953.335,-25241.58,-4918.59,-652.995
1764762810.157431,-503.82,-2073.33,-25722.135,-9687.42,-17955.585,-25243.11,-4919.22,-656.1899999999999
1764762810.157431,-502.38,-2070.81,-25719.345,-9685.125,-17955.09,-25242.795,-4918.86,-654.48
1764762810.157431,-497.52,-2064.645,-25712.37,-9679.365,-17951.265,-25239.465,-4917.014999999999,-649.845
1764762810.157431,-498.105,-2065.095,-25714.62,-9681.48,-17953.065,-25239.87,-4915.98,-649.935
1764762810.157431,-502.83,-2070.36,-25720.38,-9687.24,-17957.52,-25243.245,-4917.78,-654.255
1764762810.157431,-497.88,-2065.59,-25714.17,-9681.84,-17953.829999999998,-25240.725,-4915.71,-650.2049999999999
1764762810.157431,-502.605,-2071.215,-25719.57,-9686.835,-17958.87,-25245.27,-4918.905,-655.515
1764762810.2050543,-505.035,-2074.005,-25723.395,-9690.255,-17960.219999999998,-25246.305,-4920.075,-657.3149999999999
1764762810.2050543,-505.215,-2074.095,-25723.305,-9689.49,-17959.41,-25245.99,-4920.705,-656.595
1764762810.2050543,-505.17,-2073.465,-25722.9,-9688.185,-17959.68,-25246.485,-4921.38,-657.99
1764762810.2050543,-505.485,-2072.835,-25722.405,-9688.32,-17959.274999999998,-25246.125,-4921.155,-658.0799999999999
1764762810.2050543,-503.955,-2071.485,-25721.595,-9687.78,-17958.6,-25245.675,-4921.92,-656.505
1764762810.2050543,-503.37,-2071.575,-25720.335,-9686.385,-17957.969999999998,-25244.865,-4920.345,-655.47
1764762810.2050543,-506.565,-2073.78,-25723.71,-9688.995,-17961.524999999998,-25248.195,-4922.55,-659.655
1764762810.2050543,-501.84,-2069.145,-25717.905,-9683.685,-17955.899999999998,-25243.65,-4919.67,-655.515
1764762810.2050543,-502.155,-2068.155,-25716.42,-9682.38,-17956.215,-25244.28,-4919.67,-656.4599999999999
1764762810.2050543,-503.595,-2068.065,-25714.845,-9681.57,-17959.184999999998,-25248.24,-4921.83,-659.295
1764762810.2050543,-499.905,-2064.33,-25710.255,-9677.34,-17956.079999999998,-25245.225,-4919.76,-655.155
1764762810.2050543,-503.28,-2069.28,-25715.34,-9682.155,-17957.655,-25246.305,-4919.355,-656.9549999999999
1764762810.2050543,-506.34,-2075.49,-25722.99,-9688.32,-17960.13,-25245.675,-4919.13,-657.72
1764762810.2050543,-509.715,-2082.195,-25732.125,-9694.935,-17961.84,-25244.505,-4919.849999999999,-658.755
1764762810.2050543,-508.635,-2080.53,-25730.64,-9692.82,-17960.535,-25244.28,-4919.94,-657.72
1764762810.2050543,-509.355,-2079.765,-25728.03,-9692.145,-17962.92,-25247.79,-4921.38,-659.8349999999999
1764762810.2050543,-506.655,-2076.165,-25724.25,-9689.22,-17962.29,-25247.16,-4921.245,-657.99
1764762810.2050543,-507.555,-2076.705,-25725.105,-9689.85,-17962.965,-25248.195,-4921.875,-659.475
1764762810.2050543,-505.755,-2075.805,-25723.845,-9688.005,-17959.995,-25245.315,-4920.66,-658.17
1764762810.2050543,-511.65,-2081.655,-25729.515,-9694.395,-17967.735,-25252.155,-4925.61,-663.885
1764762810.2050543,-507.96,-2077.425,-25725.87,-9692.505,-17969.13,-25253.82,-4925.52,-660.8249999999999
1764762810.2050543,-511.38,-2079.675,-25728.21,-9695.61,-17973.225,-25259.895,-4928.49,-665.1
1764762810.2050543,-511.605,-2078.595,-25725.78,-9693.9,-17971.11,-25258.77,-4928.715,-665.37
1764762810.2050543,-508.815,-2077.29,-25724.79,-9692.595,-17968.364999999998,-25254.63,-4926.87,-661.905
1764762810.253663,-509.58,-2077.785,-25725.735,-9693.315,-17968.23,-25255.44,-4927.185,-662.85
1764762810.253663,-510.39,-2077.245,-25723.665,-9691.83,-17968.77,-25257.555,-4928.13,-665.3249999999999
1764762810.253663,-505.395,-2070.99,-25716.375,-9684.045,-17962.02,-25250.895,-4923.945,-660.465
1764762810.253663,-506.25,-2071.665,-25717.68,-9684.765,-17962.695,-25251.975,-4923.72,-661.77
1764762810.253663,-505.665,-2074.68,-25721.865,-9687.78,-17960.265,-25247.16,-4920.84,-658.665
1764762810.253663,-510.795,-2082.96,-25732.17,-9696.285,-17963.954999999998,-25247.925,-4921.965,-661.635
1764762810.253663,-514.485,-2086.515,-25735.545,-9699.03,-17967.239999999998,-25251.57,-4923.27,-664.6949999999999
1764762810.253663,-514.395,-2084.805,-25734.015,-9698.22,-17967.555,-25252.38,-4923.54,-664.245
1764762810.253663,-514.0799999999999,-2084.355,-25735.41,-9700.29,-17971.11,-25255.845,-4925.115,-664.92
1764762810.253663,-512.37,-2083.32,-25733.97,-9700.2,-17972.055,-25256.385,-4925.565,-664.38
1764762810.253663,-509.58,-2079.765,-25730.325,-9697.05,-17969.355,-25254.09,-4924.845,-661.23
1764762810.253663,-510.615,-2079.315,-25729.425,-9696.375,-17970.21,-25254.765,-4925.429999999999,-661.905
1764762810.253663,-513.225,-2081.43,-25731.045,-9697.815,-17971.649999999998,-25256.835,-4927.095,-664.6949999999999
1764762810.253663,-514.53,-2082.96,-25731.855,-9698.805,-17972.594999999998,-25258.32,-4928.355,-667.215
1764762810.253663,-511.515,-2079.045,-25727.535,-9695.34,-17969.715,-25255.08,-4926.599999999999,-665.775
1764762810.253663,-517.14,-2082.6,-25731.18,-9699.3,-17975.114999999998,-25261.965,-4930.605,-671.535
1764762810.253663,-516.87,-2081.79,-25730.28,-9697.59,-17974.62,-25262.73,-4930.785,-671.895
1764762810.253663,-514.26,-2080.215,-25729.245,-9695.88,-17971.829999999998,-25259.265,-4928.445,-669.465
1764762810.253663,-516.87,-2086.155,-25737.75,-9702.945,-17974.485,-25259.355,-4928.22,-669.465
1764762810.253663,-519.615,-2089.44,-25741.08,-9706.59,-17976.645,-25261.065,-4928.895,-670.3199999999999
1764762810.253663,-519.435,-2088.45,-25740.09,-9707.04,-17977.95,-25262.28,-4930.02,-670.185
1764762810.253663,-518.04,-2087.595,-25738.605,-9705.555,-17977.32,-25261.065,-4929.615,-669.15
1764762810.253663,-520.8299999999999,-2089.845,-25740.495,-9707.535,-17979.93,-25264.215,-4932.54,-672.2099999999999
1764762810.253663,-514.395,-2083.32,-25733.34,-9700.47,-17973.09,-25257.915,-4928.715,-666.54
1764762810.2967818,-511.2,-2080.08,-25729.74,-9695.655,-17968.59,-25254.675,-4925.205,-663.885
1764762810.2967818,-514.395,-2082.33,-25731.54,-9697.545,-17971.469999999998,-25257.105,-4927.365,-666.9449999999999
1764762810.2967818,-519.975,-2087.73,-25736.4,-9702.765,-17976.329999999998,-25262.1,-4930.74,-671.535
1764762810.2967818,-517.3199999999999,-2085.93,-25733.745,-9700.65,-17975.114999999998,-25261.11,-4929.255,-670.095
1764762810.2967818,-516.87,-2084.985,-25732.35,-9699.615,-17975.745,-25261.515,-4928.895,-669.8249999999999
1764762810.2977958,-516.735,-2083.995,-25731.315,-9698.175,-17975.88,-25262.46,-4929.12,-670.3199999999999
1764762810.2977958,-515.115,-2081.655,-25729.335,-9697.05,-17975.16,-25262.37,-4929.974999999999,-669.1949999999999
1764762810.2977958,-512.01,-2079.0,-25727.265,-9693.855,-17969.895,-25257.69,-4927.995,-666.045
1764762810.2977958,-515.835,-2083.455,-25731.585,-9697.725,-17973.989999999998,-25261.83,-4930.425,-670.365
1764762810.2977958,-517.005,-2085.525,-25734.915,-9701.19,-17975.969999999998,-25261.695,-4930.335,-669.555
1764762810.2977958,-516.78,-2085.615,-25736.49,-9701.235,-17974.079999999998,-25258.32,-4928.715,-667.7099999999999
1764762810.2977958,-521.145,-2089.53,-25739.55,-9703.8,-17975.79,-25259.715,-4930.02,-672.255
1764762810.2977958,-518.265,-2087.865,-25737.795,-9701.415,-17971.739999999998,-25255.665,-4928.355,-669.3299999999999
1764762810.2977958,-519.7049999999999,-2089.215,-25738.74,-9703.665,-17974.89,-25259.985,-4929.974999999999,-672.5699999999999
1764762810.2977958,-515.16,-2082.915,-25731.63,-9696.87,-17971.155,-25258.32,-4927.679999999999,-668.79
1764762810.2977958,-512.9549999999999,-2079.495,-25727.535,-9691.83,-17967.329999999998,-25255.8,-4925.52,-667.62
1764762810.2977958,-512.685,-2079.045,-25725.87,-9690.705,-17966.969999999998,-25255.035,-4924.665,-666.675
1764762810.2977958,-514.89,-2081.43,-25729.335,-9695.25,-17970.704999999998,-25257.87,-4926.105,-667.665
1764762810.2977958,-521.3249999999999,-2091.915,-25741.395,-9707.67,-17980.605,-25265.205,-4930.335,-673.74
1764762810.2977958,-522.18,-2093.985,-25744.095,-9710.64,-17981.684999999998,-25265.16,-4931.054999999999,-674.1899999999999
1764762810.2977958,-516.06,-2086.47,-25735.095,-9701.01,-17973.495,-25259.04,-4927.185,-668.43
1764762810.2977958,-514.4399999999999,-2082.87,-25730.28,-9696.645,-17972.28,-25258.635,-4927.139999999999,-667.845
1764762810.2977958,-513.045,-2080.845,-25727.535,-9694.35,-17971.649999999998,-25258.995,-4926.014999999999,-666.9
1764762810.2977958,-518.9399999999999,-2087.73,-25735.86,-9702.27,-17977.995,-25264.665,-4930.74,-671.715
1764762810.3452358,-519.795,-2090.565,-25740.45,-9705.6,-17977.86,-25262.415,-4929.48,-670.905
1764762810.3452358,-524.025,-2095.29,-25746.345,-9711.63,-17982.09,-25265.79,-4931.37,-674.64
1764762810.3452358,-522.405,-2093.985,-25743.96,-9709.02,-17980.739999999998,-25265.295,-4932.045,-673.8299999999999
1764762810.3452358,-518.4,-2089.215,-25738.74,-9702.855,-17976.195,-25261.695,-4929.75,-670.185
1764762810.3452358,-519.0749999999999,-2090.07,-25740.045,-9704.79,-17978.445,-25263.63,-4929.84,-671.175
1764762810.3452358,-520.515,-2091.42,-25741.575,-9706.77,-17980.829999999998,-25264.98,-4930.155,-672.5699999999999
1764762810.3452358,-514.53,-2085.165,-25734.51,-9700.02,-17974.125,-25257.96,-4925.79,-666.63
1764762810.3452358,-513.495,-2084.76,-25732.53,-9698.67,-17972.28,-25257.15,-4924.755,-665.055
1764762810.3452358,-512.8199999999999,-2084.535,-25732.395,-9698.94,-17972.46,-25257.96,-4924.575,-665.1899999999999
1764762810.3452358,-513.495,-2084.535,-25731.855,-9698.805,-17973.045,-25258.815,-4924.53,-666.72
1764762810.3452358,-509.22,-2080.17,-25728.345,-9693.99,-17969.309999999998,-25255.215,-4922.685,-662.9399999999999
1764762810.3452358,-508.32,-2078.505,-25726.59,-9692.055,-17967.645,-25253.37,-4921.83,-661.545
1764762810.3452358,-510.12,-2079.405,-25727.49,-9693.495,-17969.67,-25255.305,-4922.595,-662.895
1764762810.3452358,-512.8199999999999,-2081.61,-25728.885,-9695.79,-17972.864999999998,-25259.31,-4924.125,-666.3149999999999
1764762810.3452358,-511.605,-2078.505,-25724.295,-9691.155,-17969.579999999998,-25256.97,-4922.865,-665.37
1764762810.3452358,-510.39,-2078.1,-25725.42,-9691.425,-17969.355,-25255.395,-4921.56,-664.02
1764762810.3452358,-510.435,-2080.845,-25729.695,-9694.53,-17969.13,-25253.145,-4921.74,-663.12
1764762810.3452358,-516.645,-2088.045,-25737.75,-9702.54,-17975.295,-25257.555,-4926.645,-668.0699999999999
1764762810.3452358,-517.4549999999999,-2088.81,-25739.865,-9704.925,-17976.825,-25258.815,-4926.33,-667.755
1764762810.3452358,-513.3149999999999,-2084.715,-25734.51,-9700.605,-17974.665,-25257.96,-4922.955,-665.3249999999999
1764762810.3452358,-514.4399999999999,-2085.48,-25734.87,-9701.28,-17975.745,-25259.76,-4923.45,-665.9549999999999
1764762810.3452358,-515.88,-2086.695,-25736.22,-9702.495,-17976.42,-25260.84,-4924.395,-666.495
1764762810.3928545,-517.365,-2087.1,-25737.705,-9703.845,-17978.13,-25261.74,-4925.295,-667.485
1764762810.3928545,-516.645,-2087.19,-25737.93,-9704.565,-17979.975,-25262.685,-4925.7,-667.17
1764762810.3928545,-514.305,-2084.715,-25735.77,-9702.72,-17979.165,-25261.74,-4924.215,-665.37
1764762810.3928545,-507.24,-2077.155,-25727.31,-9694.62,-17971.739999999998,-25254.585,-4918.455,-658.5749999999999
1764762810.3928545,-508.14,-2077.425,-25727.175,-9694.08,-17970.704999999998,-25253.865,-4918.32,-659.61
1764762810.3928545,-516.105,-2083.77,-25733.97,-9699.66,-17975.295,-25258.77,-4922.595,-666.09
1764762810.3928545,-516.87,-2085.075,-25735.32,-9700.245,-17975.16,-25258.275,-4924.08,-666.72
1764762810.3928545,-516.51,-2086.38,-25735.995,-9700.695,-17975.16,-25259.13,-4925.295,-666.99
1764762810.3928545,-517.3199999999999,-2086.47,-25735.5,-9699.39,-17974.755,-25259.265,-4924.845,-667.53
1764762810.3928545,-515.385,-2083.905,-25732.26,-9696.555,-17974.53,-25259.805,-4923.405,-666.36
1764762810.3928545,-512.01,-2079.45,-25727.445,-9691.92,-17971.469999999998,-25258.32,-4921.38,-662.5799999999999
1764762810.3928545,-510.255,-2076.345,-25723.98,-9688.005,-17967.105,-25254.09,-4919.264999999999,-661.14
1764762810.3928545,-512.9549999999999,-2079.54,-25725.645,-9690.345,-17967.6,-25254.405,-4920.48,-663.7049999999999
1764762810.3928545,-513.3149999999999,-2080.485,-25728.12,-9692.775,-17968.905,-25255.89,-4921.245,-663.84
1764762810.3928545,-513.72,-2082.51,-25731.855,-9697.14,-17972.055,-25257.555,-4921.514999999999,-663.795
1764762810.3928545,-518.13,-2088.675,-25738.965,-9703.575,-17977.274999999998,-25260.3,-4923.99,-667.755
1764762810.3928545,-522.9449999999999,-2094.12,-25744.23,-9708.84,-17982.09,-25264.575,-4926.645,-672.165
1764762810.3928545,-521.73,-2092.59,-25742.115,-9706.725,-17979.704999999998,-25263.09,-4925.295,-671.04
1764762810.3928545,-520.92,-2091.69,-25740.9,-9705.645,-17978.085,-25261.2,-4923.945,-669.87
1764762810.3928545,-515.925,-2087.28,-25736.13,-9700.65,-17974.35,-25257.195,-4921.245,-665.91
1764762810.3928545,-515.52,-2085.39,-25733.385,-9697.005,-17973.225,-25256.43,-4921.065,-665.3249999999999
1764762810.3928545,-514.62,-2082.555,-25728.93,-9691.605,-17969.445,-25254.405,-4919.849999999999,-664.47
1764762810.3928545,-514.755,-2082.825,-25728.075,-9690.255,-17966.475,-25253.955,-4919.264999999999,-665.4599999999999
1764762810.3928545,-512.73,-2082.555,-25728.885,-9691.65,-17965.17,-25250.895,-4917.825,-662.31
1764762810.436721,-516.06,-2087.235,-25735.32,-9697.455,-17970.48,-25254.135,-4920.165,-664.875
1764762810.436721,-520.38,-2090.97,-25740.045,-9704.07,-17979.21,-25263.315,-4926.24,-669.915
1764762810.436721,-524.79,-2096.955,-25748.73,-9713.25,-17987.76,-25270.695,-4930.29,-674.775
1764762810.436721,-524.2049999999999,-2095.965,-25746.93,-9710.55,-17986.05,-25269.48,-4929.84,-674.8199999999999
1764762810.436721,-522.18,-2092.005,-25741.395,-9705.78,-17984.204999999998,-25268.265,-4928.535,-673.0649999999999
1764762810.436721,-518.85,-2088.945,-25737.84,-9700.92,-17980.335,-25264.53,-4926.195,-669.465
1764762810.436721,-523.53,-2093.67,-25742.115,-9705.24,-17984.745,-25269.255,-4929.255,-674.73
1764762810.436721,-523.8,-2095.2,-25744.77,-9707.355,-17983.665,-25267.365,-4929.255,-673.92
1764762810.436721,-523.4399999999999,-2096.055,-25746.615,-9708.75,-17982.405,-25264.62,-4928.895,-672.75
1764762810.436721,-521.28,-2094.255,-25744.14,-9707.04,-17982.045,-25263.99,-4927.455,-670.59
1764762810.436721,-521.73,-2095.155,-25745.445,-9707.94,-17982.315,-25264.485,-4927.724999999999,-670.4549999999999
1764762810.436721,-524.385,-2097.855,-25748.235,-9710.505,-17985.465,-25266.78,-4930.56,-673.47
1764762810.436721,-524.79,-2097.72,-25746.75,-9710.19,-17985.285,-25268.04,-4930.155,-674.8199999999999
1764762810.436721,-520.29,-2092.23,-25740.9,-9704.34,-17980.02,-25263.54,-4927.95,-670.77
1764762810.436721,-519.525,-2092.275,-25740.765,-9703.35,-17978.715,-25262.73,-4927.005,-669.645
1764762810.436721,-521.1899999999999,-2094.57,-25743.24,-9704.52,-17979.12,-25262.73,-4926.825,-670.545
1764762810.436721,-526.86,-2100.33,-25749.45,-9711.63,-17986.05,-25268.49,-4930.155,-676.035
1764762810.436721,-524.745,-2099.295,-25747.515,-9711.225,-17986.14,-25268.85,-4929.66,-675.495
1764762810.436721,-524.835,-2098.485,-25746.57,-9709.92,-17987.355,-25269.165,-4930.56,-675.9449999999999
1764762810.436721,-520.47,-2092.68,-25740.0,-9703.755,-17982.135,-25264.845,-4927.455,-671.265
1764762810.436721,-518.13,-2090.295,-25738.695,-9701.055,-17978.625,-25261.335,-4925.295,-668.25
1764762810.436721,-524.52,-2098.17,-25747.83,-9710.19,-17985.69,-25266.06,-4929.075,-673.8299999999999
1764762810.4839137,-521.8199999999999,-2095.965,-25745.985,-9709.29,-17985.195,-25265.52,-4928.67,-670.545
1764762810.4839137,-520.605,-2094.615,-25743.555,-9706.905,-17982.405,-25263.54,-4927.095,-670.365
1764762810.4839137,-521.73,-2095.38,-25744.14,-9708.03,-17983.17,-25265.025,-4926.33,-672.39
1764762810.4839137,-518.67,-2093.31,-25742.7,-9705.465,-17981.864999999998,-25264.485,-4925.745,-671.04
1764762810.4839137,-513.27,-2087.685,-25735.455,-9697.725,-17974.755,-25257.51,-4921.47,-664.605
1764762810.4839137,-512.55,-2086.29,-25733.88,-9696.375,-17973.54,-25256.295,-4919.445,-663.48
1764762810.4839137,-513.3149999999999,-2086.605,-25734.42,-9696.87,-17973.945,-25255.845,-4918.95,-664.29
1764762810.4839137,-507.06,-2079.135,-25726.365,-9690.12,-17968.77,-25251.345,-4914.99,-658.395
1764762810.4849205,-503.28,-2073.645,-25720.38,-9684.855,-17966.024999999998,-25249.41,-4912.11,-655.425
1764762810.4849205,-504.765,-2072.835,-25718.58,-9683.235,-17965.35,-25249.365,-4911.795,-656.8199999999999
1764762810.4849205,-503.055,-2071.44,-25717.41,-9681.21,-17963.64,-25247.655,-4910.49,-656.055
1764762810.4849205,-504.945,-2076.795,-25725.24,-9687.555,-17965.98,-25247.43,-4911.57,-655.47
1764762810.4849205,-511.695,-2086.2,-25737.615,-9699.3,-17972.954999999998,-25251.93,-4915.035,-660.06
1764762810.4849205,-511.92,-2087.73,-25739.145,-9700.83,-17972.01,-25250.67,-4915.8,-659.655
1764762810.4849205,-514.98,-2089.53,-25740.855,-9702.0,-17975.7,-25254.72,-4918.095,-663.5699999999999
1764762810.4849205,-516.915,-2089.755,-25739.37,-9701.46,-17978.219999999998,-25258.185,-4920.435,-666.81
1764762810.4849205,-511.605,-2083.005,-25730.955,-9693.54,-17972.594999999998,-25254.045,-4918.455,-662.715
1764762810.485427,-509.445,-2079.855,-25728.84,-9691.695,-17970.704999999998,-25252.83,-4916.52,-660.78
1764762810.485427,-509.355,-2079.765,-25727.715,-9690.93,-17968.905,-25250.355,-4915.17,-659.655
1764762810.485427,-512.37,-2083.275,-25731.63,-9692.865,-17969.895,-25252.02,-4916.88,-662.895
1764762810.485427,-519.165,-2092.905,-25744.005,-9704.475,-17978.355,-25258.545,-4920.929999999999,-669.3299999999999
1764762810.485427,-520.605,-2095.245,-25747.245,-9707.22,-17979.39,-25257.645,-4921.514999999999,-668.97
1764762810.485427,-515.115,-2089.395,-25740.27,-9701.37,-17973.945,-25253.055,-4917.645,-663.345
1764762810.485427,-513.18,-2085.795,-25735.23,-9696.69,-17971.425,-25251.615,-4916.34,-661.545
1764762810.485427,-516.015,-2087.865,-25736.085,-9697.86,-17972.864999999998,-25254.36,-4917.42,-664.8299999999999
1764762810.4859312,-513.3149999999999,-2085.795,-25733.79,-9695.79,-17972.28,-25253.595,-4916.52,-663.7049999999999
1764762810.5295794,-510.165,-2080.98,-25728.93,-9691.38,-17970.165,-25251.93,-4915.17,-660.1949999999999
1764762810.5295794,-509.58,-2077.695,-25724.025,-9686.97,-17969.76,-25252.83,-4915.44,-661.995
1764762810.5295794,-503.235,-2070.27,-25714.98,-9678.87,-17963.325,-25248.465,-4912.38,-657.045
1764762810.5309684,-511.245,-2081.34,-25728.525,-9689.94,-17968.32,-25250.94,-4914.405,-662.5799999999999
1764762810.5309684,-517.9499999999999,-2092.275,-25742.295,-9700.695,-17972.91,-25251.525,-4915.44,-665.1899999999999
1764762810.5309684,-514.35,-2090.61,-25742.07,-9701.37,-17972.55,-25250.13,-4915.26,-661.14
1764762810.5309684,-510.93,-2085.75,-25736.805,-9697.095,-17970.255,-25249.68,-4913.91,-658.845
1764762810.5309684,-508.185,-2081.61,-25732.485,-9694.305,-17969.805,-25250.67,-4912.335,-657.18
1764762810.5309684,-510.705,-2083.32,-25734.825,-9696.06,-17972.594999999998,-25253.145,-4913.82,-659.2049999999999
1764762810.5309684,-508.365,-2079.63,-25730.775,-9691.29,-17969.579999999998,-25250.445,-4912.335,-656.775
1764762810.5309684,-511.695,-2082.51,-25731.54,-9693.315,-17971.875,-25253.46,-4914.855,-660.6899999999999
1764762810.5309684,-508.59,-2078.775,-25726.815,-9689.175,-17969.489999999998,-25251.03,-4911.84,-658.125
1764762810.5309684,-505.62,-2077.02,-25726.275,-9687.915,-17967.329999999998,-25247.52,-4909.635,-655.245
1764762810.5309684,-512.595,-2084.445,-25735.68,-9697.32,-17975.34,-25255.17,-4915.395,-661.68
1764762810.5309684,-510.3,-2081.205,-25731.405,-9694.755,-17975.204999999998,-25255.755,-4915.304999999999,-660.1949999999999
1764762810.5309684,-506.115,-2077.425,-25725.87,-9688.05,-17968.32,-25249.23,-4910.895,-655.92
1764762810.5309684,-507.78,-2078.595,-25727.04,-9688.14,-17968.23,-25249.77,-4910.13,-657.855
1764762810.5322762,-507.195,-2079.18,-25728.12,-9689.265,-17967.42,-25247.205,-4908.735,-656.145
1764762810.5322762,-515.295,-2090.34,-25741.305,-9701.865,-17975.295,-25252.74,-4913.325,-662.13
1764762810.5322762,-515.97,-2092.59,-25743.51,-9703.935,-17977.545,-25254.675,-4916.16,-663.795
1764762810.5322762,-509.985,-2085.03,-25735.635,-9696.555,-17972.28,-25250.805,-4913.054999999999,-659.61
1764762810.5322762,-505.395,-2078.82,-25728.12,-9689.895,-17968.094999999998,-25248.105,-4909.23,-656.3249999999999
1764762810.578877,-496.305,-2067.165,-25714.755,-9677.25,-17957.969999999998,-25239.375,-4902.75,-648.765
1764762810.578877,-500.13,-2069.955,-25717.185,-9680.265,-17961.84,-25244.64,-4906.035,-652.995
1764762810.578877,-502.605,-2074.77,-25724.07,-9686.205,-17965.395,-25246.17,-4906.755,-653.895
1764762810.578877,-506.97,-2084.85,-25736.805,-9696.42,-17970.03,-25245.945,-4906.395,-655.965
1764762810.578877,-508.32,-2086.425,-25738.38,-9697.905,-17969.04,-25245.315,-4906.8,-656.1899999999999
1764762810.578877,-506.655,-2083.545,-25734.195,-9693.495,-17968.005,-25245.765,-4907.655,-656.505
1764762810.578877,-505.53,-2081.025,-25731.675,-9691.245,-17967.375,-25245.945,-4907.97,-655.6949999999999
1764762810.578877,-512.055,-2086.56,-25737.12,-9698.67,-17974.26,-25253.46,-4913.415,-661.905
1764762810.578877,-511.605,-2087.145,-25737.03,-9700.065,-17976.555,-25254.81,-4913.82,-661.3199999999999
1764762810.578877,-509.76,-2084.94,-25734.42,-9697.32,-17974.44,-25252.38,-4912.2,-659.16
1764762810.5798807,-506.7,-2081.475,-25730.595,-9692.775,-17968.59,-25247.925,-4909.995,-656.685
1764762810.5798807,-508.68,-2083.23,-25731.54,-9693.585,-17970.165,-25249.365,-4911.12,-658.395
1764762810.5798807,-511.875,-2085.12,-25734.195,-9696.015,-17973.225,-25252.515,-4912.695,-661.635
1764762810.5798807,-511.155,-2084.04,-25733.205,-9695.7,-17973.18,-25252.65,-4912.47,-661.14
1764762810.5798807,-509.445,-2082.555,-25732.17,-9695.565,-17972.01,-25251.48,-4911.255,-659.295
1764762810.5798807,-505.215,-2079.315,-25728.48,-9691.38,-17967.465,-25246.35,-4908.014999999999,-654.48
1764762810.5798807,-506.97,-2080.935,-25730.46,-9693.225,-17968.995,-25247.97,-4908.96,-656.64
1764762810.5798807,-504.045,-2077.74,-25727.22,-9689.49,-17965.395,-25244.955,-4907.295,-653.5799999999999
1764762810.5798807,-504.99,-2078.145,-25727.13,-9690.165,-17967.825,-25246.935,-4908.78,-655.1999999999999
1764762810.5798807,-502.38,-2075.535,-25723.44,-9687.195,-17967.42,-25247.25,-4908.465,-654.795
1764762810.580395,-500.22,-2072.88,-25720.92,-9685.08,-17966.969999999998,-25247.88,-4907.25,-654.795
1764762810.580395,-506.745,-2079.945,-25728.165,-9690.3,-17970.614999999998,-25251.12,-4911.255,-659.97
1764762810.6232238,-508.725,-2083.32,-25732.44,-9694.35,-17971.559999999998,-25250.265,-4911.84,-660.3299999999999
1764762810.6232238,-502.56,-2077.245,-25726.005,-9687.735,-17965.44,-25244.955,-4908.014999999999,-654.615
1764762810.6232238,-504.45,-2079.18,-25728.39,-9690.03,-17967.465,-25245.63,-4906.665,-655.92
1764762810.6232238,-511.92,-2088.225,-25739.415,-9700.695,-17975.34,-25251.075,-4910.445,-661.77
1764762810.6242344,-508.59,-2085.165,-25735.815,-9696.555,-17971.469999999998,-25246.89,-4908.42,-658.215
1764762810.6242344,-505.215,-2079.225,-25728.57,-9690.255,-17968.32,-25245.99,-4907.295,-657.09
1764762810.6242344,-503.865,-2075.67,-25724.16,-9687.465,-17968.545,-25247.79,-4908.42,-657.63
1764762810.6242344,-496.665,-2066.58,-25714.215,-9679.005,-17963.01,-25244.505,-4905.54,-651.9599999999999
1764762810.6242344,-496.395,-2067.93,-25714.53,-9679.32,-17962.739999999998,-25244.415,-4904.955,-650.79
1764762810.6242344,-504.18,-2077.38,-25725.555,-9687.78,-17967.195,-25245.63,-4907.025,-655.0649999999999
1764762810.6242344,-505.395,-2079.675,-25729.47,-9689.805,-17966.969999999998,-25244.55,-4905.27,-655.29
1764762810.6242344,-509.085,-2084.76,-25734.195,-9695.34,-17970.075,-25247.52,-4906.935,-658.125
1764762810.6242344,-507.555,-2082.465,-25731.405,-9693.27,-17967.329999999998,-25245.63,-4906.53,-656.91
1764762810.6242344,-510.435,-2085.3,-25734.735,-9696.69,-17971.515,-25249.365,-4907.79,-660.015
1764762810.6242344,-507.33,-2082.015,-25731.945,-9693.495,-17970.57,-25247.97,-4906.71,-657.27
1764762810.6242344,-505.53,-2079.495,-25727.535,-9690.93,-17970.344999999998,-25249.77,-4906.845,-656.91
1764762810.6242344,-502.965,-2076.975,-25725.87,-9689.715,-17968.094999999998,-25247.07,-4905.179999999999,-654.165
1764762810.6242344,-506.43,-2082.195,-25732.485,-9695.745,-17971.605,-25249.23,-4906.665,-656.37
1764762810.6252444,-510.48,-2086.74,-25738.515,-9701.235,-17974.98,-25252.29,-4910.04,-660.87
1764762810.6252444,-509.085,-2084.58,-25735.725,-9697.005,-17972.82,-25250.94,-4909.59,-660.78
1764762810.6252444,-506.34,-2081.07,-25731.0,-9692.73,-17970.255,-25248.555,-4907.97,-658.8
1764762810.6252444,-505.62,-2079.9,-25729.065,-9691.785,-17969.445,-25248.015,-4907.295,-657.5849999999999
1764762810.6252444,-505.62,-2078.91,-25728.57,-9691.29,-17968.815,-25248.6,-4906.8,-657.495
1764762810.6252444,-508.95,-2081.79,-25732.125,-9694.395,-17973.045,-25253.19,-4909.545,-661.365
1764762810.671075,-509.625,-2082.15,-25732.17,-9694.215,-17972.864999999998,-25252.875,-4910.445,-661.185
1764762810.671075,-509.67,-2083.86,-25732.98,-9694.215,-17972.055,-25251.39,-4909.41,-660.42
1764762810.671075,-506.7,-2080.665,-25730.595,-9691.695,-17969.04,-25248.42,-4906.304999999999,-657.495
1764762810.671075,-502.47,-2075.895,-25725.915,-9686.79,-17964.765,-25244.19,-4903.875,-653.22
1764762810.671075,-504.63,-2076.705,-25726.32,-9687.915,-17966.295,-25245.63,-4904.865,-654.7049999999999
1764762810.671075,-507.015,-2079.27,-25728.66,-9690.03,-17968.364999999998,-25247.745,-4907.97,-658.395
1764762810.671075,-510.165,-2083.32,-25732.17,-9693.0,-17971.245,-25250.085,-4909.05,-661.995
1764762810.671075,-509.895,-2083.68,-25733.295,-9693.72,-17971.515,-25249.455,-4908.33,-661.23
1764762810.671075,-508.68,-2082.015,-25731.27,-9692.19,-17970.3,-25249.14,-4907.745,-659.16
1764762810.671075,-504.675,-2078.64,-25727.94,-9689.265,-17966.7,-25245.315,-4905.9,-655.245
1764762810.671075,-505.665,-2080.08,-25730.055,-9691.605,-17969.355,-25246.755,-4905.99,-655.605
1764762810.671075,-508.95,-2082.915,-25732.44,-9694.8,-17973.135,-25250.355,-4907.295,-659.16
1764762810.671075,-507.15,-2081.97,-25730.19,-9692.865,-17970.93,-25248.375,-4906.8,-658.395
1764762810.671075,-501.795,-2075.805,-25723.17,-9685.98,-17964.36,-25241.355,-4902.03,-652.185
1764762810.671075,-500.445,-2074.77,-25721.64,-9683.775,-17962.739999999998,-25239.78,-4899.915,-651.105
1764762810.671075,-507.69,-2081.7,-25729.29,-9691.065,-17969.309999999998,-25247.07,-4905.224999999999,-658.4399999999999
1764762810.671075,-508.59,-2082.51,-25730.505,-9692.145,-17970.165,-25248.105,-4905.945,-659.0699999999999
1764762810.671075,-505.89,-2080.305,-25728.525,-9689.76,-17967.735,-25245.18,-4904.865,-656.8199999999999
1764762810.671075,-506.07,-2080.215,-25728.84,-9690.03,-17968.05,-25246.125,-4904.865,-656.415
1764762810.671075,-506.565,-2079.765,-25729.245,-9690.255,-17969.489999999998,-25247.655,-4905.54,-656.1899999999999
1764762810.671075,-508.815,-2082.33,-25732.665,-9693.81,-17973.54,-25250.22,-4907.25,-659.025
1764762810.6725967,-506.88,-2080.71,-25731.09,-9692.415,-17972.64,-25248.915,-4906.575,-657.495
1764762810.6725967,-509.31,-2083.41,-25733.61,-9696.33,-17975.969999999998,-25252.695,-4908.375,-659.52
1764762810.6725967,-505.44,-2079.855,-25729.38,-9691.74,-17972.684999999998,-25249.59,-4905.855,-656.28
1764762810.7186618,-499.905,-2074.68,-25723.62,-9685.035,-17966.204999999998,-25243.065,-4901.22,-651.6899999999999
1764762810.7186618,-499.86,-2074.905,-25722.99,-9684.45,-17965.575,-25242.3,-4901.49,-652.14
1764762810.7186618,-499.095,-2072.925,-25720.74,-9681.93,-17964.27,-25241.58,-4900.905,-651.105
1764762810.7186618,-498.015,-2071.17,-25719.12,-9680.085,-17963.19,-25240.23,-4899.645,-649.035
1764762810.7186618,-502.965,-2075.985,-25723.35,-9683.505,-17965.98,-25244.595,-4902.345,-654.165
1764762810.7186618,-506.52,-2079.18,-25726.86,-9686.52,-17968.005,-25247.52,-4904.82,-657.135
1764762810.7186618,-505.89,-2078.955,-25725.69,-9685.665,-17967.329999999998,-25246.8,-4904.415,-657.495
1764762810.7186618,-504.855,-2077.785,-25723.215,-9682.875,-17964.719999999998,-25244.505,-4902.255,-656.595
1764762810.7186618,-505.62,-2079.405,-25726.365,-9685.53,-17965.62,-25244.415,-4902.03,-656.145
1764762810.7186618,-506.115,-2082.195,-25730.865,-9690.39,-17968.23,-25243.47,-4902.03,-656.415
1764762810.7186618,-500.535,-2075.22,-25723.62,-9683.55,-17963.19,-25239.195,-4898.97,-652.23
1764762810.7186618,-499.995,-2072.745,-25719.435,-9680.355,-17963.64,-25242.84,-4901.175,-654.255
1764762810.7186618,-495.99,-2068.785,-25716.105,-9678.24,-17962.92,-25242.48,-4899.15,-650.34
1764762810.7186618,-499.68,-2073.465,-25721.28,-9682.875,-17967.329999999998,-25245.63,-4900.23,-653.175
1764762810.7186618,-497.655,-2069.955,-25717.68,-9678.555,-17963.235,-25242.75,-4899.645,-651.915
1764762810.7186618,-504.315,-2078.55,-25727.625,-9686.565,-17967.329999999998,-25245.495,-4901.535,-657.27
1764762810.7186618,-512.145,-2094.03,-25746.03,-9702.54,-17973.989999999998,-25246.98,-4904.55,-661.995
1764762810.7186618,-509.49,-2090.97,-25741.305,-9698.985,-17970.434999999998,-25243.965,-4903.02,-658.89
1764762810.7186618,-507.915,-2087.01,-25736.04,-9693.0,-17967.105,-25243.29,-4901.535,-658.125
1764762810.7186618,-502.02,-2080.935,-25730.775,-9688.275,-17964.09,-25240.59,-4899.645,-653.355
1764762810.7186618,-499.275,-2078.1,-25729.38,-9689.085,-17968.5,-25243.38,-4899.645,-652.05
1764762810.7186618,-506.295,-2084.85,-25735.905,-9696.825,-17976.555,-25251.795,-4905.855,-659.61
1764762810.7186618,-500.355,-2078.64,-25728.345,-9689.22,-17968.364999999998,-25244.595,-4901.22,-654.7049999999999
1764762810.7186618,-500.4,-2077.065,-25725.735,-9685.98,-17965.395,-25242.255,-4899.69,-654.2099999999999
1764762810.7657073,-505.53,-2082.42,-25732.44,-9691.02,-17970.075,-25246.53,-4903.29,-659.385
1764762810.7657073,-505.125,-2081.97,-25732.89,-9691.245,-17969.76,-25245.63,-4903.92,-658.395
1764762810.7657073,-509.805,-2086.425,-25737.39,-9695.835,-17974.575,-25250.85,-4906.53,-662.715
1764762810.7657073,-511.155,-2087.73,-25738.38,-9696.645,-17975.835,-25251.435,-4907.205,-663.93
1764762810.7657073,-505.98,-2082.465,-25733.655,-9692.55,-17972.37,-25247.115,-4903.74,-659.295
1764762810.7657073,-498.87,-2075.85,-25727.175,-9686.25,-17966.43,-25241.04,-4898.385,-652.095
1764762810.7657073,-499.545,-2075.94,-25727.715,-9685.71,-17966.79,-25241.49,-4898.925,-653.535
1764762810.7657073,-506.475,-2082.87,-25734.33,-9692.64,-17973.36,-25248.555,-4904.505,-661.14
1764762810.7657073,-504.18,-2079.855,-25732.395,-9690.93,-17971.38,-25246.755,-4902.974999999999,-659.52
1764762810.7657073,-502.155,-2078.82,-25731.405,-9689.895,-17968.815,-25244.145,-4902.57,-657.405
1764762810.7657073,-505.17,-2081.745,-25733.835,-9692.955,-17971.739999999998,-25247.295,-4904.28,-660.015
1764762810.7657073,-510.165,-2086.11,-25737.93,-9697.275,-17976.285,-25251.84,-4906.17,-664.1999999999999
1764762810.7657073,-508.455,-2084.04,-25734.96,-9693.855,-17973.27,-25248.375,-4903.92,-661.23
1764762810.7657073,-502.29,-2077.11,-25728.12,-9686.115,-17966.295,-25242.48,-4900.005,-655.1999999999999
1764762810.7657073,-500.58,-2076.075,-25726.23,-9684.18,-17964.809999999998,-25241.22,-4899.105,-653.9399999999999
1764762810.7657073,-500.94,-2077.02,-25725.735,-9683.64,-17964.765,-25241.67,-4898.835,-654.255
1764762810.7657073,-502.605,-2078.64,-25727.445,-9685.755,-17966.925,-25243.02,-4899.599999999999,-655.92
1764762810.7657073,-507.645,-2082.78,-25732.35,-9690.975,-17971.829999999998,-25247.745,-4902.705,-660.24
1764762810.7657073,-503.82,-2079.315,-25728.435,-9687.24,-17968.77,-25245.72,-4901.625,-656.55
1764762810.7657073,-501.93,-2076.345,-25724.745,-9682.785,-17967.015,-25245.045,-4901.31,-656.01
1764762810.7657073,-501.12,-2074.23,-25720.74,-9679.32,-17965.44,-25244.28,-4900.95,-656.505
1764762810.7657073,-503.235,-2076.345,-25721.865,-9681.57,-17968.094999999998,-25247.52,-4902.21,-658.845
1764762810.7657073,-511.47,-2086.74,-25733.88,-9693.315,-17975.385,-25253.595,-4906.304999999999,-665.64
1764762810.7657073,-512.415,-2088.09,-25736.49,-9695.97,-17975.969999999998,-25253.865,-4907.385,-666.18
1764762810.8113186,-511.38,-2089.53,-25738.155,-9697.68,-17976.195,-25252.245,-4907.115,-664.0649999999999
1764762810.8113186,-514.35,-2094.615,-25744.41,-9702.54,-17978.219999999998,-25252.065,-4907.34,-665.1
1764762810.8113186,-516.6899999999999,-2096.46,-25746.3,-9704.385,-17981.864999999998,-25255.62,-4909.455,-667.935
1764762810.8113186,-517.9499999999999,-2095.83,-25745.94,-9704.7,-17985.195,-25259.805,-4912.47,-670.995
1764762810.8113186,-520.65,-2096.595,-25747.065,-9707.04,-17987.355,-25263.36,-4914.495,-673.74
1764762810.8118262,-518.67,-2094.165,-25743.33,-9703.215,-17983.98,-25261.245,-4912.335,-672.2099999999999
1764762810.8118262,-513.99,-2089.035,-25736.895,-9696.735,-17979.975,-25257.645,-4911.389999999999,-668.5649999999999
1764762810.8118262,-512.415,-2085.075,-25730.145,-9691.02,-17978.67,-25258.455,-4911.795,-668.61
1764762810.8118262,-509.895,-2081.52,-25725.51,-9686.115,-17976.329999999998,-25257.15,-4909.365,-668.0699999999999
1764762810.8118262,-508.32,-2081.295,-25727.58,-9685.755,-17973.09,-25252.155,-4906.845,-664.38
1764762810.8118262,-511.83,-2088.45,-25738.155,-9697.455,-17979.57,-25255.935,-4909.185,-665.775
1764762810.8118262,-514.125,-2091.915,-25741.98,-9700.83,-17981.415,-25256.7,-4911.03,-667.89
1764762810.8118262,-515.97,-2092.59,-25741.305,-9701.595,-17983.62,-25259.04,-4913.19,-669.1949999999999
1764762810.8118262,-520.0649999999999,-2097.315,-25747.47,-9706.815,-17986.905,-25261.245,-4914.585,-672.7049999999999
1764762810.8118262,-529.0649999999999,-2109.105,-25760.205,-9717.255,-17992.844999999998,-25264.98,-4917.554999999999,-679.5899999999999
1764762810.8118262,-529.0649999999999,-2109.42,-25760.16,-9716.805,-17991.36,-25263.855,-4917.285,-679.365
1764762810.8118262,-523.62,-2102.265,-25752.555,-9709.965,-17986.454999999998,-25260.39,-4915.44,-674.775
1764762810.8118262,-523.89,-2102.13,-25752.645,-9711.765,-17990.91,-25265.565,-4916.79,-675.5849999999999
1764762810.8118262,-523.26,-2100.78,-25752.87,-9712.845,-17993.79,-25268.58,-4918.59,-675.99
1764762810.8118262,-523.17,-2100.735,-25752.555,-9712.44,-17992.079999999998,-25267.05,-4918.679999999999,-676.755
1764762810.8602998,-521.37,-2098.35,-25749.855,-9708.75,-17987.94,-25262.505,-4916.295,-674.055
1764762810.8602998,-523.305,-2099.655,-25750.53,-9709.29,-17988.885,-25263.675,-4916.25,-676.0799999999999
1764762810.8602998,-519.435,-2096.73,-25746.615,-9705.645,-17986.274999999998,-25261.11,-4914.54,-673.0649999999999
1764762810.8602998,-519.3,-2096.46,-25745.67,-9705.465,-17987.13,-25263.18,-4915.26,-674.055
1764762810.8602998,-519.48,-2096.01,-25744.995,-9705.78,-17989.02,-25265.88,-4914.81,-675.27
1764762810.8602998,-517.59,-2092.455,-25739.775,-9701.82,-17986.23,-25264.26,-4914.945,-673.785
1764762810.8602998,-515.0699999999999,-2089.665,-25736.31,-9698.355,-17982.495,-25261.02,-4913.55,-670.8149999999999
1764762810.8602998,-521.37,-2096.955,-25745.445,-9706.365,-17989.38,-25266.465,-4916.79,-675.99
1764762810.8602998,-523.53,-2100.465,-25751.115,-9711.315,-17991.855,-25267.995,-4917.465,-677.16
1764762810.8602998,-518.895,-2095.965,-25746.3,-9705.465,-17987.175,-25262.235,-4914.27,-672.93
1764762810.8602998,-519.03,-2096.46,-25746.66,-9706.14,-17986.68,-25260.885,-4913.595,-672.795
1764762810.8602998,-520.785,-2099.385,-25750.395,-9709.065,-17987.13,-25260.885,-4912.875,-673.6949999999999
1764762810.8602998,-524.385,-2103.975,-25754.94,-9714.105,-17992.215,-25265.565,-4915.755,-677.16
1764762810.8602998,-527.265,-2107.215,-25757.595,-9717.66,-17997.704999999998,-25271.505,-4920.705,-681.39
1764762810.8602998,-522.18,-2099.97,-25749.09,-9709.785,-17992.079999999998,-25267.32,-4918.23,-676.26
1764762810.8602998,-520.335,-2096.145,-25744.95,-9704.61,-17988.03,-25264.665,-4916.205,-674.9549999999999
1764762810.8602998,-522.0,-2097.18,-25745.895,-9704.79,-17988.21,-25265.34,-4916.88,-676.755
1764762810.8602998,-528.66,-2105.19,-25755.345,-9713.205,-17993.43,-25268.94,-4919.94,-682.56
1764762810.8602998,-529.245,-2106.72,-25756.065,-9713.16,-17992.934999999998,-25267.95,-4920.345,-683.1899999999999
1764762810.8602998,-522.72,-2098.665,-25746.39,-9703.665,-17984.475,-25261.335,-4915.62,-677.3399999999999
1764762810.8602998,-519.48,-2094.435,-25742.385,-9700.515,-17982.405,-25260.255,-4913.595,-674.595
1764762810.8602998,-514.62,-2090.205,-25738.605,-9699.255,-17984.16,-25260.615,-4911.255,-669.915
1764762810.8602998,-515.97,-2091.465,-25741.395,-9702.63,-17987.805,-25264.17,-4912.83,-671.715
1764762810.8602998,-524.25,-2101.365,-25751.655,-9712.395,-17996.04,-25271.55,-4918.365,-679.3199999999999
1764762810.907423,-526.545,-2105.145,-25754.58,-9714.6,-17996.13,-25271.73,-4918.679999999999,-680.625
1764762810.907423,-524.97,-2102.355,-25751.745,-9711.585,-17992.71,-25269.48,-4918.139999999999,-677.97
1764762810.907423,-528.615,-2105.055,-25754.805,-9715.14,-17995.68,-25272.585,-4920.615,-681.165
1764762810.907423,-527.22,-2104.425,-25754.445,-9713.565,-17994.195,-25269.345,-4919.355,-678.915
1764762810.907423,-531.225,-2108.745,-25758.315,-9717.03,-17997.975,-25272.63,-4921.47,-683.55
1764762810.907423,-528.795,-2105.55,-25754.355,-9714.015,-17995.995,-25270.38,-4918.86,-681.39
1764762810.907423,-524.43,-2101.77,-25750.845,-9711.135,-17993.34,-25266.645,-4916.115,-676.7099999999999
1764762810.907423,-523.17,-2100.42,-25748.01,-9708.795,-17992.215,-25267.23,-4916.34,-676.17
1764762810.907423,-524.745,-2101.68,-25747.695,-9709.02,-17993.655,-25270.2,-4919.085,-679.23
1764762810.907423,-527.625,-2103.165,-25750.35,-9711.27,-17994.915,-25271.01,-4920.615,-681.0749999999999
1764762810.907423,-530.415,-2108.43,-25757.595,-9717.525,-17997.21,-25271.685,-4920.345,-682.38
1764762810.907423,-531.72,-2111.445,-25760.385,-9721.665,-18002.204999999998,-25275.78,-4922.46,-684.36
1764762810.907423,-524.97,-2104.155,-25751.295,-9713.835,-17997.885,-25272.99,-4920.165,-679.86
1764762810.907423,-522.225,-2099.52,-25746.03,-9707.445,-17993.204999999998,-25270.065,-4917.78,-677.745
1764762810.907423,-524.2049999999999,-2101.185,-25747.65,-9707.805,-17993.114999999998,-25269.795,-4918.32,-679.4549999999999
1764762810.907423,-529.29,-2108.52,-25755.84,-9715.815,-17997.48,-25271.505,-4919.58,-683.1
1764762810.907423,-530.865,-2111.535,-25758.72,-9718.65,-17997.03,-25269.93,-4919.085,-683.1899999999999
1764762810.907423,-521.685,-2100.33,-25747.92,-9708.03,-17990.37,-25264.8,-4914.36,-675.81
1764762810.907423,-520.785,-2097.18,-25743.645,-9704.16,-17989.155,-25265.745,-4914.09,-675.18
1764762810.907423,-522.18,-2097.405,-25743.195,-9703.845,-17988.344999999998,-25267.095,-4915.889999999999,-677.2049999999999
1764762810.907423,-524.655,-2100.78,-25745.94,-9706.905,-17989.965,-25268.22,-4916.745,-679.14
1764762810.907423,-532.665,-2111.805,-25758.72,-9718.065,-17996.579999999998,-25272.045,-4919.804999999999,-684.9449999999999
1764762810.907423,-533.25,-2115.72,-25762.995,-9722.655,-18000.0,-25272.315,-4920.389999999999,-684.63
1764762810.907423,-533.745,-2114.19,-25758.72,-9720.27,-18000.18,-25274.295,-4921.514999999999,-686.5649999999999
1764762810.9536326,-531.18,-2110.095,-25754.04,-9715.14,-17996.67,-25271.28,-4920.12,-683.775
1764762810.9536326,-532.935,-2112.93,-25758.315,-9719.46,-18001.079999999998,-25275.15,-4921.695,-686.295
1764762810.9536326,-533.115,-2113.65,-25759.395,-9722.295,-18003.78,-25277.22,-4922.37,-686.97
1764762810.9536326,-531.99,-2112.57,-25758.765,-9722.07,-18004.59,-25278.165,-4923.135,-687.1949999999999
1764762810.9536326,-531.045,-2113.38,-25758.945,-9722.565,-18004.995,-25277.67,-4924.485,-687.4649999999999
1764762810.9536326,-536.67,-2119.365,-25765.92,-9729.045,-18011.34,-25282.98,-4927.86,-692.1899999999999
1764762810.9536326,-535.41,-2116.35,-25763.13,-9726.165,-18009.45,-25282.17,-4927.59,-690.39
1764762810.9536326,-529.92,-2109.375,-25753.995,-9718.155,-18002.43,-25276.635,-4924.215,-684.72
1764762810.9536326,-528.255,-2107.215,-25750.89,-9715.185,-17999.82,-25275.06,-4922.28,-683.73
1764762810.9536326,-527.67,-2105.775,-25749.945,-9713.925,-17999.37,-25273.575,-4920.929999999999,-682.875
1764762810.9536326,-527.9399999999999,-2105.325,-25750.35,-9714.33,-18001.44,-25275.105,-4921.29,-683.01
1764762810.9536326,-531.72,-2108.565,-25753.455,-9717.93,-18006.344999999998,-25280.415,-4923.495,-686.97
1764762810.9536326,-527.67,-2105.505,-25750.215,-9715.41,-18005.445,-25279.515,-4923.405,-684.0899999999999
1764762810.9536326,-529.965,-2110.455,-25758.54,-9722.97,-18008.73,-25280.865,-4923.855,-685.0799999999999
1764762810.9536326,-532.89,-2115.495,-25765.335,-9728.91,-18009.63,-25280.91,-4924.08,-686.385
1764762810.9536326,-536.4,-2118.42,-25767.315,-9731.205,-18012.195,-25283.88,-4927.095,-690.165
1764762810.9536326,-539.685,-2120.715,-25769.88,-9734.265,-18017.37,-25287.705,-4929.48,-693.045
1764762810.9536326,-538.92,-2120.67,-25769.88,-9733.68,-18017.01,-25287.615,-4928.804999999999,-692.1899999999999
1764762810.9536326,-537.39,-2119.005,-25766.19,-9729.315,-18013.635,-25285.32,-4927.77,-690.975
1764762810.9536326,-534.645,-2113.875,-25759.755,-9722.745,-18007.02,-25280.37,-4925.52,-687.915
1764762810.9536326,-537.3,-2116.125,-25761.24,-9723.33,-18008.325,-25282.44,-4925.565,-690.8399999999999
1764762810.9536326,-533.835,-2113.245,-25758.99,-9720.72,-18005.895,-25279.155,-4923.315,-688.9499999999999
1764762810.9536326,-529.74,-2109.06,-25754.985,-9717.165,-18000.899999999998,-25274.205,-4919.264999999999,-684.045
1764762810.9536326,-529.29,-2108.97,-25753.86,-9715.68,-17998.605,-25272.405,-4917.42,-683.28
1764762810.998893,-529.02,-2108.25,-25753.275,-9716.085,-18000.225,-25274.745,-4918.365,-683.8199999999999
1764762810.998893,-530.28,-2109.69,-25754.355,-9718.155,-18002.88,-25277.13,-4920.615,-684.5849999999999
1764762810.998893,-533.295,-2113.605,-25757.55,-9720.72,-18004.77,-25278.525,-4921.514999999999,-687.105
1764762810.998893,-538.0649999999999,-2117.745,-25762.725,-9725.175,-18009.225,-25283.385,-4923.63,-691.515
1764762810.998893,-538.6949999999999,-2118.465,-25763.535,-9726.57,-18010.395,-25284.375,-4925.07,-691.8299999999999
1764762810.998893,-538.38,-2118.6,-25763.895,-9726.3,-18008.594999999998,-25282.215,-4924.304999999999,-691.1999999999999
1764762810.998893,-533.61,-2112.705,-25758.495,-9720.135,-18002.43,-25276.14,-4921.02,-685.89
1764762810.998893,-531.99,-2109.87,-25755.255,-9717.12,-17999.505,-25274.385,-4919.04,-684.4499999999999
1764762810.9999022,-534.1949999999999,-2111.58,-25757.46,-9718.515,-18001.665,-25277.13,-4919.804999999999,-686.43
1764762810.9999022,-534.645,-2111.715,-25758.495,-9719.19,-18002.79,-25278.435,-4921.02,-686.8349999999999
1764762810.9999022,-537.165,-2114.37,-25760.655,-9722.43,-18006.704999999998,-25281.135,-4923.855,-689.535
1764762810.9999022,-541.98,-2120.445,-25766.55,-9729.45,-18014.13,-25288.155,-4927.635,-695.3399999999999
1764762810.9999022,-538.875,-2117.565,-25764.57,-9727.92,-18012.96,-25287.165,-4926.15,-692.055
1764762810.9999022,-534.06,-2113.155,-25759.845,-9722.07,-18006.84,-25281.63,-4922.28,-687.105
1764762810.9999022,-536.355,-2115.63,-25761.6,-9724.185,-18009.315,-25284.735,-4924.08,-690.39
1764762810.9999022,-534.1949999999999,-2111.895,-25757.1,-9720.045,-18007.605,-25283.07,-4922.37,-688.5899999999999
1764762810.9999022,-528.0749999999999,-2104.605,-25747.83,-9711.99,-18001.89,-25278.615,-4919.535,-684.36
1764762810.9999022,-523.485,-2098.395,-25739.415,-9704.115,-17995.32,-25274.115,-4916.115,-680.355
1764762810.9999022,-525.42,-2100.33,-25741.8,-9705.555,-17995.545,-25273.98,-4916.79,-681.255
1764762810.9999022,-535.3199999999999,-2116.485,-25762.725,-9723.735,-18006.3,-25278.345,-4920.12,-687.78
1764762810.9999022,-537.795,-2121.345,-25768.35,-9728.055,-18008.055,-25278.12,-4921.02,-688.68
1764762810.9999022,-536.085,-2118.015,-25764.075,-9724.455,-18008.055,-25279.38,-4922.685,-688.905
1764762811.046563,-535.59,-2116.845,-25763.895,-9724.545,-18009.18,-25281.405,-4923.405,-689.355
1764762811.046563,-539.865,-2121.12,-25767.54,-9728.37,-18011.88,-25285.095,-4924.935,-693.72
1764762811.046563,-537.03,-2118.825,-25764.345,-9724.545,-18008.415,-25282.08,-4922.639999999999,-691.785
1764762811.046563,-534.24,-2115.99,-25761.645,-9721.62,-18004.815,-25278.615,-4920.705,-688.725
1764762811.046563,-537.66,-2118.69,-25764.975,-9725.49,-18008.19,-25282.215,-4922.415,-692.055
1764762811.046563,-536.49,-2116.935,-25762.68,-9723.6,-18008.37,-25283.43,-4923.27,-692.145
1764762811.046563,-534.96,-2114.055,-25758.765,-9720.585,-18006.03,-25282.575,-4923.585,-691.6949999999999
1764762811.046563,-532.125,-2110.995,-25754.895,-9717.165,-18003.239999999998,-25279.29,-4920.389999999999,-689.49
1764762811.046563,-526.3199999999999,-2105.1,-25749.54,-9712.17,-17998.065,-25272.99,-4915.935,-684.045
1764762811.046563,-529.38,-2110.095,-25755.525,-9717.03,-18001.125,-25274.925,-4917.42,-685.665
1764762811.046563,-536.715,-2118.195,-25764.84,-9725.895,-18008.01,-25280.595,-4921.11,-690.8399999999999
1764762811.046563,-536.355,-2118.105,-25764.975,-9726.21,-18007.695,-25280.235,-4920.525,-690.615
1764762811.046563,-532.935,-2114.865,-25762.14,-9723.78,-18005.579999999998,-25278.075,-4918.23,-687.24
1764762811.046563,-533.835,-2114.55,-25762.14,-9724.275,-18008.055,-25281.99,-4919.94,-689.13
1764762811.046563,-529.74,-2110.905,-25756.695,-9719.145,-18003.51,-25278.03,-4918.05,-686.0699999999999
1764762811.046563,-528.975,-2109.375,-25753.86,-9716.355,-18001.934999999998,-25277.895,-4917.645,-686.2049999999999
1764762811.046563,-530.28,-2110.32,-25754.76,-9717.165,-18004.59,-25280.145,-4918.365,-687.8249999999999
1764762811.046563,-532.62,-2113.245,-25759.215,-9721.08,-18007.965,-25281.945,-4919.264999999999,-690.03
1764762811.046563,-531.72,-2114.415,-25761.465,-9722.115,-18004.454999999998,-25276.5,-4917.825,-688.3199999999999
1764762811.046563,-534.555,-2116.755,-25763.49,-9723.87,-18005.535,-25277.4,-4919.175,-690.795
1764762811.046563,-534.1949999999999,-2116.35,-25762.05,-9722.925,-18005.67,-25279.2,-4920.48,-691.515
1764762811.046563,-537.84,-2118.51,-25764.66,-9726.39,-18010.035,-25284.24,-4922.865,-695.115
1764762811.046563,-539.28,-2119.59,-25765.515,-9728.505,-18012.87,-25286.76,-4924.665,-696.42
1764762811.046563,-535.905,-2117.925,-25762.14,-9726.165,-18010.89,-25284.42,-4922.955,-693.99
1764762811.046563,-530.91,-2111.85,-25756.335,-9720.9,-18006.84,-25281.045,-4920.435,-688.68
1764762811.046563,-531.405,-2112.435,-25756.695,-9719.775,-18006.75,-25281.045,-4920.165,-688.41
1764762811.0946603,-533.0699999999999,-2114.82,-25760.115,-9722.295,-18007.02,-25280.595,-4920.48,-689.7149999999999
1764762811.0946603,-533.88,-2115.09,-25760.34,-9722.835,-18006.84,-25280.01,-4919.804999999999,-690.75
1764762811.0946603,-535.41,-2116.755,-25762.05,-9724.05,-18008.28,-25281.27,-4920.66,-692.28
1764762811.0946603,-538.245,-2119.23,-25764.57,-9726.165,-18010.44,-25284.015,-4923.405,-694.755
1764762811.0946603,-537.615,-2118.915,-25764.615,-9726.795,-18011.745,-25285.725,-4923.315,-694.89
1764762811.0946603,-539.01,-2119.905,-25765.695,-9728.055,-18013.364999999998,-25287.57,-4924.349999999999,-696.645
1764762811.0946603,-535.545,-2115.63,-25760.34,-9723.24,-18008.415,-25283.7,-4922.28,-692.235
1764762811.0946603,-540.3149999999999,-2119.725,-25765.605,-9727.965,-18013.454999999998,-25288.74,-4924.98,-697.68
1764762811.0946603,-542.43,-2123.55,-25769.745,-9732.015,-18016.695,-25290.855,-4926.554999999999,-699.5699999999999
1764762811.0946603,-540.18,-2121.93,-25767.09,-9729.945,-18014.67,-25288.02,-4925.835,-696.285
1764762811.0946603,-540.135,-2121.93,-25767.18,-9729.99,-18015.93,-25289.955,-4926.69,-697.095
1764762811.0946603,-540.0,-2121.57,-25766.685,-9729.63,-18016.56,-25291.8,-4926.51,-698.0849999999999
1764762811.0946603,-537.255,-2118.285,-25762.905,-9725.22,-18012.6,-25288.02,-4924.26,-695.88
1764762811.0955863,-542.475,-2123.73,-25769.205,-9731.25,-18017.37,-25292.295,-4928.355,-701.4599999999999
1764762811.0955863,-540.765,-2122.965,-25768.17,-9730.125,-18014.76,-25289.37,-4926.87,-698.9399999999999
1764762811.0955863,-540.405,-2122.56,-25768.305,-9730.125,-18014.13,-25287.84,-4925.429999999999,-697.275
1764762811.0955863,-541.665,-2124.135,-25770.24,-9732.33,-18016.92,-25289.37,-4926.15,-697.77
1764762811.0955863,-543.78,-2126.79,-25772.4,-9734.76,-18019.485,-25292.295,-4927.635,-699.795
1764762811.0955863,-540.135,-2123.145,-25767.72,-9730.44,-18015.03,-25289.685,-4925.565,-696.4649999999999
1764762811.0955863,-541.845,-2124.405,-25768.215,-9731.655,-18017.325,-25291.935,-4927.095,-699.03
1764762811.0955863,-541.4399999999999,-2123.595,-25766.91,-9731.25,-18018.18,-25291.08,-4927.365,-698.67
1764762811.0955863,-535.365,-2117.07,-25760.565,-9723.015,-18010.575,-25283.88,-4922.19,-692.1899999999999
1764762811.1397235,-532.26,-2113.515,-25756.605,-9718.965,-18005.76,-25279.83,-4917.69,-688.4549999999999
1764762811.1397235,-532.98,-2115.18,-25757.73,-9720.27,-18005.805,-25280.055,-4917.554999999999,-690.0749999999999
1764762811.1397235,-536.5799999999999,-2118.42,-25760.97,-9723.015,-18008.235,-25283.835,-4919.895,-693.81
1764762811.1397235,-534.96,-2115.36,-25757.865,-9720.63,-18006.57,-25283.34,-4919.535,-692.28
1764762811.1397235,-531.99,-2112.255,-25755.39,-9718.605,-18004.995,-25281.315,-4917.915,-689.265
1764762811.1397235,-535.3199999999999,-2116.845,-25760.88,-9723.33,-18008.55,-25284.465,-4920.03,-692.055
1764762811.1397235,-537.5699999999999,-2118.24,-25761.42,-9724.23,-18011.07,-25287.93,-4922.145,-695.655
1764762811.1397235,-533.385,-2112.345,-25752.96,-9716.895,-18007.515,-25286.895,-4921.155,-693.765
1764762811.1397235,-532.215,-2111.31,-25750.845,-9713.79,-18003.69,-25283.655,-4920.03,-692.685
1764762811.1397235,-533.25,-2113.2,-25754.04,-9717.21,-18004.545,-25282.17,-4919.895,-692.505
1764762811.1397235,-537.39,-2119.32,-25762.455,-9726.075,-18011.07,-25285.455,-4922.82,-694.26
1764762811.1397235,-543.42,-2126.565,-25770.78,-9734.355,-18020.025,-25292.655,-4927.724999999999,-700.425
1764762811.1397235,-544.86,-2129.895,-25775.64,-9739.08,-18021.6,-25292.52,-4927.724999999999,-699.93
1764762811.1397235,-550.17,-2136.915,-25782.93,-9746.055,-18026.82,-25295.67,-4930.47,-703.395
1764762811.1397235,-545.5799999999999,-2131.245,-25776.135,-9739.53,-18022.05,-25291.935,-4927.59,-698.805
1764762811.1397235,-546.48,-2131.245,-25775.595,-9738.855,-18021.87,-25293.15,-4926.33,-699.975
1764762811.1397235,-545.5799999999999,-2129.49,-25773.93,-9736.65,-18021.015,-25293.195,-4926.825,-699.7049999999999
1764762811.1397235,-542.5649999999999,-2124.855,-25767.72,-9731.295,-18017.82,-25290.765,-4924.53,-697.3199999999999
1764762811.1397235,-539.73,-2121.39,-25761.96,-9726.705,-18015.435,-25289.1,-4923.09,-694.89
1764762811.1397235,-533.97,-2115.09,-25754.445,-9718.695,-18008.37,-25282.845,-4919.67,-690.39
1764762811.1832523,-538.515,-2121.84,-25762.725,-9726.39,-18011.969999999998,-25285.005,-4922.19,-694.035
1764762811.1832523,-544.905,-2129.94,-25772.67,-9735.615,-18017.145,-25289.145,-4925.07,-698.9399999999999
1764762811.1832523,-545.4449999999999,-2129.265,-25772.94,-9736.92,-18019.845,-25292.88,-4926.195,-701.01
1764762811.1832523,-539.37,-2122.92,-25766.055,-9730.44,-18015.12,-25289.235,-4923.855,-695.43
1764762811.1832523,-537.795,-2120.94,-25763.67,-9727.515,-18013.77,-25287.84,-4922.415,-693.99
1764762811.1832523,-538.245,-2121.345,-25764.705,-9729.315,-18015.615,-25288.605,-4922.19,-694.7099999999999
1764762811.1838124,-540.405,-2123.19,-25768.305,-9732.78,-18018.315,-25290.0,-4923.945,-696.4649999999999
1764762811.1838124,-540.3149999999999,-2122.83,-25767.675,-9732.105,-18017.55,-25289.37,-4923.495,-696.51
1764762811.1838124,-543.24,-2126.88,-25770.33,-9734.805,-18019.845,-25291.62,-4923.855,-699.7049999999999
1764762811.1838124,-538.92,-2121.84,-25764.48,-9729.72,-18015.03,-25286.58,-4921.155,-696.1949999999999
1764762811.1838124,-536.715,-2118.285,-25760.025,-9725.67,-18011.114999999998,-25284.195,-4918.815,-693.9449999999999
1764762811.1838124,-541.53,-2122.155,-25763.04,-9728.73,-18014.94,-25289.145,-4922.054999999999,-698.0849999999999
1764762811.1838124,-540.81,-2121.345,-25762.5,-9727.38,-18014.175,-25288.245,-4921.245,-697.9499999999999
1764762811.1838124,-535.77,-2115.405,-25756.92,-9721.17,-18010.844999999998,-25285.32,-4918.365,-693.5849999999999
1764762811.1838124,-532.845,-2112.255,-25754.13,-9718.74,-18008.37,-25282.485,-4916.34,-690.345
1764762811.1838124,-538.0649999999999,-2118.96,-25761.645,-9725.94,-18013.23,-25287.165,-4918.635,-695.0699999999999
1764762811.1838124,-539.9549999999999,-2123.73,-25768.755,-9733.32,-18017.595,-25288.605,-4919.445,-694.98
1764762811.1838124,-539.55,-2124.45,-25768.755,-9733.68,-18015.525,-25285.77,-4918.905,-693.72
1764762811.1838124,-539.685,-2123.685,-25767.09,-9731.79,-18015.165,-25286.715,-4920.21,-694.98
1764762811.1838124,-538.8299999999999,-2122.245,-25765.74,-9730.89,-18015.03,-25286.94,-4920.21,-694.665
1764762811.1838124,-540.27,-2123.1,-25766.685,-9732.42,-18016.245,-25288.29,-4920.705,-695.79
1764762811.1838124,-543.87,-2125.89,-25769.925,-9735.57,-18019.935,-25292.25,-4923.675,-700.245
1764762811.1838124,-541.215,-2121.615,-25765.065,-9729.765,-18014.94,-25288.92,-4921.695,-698.04
1764762811.1838124,-541.215,-2121.615,-25764.525,-9728.55,-18014.309999999998,-25288.38,-4920.48,-697.905
1764762811.1838124,-539.55,-2121.165,-25764.345,-9728.865,-18014.4,-25286.985,-4919.264999999999,-695.3399999999999
1764762811.1838124,-543.555,-2125.8,-25768.215,-9733.86,-18020.475,-25291.845,-4922.37,-699.255
1764762811.2318473,-538.8299999999999,-2118.285,-25760.115,-9726.525,-18015.525,-25288.2,-4919.445,-695.475
1764762811.2318473,-539.595,-2117.655,-25758.45,-9724.86,-18015.165,-25288.785,-4918.995,-696.51
1764762811.2318473,-539.91,-2120.355,-25761.96,-9727.92,-18015.345,-25287.615,-4918.41,-696.42
1764762811.2318473,-540.09,-2122.47,-25766.64,-9730.17,-18012.51,-25283.7,-4917.33,-695.475
1764762811.2318473,-543.015,-2126.025,-25770.015,-9732.78,-18013.41,-25285.095,-4918.77,-698.13
1764762811.2318473,-545.895,-2128.365,-25771.815,-9735.12,-18018.09,-25290.18,-4922.19,-702.72
1764762811.2318473,-541.53,-2123.505,-25767.09,-9730.575,-18015.21,-25285.86,-4918.95,-698.265
1764762811.2318473,-541.215,-2122.605,-25766.505,-9731.07,-18015.93,-25287.93,-4917.735,-698.22
1764762811.2318473,-544.4549999999999,-2124.99,-25768.935,-9734.76,-18021.195,-25293.465,-4920.929999999999,-700.785
1764762811.2318473,-541.8,-2122.155,-25766.415,-9732.69,-18020.115,-25292.565,-4920.929999999999,-696.915
1764762811.2328703,-544.59,-2125.665,-25769.025,-9733.995,-18021.42,-25294.32,-4921.155,-700.9649999999999
1764762811.2328703,-543.465,-2124.405,-25765.74,-9731.115,-18018.72,-25291.71,-4919.76,-700.56
1764762811.2328703,-540.495,-2120.895,-25761.96,-9727.38,-18015.615,-25288.605,-4918.005,-697.275
1764762811.2328703,-535.3199999999999,-2115.945,-25758.045,-9722.295,-18010.305,-25283.34,-4913.91,-691.875
1764762811.2328703,-536.715,-2116.305,-25758.72,-9723.33,-18012.059999999998,-25284.69,-4915.17,-694.665
1764762811.2328703,-542.5649999999999,-2121.345,-25763.625,-9728.46,-18017.64,-25290.09,-4919.22,-699.66
1764762811.2328703,-543.105,-2124.045,-25768.575,-9732.555,-18018.675,-25289.955,-4919.76,-699.75
1764762811.2328703,-539.9549999999999,-2122.605,-25767.945,-9732.915,-18017.865,-25288.29,-4919.49,-696.24
1764762811.2328703,-539.91,-2123.28,-25767.99,-9732.915,-18018.09,-25289.28,-4919.715,-696.51
1764762811.2328703,-538.245,-2120.94,-25764.975,-9729.45,-18015.975,-25287.705,-4918.455,-695.25
1764762811.2328703,-539.055,-2119.815,-25763.625,-9728.73,-18017.145,-25289.82,-4919.804999999999,-696.555
1764762811.2328703,-538.875,-2119.5,-25763.445,-9728.595,-18018.9,-25291.575,-4920.66,-696.87
1764762811.2328703,-542.745,-2123.505,-25766.235,-9730.845,-18021.87,-25294.365,-4923.36,-698.895
1764762811.2328703,-539.235,-2121.48,-25764.705,-9728.64,-18016.65,-25288.47,-4919.58,-694.98
1764762811.2772477,-537.48,-2120.31,-25763.49,-9726.57,-18013.274999999998,-25284.06,-4916.115,-694.17
1764762811.2772477,-538.785,-2120.85,-25763.445,-9725.625,-18012.69,-25283.385,-4915.755,-694.17
1764762811.2772477,-540.81,-2124.18,-25766.595,-9728.505,-18013.184999999998,-25284.285,-4915.889999999999,-695.79
1764762811.2772477,-541.17,-2125.17,-25767.99,-9730.755,-18015.795,-25286.445,-4916.97,-696.9599999999999
1764762811.2772477,-540.27,-2123.82,-25765.92,-9730.17,-18017.505,-25288.605,-4917.915,-696.015
1764762811.2772477,-538.56,-2121.525,-25762.815,-9727.605,-18015.84,-25287.255,-4916.25,-694.395
1764762811.2772477,-539.9549999999999,-2122.245,-25764.12,-9729.045,-18018.045,-25289.73,-4917.33,-696.915
1764762811.2772477,-536.67,-2120.13,-25761.825,-9726.03,-18015.75,-25287.66,-4915.755,-694.7099999999999
1764762811.2772477,-535.545,-2118.42,-25759.395,-9723.285,-18013.95,-25285.86,-4914.855,-693.765
1764762811.2772477,-531.36,-2113.74,-25754.895,-9719.82,-18010.62,-25281.72,-4912.245,-689.9399999999999
1764762811.2772477,-535.77,-2120.355,-25763.805,-9727.875,-18015.345,-25284.33,-4914.179999999999,-693.3149999999999
1764762811.2772477,-542.43,-2127.735,-25772.22,-9734.94,-18020.97,-25289.19,-4917.915,-698.76
1764762811.2772477,-544.275,-2129.985,-25773.795,-9737.145,-18024.345,-25293.015,-4919.895,-700.9649999999999
1764762811.2772477,-541.62,-2126.115,-25768.17,-9732.33,-18019.44,-25289.505,-4917.87,-698.265
1764762811.2772477,-544.005,-2128.545,-25770.78,-9733.995,-18021.105,-25292.16,-4918.815,-700.92
1764762811.2772477,-543.915,-2127.915,-25769.25,-9731.79,-18019.89,-25290.765,-4918.41,-700.29
1764762811.2772477,-540.0,-2123.64,-25765.245,-9728.505,-18018.045,-25289.37,-4917.24,-696.375
1764762811.278265,-537.75,-2120.355,-25762.23,-9726.39,-18019.17,-25290.405,-4917.599999999999,-695.655
1764762811.278265,-539.3249999999999,-2121.03,-25761.285,-9726.03,-18021.96,-25294.275,-4919.76,-699.615
1764762811.278265,-539.865,-2121.255,-25759.71,-9724.23,-18018.63,-25291.89,-4919.4,-699.5699999999999
1764762811.278265,-537.93,-2121.255,-25761.24,-9724.68,-18015.795,-25287.48,-4917.78,-697.095
1764762811.278265,-543.465,-2129.49,-25772.805,-9735.39,-18021.06,-25291.395,-4920.615,-700.47
1764762811.278265,-547.47,-2133.135,-25776.405,-9739.35,-18024.795,-25294.77,-4922.19,-704.3399999999999
1764762811.278265,-541.485,-2125.71,-25767.18,-9731.25,-18018.99,-25290.54,-4918.05,-699.435
1764762811.32528,-539.145,-2121.66,-25762.905,-9727.56,-18018.045,-25290.45,-4917.285,-698.7149999999999
1764762811.32528,-541.53,-2124.405,-25765.29,-9729.99,-18020.52,-25292.205,-4918.139999999999,-700.515
1764762811.32528,-544.365,-2130.165,-25772.04,-9734.625,-18019.935,-25290.945,-4918.23,-701.28
1764762811.32528,-544.005,-2129.445,-25771.68,-9734.4,-18018.945,-25288.74,-4917.15,-700.38
1764762811.32528,-538.1999999999999,-2121.84,-25763.445,-9727.155,-18015.165,-25284.69,-4914.179999999999,-695.25
1764762811.32528,-534.645,-2118.645,-25760.205,-9723.42,-18013.68,-25283.565,-4911.84,-692.415
1764762811.32528,-533.295,-2118.06,-25759.62,-9722.97,-18012.51,-25283.07,-4910.49,-691.8299999999999
1764762811.32528,-538.0649999999999,-2123.64,-25764.255,-9727.695,-18016.02,-25286.535,-4912.74,-696.6
1764762811.32528,-536.5799999999999,-2122.515,-25764.255,-9726.435,-18013.905,-25283.655,-4911.345,-693.9449999999999
1764762811.32528,-537.12,-2121.93,-25763.49,-9726.57,-18014.445,-25285.23,-4912.65,-694.53
1764762811.32528,-540.0,-2122.065,-25763.085,-9727.245,-18017.37,-25289.01,-4914.54,-697.8149999999999
1764762811.32528,-535.23,-2115.675,-25754.355,-9719.01,-18011.745,-25284.915,-4911.929999999999,-694.125
1764762811.32528,-536.9399999999999,-2117.115,-25755.57,-9720.27,-18014.175,-25287.03,-4912.695,-696.375
1764762811.32528,-538.0649999999999,-2120.445,-25761.6,-9726.345,-18018.27,-25290.045,-4912.965,-697.5899999999999
1764762811.32528,-539.235,-2124.27,-25766.415,-9731.115,-18021.33,-25291.665,-4914.179999999999,-698.7149999999999
1764762811.32528,-536.4449999999999,-2122.02,-25763.49,-9727.29,-18016.965,-25286.49,-4912.425,-695.25
1764762811.3263192,-538.155,-2123.955,-25765.695,-9730.395,-18020.115,-25288.38,-4913.595,-696.915
1764762811.3263192,-542.385,-2129.715,-25772.67,-9736.38,-18024.795,-25292.43,-4916.745,-700.3349999999999
1764762811.3263192,-546.84,-2134.485,-25778.34,-9741.195,-18028.17,-25296.255,-4918.455,-704.16
1764762811.3263192,-545.13,-2130.975,-25774.38,-9736.515,-18025.695,-25295.355,-4918.05,-703.0799999999999
1764762811.3697517,-540.4499999999999,-2125.89,-25768.665,-9730.89,-18021.825,-25291.44,-4915.935,-699.39
1764762811.3697517,-540.045,-2125.98,-25767.585,-9731.295,-18021.87,-25291.08,-4915.845,-699.8399999999999
1764762811.3697517,-541.665,-2127.195,-25769.79,-9733.815,-18024.21,-25293.24,-4916.97,-700.47
1764762811.3697517,-543.1949999999999,-2128.275,-25769.88,-9733.815,-18025.065,-25294.95,-4918.86,-701.8199999999999
1764762811.3697517,-543.015,-2128.455,-25770.105,-9734.04,-18023.715,-25293.51,-4918.635,-701.595
1764762811.3697517,-538.65,-2123.73,-25764.885,-9729.81,-18020.34,-25290.36,-4915.53,-698.265
1764762811.3697517,-539.3249999999999,-2122.605,-25764.165,-9729.9,-18022.68,-25293.24,-4916.52,-700.11
1764762811.3697517,-544.905,-2128.095,-25769.16,-9734.67,-18028.44,-25298.82,-4920.929999999999,-705.42
1764762811.3697517,-544.545,-2129.13,-25771.005,-9735.3,-18026.82,-25295.58,-4919.94,-702.27
1764762811.3697517,-547.335,-2134.17,-25777.395,-9740.115,-18026.82,-25294.815,-4919.445,-703.35
1764762811.3697517,-546.435,-2132.595,-25775.1,-9737.415,-18025.29,-25294.095,-4919.58,-703.62
1764762811.3697517,-541.98,-2127.33,-25769.115,-9731.97,-18021.69,-25292.07,-4917.554999999999,-701.01
1764762811.3697517,-540.36,-2125.98,-25765.965,-9728.955,-18019.89,-25290.135,-4916.295,-699.8399999999999
1764762811.3697517,-539.595,-2124.9,-25763.445,-9726.345,-18018.675,-25288.65,-4915.349999999999,-699.435
1764762811.3707511,-539.505,-2125.26,-25764.705,-9728.19,-18020.88,-25290.63,-4915.215,-699.615
1764762811.3707511,-543.15,-2129.265,-25769.025,-9731.52,-18023.67,-25293.105,-4915.889999999999,-702.495
1764762811.3707511,-540.4499999999999,-2126.79,-25765.56,-9727.02,-18018.63,-25288.38,-4913.639999999999,-700.11
1764762811.3707511,-543.3299999999999,-2128.455,-25766.82,-9728.37,-18019.89,-25289.865,-4915.53,-702.99
1764762811.3707511,-539.055,-2123.73,-25762.23,-9724.095,-18017.19,-25287.705,-4914.045,-699.48
1764762811.3707511,-538.605,-2124.9,-25764.84,-9727.83,-18020.34,-25290.45,-4914.36,-699.0749999999999
1764762811.3707511,-541.395,-2129.31,-25770.555,-9733.995,-18023.94,-25292.745,-4915.62,-701.1899999999999
1764762811.3707511,-545.4449999999999,-2133.18,-25774.605,-9738.27,-18028.44,-25295.67,-4917.195,-704.115
1764762811.3707511,-541.5749999999999,-2129.355,-25770.24,-9734.22,-18024.885,-25292.25,-4914.495,-699.975
1764762811.3707511,-543.915,-2130.3,-25771.545,-9735.795,-18028.44,-25296.39,-4916.25,-702.855
1764762811.417252,-543.24,-2127.69,-25768.665,-9733.32,-18027.9,-25297.47,-4916.61,-702.54
1764762811.417252,-539.3249999999999,-2123.82,-25763.58,-9727.065,-18022.14,-25292.115,-4914.045,-699.525
1764762811.417252,-539.505,-2125.485,-25764.885,-9729.54,-18022.905,-25291.575,-4914.585,-699.2099999999999
1764762811.417252,-545.5799999999999,-2131.785,-25771.68,-9737.145,-18031.185,-25299.315,-4920.66,-705.51
1764762811.417252,-540.81,-2125.215,-25764.525,-9731.205,-18026.64,-25296.12,-4918.545,-700.8299999999999
1764762811.417252,-540.855,-2124.765,-25764.39,-9729.9,-18023.94,-25293.195,-4917.24,-701.055
1764762811.417252,-544.905,-2130.57,-25771.77,-9734.58,-18025.92,-25293.555,-4917.735,-704.5649999999999
1764762811.417252,-547.8299999999999,-2133.945,-25774.65,-9737.19,-18029.205,-25296.93,-4919.445,-708.7049999999999
1764762811.417252,-547.965,-2134.755,-25774.38,-9738.045,-18029.115,-25297.245,-4918.679999999999,-707.67
1764762811.417252,-544.68,-2131.605,-25771.815,-9734.805,-18025.92,-25293.195,-4916.16,-703.89
1764762811.417252,-537.795,-2123.73,-25762.725,-9726.39,-18019.89,-25288.2,-4912.425,-698.0849999999999
1764762811.417252,-534.1949999999999,-2118.06,-25754.94,-9719.685,-18016.335,-25286.715,-4910.804999999999,-696.555
1764762811.417252,-533.88,-2115.9,-25752.285,-9716.715,-18014.67,-25286.49,-4910.625,-697.4549999999999
1764762811.417252,-539.055,-2122.605,-25758.45,-9723.555,-18020.925,-25291.305,-4913.235,-702.0
1764762811.417252,-539.685,-2124.99,-25763.625,-9727.29,-18023.22,-25290.99,-4913.37,-701.595
1764762811.417252,-542.115,-2128.905,-25768.89,-9731.16,-18022.995,-25289.595,-4913.955,-701.055
1764762811.417252,-546.48,-2134.71,-25774.785,-9737.415,-18028.35,-25294.68,-4916.07,-704.6999999999999
1764762811.417252,-546.165,-2134.89,-25776.18,-9739.62,-18029.385,-25294.635,-4916.34,-703.665
1764762811.417252,-543.87,-2133.45,-25775.775,-9738.99,-18029.205,-25294.005,-4916.25,-702.135
1764762811.417252,-545.5799999999999,-2133.765,-25774.425,-9738.405,-18030.735,-25298.235,-4918.545,-705.285
1764762811.417252,-544.14,-2131.29,-25771.23,-9735.03,-18028.44,-25297.38,-4917.915,-705.285
1764762811.417252,-541.62,-2127.78,-25767.99,-9731.07,-18025.92,-25295.175,-4916.34,-703.98
1764762811.417252,-540.99,-2127.105,-25767.045,-9729.135,-18023.355,-25291.755,-4915.08,-702.27
1764762811.417252,-545.22,-2132.505,-25773.255,-9735.165,-18027.63,-25293.96,-4917.599999999999,-704.3399999999999
1764762811.465554,-546.48,-2135.16,-25776.045,-9736.965,-18027.945,-25293.465,-4917.465,-705.1949999999999
1764762811.465554,-547.6949999999999,-2135.88,-25777.08,-9739.53,-18031.05,-25296.795,-4919.67,-706.14
1764762811.465554,-549.4499999999999,-2138.04,-25779.78,-9742.365,-18035.37,-25301.925,-4921.56,-708.7049999999999
1764762811.465554,-544.23,-2132.37,-25773.615,-9737.46,-18030.915,-25297.695,-4918.635,-704.16
1764762811.465554,-546.7049999999999,-2133.99,-25773.48,-9737.37,-18031.14,-25298.73,-4918.86,-705.6899999999999
1764762811.4665534,-541.53,-2128.455,-25767.495,-9731.655,-18026.055,-25294.095,-4915.8,-701.8199999999999
1764762811.4665534,-539.055,-2125.44,-25764.66,-9729.765,-18025.29,-25294.41,-4915.62,-700.92
1764762811.4665534,-536.265,-2122.38,-25761.555,-9727.155,-18023.895,-25292.7,-4913.55,-698.805
1764762811.4665534,-537.435,-2122.245,-25762.365,-9726.57,-18022.005,-25290.9,-4912.02,-698.805
1764762811.4665534,-545.895,-2132.595,-25772.895,-9736.335,-18028.485,-25296.03,-4916.7,-705.6899999999999
1764762811.4665534,-548.37,-2136.24,-25778.7,-9741.375,-18030.915,-25296.48,-4917.78,-707.22
1764762811.4665534,-542.295,-2128.545,-25770.645,-9734.715,-18027.63,-25294.14,-4915.71,-702.5849999999999
1764762811.4665534,-538.11,-2122.11,-25762.23,-9729.405,-18026.865,-25296.075,-4914.09,-700.8299999999999
1764762811.4665534,-538.02,-2119.545,-25757.685,-9725.175,-18026.955,-25298.505,-4915.08,-702.135
1764762811.4675505,-538.74,-2120.22,-25760.745,-9725.85,-18025.02,-25295.58,-4914.495,-701.3249999999999
1764762811.4675505,-551.43,-2138.175,-25782.57,-9745.02,-18035.415,-25300.665,-4919.13,-709.875
1764762811.4675505,-555.255,-2144.61,-25788.87,-9749.97,-18037.08,-25301.115,-4920.57,-711.72
1764762811.4675505,-551.61,-2139.66,-25782.3,-9744.3,-18032.22,-25297.875,-4918.545,-709.245
1764762811.4675505,-550.125,-2136.645,-25779.15,-9741.69,-18030.735,-25295.985,-4918.139999999999,-708.255
1764762811.4675505,-553.59,-2140.695,-25782.84,-9746.01,-18036.135,-25302.105,-4922.19,-713.8349999999999
1764762811.4675505,-551.385,-2138.67,-25780.995,-9743.58,-18035.145,-25302.15,-4921.155,-712.62
1764762811.4675505,-550.53,-2136.015,-25777.89,-9740.52,-18033.39,-25300.845,-4920.03,-711.495
1764762811.4675505,-547.92,-2132.82,-25774.065,-9736.695,-18030.285,-25298.1,-4918.77,-708.66
1764762811.4675505,-549.63,-2134.62,-25775.55,-9739.17,-18033.795,-25302.555,-4921.335,-711.405
1764762811.5123675,-545.76,-2130.075,-25771.365,-9736.02,-18031.5,-25301.205,-4920.3,-708.93
1764762811.5123675,-548.865,-2134.08,-25774.83,-9738.495,-18032.58,-25301.88,-4920.57,-711.405
1764762811.5123675,-547.8299999999999,-2133.405,-25772.58,-9735.75,-18029.34,-25297.425,-4918.32,-709.56
1764762811.5123675,-546.795,-2133.0,-25772.13,-9735.345,-18029.61,-25297.2,-4917.014999999999,-708.93
1764762811.5123675,-541.53,-2126.205,-25764.615,-9729.045,-18023.895,-25292.385,-4913.28,-704.0699999999999
1764762811.5123675,-542.79,-2127.015,-25765.065,-9729.81,-18025.155,-25294.14,-4913.865,-704.88
1764762811.5123675,-546.48,-2132.37,-25771.995,-9735.48,-18027.63,-25294.905,-4914.495,-706.3199999999999
1764762811.5123675,-545.625,-2131.875,-25770.87,-9736.515,-18029.61,-25295.445,-4914.495,-705.645
1764762811.5123675,-547.56,-2135.07,-25774.56,-9739.62,-18031.365,-25296.57,-4915.215,-706.68
1764762811.5123675,-551.79,-2141.19,-25783.02,-9746.37,-18035.595,-25300.62,-4917.195,-711.0
1764762811.5123675,-548.595,-2138.04,-25781.31,-9743.22,-18032.895,-25297.74,-4915.665,-707.9399999999999
1764762811.5123675,-546.84,-2134.98,-25776.315,-9738.675,-18029.97,-25296.03,-4914.9,-706.8149999999999
1764762811.5123675,-547.1999999999999,-2134.305,-25775.055,-9737.865,-18030.69,-25297.515,-4916.025,-708.525
1764762811.5123675,-550.0799999999999,-2137.095,-25778.745,-9741.96,-18034.605,-25301.97,-4917.375,-711.675
1764762811.513549,-549.405,-2136.915,-25778.295,-9742.59,-18035.865,-25303.23,-4919.175,-711.3149999999999
1764762811.513549,-554.31,-2140.965,-25783.02,-9747.81,-18042.075,-25308.405,-4923.09,-716.04
1764762811.513549,-553.095,-2139.93,-25782.12,-9746.145,-18038.97,-25305.12,-4921.29,-714.87
1764762811.513549,-548.415,-2135.7,-25776.405,-9739.395,-18032.985,-25299.63,-4917.87,-711.0899999999999
1764762811.513549,-548.595,-2134.845,-25774.92,-9738.855,-18033.165,-25300.53,-4918.32,-711.18
1764762811.513549,-548.145,-2133.45,-25772.85,-9737.28,-18032.76,-25301.205,-4918.365,-710.8199999999999
1764762811.513549,-545.805,-2130.84,-25769.205,-9732.42,-18029.88,-25298.19,-4916.16,-708.8399999999999
1764762811.513549,-545.9399999999999,-2130.345,-25768.08,-9730.08,-18026.28,-25294.995,-4915.08,-708.66
1764762811.5569637,-547.965,-2132.73,-25770.465,-9731.79,-18026.145,-25294.77,-4914.54,-710.235
1764762811.5574784,-548.235,-2135.745,-25775.415,-9736.38,-18028.35,-25294.23,-4913.639999999999,-709.425
1764762811.5574784,-550.0799999999999,-2137.455,-25778.52,-9740.43,-18032.94,-25298.91,-4916.115,-711.495
1764762811.5574784,-554.175,-2139.615,-25780.77,-9744.84,-18039.915,-25307.28,-4920.84,-716.625
1764762811.5574784,-554.22,-2141.28,-25782.39,-9747.045,-18040.995,-25307.46,-4920.389999999999,-715.9499999999999
1764762811.5574784,-551.79,-2139.57,-25782.21,-9746.64,-18039.915,-25305.255,-4919.13,-713.52
1764762811.5574784,-546.345,-2133.54,-25775.64,-9740.43,-18035.595,-25302.015,-4916.97,-708.8399999999999
1764762811.5574784,-543.24,-2130.12,-25771.68,-9737.325,-18034.155,-25300.53,-4914.855,-706.365
1764762811.5574784,-544.05,-2129.49,-25771.455,-9736.74,-18035.145,-25301.655,-4914.945,-707.7149999999999
1764762811.5574784,-545.67,-2130.03,-25773.03,-9738.405,-18039.105,-25306.605,-4917.105,-710.73
1764762811.5574784,-544.59,-2128.41,-25770.645,-9736.38,-18037.53,-25305.57,-4917.554999999999,-710.145
1764762811.5574784,-541.53,-2126.79,-25769.655,-9733.905,-18030.825,-25296.885,-4912.965,-705.285
1764762811.5574784,-545.265,-2134.44,-25779.645,-9741.465,-18031.815,-25294.68,-4910.895,-706.3199999999999
1764762811.5574784,-551.295,-2140.335,-25785.405,-9748.17,-18039.015,-25301.43,-4915.755,-711.72
1764762811.5574784,-546.795,-2135.475,-25779.15,-9742.95,-18035.19,-25298.235,-4913.28,-707.76
1764762811.5580068,-544.005,-2131.335,-25773.66,-9737.415,-18031.275,-25295.22,-4910.04,-705.3299999999999
1764762811.559531,-543.78,-2130.705,-25772.94,-9736.29,-18030.78,-25295.76,-4909.815,-705.735
1764762811.559531,-544.4549999999999,-2131.155,-25773.12,-9736.29,-18031.68,-25297.74,-4911.3,-706.365
1764762811.559531,-547.6949999999999,-2133.135,-25773.03,-9737.64,-18034.425,-25301.16,-4913.55,-709.38
1764762811.559531,-547.0649999999999,-2131.605,-25771.635,-9734.94,-18031.095,-25298.1,-4912.56,-709.02
1764762811.559531,-544.86,-2130.12,-25772.445,-9734.94,-18028.89,-25294.5,-4910.58,-705.375
1764762811.559531,-546.525,-2133.27,-25777.08,-9739.35,-18031.545,-25295.715,-4911.84,-706.3199999999999
1764762811.559531,-548.595,-2133.99,-25776.99,-9740.655,-18032.625,-25297.02,-4912.514999999999,-708.255
1764762811.559531,-549.63,-2135.115,-25776.855,-9741.195,-18034.83,-25299.09,-4913.19,-710.1899999999999
1764762811.6070597,-550.755,-2137.23,-25778.655,-9743.22,-18038.34,-25303.005,-4914.63,-712.125
1764762811.6070597,-548.64,-2134.935,-25776.585,-9740.52,-18035.865,-25299.63,-4912.56,-709.605
1764762811.6070597,-550.215,-2135.655,-25776.405,-9739.665,-18037.395,-25302.69,-4914.045,-711.81
1764762811.6070597,-547.155,-2130.705,-25769.925,-9734.04,-18032.22,-25299.675,-4912.875,-709.74
1764762811.6070597,-541.845,-2124.63,-25763.13,-9727.425,-18026.055,-25294.68,-4909.679999999999,-705.24
1764762811.6070597,-543.015,-2127.87,-25768.215,-9731.79,-18027.99,-25295.805,-4909.5,-705.4649999999999
1764762811.6070597,-548.64,-2136.33,-25776.72,-9738.54,-18031.41,-25298.01,-4911.389999999999,-709.425
1764762811.6070597,-549.765,-2137.185,-25778.565,-9739.665,-18032.31,-25299.18,-4911.929999999999,-711.18
1764762811.6070597,-544.005,-2131.245,-25773.48,-9733.86,-18025.2,-25291.395,-4906.889999999999,-705.4649999999999
1764762811.6070597,-546.885,-2133.27,-25775.145,-9736.065,-18027.81,-25294.005,-4909.139999999999,-708.03
1764762811.6070597,-549.63,-2136.105,-25777.935,-9739.8,-18032.04,-25298.505,-4910.715,-711.72
1764762811.6070597,-546.255,-2133.765,-25775.145,-9738.09,-18030.42,-25296.93,-4910.175,-708.8399999999999
1764762811.6070597,-545.5799999999999,-2133.585,-25774.38,-9738.405,-18032.625,-25298.415,-4911.255,-708.255
1764762811.6070597,-546.12,-2133.405,-25774.605,-9738.36,-18033.615,-25299.27,-4912.02,-709.1999999999999
1764762811.6070597,-547.8299999999999,-2135.07,-25777.035,-9740.34,-18035.37,-25300.305,-4911.795,-711.27
1764762811.6070597,-541.62,-2128.77,-25769.88,-9733.275,-18028.53,-25293.42,-4906.215,-704.6999999999999
1764762811.6070597,-539.415,-2125.845,-25765.2,-9729.09,-18026.055,-25290.945,-4904.82,-703.125
1764762811.6070597,-536.85,-2122.695,-25761.69,-9724.455,-18022.995,-25288.155,-4902.48,-701.145
1764762811.6070597,-538.1999999999999,-2123.595,-25762.14,-9725.67,-18023.4,-25289.19,-4903.29,-703.17
1764762811.6070597,-542.925,-2128.725,-25768.17,-9732.06,-18028.8,-25293.645,-4906.845,-707.265
1764762811.6080742,-541.98,-2129.31,-25769.07,-9733.905,-18030.465,-25293.915,-4907.115,-705.51
1764762811.6080742,-542.115,-2128.005,-25766.505,-9732.24,-18030.735,-25295.805,-4907.745,-706.23
1764762811.6080742,-537.39,-2121.48,-25757.955,-9723.33,-18023.04,-25291.17,-4905.0,-701.9549999999999
1764762811.6080742,-539.1899999999999,-2122.605,-25760.295,-9725.04,-18024.84,-25291.98,-4906.17,-702.855
1764762811.6080742,-547.92,-2134.08,-25774.065,-9736.47,-18031.05,-25296.21,-4909.095,-709.515
1764762811.6080742,-548.37,-2136.51,-25777.44,-9739.35,-18031.68,-25296.03,-4909.23,-710.415
1764762811.651376,-547.47,-2135.295,-25776.63,-9738.585,-18031.32,-25295.85,-4909.05,-709.38
1764762811.651376,-544.545,-2132.91,-25774.065,-9736.695,-18031.545,-25296.165,-4908.915,-708.0749999999999
1764762811.651376,-541.035,-2127.78,-25768.44,-9732.105,-18030.555,-25295.895,-4909.365,-706.41
1764762811.651376,-546.3,-2133.045,-25773.48,-9737.415,-18035.145,-25300.35,-4911.615,-710.73
1764762811.651376,-546.255,-2134.89,-25776.405,-9739.08,-18032.625,-25297.065,-4910.445,-707.9399999999999
1764762811.651376,-544.3199999999999,-2133.72,-25773.84,-9736.965,-18029.565,-25293.96,-4908.554999999999,-705.645
1764762811.651376,-545.5799999999999,-2134.755,-25774.695,-9737.595,-18029.34,-25294.68,-4909.095,-707.04
1764762811.651376,-548.28,-2136.105,-25775.055,-9737.325,-18030.195,-25297.155,-4910.31,-710.64
1764762811.651376,-542.115,-2127.78,-25765.83,-9727.695,-18022.995,-25290.765,-4906.17,-705.42
1764762811.651376,-541.755,-2127.105,-25764.795,-9726.615,-18021.015,-25289.235,-4905.36,-705.3299999999999
1764762811.651376,-545.22,-2131.2,-25769.52,-9731.475,-18023.895,-25290.225,-4906.349999999999,-706.86
1764762811.651376,-546.39,-2134.44,-25772.895,-9735.57,-18028.035,-25291.575,-4906.17,-706.86
1764762811.651376,-544.185,-2133.9,-25774.065,-9737.73,-18032.58,-25295.58,-4907.97,-705.735
1764762811.651376,-544.68,-2133.09,-25773.48,-9738.0,-18035.28,-25299.585,-4910.535,-707.9399999999999
1764762811.651376,-547.6949999999999,-2134.89,-25773.885,-9737.865,-18034.38,-25299.765,-4911.03,-711.855
1764762811.651376,-544.23,-2131.605,-25771.185,-9734.715,-18030.285,-25295.805,-4908.645,-708.48
1764762811.651376,-546.48,-2133.63,-25774.515,-9738.63,-18034.47,-25299.225,-4910.355,-710.1899999999999
1764762811.651376,-542.295,-2129.805,-25770.915,-9735.165,-18030.645,-25296.165,-4908.105,-706.3199999999999
1764762811.651376,-542.43,-2128.68,-25769.43,-9733.95,-18029.655,-25295.175,-4908.24,-706.14
1764762811.651376,-543.15,-2127.465,-25767.045,-9732.105,-18030.87,-25296.705,-4909.995,-707.355
1764762811.651376,-543.6899999999999,-2128.14,-25766.37,-9731.43,-18029.79,-25295.445,-4908.78,-707.67
1764762811.6524196,-547.0649999999999,-2133.135,-25772.265,-9735.48,-18030.645,-25296.165,-4908.69,-710.01
1764762811.699546,-547.155,-2135.205,-25775.64,-9738.72,-18031.77,-25294.41,-4908.87,-709.38
1764762811.699546,-549.495,-2136.96,-25777.305,-9741.015,-18034.38,-25297.605,-4911.57,-711.765
1764762811.699546,-547.785,-2134.845,-25774.065,-9738.54,-18033.21,-25298.37,-4910.264999999999,-710.055
1764762811.699546,-551.34,-2138.355,-25778.115,-9742.59,-18036.72,-25300.35,-4911.345,-713.2049999999999
1764762811.699546,-551.97,-2138.49,-25779.465,-9744.075,-18037.125,-25300.665,-4911.389999999999,-713.0699999999999
1764762811.699546,-547.74,-2133.225,-25773.57,-9737.775,-18033.84,-25298.505,-4909.455,-710.9549999999999
1764762811.699546,-542.0699999999999,-2125.395,-25764.705,-9729.045,-18027.585,-25294.32,-4906.304999999999,-707.04
1764762811.699546,-541.62,-2124.18,-25762.86,-9727.92,-18027.765,-25294.5,-4905.27,-706.77
1764762811.699546,-540.09,-2124.405,-25763.715,-9727.965,-18025.965,-25291.35,-4904.28,-704.655
1764762811.699546,-543.465,-2130.165,-25770.24,-9733.05,-18028.125,-25290.99,-4904.91,-705.9599999999999
1764762811.699546,-548.235,-2135.79,-25778.475,-9739.89,-18032.58,-25294.725,-4907.565,-709.155
1764762811.699546,-550.665,-2137.545,-25779.645,-9741.78,-18036.045,-25298.505,-4910.13,-711.855
1764762811.699546,-553.4549999999999,-2139.48,-25780.905,-9743.85,-18040.5,-25303.68,-4912.965,-715.905
1764762811.699546,-553.68,-2138.94,-25779.555,-9743.265,-18040.185,-25304.94,-4913.235,-716.22
1764762811.699546,-550.89,-2135.16,-25775.73,-9738.495,-18036.18,-25301.25,-4911.075,-713.295
1764762811.699546,-545.895,-2130.39,-25770.78,-9733.005,-18030.78,-25295.94,-4907.835,-708.615
1764762811.699546,-550.395,-2136.87,-25778.97,-9740.295,-18034.965,-25298.505,-4909.724999999999,-712.7099999999999
1764762811.699546,-548.1899999999999,-2134.665,-25776.315,-9737.37,-18032.31,-25296.795,-4908.195,-710.8199999999999
1764762811.699546,-540.09,-2124.855,-25763.265,-9725.805,-18024.165,-25289.19,-4903.47,-703.53
1764762811.699546,-535.005,-2118.465,-25756.155,-9720.225,-18022.095,-25287.48,-4900.139999999999,-700.155
1764762811.699546,-535.68,-2119.05,-25757.82,-9722.25,-18022.095,-25287.12,-4899.285,-699.3
1764762811.699546,-544.995,-2131.74,-25771.95,-9735.075,-18030.42,-25294.05,-4904.73,-706.545
1764762811.7472997,-544.4549999999999,-2132.19,-25772.985,-9735.75,-18029.88,-25292.745,-4904.145,-705.555
1764762811.7472997,-547.245,-2133.765,-25773.795,-9735.84,-18031.905,-25294.995,-4905.764999999999,-708.5699999999999
1764762811.7472997,-546.03,-2131.47,-25771.95,-9734.67,-18032.805,-25296.12,-4906.62,-708.39
1764762811.7472997,-542.52,-2129.355,-25770.87,-9732.33,-18028.89,-25291.935,-4904.235,-704.88
1764762811.7472997,-542.2049999999999,-2129.445,-25771.455,-9731.655,-18026.145,-25289.19,-4901.445,-704.0699999999999
1764762811.7472997,-542.385,-2129.76,-25770.96,-9732.06,-18026.685,-25289.46,-4901.67,-705.3299999999999
1764762811.7472997,-543.375,-2131.605,-25771.68,-9733.365,-18029.025,-25290.765,-4903.38,-705.8249999999999
1764762811.7472997,-544.14,-2130.705,-25770.6,-9732.87,-18029.655,-25291.575,-4904.685,-706.095
1764762811.7472997,-548.1899999999999,-2133.18,-25772.04,-9734.805,-18031.005,-25293.825,-4906.44,-709.515
1764762811.7472997,-553.59,-2140.02,-25778.16,-9740.385,-18035.775,-25298.73,-4910.085,-714.42
1764762811.7472997,-552.1949999999999,-2140.2,-25779.96,-9742.41,-18037.845,-25300.305,-4910.94,-713.295
1764762811.7472997,-547.155,-2134.485,-25776.27,-9739.89,-18037.44,-25299.675,-4909.59,-709.0649999999999
1764762811.7472997,-548.415,-2135.295,-25776.495,-9740.52,-18038.79,-25302.33,-4910.804999999999,-711.9449999999999
1764762811.7472997,-547.74,-2133.09,-25772.535,-9736.92,-18036.315,-25300.44,-4909.905,-711.27
1764762811.7483149,-546.255,-2131.065,-25770.42,-9734.67,-18034.56,-25298.64,-4909.005,-709.6949999999999
1764762811.7483149,-541.17,-2126.07,-25764.48,-9728.82,-18029.25,-25293.375,-4905.495,-704.88
1764762811.7483149,-543.375,-2128.005,-25765.83,-9731.115,-18030.78,-25295.67,-4906.53,-707.67
1764762811.7483149,-540.36,-2126.07,-25764.255,-9729.0,-18027.855,-25291.575,-4902.929999999999,-703.35
1764762811.7483149,-540.495,-2128.095,-25766.55,-9729.99,-18027.09,-25289.955,-4901.625,-703.395
1764762811.7483149,-542.88,-2130.12,-25767.405,-9730.35,-18027.63,-25290.495,-4902.525,-705.645
1764762811.7483149,-546.345,-2133.72,-25770.78,-9734.04,-18032.175,-25294.545,-4904.639999999999,-709.29
1764762811.7483149,-549.405,-2138.85,-25775.28,-9737.55,-18033.12,-25294.905,-4905.81,-710.8199999999999
1764762811.7483149,-546.48,-2136.825,-25773.39,-9734.715,-18029.295,-25289.775,-4904.235,-707.4
1764762811.7483149,-544.23,-2132.55,-25769.79,-9732.33,-18028.62,-25289.28,-4903.74,-705.6
1764762811.7916386,-542.925,-2130.975,-25769.745,-9733.05,-18030.375,-25291.305,-4904.145,-705.51
1764762811.7916386,-543.6899999999999,-2132.37,-25771.77,-9734.76,-18032.265,-25292.565,-4904.19,-705.87
1764762811.7916386,-543.915,-2131.065,-25771.23,-9735.345,-18033.66,-25294.005,-4903.965,-705.555
1764762811.7916386,-539.505,-2126.655,-25765.92,-9730.08,-18028.305,-25289.19,-4899.375,-701.55
1764762811.7916386,-537.615,-2124.27,-25762.68,-9726.93,-18025.38,-25286.67,-4897.304999999999,-700.02
1764762811.7916386,-538.335,-2124.405,-25762.545,-9727.02,-18026.37,-25287.165,-4898.52,-700.515
1764762811.7916386,-536.985,-2122.92,-25760.07,-9725.13,-18026.19,-25288.335,-4898.474999999999,-700.56
1764762811.7916386,-539.415,-2123.955,-25761.015,-9725.715,-18029.7,-25293.6,-4901.31,-705.105
1764762811.7916386,-537.93,-2121.93,-25759.305,-9722.205,-18025.2,-25289.55,-4900.05,-703.26
1764762811.7916386,-544.275,-2129.715,-25767.765,-9728.865,-18028.755,-25291.71,-4902.615,-708.165
1764762811.7916386,-545.04,-2133.675,-25772.58,-9733.23,-18029.07,-25290.09,-4902.615,-707.67
1764762811.7916386,-547.605,-2137.14,-25775.82,-9736.605,-18031.23,-25291.89,-4903.11,-709.92
1764762811.7916386,-541.755,-2130.12,-25768.17,-9730.395,-18027.27,-25288.11,-4900.41,-705.06
1764762811.7916386,-540.675,-2127.33,-25765.965,-9728.595,-18027.495,-25288.29,-4900.23,-702.9
1764762811.7916386,-544.005,-2131.47,-25771.725,-9734.22,-18030.69,-25289.955,-4901.445,-705.24
1764762811.7916386,-545.13,-2133.135,-25773.66,-9736.56,-18031.59,-25291.53,-4902.48,-706.4549999999999
1764762811.7916386,-541.845,-2129.22,-25768.755,-9732.555,-18031.59,-25293.375,-4902.389999999999,-706.095
1764762811.7916386,-544.23,-2130.21,-25768.935,-9732.78,-18032.805,-25297.29,-4903.74,-709.605
1764762811.7916386,-546.345,-2132.46,-25771.635,-9734.445,-18033.3,-25296.615,-4904.639999999999,-709.785
1764762811.7916386,-549.855,-2136.555,-25776.315,-9738.585,-18034.335,-25296.075,-4905.27,-711.4499999999999
1764762811.7916386,-548.415,-2133.99,-25772.985,-9735.165,-18032.04,-25294.815,-4903.245,-710.1899999999999
1764762811.7916386,-542.43,-2126.925,-25764.435,-9728.595,-18028.575,-25292.34,-4901.4,-705.015
1764762811.8397813,-541.845,-2126.79,-25763.04,-9728.1,-18029.43,-25294.275,-4902.57,-705.87
1764762811.8397813,-545.265,-2130.615,-25767.63,-9731.655,-18032.265,-25295.94,-4903.74,-708.795
1764762811.8397813,-549.36,-2136.06,-25774.605,-9737.325,-18036.0,-25297.92,-4907.474999999999,-711.405
1764762811.8397813,-554.04,-2140.92,-25779.87,-9742.545,-18040.14,-25302.375,-4910.175,-715.9499999999999
1764762811.8397813,-551.475,-2138.355,-25777.125,-9740.34,-18038.745,-25300.26,-4907.97,-714.06
1764762811.8397813,-545.715,-2131.74,-25771.05,-9734.085,-18034.245,-25295.445,-4905.315,-709.0649999999999
1764762811.8397813,-545.04,-2130.705,-25769.97,-9733.455,-18034.065,-25296.615,-4904.865,-708.03
1764762811.8397813,-551.115,-2139.885,-25780.725,-9742.275,-18038.835,-25298.865,-4906.62,-712.5749999999999
1764762811.8397813,-550.5749999999999,-2139.48,-25780.77,-9741.78,-18036.945,-25296.93,-4905.855,-710.775
1764762811.8397813,-552.78,-2141.055,-25780.545,-9742.815,-18039.96,-25300.755,-4908.195,-714.555
1764762811.8397813,-552.3299999999999,-2139.48,-25778.07,-9741.24,-18039.465,-25301.205,-4908.465,-715.095
1764762811.8397813,-549.3149999999999,-2134.98,-25774.155,-9737.955,-18036.405,-25298.37,-4905.99,-712.305
1764762811.8397813,-545.04,-2131.02,-25769.34,-9733.275,-18032.265,-25294.14,-4903.02,-707.49
1764762811.8397813,-547.65,-2134.395,-25771.725,-9734.895,-18034.245,-25296.525,-4904.595,-709.515
1764762811.8397813,-543.015,-2129.895,-25767.63,-9729.81,-18030.645,-25292.34,-4902.075,-705.3299999999999
1764762811.8397813,-545.5799999999999,-2132.37,-25770.42,-9732.87,-18031.365,-25293.465,-4902.57,-707.7149999999999
1764762811.8397813,-543.8249999999999,-2131.155,-25769.475,-9731.925,-18028.62,-25290.81,-4900.455,-705.645
1764762811.8397813,-549.4499999999999,-2136.915,-25774.785,-9737.64,-18032.58,-25294.905,-4902.885,-710.73
1764762811.8397813,-549.36,-2136.465,-25774.605,-9737.64,-18033.93,-25296.705,-4903.875,-711.135
1764762811.8397813,-545.895,-2132.595,-25772.04,-9735.795,-18032.895,-25294.5,-4902.57,-706.5
1764762811.8397813,-548.37,-2135.385,-25773.57,-9737.37,-18034.83,-25296.75,-4904.82,-709.0649999999999
1764762811.8397813,-542.2049999999999,-2128.005,-25764.345,-9729.72,-18030.42,-25293.69,-4902.75,-704.3399999999999
1764762811.888464,-539.55,-2123.415,-25758.54,-9724.275,-18026.775,-25291.44,-4900.995,-702.495
1764762811.888464,-543.24,-2127.24,-25762.455,-9727.335,-18028.98,-25293.24,-4901.94,-705.3299999999999
1764762811.888464,-550.485,-2138.67,-25777.755,-9739.845,-18035.145,-25295.94,-4903.56,-710.145
1764762811.888464,-549.36,-2138.4,-25778.565,-9740.205,-18034.29,-25294.59,-4902.929999999999,-708.8399999999999
1764762811.888464,-550.17,-2138.715,-25777.17,-9739.395,-18036.135,-25297.83,-4904.46,-710.865
1764762811.888464,-546.165,-2134.305,-25771.68,-9734.355,-18031.68,-25294.23,-4903.02,-708.39
1764762811.888464,-549.045,-2135.745,-25773.3,-9736.425,-18034.74,-25297.605,-4905.405,-711.3149999999999
1764762811.888464,-544.4549999999999,-2131.2,-25768.53,-9731.97,-18031.095,-25293.645,-4901.895,-706.995
1764762811.888464,-546.93,-2132.775,-25768.53,-9732.15,-18033.615,-25296.255,-4903.29,-710.01
1764762811.888464,-543.6,-2128.23,-25762.68,-9726.75,-18030.555,-25295.22,-4901.4,-707.7149999999999
1764762811.888464,-540.99,-2125.215,-25759.125,-9724.32,-18027.45,-25294.365,-4901.264999999999,-706.14
1764762811.888464,-549.18,-2135.475,-25770.825,-9733.815,-18031.635,-25296.21,-4903.245,-711.495
1764762811.888464,-548.1,-2136.195,-25773.21,-9733.59,-18028.26,-25291.44,-4900.455,-708.615
1764762811.888464,-549.405,-2136.105,-25773.075,-9734.265,-18031.41,-25294.14,-4902.075,-710.1
1764762811.888464,-549.27,-2136.33,-25774.065,-9736.29,-18034.155,-25296.48,-4903.02,-710.1
1764762811.888464,-546.615,-2135.745,-25774.695,-9737.595,-18034.38,-25295.94,-4902.615,-708.48
1764762811.888464,-546.3,-2135.34,-25774.83,-9738.18,-18036.09,-25297.02,-4902.795,-708.795
1764762811.888464,-546.255,-2132.46,-25770.87,-9734.85,-18035.055,-25297.695,-4902.03,-709.74
1764762811.888464,-547.515,-2131.83,-25768.395,-9732.78,-18035.28,-25299.675,-4903.29,-712.035
1764762811.888464,-541.305,-2124.18,-25760.835,-9724.77,-18027.99,-25293.6,-4899.375,-706.68
1764762811.889051,-544.59,-2129.49,-25768.035,-9731.43,-18030.915,-25294.995,-4900.77,-708.39
1764762811.889051,-549.585,-2137.095,-25777.17,-9740.475,-18036.81,-25298.955,-4904.01,-711.63
1764762811.889051,-551.745,-2141.82,-25782.39,-9744.93,-18038.97,-25298.64,-4904.28,-712.665
1764762811.889051,-551.34,-2140.515,-25780.275,-9743.445,-18039.42,-25299.18,-4903.785,-712.755
1764762811.9323354,-553.635,-2140.2,-25778.52,-9743.085,-18041.985,-25303.77,-4905.675,-715.86
1764762811.9323354,-553.095,-2138.94,-25776.18,-9741.87,-18040.905,-25304.355,-4906.17,-715.635
1764762811.9323354,-547.8299999999999,-2132.955,-25769.745,-9735.48,-18035.55,-25300.665,-4903.695,-711.18
1764762811.9323354,-550.26,-2134.89,-25772.085,-9737.505,-18038.295,-25302.915,-4905.09,-712.4399999999999
1764762811.9323354,-549.27,-2135.115,-25773.84,-9737.73,-18036.9,-25299.54,-4903.83,-710.145
1764762811.9323354,-547.785,-2133.72,-25771.815,-9735.705,-18035.595,-25297.695,-4902.48,-709.92
1764762811.9323354,-549.045,-2135.745,-25773.705,-9735.975,-18033.345,-25294.32,-4900.86,-709.0649999999999
1764762811.9323354,-551.6999999999999,-2139.975,-25777.62,-9739.215,-18036.045,-25296.48,-4902.48,-711.63
1764762811.9323354,-551.745,-2139.165,-25777.935,-9739.71,-18039.555,-25300.395,-4904.28,-713.295
1764762811.9323354,-547.47,-2133.765,-25772.715,-9736.425,-18038.34,-25299.225,-4903.74,-710.1899999999999
1764762811.9323354,-548.235,-2133.135,-25771.005,-9735.39,-18037.215,-25300.89,-4902.705,-710.91
1764762811.9323354,-544.3199999999999,-2129.355,-25766.415,-9729.765,-18031.545,-25294.77,-4898.97,-706.185
1764762811.9323354,-547.11,-2133.99,-25771.86,-9734.49,-18035.775,-25296.3,-4900.455,-708.12
1764762811.9323354,-551.79,-2138.535,-25776.09,-9738.72,-18038.745,-25299.945,-4903.155,-712.395
1764762811.9323354,-546.7049999999999,-2133.0,-25769.295,-9731.34,-18032.355,-25294.59,-4899.87,-707.805
1764762811.9323354,-545.22,-2131.155,-25766.595,-9728.01,-18029.565,-25292.88,-4897.575,-707.49
1764762811.9323354,-540.765,-2127.285,-25763.04,-9725.13,-18025.47,-25288.335,-4894.875,-703.53
1764762811.9323354,-541.305,-2127.51,-25764.615,-9728.145,-18028.755,-25290.495,-4895.91,-703.755
1764762811.9323354,-542.43,-2129.04,-25765.965,-9728.685,-18030.465,-25291.62,-4896.36,-704.8349999999999
1764762811.9323354,-545.085,-2131.56,-25768.53,-9731.205,-18033.12,-25293.105,-4896.81,-707.4449999999999
1764762811.9323354,-545.5799999999999,-2132.955,-25770.915,-9733.725,-18033.84,-25293.555,-4897.08,-706.5
1764762811.9323354,-542.88,-2130.615,-25768.17,-9731.025,-18030.96,-25290.315,-4893.705,-703.755
1764762811.9323354,-537.84,-2125.755,-25762.095,-9724.905,-18026.37,-25285.68,-4890.825,-700.605
1764762811.9323354,-539.8199999999999,-2127.285,-25763.22,-9726.165,-18028.395,-25287.975,-4891.815,-702.495
1764762811.9323354,-541.35,-2128.5,-25764.48,-9727.695,-18028.845,-25288.695,-4892.49,-703.4399999999999
1764762811.9323354,-540.765,-2128.41,-25764.93,-9727.74,-18027.99,-25287.84,-4892.715,-703.17
1764762811.9805336,-533.655,-2119.59,-25755.57,-9719.1,-18022.095,-25283.43,-4889.25,-697.005
1764762811.9805336,-532.8,-2116.935,-25750.89,-9714.78,-18021.6,-25284.6,-4890.51,-697.68
1764762811.9805336,-536.175,-2120.085,-25752.69,-9716.22,-18022.995,-25286.04,-4891.77,-700.47
1764762811.9805336,-534.78,-2120.22,-25753.365,-9715.905,-18020.52,-25282.44,-4889.745,-697.8149999999999
1764762811.9805336,-541.98,-2131.065,-25766.64,-9727.2,-18024.975,-25284.78,-4891.455,-702.18
1764762811.9805336,-546.66,-2137.905,-25773.03,-9732.465,-18027.945,-25287.12,-4893.345,-707.175
1764762811.9805336,-541.755,-2130.345,-25764.345,-9725.58,-18023.985,-25285.23,-4891.86,-703.305
1764762811.9805336,-545.04,-2132.73,-25767.315,-9729.225,-18029.025,-25289.37,-4894.695,-706.275
1764762811.9805336,-546.435,-2133.675,-25769.34,-9731.115,-18031.59,-25291.17,-4895.55,-707.85
1764762811.9805336,-542.52,-2129.4,-25764.165,-9727.155,-18029.88,-25289.37,-4893.48,-705.015
1764762811.9805336,-536.4449999999999,-2123.955,-25758.495,-9723.105,-18027.63,-25288.785,-4891.905,-700.11
1764762811.9805336,-541.0799999999999,-2128.635,-25764.03,-9727.92,-18032.04,-25293.195,-4895.099999999999,-704.97
1764762811.9805336,-538.74,-2126.295,-25760.79,-9724.905,-18026.955,-25287.165,-4892.985,-702.27
1764762811.9805336,-537.345,-2125.44,-25758.72,-9722.79,-18023.895,-25284.42,-4891.724999999999,-700.6949999999999
1764762811.9805336,-538.515,-2127.555,-25761.105,-9724.77,-18025.065,-25284.96,-4892.31,-702.045
1764762811.9805336,-543.3299999999999,-2133.045,-25767.18,-9730.17,-18029.34,-25288.785,-4894.74,-706.05
1764762811.9805336,-541.8,-2131.92,-25766.28,-9728.55,-18028.17,-25286.715,-4892.849999999999,-704.8349999999999
1764762811.9805336,-539.9549999999999,-2129.94,-25763.76,-9727.38,-18025.92,-25284.78,-4891.815,-701.91
1764762811.9805336,-543.87,-2133.945,-25768.35,-9731.97,-18031.14,-25290.45,-4894.695,-706.635
1764762811.9805336,-540.3149999999999,-2128.725,-25764.03,-9727.2,-18028.08,-25287.075,-4891.77,-702.045
1764762811.9805336,-540.18,-2128.32,-25763.715,-9727.29,-18029.205,-25287.66,-4891.905,-702.3149999999999
1764762811.9805336,-545.67,-2133.9,-25767.585,-9731.835,-18034.74,-25294.185,-4895.595,-708.165
1764762811.9805336,-543.915,-2131.2,-25765.83,-9728.685,-18032.625,-25293.015,-4894.92,-707.175
1764762811.9805336,-540.3149999999999,-2125.845,-25760.07,-9723.375,-18030.06,-25291.89,-4893.84,-705.6899999999999
1764762812.0279536,-538.245,-2121.525,-25754.31,-9718.965,-18027.09,-25290.585,-4892.49,-704.115
1764762812.0279536,-534.6899999999999,-2117.16,-25749.765,-9713.52,-18020.61,-25285.095,-4889.205,-699.5699999999999
1764762812.0279536,-543.6,-2130.57,-25767.09,-9726.84,-18027.81,-25287.57,-4891.59,-704.655
1764762812.0279536,-549.72,-2140.47,-25778.295,-9736.965,-18031.725,-25287.705,-4893.21,-707.265
1764762812.0279536,-551.745,-2142.18,-25778.565,-9738.54,-18036.54,-25292.88,-4895.685,-710.64
1764762812.0279536,-546.7049999999999,-2135.43,-25770.555,-9732.375,-18033.12,-25290.63,-4892.804999999999,-706.8149999999999
1764762812.0279536,-541.395,-2129.445,-25764.12,-9725.94,-18028.665,-25286.67,-4890.645,-702.855
1764762812.0279536,-547.605,-2135.205,-25770.735,-9732.15,-18034.155,-25293.33,-4895.46,-708.7049999999999
1764762812.0279536,-547.65,-2137.14,-25773.48,-9734.85,-18036.18,-25294.365,-4896.63,-708.615
1764762812.0279536,-547.02,-2135.205,-25770.825,-9732.51,-18035.235,-25293.78,-4895.505,-707.7149999999999
1764762812.0279536,-546.615,-2134.395,-25769.025,-9730.89,-18034.11,-25293.33,-4894.47,-707.67
1764762812.0279536,-544.68,-2132.055,-25765.605,-9729.135,-18032.355,-25292.79,-4894.155,-706.3199999999999
1764762812.0279536,-538.8299999999999,-2124.54,-25757.73,-9721.395,-18026.73,-25288.605,-4891.139999999999,-701.775
1764762812.0279536,-540.495,-2125.485,-25758.81,-9721.935,-18026.55,-25288.29,-4891.005,-703.485
1764762812.0279536,-547.38,-2133.945,-25767.315,-9730.215,-18032.625,-25292.385,-4893.525,-709.515
1764762812.0279536,-546.885,-2134.575,-25768.44,-9730.665,-18033.03,-25292.07,-4893.165,-707.67
1764762812.0279536,-544.3199999999999,-2131.02,-25764.705,-9726.93,-18031.05,-25290.09,-4892.94,-704.79
1764762812.0279536,-543.285,-2127.105,-25760.16,-9723.33,-18030.15,-25291.53,-4894.514999999999,-705.4649999999999
1764762812.0279536,-543.285,-2129.085,-25762.77,-9725.445,-18030.87,-25292.295,-4894.29,-706.095
1764762812.0279536,-551.88,-2139.48,-25775.595,-9736.695,-18039.42,-25298.415,-4897.889999999999,-712.305
1764762812.0279536,-556.605,-2146.005,-25783.875,-9743.265,-18042.975,-25300.845,-4900.005,-715.77
1764762812.0279536,-556.6949999999999,-2146.95,-25784.415,-9744.345,-18041.805,-25299.495,-4900.275,-715.365
1764762812.0723748,-550.98,-2139.84,-25776.72,-9737.19,-18037.395,-25295.67,-4897.71,-710.865
1764762812.0723748,-552.24,-2140.29,-25776.135,-9738.315,-18039.96,-25297.695,-4898.745,-712.755
1764762812.0723748,-551.61,-2139.345,-25774.29,-9737.19,-18039.33,-25297.695,-4898.16,-712.395
1764762812.0723748,-548.73,-2136.24,-25771.725,-9733.77,-18035.865,-25295.175,-4896.63,-709.92
1764762812.0723748,-543.645,-2130.57,-25766.955,-9728.955,-18029.79,-25288.47,-4891.995,-703.89
1764762812.0723748,-545.4,-2132.82,-25770.015,-9731.88,-18031.995,-25290.855,-4893.48,-705.735
1764762812.0723748,-545.895,-2133.18,-25770.78,-9732.645,-18033.75,-25292.745,-4893.389999999999,-706.365
1764762812.0723748,-549.045,-2137.365,-25773.705,-9736.425,-18037.485,-25297.065,-4895.639999999999,-710.235
1764762812.0723748,-549.0,-2137.05,-25772.805,-9735.48,-18037.305,-25297.2,-4895.91,-710.415
1764762812.0723748,-547.65,-2135.07,-25771.005,-9731.115,-18033.795,-25293.78,-4893.57,-708.2099999999999
1764762812.0723748,-547.65,-2135.115,-25770.24,-9729.495,-18032.76,-25292.88,-4893.57,-708.255
1764762812.0723748,-545.265,-2132.37,-25766.685,-9726.48,-18029.205,-25289.505,-4891.545,-705.555
