Timestamp,Channel1,Channel2,Channel3,Channel4,Channel5,Channel6,Channel7,Channel8
1764762965.5863285,-8463.69,-10387.755,2512.035,-4971.69,-13651.965,-28685.43,-13515.3,-10612.44
1764762965.5863285,-8467.74,-10392.03,2507.58,-4974.974999999999,-13655.835,-28688.805,-13519.755,-10615.545
1764762965.5863285,-8461.44,-10384.38,2515.275,-4966.875,-13647.195,-28681.785,-13512.78,-10608.84
1764762965.5863285,-8464.635,-10387.08,2513.07,-4970.25,-13650.03,-28683.765,-13514.265,-10610.865
1764762965.5863285,-8462.295,-10384.605,2516.265,-4968.0,-13648.005,-28681.605,-13511.61,-10609.2
1764762965.5863285,-8465.085,-10387.755,2512.26,-4971.105,-13651.47,-28684.53,-13513.86,-10611.225
1764762965.5863285,-8463.869999999999,-10387.17,2513.97,-4970.025,-13650.165,-28681.605,-13511.97,-10609.74
1764762965.5863285,-8465.94,-10388.655,2512.98,-4970.25,-13650.075,-28681.965,-13513.005,-10612.8
1764762965.5863285,-8460.675,-10383.3,2518.245,-4965.389999999999,-13645.215,-28677.735,-13508.685,-10608.03
1764762965.5863285,-8461.755,-10384.515,2516.94,-4967.145,-13646.79,-28679.58,-13511.43,-10608.75
1764762965.5863285,-8463.105,-10385.685,2515.68,-4969.215,-13648.995,-28681.2,-13512.96,-10609.965
1764762965.5863285,-8465.085,-10387.665,2513.34,-4971.554999999999,-13650.435,-28682.82,-13514.76,-10611.495
1764762965.5863285,-8470.08,-10392.795,2508.705,-4975.605,-13653.945,-28688.49,-13519.17,-10616.58
1764762965.5863285,-8468.64,-10391.85,2509.695,-4974.389999999999,-13653.81,-28687.815,-13519.215,-10615.455
1764762965.5863285,-8465.265,-10388.205,2512.665,-4971.285,-13651.2,-28684.125,-13515.705,-10611.0
1764762965.5863285,-8468.1,-10390.725,2510.955,-4972.32,-13652.505,-28684.665,-13518.045,-10613.52
1764762965.5863285,-8464.68,-10386.855,2514.285,-4969.304999999999,-13648.32,-28680.03,-13513.14,-10610.415
1764762965.5863285,-8462.97,-10386.315,2514.6,-4968.405,-13647.825,-28679.04,-13511.475,-10608.255
1764762965.5863285,-8463.24,-10386.99,2513.835,-4968.585,-13649.085,-28681.245,-13512.06,-10609.065
1764762965.5863285,-8468.46,-10392.57,2508.345,-4974.525,-13655.115,-28687.815,-13518.09,-10614.87
1764762965.5863285,-8468.595,-10392.255,2508.795,-4974.795,-13654.485,-28687.635,-13518.36,-10614.24
1764762965.5863285,-8466.119999999999,-10390.77,2510.19,-4974.12,-13653.9,-28686.735,-13517.145,-10611.495
1764762965.6310005,-8468.595,-10393.29,2507.94,-4976.91,-13657.545,-28689.57,-13519.35,-10614.285
1764762965.6310005,-8472.465,-10397.16,2505.33,-4978.889999999999,-13659.03,-28692.0,-13523.355,-10618.605
1764762965.6310005,-8472.42,-10396.395,2505.825,-4978.08,-13658.13,-28691.64,-13523.04,-10619.955
1764762965.6310005,-8472.105,-10395.045,2506.725,-4976.775,-13657.185,-28689.93,-13521.51,-10619.595
1764762965.6310005,-8473.23,-10395.495,2506.455,-4977.09,-13656.645,-28688.49,-13522.14,-10619.505
1764762965.6310005,-8472.69,-10394.82,2506.5,-4976.955,-13655.79,-28687.41,-13520.835,-10616.94
1764762965.6310005,-8466.84,-10389.33,2512.44,-4971.554999999999,-13650.93,-28682.865,-13515.21,-10610.325
1764762965.6310005,-8468.414999999999,-10391.67,2510.055,-4974.12,-13653.09,-28685.52,-13518.63,-10612.89
1764762965.6310005,-8472.06,-10395.72,2507.22,-4977.45,-13656.915,-28689.345,-13521.555,-10616.625
1764762965.6319072,-8467.965,-10392.255,2512.035,-4971.915,-13651.965,-28683.9,-13516.965,-10613.07
1764762965.6319072,-8468.955,-10393.38,2510.01,-4973.445,-13654.125,-28686.015,-13518.495,-10614.78
1764762965.6319072,-8463.24,-10387.44,2515.365,-4967.595,-13648.635,-28680.75,-13513.23,-10608.48
1764762965.6319072,-8462.88,-10387.53,2514.96,-4968.09,-13647.87,-28681.02,-13513.32,-10608.03
1764762965.6319072,-8464.14,-10388.88,2513.79,-4969.304999999999,-13648.725,-28681.335,-13514.58,-10609.605
1764762965.6319072,-8465.985,-10390.32,2512.44,-4971.06,-13651.29,-28683.54,-13516.11,-10610.955
1764762965.6319072,-8466.48,-10390.905,2511.99,-4971.96,-13651.65,-28685.43,-13519.215,-10611.81
1764762965.6319072,-8458.965,-10382.4,2519.955,-4964.264999999999,-13644.405,-28679.04,-13512.69,-10603.845
1764762965.6319072,-8458.785,-10382.445,2520.045,-4964.804999999999,-13644.9,-28679.4,-13512.78,-10603.485
1764762965.6319072,-8461.125,-10385.145,2516.895,-4967.775,-13647.24,-28681.605,-13514.715,-10605.24
1764762965.6319072,-8463.015,-10387.35,2515.005,-4969.935,-13649.58,-28681.875,-13514.49,-10606.41
1764762965.6319072,-8461.755,-10385.37,2517.12,-4969.08,-13648.32,-28679.355,-13510.98,-10604.745
1764762965.6319072,-8461.71,-10384.965,2517.03,-4969.71,-13648.77,-28680.39,-13512.015,-10605.6
1764762965.6319072,-8464.77,-10387.98,2512.845,-4972.905,-13651.38,-28683.675,-13515.165,-10608.705
1764762965.633004,-8461.08,-10384.335,2516.22,-4968.36,-13647.24,-28678.995,-13511.745,-10605.375
1764762965.6756067,-8463.914999999999,-10387.44,2514.015,-4970.474999999999,-13649.49,-28681.875,-13514.805,-10609.11
1764762965.6756067,-8463.465,-10386.81,2514.69,-4969.035,-13647.24,-28680.165,-13513.905,-10608.39
1764762965.6766348,-8460.09,-10382.22,2519.235,-4964.49,-13642.785,-28675.53,-13510.755,-10603.755
1764762965.6766348,-8459.19,-10381.455,2519.55,-4963.365,-13642.29,-28674.045,-13508.955,-10602.405
1764762965.6766348,-8463.33,-10385.865,2515.59,-4968.315,-13647.645,-28679.13,-13512.06,-10606.275
1764762965.6766348,-8465.265,-10388.655,2512.755,-4971.599999999999,-13651.425,-28682.37,-13513.275,-10607.895
1764762965.6766348,-8464.5,-10387.89,2512.935,-4972.005,-13651.29,-28683.675,-13518.405,-10606.995
1764762965.6766348,-8463.869999999999,-10386.63,2514.06,-4972.139999999999,-13650.705,-28684.305,-13520.16,-10606.725
1764762965.6766348,-8463.914999999999,-10386.675,2513.52,-4972.139999999999,-13650.615,-28683.405,-13517.73,-10607.13
1764762965.6766348,-8461.664999999999,-10385.505,2514.735,-4971.735,-13650.03,-28681.785,-13515.75,-10605.555
1764762965.6766348,-8458.244999999999,-10382.04,2518.785,-4968.224999999999,-13646.88,-28677.69,-13512.33,-10603.08
1764762965.6766348,-8460.404999999999,-10383.84,2516.58,-4969.08,-13648.995,-28679.13,-13513.905,-10604.43
1764762965.6766348,-8456.039999999999,-10380.465,2520.72,-4964.715,-13644.9,-28675.305,-13509.585,-10600.515
1764762965.6766348,-8458.515,-10382.4,2518.605,-4966.514999999999,-13646.295,-28676.97,-13512.375,-10602.495
1764762965.6766348,-8463.33,-10387.62,2513.16,-4972.41,-13652.055,-28683.45,-13517.64,-10607.265
1764762965.6766348,-8462.385,-10388.115,2514.105,-4972.23,-13651.965,-28684.26,-13517.82,-10605.78
1764762965.6766348,-8461.08,-10386.495,2515.41,-4970.745,-13650.435,-28684.305,-13516.56,-10604.52
1764762965.6766348,-8455.275,-10379.745,2521.665,-4965.03,-13644.45,-28678.365,-13513.005,-10599.885
1764762965.6766348,-8456.355,-10381.77,2519.28,-4968.179999999999,-13646.655,-28680.03,-13512.69,-10600.47
1764762965.6766348,-8461.485,-10387.215,2513.115,-4972.86,-13651.155,-28682.64,-13516.47,-10604.34
1764762965.6766348,-8457.93,-10383.12,2516.175,-4968.36,-13647.15,-28679.4,-13512.285,-10601.055
1764762965.6766348,-8456.49,-10381.995,2517.795,-4966.335,-13644.63,-28675.98,-13510.08,-10600.38
1764762965.7231276,-8454.555,-10380.69,2520.315,-4965.03,-13643.415,-28675.215,-13507.2,-10598.805
1764762965.7231276,-8456.94,-10383.705,2517.66,-4968.36,-13645.8,-28677.87,-13510.44,-10600.83
1764762965.7231276,-8459.19,-10386.495,2514.285,-4970.97,-13649.265,-28680.03,-13511.25,-10602.225
1764762965.7236395,-8456.22,-10382.355,2517.795,-4966.695,-13645.98,-28678.14,-13510.26,-10599.615
1764762965.7236395,-8459.82,-10385.955,2514.87,-4969.98,-13649.4,-28682.235,-13516.065,-10603.755
1764762965.7236395,-8462.385,-10387.845,2512.665,-4973.355,-13651.875,-28683.495,-13517.505,-10605.465
1764762965.7236395,-8464.545,-10389.24,2510.82,-4975.92,-13654.935,-28685.7,-13518.27,-10607.04
1764762965.7236395,-8461.215,-10385.82,2515.32,-4971.465,-13649.805,-28682.505,-13516.695,-10604.385
1764762965.7236395,-8457.975,-10382.67,2518.425,-4967.505,-13645.665,-28678.86,-13512.42,-10601.595
1764762965.7236395,-8460.045,-10385.1,2515.905,-4969.665,-13647.375,-28679.535,-13513.77,-10602.72
1764762965.7236395,-8457.435,-10382.31,2518.785,-4967.505,-13645.395,-28677.195,-13511.205,-10599.525
1764762965.7236395,-8460.27,-10385.28,2516.445,-4970.565,-13648.815,-28681.65,-13515.165,-10602.495
1764762965.7236395,-8466.435,-10391.49,2510.415,-4976.639999999999,-13655.7,-28687.23,-13520.25,-10607.985
1764762965.7236395,-8468.01,-10392.345,2510.055,-4977.81,-13656.42,-28687.68,-13520.745,-10608.57
1764762965.7236395,-8466.39,-10391.04,2511.945,-4976.28,-13654.755,-28686.915,-13520.34,-10607.94
1764762965.7236395,-8460.27,-10384.515,2517.435,-4969.665,-13648.23,-28680.615,-13514.265,-10602.135
1764762965.7236395,-8461.664999999999,-10385.28,2516.49,-4969.98,-13648.545,-28680.57,-13514.895,-10602.54
1764762965.7236395,-8466.435,-10390.005,2512.485,-4973.94,-13653.45,-28684.89,-13519.215,-10607.22
1764762965.7236395,-8463.779999999999,-10387.35,2516.085,-4970.835,-13651.065,-28681.65,-13516.11,-10603.935
1764762965.7236395,-8462.115,-10386.225,2517.885,-4968.495,-13649.355,-28679.04,-13514.445,-10601.82
1764762965.7236395,-8458.02,-10382.49,2520.855,-4965.705,-13646.16,-28676.115,-13509.945,-10598.265
1764762965.7236395,-8461.619999999999,-10385.145,2518.245,-4969.08,-13649.49,-28679.22,-13512.15,-10601.865
1764762965.7236395,-8465.175,-10389.105,2515.725,-4973.13,-13653.63,-28683.27,-13515.75,-10605.915
1764762965.7236395,-8465.13,-10388.97,2515.995,-4972.995,-13653.405,-28681.56,-13514.445,-10605.06
1764762965.7704234,-8462.25,-10386.855,2518.785,-4970.655,-13650.795,-28679.895,-13515.165,-10602.405
1764762965.7704234,-8456.49,-10381.725,2524.275,-4964.985,-13646.115,-28676.835,-13516.695,-10596.78
1764762965.7704234,-8462.07,-10386.99,2519.775,-4970.115,-13651.47,-28681.11,-13517.865,-10601.055
1764762965.7704234,-8460.404999999999,-10385.19,2521.62,-4968.72,-13650.255,-28680.435,-13517.325,-10598.985
1764762965.7704234,-8464.365,-10388.385,2518.605,-4970.07,-13652.145,-28683.765,-13523.49,-10603.755
1764762965.7704234,-8462.744999999999,-10386.315,2522.025,-4966.83,-13648.86,-28681.065,-13521.465,-10604.16
1764762965.7704234,-8456.58,-10380.24,2527.56,-4961.745,-13643.1,-28674.81,-13513.59,-10597.815
1764762965.7704234,-8459.55,-10384.92,2523.465,-4966.29,-13646.97,-28675.755,-13513.095,-10599.435
1764762965.7704234,-8465.039999999999,-10391.265,2518.695,-4971.645,-13652.415,-28680.39,-13517.28,-10605.33
1764762965.7704234,-8464.904999999999,-10391.04,2519.46,-4970.205,-13652.055,-28680.345,-13518.18,-10604.88
1764762965.7704234,-8460.72,-10387.215,2523.195,-4966.695,-13649.13,-28677.555,-13515.03,-10600.65
1764762965.7704234,-8459.955,-10386.63,2524.275,-4965.75,-13648.095,-28677.87,-13515.075,-10600.065
1764762965.7704234,-8460.539999999999,-10387.62,2523.51,-4967.37,-13648.95,-28679.04,-13516.74,-10600.92
1764762965.7704234,-8463.51,-10389.33,2522.295,-4968.54,-13650.615,-28679.625,-13519.98,-10603.71
1764762965.7704234,-8459.55,-10384.38,2527.875,-4962.69,-13644.945,-28674.675,-13514.31,-10599.795
1764762965.7704234,-8458.56,-10384.38,2527.83,-4962.87,-13644.99,-28674.495,-13513.005,-10597.905
1764762965.7704234,-8459.414999999999,-10386.405,2525.445,-4965.48,-13646.295,-28674.72,-13513.185,-10597.68
1764762965.7704234,-8461.529999999999,-10388.07,2525.355,-4965.48,-13646.205,-28676.61,-13518.54,-10600.155
1764762965.7714293,-8458.289999999999,-10383.75,2530.395,-4960.98,-13642.92,-28674.405,-13515.21,-10597.545
1764762965.7714293,-8463.105,-10388.565,2525.805,-4965.57,-13649.085,-28678.5,-13518.765,-10602.9
1764762965.7714293,-8461.529999999999,-10386.72,2527.38,-4964.355,-13648.14,-28677.285,-13517.415,-10600.695
1764762965.7714293,-8457.84,-10383.525,2530.08,-4961.565,-13645.08,-28674.09,-13514.22,-10596.78
1764762965.817089,-8460.99,-10386.99,2526.57,-4964.67,-13648.14,-28676.7,-13516.65,-10599.705
1764762965.817089,-8457.255,-10382.895,2531.52,-4960.125,-13643.595,-28671.93,-13513.32,-10595.43
1764762965.817089,-8458.965,-10384.56,2529.315,-4962.105,-13645.845,-28673.91,-13515.57,-10597.995
1764762965.817089,-8454.33,-10378.89,2533.77,-4957.02,-13640.805,-28668.465,-13510.485,-10592.46
1764762965.817089,-8454.465,-10379.385,2533.545,-4957.425,-13640.94,-28669.185,-13510.395,-10592.325
1764762965.817089,-8456.175,-10381.32,2532.195,-4959.045,-13643.64,-28672.02,-13513.77,-10594.575
1764762965.817089,-8459.505,-10384.515,2528.28,-4962.87,-13647.24,-28676.16,-13517.19,-10597.365
1764762965.817089,-8460.27,-10384.92,2527.155,-4963.139999999999,-13646.655,-28674.99,-13515.84,-10597.59
1764762965.817089,-8458.244999999999,-10381.995,2530.35,-4960.53,-13644.045,-28672.2,-13512.645,-10595.43
1764762965.817089,-8453.25,-10376.865,2535.03,-4955.13,-13639.545,-28667.07,-13508.19,-10590.75
1764762965.817089,-8454.69,-10378.215,2533.635,-4956.84,-13640.265,-28668.195,-13508.91,-10590.84
1764762965.817089,-8454.645,-10378.44,2533.905,-4956.929999999999,-13640.94,-28668.915,-13508.955,-10590.345
1764762965.817089,-8456.085,-10380.555,2531.835,-4958.955,-13642.785,-28670.355,-13510.53,-10592.955
1764762965.817089,-8456.94,-10382.58,2529.585,-4960.395,-13643.82,-28670.715,-13511.88,-10594.485
1764762965.817089,-8452.08,-10377.855,2534.265,-4956.165,-13639.815,-28668.24,-13508.775,-10589.265
1764762965.817089,-8456.895,-10383.255,2528.37,-4962.33,-13645.71,-28673.82,-13514.94,-10594.17
1764762965.817089,-8455.365,-10381.59,2529.405,-4960.71,-13643.82,-28672.2,-13513.23,-10593.855
1764762965.817089,-8450.82,-10376.595,2534.895,-4954.32,-13638.015,-28665.945,-13509.315,-10589.085
1764762965.817089,-8456.13,-10381.77,2529.09,-4960.215,-13643.595,-28671.03,-13513.14,-10593.72
1764762965.817089,-8456.039999999999,-10381.365,2528.955,-4959.54,-13642.695,-28670.49,-13512.51,-10593.315
1764762965.8176012,-8452.98,-10378.215,2531.88,-4956.66,-13639.32,-28667.25,-13509.045,-10589.355
1764762965.8176012,-8457.615,-10383.03,2527.785,-4961.88,-13645.215,-28672.74,-13514.265,-10593.81
1764762965.8176012,-8456.715,-10381.905,2527.92,-4961.025,-13644.54,-28671.615,-13513.14,-10591.875
1764762965.8176012,-8450.145,-10376.145,2533.23,-4955.264999999999,-13638.285,-28665.9,-13508.37,-10585.44
1764762965.8176012,-8448.48,-10374.03,2535.525,-4954.005,-13636.485,-28663.38,-13505.265,-10584.54
1764762965.8176012,-8448.074999999999,-10373.265,2536.47,-4952.429999999999,-13635.945,-28662.255,-13504.77,-10585.08
1764762965.864619,-8448.975,-10373.58,2535.93,-4952.655,-13635.945,-28662.615,-13503.6,-10585.89
1764762965.864619,-8449.065,-10373.715,2534.445,-4954.635,-13637.07,-28663.245,-13501.17,-10584.27
1764762965.864619,-8449.02,-10372.905,2534.67,-4953.465,-13636.44,-28664.19,-13503.24,-10584.0
1764762965.864619,-8446.365,-10371.105,2536.92,-4951.575,-13634.19,-28664.1,-13507.605,-10581.885
1764762965.864619,-8449.154999999999,-10374.48,2533.14,-4955.22,-13637.07,-28665.315,-13507.74,-10583.955
1764762965.864619,-8452.98,-10377.405,2529.045,-4958.639999999999,-13640.22,-28668.24,-13510.35,-10586.925
1764762965.864619,-8453.115,-10377.36,2529.54,-4958.099999999999,-13640.355,-28669.095,-13510.665,-10587.285
1764762965.864619,-8451.72,-10375.155,2531.34,-4955.94,-13638.465,-28667.205,-13509.18,-10585.755
1764762965.864619,-8447.715,-10371.06,2536.155,-4951.665,-13633.605,-28662.75,-13505.04,-10581.885
1764762965.864619,-8451.9,-10375.11,2531.88,-4956.705,-13637.745,-28667.295,-13508.37,-10585.395
1764762965.864619,-8451.09,-10375.155,2531.835,-4957.514999999999,-13638.375,-28667.115,-13508.325,-10584.405
1764762965.864619,-8450.369999999999,-10374.975,2531.07,-4957.29,-13638.645,-28667.565,-13508.37,-10582.92
1764762965.864619,-8450.279999999999,-10374.93,2531.205,-4956.75,-13638.42,-28667.7,-13508.55,-10583.01
1764762965.864619,-8444.61,-10368.135,2538.405,-4949.955,-13631.04,-28661.355,-13503.555,-10578.42
1764762965.864619,-8444.97,-10366.74,2540.16,-4948.425,-13629.465,-28660.23,-13502.295,-10579.545
1764762965.864619,-8446.815,-10368.315,2538.225,-4950.405,-13631.13,-28661.49,-13503.87,-10580.76
1764762965.864619,-8450.414999999999,-10372.77,2533.455,-4954.679999999999,-13635.54,-28666.17,-13508.415,-10583.145
1764762965.864619,-8442.99,-10365.39,2540.655,-4946.895,-13628.7,-28660.05,-13502.52,-10575.63
1764762965.864619,-8442.315,-10365.66,2540.655,-4946.715,-13628.34,-28659.735,-13501.305,-10575.495
1764762965.864619,-8446.77,-10370.43,2536.65,-4950.855,-13632.48,-28661.895,-13503.69,-10579.95
1764762965.864619,-8452.755,-10375.155,2531.835,-4956.255,-13637.43,-28665.09,-13505.22,-10585.53
1764762965.864619,-8447.76,-10370.115,2536.155,-4951.71,-13633.02,-28660.545,-13500.9,-10579.815
1764762965.9100437,-8447.22,-10369.935,2536.785,-4950.72,-13633.11,-28661.58,-13504.32,-10579.455
1764762965.9100437,-8451.539999999999,-10375.38,2532.33,-4955.085,-13637.205,-28665.81,-13507.47,-10583.865
1764762965.9100437,-8451.09,-10373.85,2533.14,-4954.724999999999,-13635.9,-28665.27,-13506.795,-10583.685
1764762965.9100437,-8450.055,-10373.445,2533.77,-4954.59,-13635.405,-28665.225,-13507.47,-10582.605
1764762965.9100437,-8451.539999999999,-10375.29,2531.655,-4956.57,-13637.295,-28666.44,-13508.955,-10584.27
1764762965.9100437,-8448.84,-10372.14,2533.95,-4953.825,-13634.505,-28663.515,-13506.75,-10581.75
1764762965.9100437,-8443.935,-10367.37,2539.17,-4948.65,-13630.32,-28659.645,-13502.295,-10577.205
1764762965.9100437,-8446.185,-10370.115,2536.92,-4951.53,-13633.245,-28662.255,-13504.095,-10579.14
1764762965.9100437,-8449.83,-10373.85,2533.005,-4955.355,-13636.755,-28665.405,-13506.21,-10582.515
1764762965.9100437,-8446.005,-10369.845,2536.47,-4952.115,-13633.47,-28661.94,-13501.395,-10578.465
1764762965.9100437,-8449.605,-10374.03,2532.285,-4956.3,-13636.8,-28665.27,-13504.185,-10581.93
1764762965.9100437,-8448.975,-10373.94,2533.41,-4955.04,-13635.18,-28665.27,-13507.65,-10581.525
1764762965.9100437,-8442.945,-10368.045,2539.395,-4949.46,-13630.5,-28662.12,-13508.19,-10574.955
1764762965.9100437,-8447.985,-10373.04,2533.995,-4953.69,-13635.945,-28665.45,-13509.18,-10579.005
1764762965.9100437,-8449.38,-10373.58,2532.96,-4954.32,-13636.215,-28665.18,-13508.145,-10579.725
1764762965.9100437,-8446.5,-10370.115,2536.92,-4951.08,-13633.245,-28660.995,-13505.67,-10578.06
1764762965.9100437,-8441.055,-10365.705,2542.23,-4945.995,-13628.43,-28656.495,-13500.495,-10574.37
1764762965.9100437,-8444.295,-10368.18,2539.215,-4948.74,-13630.815,-28657.89,-13501.845,-10576.845
1764762965.9100437,-8446.005,-10370.07,2537.73,-4950.405,-13632.345,-28660.995,-13503.24,-10578.105
1764762965.9100437,-8449.965,-10375.245,2533.14,-4955.625,-13637.52,-28667.115,-13509.45,-10581.93
1764762965.9100437,-8449.065,-10375.155,2533.86,-4955.58,-13636.665,-28666.17,-13508.73,-10581.48
1764762965.9100437,-8442.945,-10368.315,2539.935,-4948.155,-13630.32,-28658.97,-13502.295,-10575.72
1764762965.953581,-8443.305,-10368.945,2539.53,-4948.514999999999,-13631.085,-28658.295,-13502.205,-10575.63
1764762965.9540992,-8444.61,-10371.105,2537.73,-4950.855,-13632.615,-28659.78,-13503.69,-10576.935
1764762965.9540992,-8445.375,-10371.15,2537.91,-4950.945,-13632.12,-28660.095,-13503.6,-10577.79
1764762965.9540992,-8446.275,-10371.105,2537.595,-4950.99,-13633.245,-28660.365,-13504.095,-10578.375
1764762965.9540992,-8442.225,-10367.415,2540.52,-4947.345,-13629.915,-28656.99,-13500.405,-10574.19
1764762965.9540992,-8446.77,-10372.14,2535.48,-4952.565,-13634.19,-28662.03,-13505.22,-10578.69
1764762965.9540992,-8443.08,-10368.36,2539.395,-4948.83,-13630.32,-28659.105,-13501.8,-10573.56
1764762965.9540992,-8442.99,-10369.17,2539.26,-4949.28,-13631.76,-28660.365,-13502.295,-10573.83
1764762965.9540992,-8444.295,-10369.845,2538.225,-4949.55,-13631.805,-28660.77,-13503.33,-10575.9
1764762965.9540992,-8445.375,-10369.98,2537.955,-4950.135,-13632.255,-28660.905,-13503.915,-10577.07
1764762965.9540992,-8445.375,-10370.655,2536.785,-4950.81,-13633.02,-28660.995,-13503.915,-10577.205
1764762965.9540992,-8444.744999999999,-10370.97,2536.47,-4951.08,-13632.975,-28660.545,-13502.925,-10576.395
1764762965.9540992,-8448.885,-10374.165,2533.86,-4954.724999999999,-13636.485,-28663.875,-13507.155,-10579.815
1764762965.9540992,-8446.59,-10371.33,2536.695,-4951.62,-13634.91,-28661.85,-13505.85,-10577.34
1764762965.9540992,-8440.335,-10365.165,2542.41,-4946.58,-13629.33,-28656.855,-13500.945,-10572.165
1764762965.9540992,-8442.63,-10366.92,2539.845,-4948.785,-13630.68,-28658.52,-13503.105,-10573.29
1764762965.9546094,-8447.58,-10372.185,2535.48,-4954.139999999999,-13635.495,-28662.39,-13506.75,-10577.34
1764762965.9546094,-8444.295,-10369.215,2539.26,-4950.72,-13632.3,-28659.87,-13503.6,-10575.045
1764762965.9546094,-8443.395,-10368.09,2539.845,-4950.63,-13631.67,-28660.05,-13502.205,-10573.785
1764762965.9546094,-8447.67,-10372.23,2535.48,-4954.23,-13634.82,-28663.155,-13506.255,-10578.42
1764762965.9546094,-8447.175,-10371.42,2536.155,-4953.69,-13634.73,-28663.065,-13505.49,-10577.295
1764762965.9546094,-8442.539999999999,-10367.55,2540.07,-4949.91,-13631.175,-28660.32,-13503.015,-10571.715
1764762965.9546094,-8447.22,-10372.815,2534.85,-4955.264999999999,-13635.135,-28664.64,-13507.65,-10575.855
1764762965.9546094,-8445.15,-10371.24,2537.37,-4952.925,-13632.48,-28661.85,-13507.02,-10574.145
1764762966.0028164,-8440.065,-10365.12,2543.625,-4946.895,-13626.09,-28655.73,-13502.52,-10570.77
1764762966.0028164,-8446.994999999999,-10371.375,2536.155,-4954.005,-13633.875,-28660.86,-13505.04,-10575.405
1764762966.0028164,-8445.779999999999,-10369.98,2537.955,-4952.655,-13632.705,-28660.275,-13503.42,-10573.29
1764762966.0028164,-8450.145,-10373.715,2534.265,-4955.58,-13636.62,-28665.09,-13508.595,-10577.745
1764762966.0028164,-8447.039999999999,-10369.755,2537.73,-4951.889999999999,-13632.705,-28661.805,-13506.705,-10576.125
1764762966.0028164,-8450.595,-10373.13,2533.995,-4955.085,-13636.665,-28664.28,-13508.685,-10579.995
1764762966.0028164,-8451.494999999999,-10374.345,2532.51,-4956.66,-13637.655,-28663.245,-13506.525,-10580.04
1764762966.0028164,-8450.414999999999,-10373.895,2532.735,-4956.615,-13637.115,-28662.48,-13505.445,-10578.24
1764762966.0028164,-8445.69,-10368.945,2538.18,-4951.215,-13631.67,-28657.395,-13500.765,-10572.795
1764762966.0028164,-8442.045,-10364.94,2542.725,-4946.445,-13626.765,-28655.37,-13503.915,-10569.465
1764762966.0028164,-8440.289999999999,-10363.365,2544.3,-4944.96,-13625.505,-28654.965,-13503.78,-10568.43
1764762966.0028164,-8444.88,-10368.72,2538.81,-4950.36,-13630.905,-28659.285,-13506.03,-10573.785
1764762966.0028164,-8441.414999999999,-10365.93,2540.835,-4948.155,-13628.565,-28657.845,-13503.15,-10570.185
1764762966.0028164,-8445.69,-10370.07,2536.38,-4952.565,-13633.245,-28662.615,-13507.38,-10573.83
1764762966.0028164,-8445.914999999999,-10370.385,2535.975,-4952.835,-13634.325,-28663.335,-13508.19,-10573.965
1764762966.0028164,-8443.305,-10366.92,2538.675,-4949.099999999999,-13630.815,-28660.23,-13506.66,-10572.165
1764762966.0028164,-8448.615,-10371.825,2534.535,-4953.105,-13634.505,-28662.93,-13510.395,-10576.53
1764762966.0028164,-8447.895,-10370.52,2536.245,-4951.889999999999,-13632.48,-28660.05,-13508.73,-10575.9
1764762966.0028164,-8443.845,-10367.235,2539.485,-4949.054999999999,-13629.24,-28657.215,-13505.67,-10571.67
1764762966.0028164,-8442.945,-10365.795,2539.44,-4948.47,-13628.52,-28657.755,-13504.95,-10570.5
1764762966.0028164,-8441.955,-10365.255,2540.475,-4947.705,-13628.115,-28657.08,-13503.87,-10569.195
1764762966.0028164,-8444.835,-10368.18,2539.035,-4950.27,-13630.59,-28659.78,-13506.93,-10571.265
1764762966.0499594,-8449.244999999999,-10372.005,2534.85,-4954.679999999999,-13635.045,-28664.505,-13511.43,-10575.54
1764762966.0499594,-8447.355,-10370.205,2535.66,-4952.745,-13633.47,-28663.605,-13509.765,-10573.29
1764762966.0499594,-8443.08,-10366.74,2538.18,-4948.83,-13630.41,-28659.015,-13505.445,-10568.61
1764762966.0499594,-8443.935,-10368.225,2537.46,-4950.54,-13630.815,-28659.915,-13506.435,-10568.655
1764762966.0504668,-8446.23,-10370.07,2535.795,-4953.465,-13632.93,-28662.705,-13509.0,-10571.13
1764762966.0504668,-8448.84,-10372.095,2533.275,-4955.4,-13634.55,-28663.965,-13510.98,-10574.595
1764762966.0504668,-8445.735,-10368.81,2537.37,-4951.349999999999,-13629.915,-28659.42,-13507.74,-10573.605
1764762966.0504668,-8448.57,-10371.6,2534.67,-4953.915,-13632.975,-28662.345,-13510.395,-10576.845
1764762966.0504668,-8446.949999999999,-10369.89,2535.48,-4953.87,-13632.3,-28661.265,-13508.505,-10574.325
1764762966.0504668,-8452.98,-10376.415,2529.18,-4960.125,-13638.105,-28667.43,-13515.255,-10580.94
1764762966.0504668,-8451.72,-10374.885,2530.485,-4957.38,-13635.99,-28665.405,-13514.04,-10579.41
1764762966.0504668,-8446.23,-10369.26,2536.425,-4951.62,-13630.455,-28660.32,-13508.46,-10573.47
1764762966.0504668,-8444.654999999999,-10368.135,2537.28,-4951.62,-13630.14,-28659.42,-13507.515,-10571.265
1764762966.0504668,-8446.14,-10369.485,2536.02,-4952.88,-13631.94,-28661.67,-13509.045,-10572.795
1764762966.0504668,-8450.279999999999,-10373.94,2532.15,-4957.245,-13636.44,-28665.63,-13513.185,-10577.52
1764762966.0504668,-8448.39,-10371.69,2534.175,-4955.49,-13634.415,-28664.055,-13510.845,-10575.495
1764762966.0504668,-8444.565,-10367.505,2537.37,-4951.62,-13630.5,-28660.635,-13506.84,-10570.095
1764762966.0504668,-8445.51,-10369.395,2535.84,-4953.599999999999,-13632.93,-28662.39,-13508.91,-10570.995
1764762966.0504668,-8441.324999999999,-10365.615,2540.25,-4950.045,-13629.42,-28659.195,-13506.39,-10567.17
1764762966.0504668,-8445.33,-10369.08,2537.505,-4953.78,-13632.165,-28662.84,-13510.17,-10571.58
1764762966.0504668,-8441.82,-10365.255,2541.78,-4949.28,-13627.665,-28657.53,-13503.33,-10569.24
1764762966.0504668,-8441.505,-10365.12,2541.015,-4949.19,-13627.665,-28658.295,-13506.435,-10570.59
1764762966.0504668,-8442.945,-10367.775,2538.135,-4951.755,-13629.24,-28659.465,-13506.165,-10571.445
1764762966.0504668,-8444.789999999999,-10369.44,2535.975,-4953.554999999999,-13631.265,-28662.435,-13510.935,-10572.39
1764762966.0934095,-8447.039999999999,-10371.645,2532.96,-4955.58,-13634.595,-28666.665,-13517.73,-10574.28
1764762966.0934095,-8443.664999999999,-10368.63,2535.75,-4953.195,-13632.93,-28662.345,-13510.8,-10570.455
1764762966.0934095,-8445.24,-10370.115,2533.86,-4954.545,-13633.47,-28661.31,-13508.955,-10570.815
1764762966.0934095,-8447.67,-10371.645,2532.285,-4955.58,-13634.01,-28662.345,-13512.195,-10572.885
1764762966.0934095,-8446.365,-10370.34,2533.68,-4954.365,-13633.335,-28662.39,-13511.115,-10571.625
1764762966.0934095,-8453.25,-10377.315,2526.795,-4961.295,-13640.67,-28669.23,-13516.83,-10578.465
1764762966.0934095,-8453.25,-10376.64,2528.055,-4959.9,-13638.69,-28668.51,-13517.46,-10579.275
1764762966.0934095,-8451.539999999999,-10374.48,2530.755,-4957.47,-13637.16,-28665.495,-13515.435,-10578.33
1764762966.0934095,-8449.695,-10373.58,2531.025,-4957.155,-13636.44,-28664.73,-13512.465,-10575.99
1764762966.0934095,-8444.475,-10368.765,2536.56,-4951.98,-13631.13,-28659.375,-13507.56,-10570.59
1764762966.0939198,-8443.485,-10367.1,2537.145,-4951.304999999999,-13630.59,-28658.43,-13508.19,-10569.915
1764762966.0939198,-8445.24,-10368.81,2535.165,-4953.06,-13632.12,-28660.14,-13510.485,-10571.445
1764762966.0939198,-8449.965,-10372.905,2531.07,-4957.11,-13635.945,-28664.235,-13515.165,-10575.855
1764762966.0939198,-8445.735,-10369.98,2534.535,-4954.59,-13632.84,-28660.77,-13511.97,-10571.76
1764762966.0939198,-8439.57,-10364.4,2540.43,-4949.054999999999,-13628.295,-28655.82,-13506.03,-10565.505
1764762966.0939198,-8441.279999999999,-10366.065,2539.89,-4949.505,-13628.295,-28656.99,-13507.47,-10567.89
1764762966.0939198,-8445.645,-10369.53,2536.02,-4953.465,-13631.67,-28661.13,-13511.61,-10572.48
1764762966.0939198,-8442.315,-10365.975,2538.495,-4950.179999999999,-13628.79,-28657.89,-13507.92,-10567.665
1764762966.0939198,-8442.72,-10367.46,2537.685,-4950.27,-13629.465,-28657.485,-13507.965,-10567.53
1764762966.0939198,-8446.365,-10371.33,2534.355,-4952.88,-13631.805,-28658.88,-13511.565,-10571.04
1764762966.0939198,-8441.82,-10366.02,2539.62,-4947.345,-13626.315,-28654.29,-13508.145,-10566.855
1764762966.0939198,-8440.515,-10365.03,2540.61,-4946.49,-13625.37,-28652.49,-13507.38,-10565.505
1764762966.0939198,-8444.205,-10368.495,2537.01,-4950.315,-13629.24,-28655.955,-13510.89,-10569.825
1764762966.0939198,-8442.63,-10366.47,2539.125,-4948.11,-13627.08,-28655.73,-13509.045,-10568.16
1764762966.1407027,-8436.015,-10360.17,2545.245,-4941.9,-13620.69,-28649.79,-13501.8,-10561.5
1764762966.1407027,-8438.805,-10362.42,2543.31,-4944.24,-13623.165,-28652.445,-13503.375,-10564.335
1764762966.1407027,-8439.795,-10364.22,2542.32,-4945.815,-13625.235,-28653.615,-13504.68,-10564.83
1764762966.1407027,-8444.07,-10368.54,2537.145,-4950.495,-13629.87,-28658.385,-13509.27,-10568.07
1764762966.1407027,-8440.154999999999,-10364.31,2540.475,-4946.445,-13626.9,-28654.83,-13506.48,-10564.875
1764762966.1407027,-8440.515,-10364.265,2541.015,-4946.04,-13626.135,-28653.615,-13505.85,-10565.235
1764762966.1407027,-8445.42,-10369.755,2535.84,-4951.215,-13631.22,-28658.7,-13509.63,-10569.375
1764762966.1407027,-8444.654999999999,-10370.385,2534.805,-4952.655,-13632.3,-28659.735,-13510.665,-10568.34
1764762966.1407027,-8441.414999999999,-10366.11,2539.485,-4947.75,-13627.17,-28655.91,-13508.505,-10566.18
1764762966.1407027,-8437.185,-10360.215,2545.245,-4942.53,-13620.96,-28649.385,-13501.53,-10561.68
1764762966.1407027,-8438.76,-10363.32,2542.365,-4945.23,-13623.93,-28650.915,-13501.62,-10562.355
1764762966.1407027,-8441.279999999999,-10366.65,2538.63,-4948.56,-13627.845,-28654.965,-13506.57,-10564.83
1764762966.1407027,-8442.945,-10366.875,2538.135,-4949.775,-13629.78,-28657.755,-13510.215,-10565.91
1764762966.141206,-8437.86,-10361.025,2543.535,-4945.185,-13624.605,-28652.04,-13502.61,-10561.005
1764762966.141206,-8437.32,-10360.935,2543.58,-4944.915,-13623.3,-28650.555,-13500.63,-10560.87
1764762966.141206,-8441.91,-10365.795,2538.81,-4949.865,-13627.53,-28654.2,-13505.04,-10564.92
1764762966.141206,-8436.42,-10360.215,2544.21,-4944.465,-13623.12,-28652.22,-13506.57,-10560.33
1764762966.141206,-8435.789999999999,-10359.495,2544.795,-4943.474999999999,-13622.625,-28650.195,-13505.085,-10559.205
1764762966.141206,-8438.355,-10363.005,2541.87,-4946.22,-13625.28,-28651.635,-13503.735,-10560.96
1764762966.141206,-8440.83,-10366.245,2538.495,-4948.92,-13627.485,-28653.03,-13506.255,-10563.615
1764762966.141206,-8435.97,-10361.07,2542.95,-4944.87,-13623.75,-28650.78,-13502.79,-10559.745
1764762966.141206,-8441.685,-10366.605,2537.505,-4950.99,-13629.33,-28657.485,-13507.155,-10564.425
1764762966.1874518,-8442.18,-10367.505,2536.155,-4952.52,-13630.5,-28658.655,-13507.38,-10564.29
1764762966.1874518,-8440.47,-10365.705,2538.045,-4951.035,-13629.105,-28657.035,-13507.245,-10563.075
1764762966.1874518,-8436.914999999999,-10361.925,2542.005,-4946.58,-13625.01,-28653.21,-13504.815,-10560.375
1764762966.1874518,-8441.865,-10366.605,2536.875,-4951.98,-13629.735,-28658.43,-13508.64,-10566.45
1764762966.1874518,-8441.505,-10365.885,2537.145,-4951.98,-13629.555,-28658.07,-13507.875,-10565.1
1764762966.1874518,-8435.925,-10360.215,2543.355,-4945.635,-13623.48,-28652.085,-13504.41,-10558.08
1764762966.1874518,-8435.205,-10359.675,2544.03,-4944.87,-13622.58,-28652.13,-13504.86,-10558.125
1764762966.1874518,-8433.945,-10359.45,2544.66,-4945.139999999999,-13621.815,-28652.94,-13504.455,-10557.765
1764762966.1874518,-8433.99,-10359.09,2544.3,-4945.139999999999,-13622.175,-28653.39,-13503.915,-10557.54
1764762966.1874518,-8440.605,-10365.615,2536.965,-4951.98,-13629.78,-28658.34,-13507.965,-10563.03
1764762966.1874518,-8436.914999999999,-10362.6,2540.385,-4948.83,-13626.585,-28653.12,-13502.88,-10559.025
1764762966.1874518,-8436.779999999999,-10362.69,2539.98,-4948.83,-13626.495,-28652.715,-13503.78,-10559.97
1764762966.1874518,-8438.67,-10364.4,2538.45,-4950.945,-13628.295,-28655.19,-13505.355,-10561.995
1764762966.1874518,-8433.945,-10359.315,2542.995,-4946.715,-13623.84,-28650.87,-13501.26,-10556.505
1764762966.1874518,-8437.095,-10362.06,2540.34,-4949.37,-13625.865,-28653.525,-13504.905,-10560.015
1764762966.1874518,-8436.645,-10361.475,2540.88,-4948.11,-13624.965,-28652.31,-13504.95,-10560.69
1764762966.1874518,-8433.765,-10359.495,2543.04,-4945.185,-13622.94,-28649.88,-13503.24,-10557.27
1764762966.1874518,-8428.005,-10353.24,2549.16,-4938.525,-13616.325,-28643.535,-13497.12,-10551.24
1764762966.1874518,-8426.88,-10351.035,2551.095,-4937.355,-13614.885,-28641.69,-13495.815,-10550.295
1764762966.1874518,-8428.23,-10353.285,2548.845,-4939.92,-13617.45,-28644.84,-13497.84,-10551.78
1764762966.1874518,-8432.414999999999,-10358.055,2543.895,-4944.554999999999,-13622.13,-28649.88,-13502.34,-10555.785
1764762966.1874518,-8429.67,-10354.185,2547.135,-4941.315,-13618.755,-28646.64,-13500.54,-10554.57
1764762966.2337368,-8433.0,-10356.12,2544.885,-4942.665,-13621.365,-28648.8,-13503.645,-10558.755
1764762966.2337368,-8430.48,-10354.77,2545.695,-4941.405,-13620.06,-28646.37,-13499.37,-10555.38
1764762966.2337368,-8433.27,-10358.325,2542.68,-4943.925,-13623.03,-28648.755,-13501.89,-10557.27
1764762966.2337368,-8429.355,-10353.78,2547.045,-4940.19,-13619.115,-28645.2,-13499.28,-10552.815
1764762966.2337368,-8430.615,-10354.32,2545.92,-4941.855,-13619.34,-28645.965,-13499.82,-10553.895
1764762966.2337368,-8433.404999999999,-10357.83,2541.96,-4945.545,-13621.86,-28648.215,-13502.655,-10556.82
1764762966.2337368,-8427.42,-10352.52,2547.135,-4939.74,-13616.37,-28644.12,-13496.895,-10551.42
1764762966.2337368,-8430.48,-10354.77,2544.75,-4942.755,-13619.385,-28647.18,-13497.705,-10553.355
1764762966.2337368,-8431.695,-10355.805,2543.715,-4944.33,-13620.645,-28646.91,-13496.715,-10555.065
1764762966.2337368,-8435.385,-10359.765,2539.215,-4947.705,-13624.02,-28649.97,-13498.11,-10558.665
1764762966.2337368,-8433.99,-10358.91,2539.665,-4946.355,-13622.715,-28649.97,-13500.135,-10557.27
1764762966.2349732,-8429.85,-10354.545,2543.805,-4942.44,-13618.89,-28648.62,-13504.05,-10554.255
1764762966.2349732,-8426.52,-10350.72,2547.81,-4939.514999999999,-13615.2,-28644.165,-13499.55,-10550.565
1764762966.2349732,-8430.57,-10355.67,2543.535,-4944.24,-13619.205,-28647.225,-13501.53,-10554.03
1764762966.2349732,-8429.445,-10355.265,2544.48,-4942.889999999999,-13618.35,-28645.38,-13498.875,-10552.41
1764762966.2349732,-8424.18,-10350.045,2549.295,-4938.03,-13614.12,-28640.43,-13495.095,-10546.515
1764762966.2349732,-8423.505,-10349.415,2548.305,-4938.75,-13615.2,-28642.41,-13496.715,-10545.165
1764762966.2349732,-8429.13,-10354.635,2542.995,-4944.15,-13620.645,-28649.115,-13502.115,-10551.555
1764762966.2349732,-8430.029999999999,-10355.22,2543.31,-4944.105,-13620.645,-28648.44,-13501.8,-10552.725
1764762966.2349732,-8429.445,-10354.095,2544.075,-4942.575,-13618.17,-28645.65,-13499.91,-10552.95
1764762966.2349732,-8429.13,-10354.005,2543.985,-4942.349999999999,-13617.63,-28644.165,-13496.76,-10551.87
1764762966.2349732,-8424.449999999999,-10348.83,2547.765,-4938.75,-13614.3,-28640.79,-13493.34,-10547.19
1764762966.2349732,-8424.045,-10348.74,2548.8,-4938.12,-13614.12,-28641.06,-13495.185,-10547.28
1764762966.2364166,-8425.619999999999,-10351.035,2546.91,-4940.235,-13616.55,-28644.255,-13498.38,-10549.98
1764762966.2364166,-8425.98,-10351.305,2546.775,-4940.955,-13616.865,-28644.885,-13499.145,-10550.655
1764762966.2364166,-8424.18,-10348.65,2549.61,-4938.21,-13613.58,-28642.23,-13496.805,-10548.99
1764762966.282899,-8425.845,-10350.63,2546.775,-4939.695,-13615.965,-28641.78,-13495.14,-10550.16
1764762966.282899,-8428.949999999999,-10354.77,2542.86,-4943.25,-13618.395,-28641.33,-13494.915,-10552.095
1764762966.282899,-8429.13,-10354.365,2543.76,-4942.98,-13618.395,-28642.77,-13495.995,-10551.645
1764762966.2844138,-8434.664999999999,-10359.54,2539.44,-4947.795,-13623.615,-28648.44,-13499.64,-10556.145
1764762966.2844138,-8433.494999999999,-10358.55,2540.97,-4947.525,-13622.49,-28648.98,-13502.295,-10554.39
1764762966.2844138,-8429.085,-10355.04,2544.705,-4943.88,-13619.7,-28647.27,-13502.79,-10550.565
1764762966.2844138,-8426.789999999999,-10352.475,2546.91,-4941.315,-13617.405,-28643.895,-13498.38,-10547.955
1764762966.2844138,-8429.355,-10354.005,2545.83,-4942.8,-13618.89,-28645.38,-13500.855,-10550.745
1764762966.2844138,-8427.51,-10351.845,2548.53,-4940.82,-13616.145,-28642.5,-13497.75,-10550.565
1764762966.2844138,-8423.19,-10347.255,2552.22,-4936.995,-13611.69,-28637.91,-13492.89,-10546.29
1764762966.2844138,-8418.555,-10342.935,2557.08,-4932.045,-13607.19,-28633.815,-13487.805,-10542.69
1764762966.2844138,-8421.164999999999,-10345.995,2553.615,-4935.105,-13610.34,-28636.515,-13491.54,-10544.4
1764762966.2844138,-8421.074999999999,-10345.77,2553.705,-4934.7,-13610.88,-28637.595,-13495.68,-10543.59
1764762966.2844138,-8421.3,-10345.365,2553.93,-4934.115,-13611.105,-28637.415,-13494.465,-10542.555
1764762966.2844138,-8422.425,-10346.22,2552.76,-4935.014999999999,-13612.23,-28638.09,-13494.465,-10543.86
1764762966.2844138,-8425.845,-10348.605,2551.455,-4937.58,-13614.66,-28640.34,-13497.525,-10548.135
1764762966.2844138,-8422.83,-10346.49,2554.47,-4935.375,-13612.005,-28636.83,-13492.62,-10544.985
1764762966.2844138,-8425.98,-10349.82,2551.095,-4938.12,-13614.66,-28638.765,-13494.87,-10547.82
1764762966.2844138,-8424.945,-10347.66,2552.58,-4937.13,-13613.445,-28638.495,-13493.88,-10545.93
1764762966.2844138,-8420.22,-10344.465,2556.495,-4932.99,-13609.035,-28633.545,-13490.82,-10541.565
1764762966.2844138,-8423.145,-10347.795,2554.11,-4936.59,-13612.185,-28636.965,-13493.79,-10544.355
1764762966.2844138,-8428.86,-10353.015,2548.71,-4941.945,-13617.63,-28643.31,-13499.64,-10549.71
1764762966.3274744,-8425.89,-10350.495,2550.465,-4939.425,-13615.605,-28641.51,-13497.84,-10548.18
1764762966.3285398,-8419.904999999999,-10344.465,2556.18,-4933.304999999999,-13610.07,-28635.345,-13492.755,-10541.565
1764762966.3285398,-8422.02,-10346.355,2554.74,-4935.105,-13611.69,-28637.235,-13492.62,-10542.915
1764762966.3285398,-8426.699999999999,-10349.91,2550.78,-4939.2,-13615.605,-28641.15,-13496.22,-10547.685
1764762966.3285398,-8427.285,-10350.405,2550.42,-4939.29,-13615.515,-28641.33,-13496.94,-10548.495
1764762966.3285398,-8427.15,-10351.62,2549.52,-4940.01,-13616.28,-28640.97,-13497.165,-10548.495
1764762966.3285398,-8426.43,-10350.99,2551.14,-4939.92,-13615.425,-28640.025,-13496.22,-10547.685
1764762966.3285398,-8423.82,-10348.605,2554.155,-4936.995,-13613.13,-28638.09,-13494.42,-10545.345
1764762966.3285398,-8418.96,-10343.61,2558.07,-4931.955,-13608.63,-28634.04,-13490.28,-10540.845
1764762966.3285398,-8424.765,-10349.595,2551.77,-4939.335,-13615.065,-28640.52,-13495.365,-10546.695
1764762966.3285398,-8424.99,-10351.035,2551.32,-4941.179999999999,-13615.965,-28642.095,-13496.715,-10547.145
1764762966.3285398,-8422.425,-10347.525,2553.795,-4938.795,-13613.85,-28640.79,-13495.365,-10544.535
1764762966.3285398,-8420.715,-10345.41,2555.37,-4937.04,-13611.645,-28638.945,-13493.34,-10542.87
1764762966.3285398,-8420.58,-10345.365,2555.73,-4936.545,-13611.06,-28637.28,-13492.755,-10541.925
1764762966.3285398,-8416.485,-10341.585,2560.41,-4931.82,-13607.055,-28632.6,-13489.38,-10538.055
1764762966.3285398,-8419.994999999999,-10345.95,2556.27,-4936.139999999999,-13610.655,-28636.605,-13493.88,-10541.925
1764762966.3285398,-8420.85,-10345.95,2555.055,-4937.355,-13611.195,-28636.695,-13494.015,-10543.005
1764762966.3285398,-8417.654999999999,-10342.755,2557.845,-4934.34,-13607.865,-28634.805,-13490.73,-10539.72
1764762966.3285398,-8412.705,-10337.715,2563.245,-4928.67,-13602.33,-28629.945,-13485.465,-10534.5
1764762966.3295324,-8415.18,-10340.82,2560.41,-4931.865,-13605.12,-28632.06,-13487.175,-10537.155
1764762966.3295324,-8415.99,-10341.855,2559.51,-4932.36,-13606.155,-28633.77,-13492.215,-10537.695
1764762966.3295324,-8422.74,-10349.37,2551.635,-4939.74,-13613.31,-28639.845,-13497.705,-10543.185
1764762966.3727424,-8424.09,-10349.91,2550.51,-4941.179999999999,-13614.795,-28639.98,-13495.23,-10544.04
1764762966.3727424,-8422.38,-10346.94,2553.435,-4937.895,-13611.78,-28637.73,-13493.34,-10542.69
1764762966.3727424,-8416.664999999999,-10341.09,2559.195,-4931.82,-13606.02,-28632.51,-13488.705,-10537.29
1764762966.3727424,-8417.025,-10341.81,2558.205,-4933.62,-13607.505,-28633.59,-13489.515,-10537.02
1764762966.3727424,-8417.205,-10341.765,2557.845,-4933.395,-13606.875,-28632.555,-13490.73,-10536.885
1764762966.3727424,-8415.27,-10338.39,2560.635,-4930.38,-13603.59,-28629.495,-13488.84,-10535.355
1764762966.3727424,-8415.63,-10339.02,2560.725,-4931.19,-13604.22,-28630.35,-13486.905,-10535.445
1764762966.3727424,-8423.19,-10347.165,2552.22,-4940.28,-13613.085,-28638.81,-13492.935,-10541.97
1764762966.3727424,-8421.84,-10345.455,2553.39,-4939.245,-13611.6,-28638.675,-13493.655,-10540.755
1764762966.3727424,-8416.574999999999,-10339.695,2558.565,-4933.08,-13605.48,-28634.175,-13491.315,-10535.985
1764762966.3727424,-8421.345,-10344.735,2553.3,-4938.12,-13610.655,-28638.99,-13494.555,-10540.845
1764762966.3727424,-8421.164999999999,-10344.645,2553.795,-4938.12,-13610.565,-28638.0,-13493.97,-10540.98
1764762966.3727424,-8418.779999999999,-10342.485,2555.73,-4935.87,-13608.765,-28635.57,-13491.63,-10538.505
1764762966.3727424,-8415.18,-10338.795,2558.88,-4932.54,-13605.345,-28632.015,-13488.795,-10535.895
1764762966.3727424,-8420.895,-10343.88,2552.985,-4937.355,-13610.61,-28638.405,-13493.88,-10541.34
1764762966.3727424,-8420.265,-10343.34,2553.48,-4937.085,-13609.935,-28638.405,-13493.34,-10540.395
1764762966.3727424,-8415.765,-10338.3,2559.06,-4931.19,-13603.59,-28631.07,-13486.95,-10535.22
1764762966.3727424,-8418.735,-10341.495,2555.28,-4934.97,-13606.74,-28635.12,-13490.685,-10538.055
1764762966.3727424,-8415.494999999999,-10337.355,2557.53,-4932.675,-13604.67,-28634.31,-13488.885,-10534.005
1764762966.3727424,-8420.445,-10343.115,2552.715,-4937.804999999999,-13610.025,-28638.54,-13493.43,-10539.495
1764762966.3737693,-8421.48,-10344.105,2552.76,-4938.57,-13610.34,-28638.45,-13494.105,-10539.99
1764762966.3737693,-8417.97,-10340.685,2556.27,-4935.105,-13606.65,-28634.58,-13491.18,-10537.155
1764762966.3737693,-8415.945,-10338.435,2558.655,-4932.09,-13603.365,-28630.845,-13487.175,-10533.825
1764762966.3737693,-8418.555,-10340.955,2555.955,-4934.88,-13606.605,-28633.995,-13489.2,-10535.22
1764762966.4209497,-8419.994999999999,-10342.215,2554.605,-4936.32,-13608.135,-28635.795,-13489.38,-10536.12
1764762966.4209497,-8415.63,-10337.31,2559.195,-4931.235,-13603.23,-28630.8,-13485.51,-10532.16
1764762966.4209497,-8414.19,-10335.645,2560.995,-4930.11,-13602.15,-28629.945,-13485.465,-10531.62
1764762966.4209497,-8415.135,-10336.41,2559.735,-4931.145,-13602.915,-28630.98,-13486.905,-10532.115
1764762966.4209497,-8415.99,-10337.265,2558.835,-4932.945,-13605.255,-28633.905,-13486.995,-10532.43
1764762966.4209497,-8419.455,-10340.82,2555.37,-4936.86,-13609.215,-28637.055,-13489.695,-10534.995
1764762966.4209497,-8418.33,-10339.785,2556.045,-4936.32,-13607.865,-28635.03,-13485.915,-10533.645
1764762966.4209497,-8422.11,-10344.69,2552.535,-4939.83,-13611.105,-28638.0,-13488.795,-10537.605
1764762966.4209497,-8420.039999999999,-10341.765,2555.37,-4936.23,-13609.35,-28637.82,-13493.115,-10535.76
1764762966.4209497,-8418.24,-10338.705,2558.385,-4933.62,-13606.83,-28635.705,-13492.935,-10534.725
1764762966.4209497,-8415.99,-10336.23,2560.725,-4931.505,-13603.77,-28631.835,-13488.345,-10532.34
1764762966.4209497,-8418.015,-10337.445,2559.015,-4933.035,-13605.12,-28633.86,-13490.685,-10533.465
1764762966.4214563,-8413.83,-10333.845,2563.155,-4930.155,-13601.43,-28631.205,-13486.365,-10529.19
1764762966.4214563,-8418.779999999999,-10339.38,2558.295,-4935.15,-13606.965,-28637.19,-13491.045,-10533.24
1764762966.4214563,-8415.63,-10335.24,2562.12,-4930.92,-13603.365,-28633.23,-13487.94,-10529.91
1764762966.4214563,-8416.35,-10335.51,2561.67,-4931.37,-13602.87,-28631.25,-13486.545,-10530.72
1764762966.4214563,-8416.98,-10336.59,2561.22,-4931.054999999999,-13603.095,-28629.99,-13487.805,-10531.89
1764762966.4214563,-8417.97,-10338.03,2560.32,-4933.304999999999,-13604.625,-28631.745,-13489.74,-10532.52
1764762966.4214563,-8420.13,-10339.38,2558.79,-4934.295,-13606.155,-28633.365,-13490.865,-10532.925
1764762966.4214563,-8421.3,-10339.38,2558.79,-4934.115,-13605.255,-28633.77,-13491.495,-10534.905
1764762966.4224665,-8424.63,-10342.845,2554.65,-4937.94,-13608.585,-28635.795,-13490.82,-10537.83
1764762966.4224665,-8423.865,-10341.9,2555.505,-4936.905,-13607.955,-28634.13,-13490.505,-10536.12
1764762966.4224665,-8417.295,-10335.42,2562.21,-4929.75,-13602.105,-28628.37,-13486.005,-10530.63
1764762966.4224665,-8417.295,-10334.475,2563.065,-4929.345,-13601.835,-28627.785,-13486.815,-10530.09
1764762966.4224665,-8417.88,-10335.195,2562.615,-4931.099999999999,-13602.78,-28629.225,-13486.77,-10529.235
1764762966.4224665,-8420.445,-10336.815,2560.545,-4932.72,-13604.76,-28630.665,-13487.805,-10530.9
1764762966.469493,-8423.685,-10340.055,2557.62,-4935.645,-13608.63,-28634.445,-13490.82,-10534.815
1764762966.469493,-8421.074999999999,-10337.67,2559.42,-4933.395,-13606.47,-28632.105,-13487.895,-10532.205
1764762966.469493,-8424.315,-10340.46,2556.405,-4936.77,-13609.485,-28634.94,-13490.64,-10534.995
1764762966.469493,-8422.695,-10338.255,2559.735,-4933.395,-13606.245,-28632.24,-13490.415,-10534.545
1764762966.469493,-8419.815,-10335.465,2562.165,-4930.065,-13603.23,-28629.54,-13488.12,-10533.105
1764762966.469493,-8419.365,-10334.565,2562.705,-4929.615,-13601.565,-28627.11,-13486.455,-10531.485
1764762966.469493,-8419.904999999999,-10333.89,2563.02,-4929.795,-13601.205,-28628.145,-13486.455,-10531.17
1764762966.469493,-8425.664999999999,-10339.065,2557.845,-4935.24,-13606.965,-28634.13,-13491.54,-10537.11
1764762966.469493,-8420.67,-10334.115,2562.93,-4929.66,-13602.42,-28629.0,-13485.285,-10532.025
1764762966.469493,-8421.525,-10335.915,2560.95,-4931.865,-13604.355,-28630.395,-13485.24,-10532.745
1764762966.469493,-8426.43,-10340.595,2556.405,-4937.445,-13609.17,-28634.67,-13488.66,-10535.715
1764762966.469493,-8425.845,-10340.19,2556.945,-4937.4,-13608.09,-28633.095,-13487.49,-10533.96
1764762966.469493,-8420.535,-10335.15,2562.255,-4932.179999999999,-13603.185,-28629.135,-13490.055,-10529.865
1764762966.469493,-8416.305,-10330.02,2567.475,-4926.69,-13598.55,-28625.31,-13487.04,-10526.355
1764762966.469493,-8420.76,-10334.925,2562.255,-4931.595,-13603.095,-28629.225,-13487.49,-10530.495
1764762966.469493,-8420.13,-10335.015,2563.245,-4931.595,-13602.105,-28628.235,-13486.59,-10529.685
1764762966.469493,-8415.81,-10329.84,2568.735,-4925.79,-13596.795,-28623.105,-13482.99,-10524.645
1764762966.469493,-8420.355,-10334.025,2564.37,-4929.929999999999,-13601.43,-28627.605,-13487.355,-10528.02
1764762966.469493,-8421.164999999999,-10334.385,2563.74,-4931.145,-13601.925,-28628.865,-13486.905,-10528.245
1764762966.469493,-8417.25,-10330.065,2568.42,-4927.995,-13598.1,-28624.905,-13482.09,-10524.87
1764762966.469493,-8420.22,-10332.09,2566.305,-4929.435,-13600.53,-28627.29,-13484.97,-10527.705
1764762966.469493,-8418.869999999999,-10330.515,2568.645,-4927.139999999999,-13598.1,-28624.14,-13483.215,-10525.365
1764762966.5163765,-8423.324999999999,-10335.375,2562.93,-4933.889999999999,-13603.32,-28629.765,-13488.255,-10529.82
1764762966.5163765,-8422.244999999999,-10334.745,2563.56,-4933.215,-13602.06,-28629.135,-13487.94,-10528.38
1764762966.5163765,-8415.99,-10328.445,2569.41,-4927.005,-13595.94,-28624.365,-13483.71,-10521.855
1764762966.5163765,-8414.64,-10326.42,2572.02,-4924.845,-13594.455,-28621.845,-13481.28,-10519.29
1764762966.5163765,-8414.64,-10325.97,2571.93,-4925.07,-13594.68,-28622.025,-13480.245,-10519.92
1764762966.5163765,-8417.34,-10328.895,2569.23,-4927.5,-13596.615,-28623.24,-13479.705,-10521.27
1764762966.5163765,-8416.529999999999,-10328.31,2569.59,-4926.42,-13595.805,-28620.9,-13479.57,-10520.64
1764762966.5163765,-8416.845,-10328.4,2569.05,-4926.24,-13595.76,-28620.855,-13481.145,-10522.26
1764762966.5163765,-8417.43,-10328.715,2569.095,-4926.69,-13595.895,-28621.395,-13480.965,-10523.61
1764762966.5163765,-8416.71,-10327.32,2570.31,-4925.474999999999,-13593.51,-28619.145,-13479.57,-10521.99
1764762966.5163765,-8415.315,-10326.645,2570.76,-4925.115,-13593.42,-28618.965,-13478.94,-10519.74
1764762966.5163765,-8415.539999999999,-10327.365,2568.915,-4927.365,-13596.885,-28622.79,-13481.1,-10519.965
1764762966.5163765,-8416.574999999999,-10328.22,2567.565,-4928.985,-13598.46,-28623.6,-13483.575,-10520.64
1764762966.5163765,-8419.815,-10330.965,2566.08,-4929.615,-13598.955,-28624.23,-13486.455,-10524.33
1764762966.5163765,-8415.855,-10327.59,2569.86,-4925.97,-13595.76,-28621.215,-13480.92,-10521.09
1764762966.5163765,-8413.74,-10326.375,2570.04,-4927.455,-13596.705,-28621.935,-13480.02,-10518.615
1764762966.5163765,-8416.619999999999,-10329.57,2567.025,-4929.929999999999,-13598.505,-28623.78,-13481.955,-10520.82
1764762966.5163765,-8420.13,-10331.775,2566.035,-4931.37,-13600.935,-28627.47,-13485.96,-10526.355
1764762966.5163765,-8419.14,-10329.48,2568.78,-4929.389999999999,-13598.595,-28625.355,-13483.845,-10525.32
1764762966.5163765,-8423.865,-10334.295,2563.245,-4933.935,-13603.455,-28629.63,-13487.4,-10529.1
1764762966.5163765,-8419.095,-10329.84,2567.07,-4929.84,-13599.225,-28624.68,-13481.145,-10523.43
1764762966.5163765,-8416.529999999999,-10327.995,2568.51,-4928.58,-13597.47,-28622.79,-13479.165,-10521.18
1764762966.5163765,-8417.07,-10328.94,2568.015,-4929.615,-13598.19,-28622.97,-13479.705,-10522.395
1764762966.5163765,-8416.485,-10327.95,2569.59,-4927.095,-13595.94,-28622.295,-13482.81,-10522.035
1764762966.5628676,-8416.44,-10327.815,2570.085,-4927.005,-13595.355,-28623.015,-13486.185,-10520.955
1764762966.5628676,-8422.02,-10333.305,2564.055,-4933.215,-13602.015,-28629.27,-13489.47,-10526.04
1764762966.5628676,-8418.869999999999,-10329.57,2567.835,-4929.57,-13598.73,-28626.03,-13484.43,-10523.34
1764762966.5628676,-8413.65,-10324.35,2573.955,-4924.17,-13593.24,-28620.765,-13479.165,-10519.29
1764762966.5628676,-8412.885,-10323.9,2573.82,-4924.395,-13592.88,-28620.135,-13478.22,-10518.345
1764762966.5628676,-8414.865,-10326.645,2571.345,-4926.915,-13595.13,-28620.945,-13479.39,-10518.39
1764762966.5628676,-8418.555,-10330.56,2566.845,-4930.155,-13598.685,-28624.5,-13482.54,-10521.765
1764762966.563383,-8415.18,-10326.69,2571.165,-4926.645,-13595.04,-28621.98,-13480.38,-10517.715
1764762966.563383,-8418.465,-10329.12,2569.23,-4928.895,-13597.74,-28624.77,-13484.16,-10521.54
1764762966.563383,-8416.305,-10326.24,2571.66,-4925.655,-13594.5,-28619.73,-13481.415,-10520.73
1764762966.563383,-8411.715,-10321.875,2576.07,-4921.605,-13590.54,-28614.69,-13475.745,-10515.78
1764762966.563383,-8412.255,-10322.91,2574.135,-4923.405,-13592.295,-28617.255,-13477.5,-10516.32
1764762966.563383,-8411.715,-10323.54,2573.145,-4923.855,-13593.42,-28618.47,-13477.455,-10515.825
1764762966.563383,-8412.435,-10323.855,2572.02,-4924.62,-13593.87,-28619.19,-13478.355,-10515.645
1764762966.563383,-8416.395,-10326.915,2569.455,-4928.22,-13597.02,-28622.565,-13482.63,-10520.055
1764762966.563383,-8416.845,-10326.555,2569.995,-4928.13,-13596.615,-28622.745,-13481.82,-10520.775
1764762966.563383,-8415.315,-10325.655,2570.715,-4927.32,-13595.895,-28621.35,-13478.445,-10518.615
1764762966.563383,-8415.225,-10325.745,2570.58,-4926.78,-13595.67,-28621.215,-13478.94,-10518.255
1764762966.563383,-8413.83,-10324.485,2570.715,-4926.195,-13594.23,-28620.855,-13478.985,-10516.635
1764762966.563383,-8412.029999999999,-10322.82,2573.01,-4924.17,-13591.53,-28618.515,-13476.87,-10515.33
1764762966.563383,-8407.305,-10316.61,2579.22,-4917.78,-13586.4,-28613.97,-13472.37,-10511.415
1764762966.563383,-8410.725,-10319.67,2576.16,-4921.47,-13589.82,-28617.39,-13476.87,-10513.98
1764762966.563383,-8413.92,-10323.72,2571.84,-4925.34,-13593.87,-28621.71,-13480.56,-10516.68
1764762966.563383,-8410.5,-10319.94,2574.585,-4922.37,-13590.945,-28618.56,-13475.835,-10512.54
1764762966.6092353,-8408.97,-10319.13,2575.35,-4923.045,-13591.215,-28617.885,-13473.54,-10511.73
1764762966.6092353,-8409.42,-10320.12,2574.585,-4924.304999999999,-13591.62,-28618.29,-13473.675,-10511.55
1764762966.6092353,-8409.195,-10320.93,2573.595,-4924.889999999999,-13592.88,-28618.065,-13474.305,-10512.09
1764762966.6092353,-8409.6,-10321.065,2572.11,-4925.925,-13593.24,-28618.695,-13476.15,-10513.44
1764762966.6092353,-8409.51,-10319.715,2574.045,-4924.349999999999,-13590.99,-28616.94,-13476.105,-10514.7
1764762966.6092353,-8408.88,-10318.77,2576.835,-4921.605,-13589.37,-28615.41,-13474.035,-10513.53
1764762966.6092353,-8407.8,-10318.23,2578.41,-4920.075,-13588.605,-28615.77,-13473.63,-10511.325
1764762966.6092353,-8409.33,-10319.58,2575.53,-4923.45,-13590.99,-28619.775,-13477.545,-10512.81
1764762966.6092353,-8411.31,-10321.74,2573.1,-4926.014999999999,-13593.285,-28622.79,-13480.605,-10515.87
1764762966.6092353,-8408.07,-10318.32,2576.07,-4922.235,-13590.135,-28619.505,-13475.88,-10511.73
1764762966.610638,-8408.475,-10319.31,2575.755,-4923.81,-13590.45,-28619.145,-13474.575,-10511.145
1764762966.610638,-8411.58,-10322.235,2571.885,-4926.33,-13593.555,-28619.37,-13474.89,-10513.62
1764762966.610638,-8415.72,-10326.195,2567.97,-4931.325,-13598.055,-28623.96,-13479.84,-10518.255
1764762966.6110656,-8413.154999999999,-10323.495,2570.22,-4929.48,-13595.715,-28621.935,-13478.76,-10516.14
1764762966.6110656,-8416.44,-10326.69,2566.215,-4933.08,-13598.955,-28624.905,-13481.82,-10519.875
1764762966.6110656,-8413.605,-10323.36,2569.545,-4930.02,-13596.39,-28621.575,-13477.095,-10516.815
1764762966.6110656,-8414.73,-10325.25,2570.13,-4929.165,-13597.47,-28622.475,-13475.79,-10516.68
1764762966.6110656,-8419.41,-10330.515,2564.865,-4933.125,-13601.52,-28625.49,-13479.255,-10520.64
1764762966.6110656,-8412.795,-10323.045,2571.93,-4926.195,-13594.005,-28620.72,-13480.74,-10515.78
1764762966.612045,-8411.265,-10321.11,2574.18,-4925.16,-13592.88,-28621.98,-13484.07,-10515.42
1764762966.612045,-8412.029999999999,-10321.74,2572.92,-4926.105,-13593.33,-28620.81,-13479.705,-10515.24
1764762966.612045,-8410.005,-10320.435,2574.54,-4924.62,-13591.845,-28618.875,-13478.04,-10513.98
1764762966.612045,-8408.88,-10319.805,2575.62,-4923.495,-13590.765,-28617.615,-13476.645,-10512.495
1764762966.612045,-8408.744999999999,-10319.715,2575.575,-4923.45,-13589.595,-28616.625,-13476.375,-10512.45
1764762966.6556065,-8412.029999999999,-10322.55,2571.885,-4926.599999999999,-13592.88,-28619.82,-13479.84,-10515.735
1764762966.6556065,-8407.17,-10318.32,2576.655,-4921.514999999999,-13588.605,-28615.23,-13475.79,-10510.92
1764762966.6566153,-8405.865,-10316.835,2577.87,-4920.48,-13586.985,-28613.655,-13474.53,-10509.84
1764762966.6566153,-8409.645,-10320.39,2574.27,-4924.53,-13590.99,-28617.885,-13477.95,-10512.63
1764762966.6566153,-8409.015,-10319.67,2575.755,-4923.81,-13590.36,-28617.615,-13476.78,-10511.415
1764762966.6566153,-8408.34,-10319.445,2576.16,-4922.73,-13589.91,-28617.525,-13476.42,-10511.145
1764762966.6566153,-8412.48,-10323.495,2572.02,-4926.87,-13594.635,-28621.935,-13480.92,-10515.51
1764762966.6566153,-8412.119999999999,-10323.045,2572.11,-4926.15,-13594.14,-28621.08,-13480.245,-10516.095
1764762966.6566153,-8408.654999999999,-10320.21,2575.665,-4923.179999999999,-13590.585,-28618.02,-13476.96,-10512.54
1764762966.6566153,-8410.68,-10321.695,2572.965,-4925.385,-13592.835,-28619.64,-13478.985,-10514.745
1764762966.6566153,-8408.16,-10319.13,2576.07,-4922.775,-13590.045,-28616.715,-13476.33,-10511.595
1764762966.6566153,-8411.355,-10322.01,2573.55,-4925.429999999999,-13591.89,-28618.695,-13479.39,-10514.88
1764762966.6566153,-8406.539999999999,-10316.61,2577.33,-4920.929999999999,-13587.84,-28614.465,-13475.07,-10510.47
1764762966.6566153,-8406.9,-10317.42,2576.16,-4922.415,-13588.83,-28616.49,-13476.24,-10509.975
1764762966.6566153,-8407.529999999999,-10319.4,2575.395,-4923.135,-13590.18,-28617.165,-13475.7,-10509.57
1764762966.6566153,-8410.68,-10322.595,2572.38,-4926.465,-13593.555,-28620.54,-13478.805,-10513.62
1764762966.6566153,-8406.18,-10317.015,2578.095,-4920.795,-13586.58,-28614.24,-13473.72,-10510.425
1764762966.6566153,-8405.01,-10315.755,2579.085,-4920.66,-13585.815,-28613.07,-13472.145,-10508.67
1764762966.6566153,-8408.16,-10319.22,2575.395,-4924.304999999999,-13589.055,-28616.715,-13474.89,-10511.19
1764762966.6566153,-8403.885,-10313.865,2580.3,-4919.264999999999,-13584.42,-28612.215,-13470.48,-10506.69
1764762966.6566153,-8404.56,-10315.845,2579.085,-4920.615,-13585.725,-28612.845,-13472.37,-10506.87
1764762966.6566153,-8404.02,-10316.655,2579.31,-4920.3,-13585.32,-28612.665,-13471.47,-10506.645
1764762966.6566153,-8403.48,-10315.575,2579.67,-4920.255,-13585.23,-28612.44,-13471.11,-10506.645
1764762966.6566153,-8410.994999999999,-10321.965,2573.37,-4927.005,-13592.295,-28618.74,-13478.13,-10513.62
1764762966.7032712,-8411.039999999999,-10322.37,2572.83,-4927.995,-13593.105,-28620.18,-13478.265,-10512.945
1764762966.7032712,-8406.494999999999,-10316.43,2578.185,-4923.045,-13587.705,-28616.355,-13473.495,-10507.32
1764762966.7032712,-8408.789999999999,-10318.365,2575.755,-4925.16,-13589.82,-28618.695,-13476.015,-10510.38
1764762966.7032712,-8403.39,-10314.09,2579.76,-4920.615,-13585.545,-28613.925,-13471.065,-10506.015
1764762966.7032712,-8403.119999999999,-10314.315,2579.13,-4920.84,-13585.455,-28613.655,-13470.84,-10505.925
1764762966.7032712,-8406.63,-10317.78,2576.88,-4923.54,-13587.705,-28616.49,-13474.845,-10511.145
1764762966.7032712,-8407.71,-10317.96,2577.06,-4922.82,-13587.885,-28616.4,-13475.475,-10511.28
1764762966.7032712,-8405.1,-10316.07,2578.68,-4921.74,-13586.715,-28615.455,-13472.73,-10507.095
1764762966.7032712,-8399.295,-10310.715,2583.495,-4916.97,-13581.27,-28609.785,-13465.575,-10500.75
1764762966.7032712,-8403.39,-10313.91,2580.165,-4920.165,-13584.105,-28611.27,-13468.14,-10504.71
1764762966.7032712,-8400.105,-10310.13,2585.115,-4916.205,-13580.055,-28607.715,-13464.18,-10502.055
1764762966.7032712,-8400.555,-10310.94,2584.17,-4917.645,-13581.855,-28609.785,-13465.44,-10502.955
1764762966.7032712,-8405.91,-10317.33,2577.825,-4923.45,-13587.66,-28615.32,-13470.435,-10508.445
1764762966.7032712,-8402.58,-10314.36,2580.885,-4920.705,-13584.195,-28614.15,-13474.215,-10506.105
1764762966.7032712,-8400.465,-10312.74,2582.46,-4918.995,-13583.07,-28612.305,-13471.695,-10503.495
1764762966.7032712,-8403.525,-10315.575,2579.985,-4921.02,-13585.995,-28613.88,-13471.695,-10505.205
1764762966.7032712,-8406.72,-10317.24,2577.06,-4923.764999999999,-13587.795,-28615.5,-13473.0,-10507.365
1764762966.7032712,-8403.57,-10313.01,2581.38,-4919.13,-13582.98,-28611.225,-13470.705,-10504.98
1764762966.7032712,-8397.27,-10306.71,2588.22,-4912.155,-13576.59,-28606.23,-13467.51,-10499.715
1764762966.7032712,-8400.195,-10310.58,2583.495,-4917.285,-13581.405,-28610.28,-13469.355,-10502.145
1764762966.7032712,-8405.55,-10316.43,2577.735,-4922.775,-13586.58,-28615.05,-13474.485,-10507.365
1764762966.7032712,-8405.369999999999,-10315.98,2579.355,-4921.514999999999,-13584.87,-28613.52,-13473.135,-10507.185
1764762966.7510262,-8403.885,-10314.765,2580.57,-4919.985,-13583.16,-28612.035,-13471.425,-10504.8
1764762966.7510262,-8403.3,-10314.99,2580.66,-4920.12,-13584.105,-28613.205,-13471.38,-10504.395
1764762966.7510262,-8399.88,-10310.895,2584.98,-4916.79,-13580.64,-28609.83,-13469.715,-10501.92
1764762966.7510262,-8402.355,-10313.505,2583.045,-4919.4,-13582.98,-28613.07,-13473.54,-10503.9
1764762966.7510262,-8398.98,-10310.355,2586.195,-4915.889999999999,-13579.02,-28609.605,-13470.39,-10499.895
1764762966.7510262,-8397.36,-10308.33,2587.635,-4913.325,-13576.86,-28607.445,-13467.915,-10498.275
1764762966.7510262,-8400.06,-10310.49,2585.565,-4915.665,-13579.74,-28608.705,-13468.275,-10500.525
1764762966.7510262,-8406.27,-10317.645,2578.41,-4922.955,-13586.445,-28613.205,-13472.28,-10506.51
1764762966.7510262,-8405.595,-10316.115,2579.715,-4921.335,-13584.33,-28611.54,-13471.155,-10505.52
1764762966.7510262,-8399.789999999999,-10310.04,2586.33,-4914.945,-13578.21,-28607.22,-13467.195,-10499.67
1764762966.7510262,-8398.935,-10309.32,2586.87,-4914.0,-13577.355,-28605.78,-13466.115,-10499.58
1764762966.7510262,-8398.529999999999,-10309.77,2586.555,-4913.685,-13577.4,-28605.78,-13465.755,-10498.815
1764762966.7510262,-8400.33,-10312.11,2584.62,-4916.474999999999,-13580.505,-28608.255,-13468.23,-10500.93
1764762966.7510262,-8405.414999999999,-10317.465,2578.68,-4921.335,-13585.95,-28613.655,-13474.485,-10505.88
1764762966.7510262,-8401.725,-10313.73,2582.235,-4917.87,-13582.215,-28610.505,-13472.415,-10502.37
1764762966.7510262,-8400.465,-10312.605,2583.675,-4917.195,-13581.315,-28610.145,-13470.615,-10501.65
1764762966.7510262,-8400.465,-10312.335,2583.27,-4916.745,-13580.82,-28609.74,-13470.705,-10502.505
1764762966.7510262,-8403.345,-10315.395,2581.56,-4919.49,-13583.115,-28613.205,-13474.8,-10505.79
1764762966.7510262,-8406.675,-10318.365,2579.175,-4922.55,-13587.165,-28616.85,-13478.22,-10509.345
1764762966.7510262,-8403.75,-10316.7,2581.38,-4920.705,-13585.365,-28612.89,-13473.405,-10504.755
1764762966.752033,-8406.0,-10318.995,2578.68,-4923.405,-13588.11,-28612.98,-13472.415,-10507.23
1764762966.752033,-8405.1,-10316.88,2580.12,-4921.92,-13585.68,-28610.82,-13470.39,-10506.42
1764762966.7983952,-8400.465,-10312.785,2583.99,-4917.69,-13581.315,-28606.365,-13464.27,-10500.705
1764762966.7983952,-8399.34,-10311.705,2584.665,-4917.42,-13580.64,-28606.77,-13467.645,-10499.49
1764762966.7983952,-8401.095,-10313.82,2583.18,-4918.995,-13582.755,-28611.315,-13476.78,-10502.64
1764762966.7983952,-8398.17,-10310.49,2586.555,-4916.025,-13579.605,-28607.31,-13470.255,-10500.57
1764762966.7983952,-8399.07,-10311.165,2585.835,-4916.474999999999,-13579.695,-28607.13,-13469.895,-10500.795
1764762966.7983952,-8404.199999999999,-10315.305,2581.74,-4921.155,-13584.105,-28612.53,-13475.205,-10506.06
1764762966.7983952,-8406.855,-10318.14,2578.635,-4924.17,-13587.12,-28616.04,-13478.085,-10509.39
1764762966.7983952,-8401.725,-10313.235,2582.46,-4919.625,-13582.035,-28609.875,-13472.145,-10502.82
1764762966.7983952,-8401.005,-10313.37,2582.595,-4919.58,-13582.125,-28610.145,-13471.11,-10502.73
1764762966.7983952,-8402.58,-10316.115,2580.345,-4921.65,-13585.14,-28613.115,-13473.63,-10504.215
1764762966.7983952,-8406.045,-10319.49,2577.33,-4924.395,-13587.615,-28616.13,-13476.015,-10506.645
1764762966.7983952,-8409.96,-10322.595,2574.0,-4926.915,-13590.18,-28618.605,-13481.055,-10512.765
1764762966.7983952,-8408.115,-10319.67,2576.88,-4924.485,-13587.93,-28616.805,-13481.325,-10511.82
1764762966.7989123,-8403.57,-10315.98,2580.435,-4921.11,-13584.78,-28613.925,-13474.53,-10506.555
1764762966.7989123,-8396.865,-10309.68,2586.78,-4915.08,-13578.93,-28609.2,-13469.355,-10499.445
1764762966.7989123,-8405.19,-10318.185,2578.23,-4923.495,-13587.255,-28618.02,-13479.66,-10508.355
1764762966.7989123,-8406.539999999999,-10319.535,2575.98,-4925.025,-13588.92,-28619.505,-13480.56,-10510.065
1764762966.7989123,-8405.595,-10318.77,2576.88,-4924.575,-13588.155,-28616.94,-13478.355,-10508.265
1764762966.7989123,-8405.775,-10319.22,2576.52,-4925.745,-13588.875,-28616.13,-13475.385,-10508.715
1764762966.7989123,-8404.11,-10317.24,2578.635,-4923.675,-13586.22,-28613.115,-13472.955,-10506.555
1764762966.7989123,-8403.66,-10316.52,2579.22,-4922.775,-13585.905,-28613.745,-13473.18,-10507.05
1764762966.7989123,-8402.039999999999,-10314.495,2581.11,-4920.255,-13583.88,-28611.99,-13471.605,-10505.385
1764762966.7989123,-8397.315,-10310.49,2585.61,-4917.06,-13579.56,-28609.065,-13467.51,-10500.03
1764762966.7989123,-8399.97,-10312.47,2583.225,-4920.075,-13582.71,-28612.89,-13470.435,-10501.02
1764762966.844873,-8397.09,-10309.32,2586.105,-4917.105,-13580.28,-28610.325,-13468.185,-10498.095
1764762966.844873,-8397.99,-10309.23,2586.285,-4916.88,-13580.595,-28611.09,-13471.335,-10501.11
1764762966.844873,-8400.555,-10312.38,2582.595,-4918.815,-13582.26,-28612.845,-13473.09,-10503.585
1764762966.844873,-8398.08,-10311.12,2583.675,-4917.465,-13580.775,-28609.11,-13469.175,-10499.445
1764762966.844873,-8402.805,-10315.845,2579.895,-4922.55,-13585.23,-28615.275,-13472.955,-10504.35
1764762966.844873,-8402.805,-10315.53,2580.39,-4921.605,-13584.06,-28614.87,-13472.775,-10503.855
1764762966.844873,-8398.529999999999,-10311.255,2584.44,-4917.465,-13580.145,-28610.415,-13468.365,-10500.345
1764762966.844873,-8402.4,-10315.08,2581.65,-4920.66,-13582.485,-28614.42,-13473.09,-10504.665
1764762966.844873,-8402.31,-10314.135,2582.37,-4919.49,-13581.225,-28614.15,-13475.97,-10505.07
1764762966.844873,-8399.97,-10311.705,2584.305,-4918.455,-13579.965,-28612.755,-13473.675,-10501.83
1764762966.844873,-8395.875,-10307.43,2587.95,-4915.44,-13576.545,-28608.345,-13467.195,-10496.88
1764762966.844873,-8399.295,-10311.615,2583.81,-4920.255,-13581.495,-28611.135,-13467.78,-10499.67
1764762966.844873,-8402.039999999999,-10314.675,2580.75,-4922.82,-13584.015,-28612.665,-13468.545,-10501.515
1764762966.844873,-8402.22,-10314.495,2580.345,-4922.865,-13583.745,-28611.99,-13471.47,-10502.55
1764762966.844873,-8401.32,-10313.28,2582.19,-4921.38,-13583.295,-28614.96,-13477.95,-10502.64
1764762966.844873,-8395.244999999999,-10307.52,2587.635,-4914.945,-13577.13,-28608.39,-13467.87,-10496.25
1764762966.844873,-8394.435,-10306.53,2588.49,-4914.315,-13575.51,-28606.095,-13465.305,-10494.9
1764762966.844873,-8396.055,-10308.06,2587.095,-4914.99,-13576.5,-28606.455,-13466.97,-10497.105
1764762966.844873,-8395.83,-10307.97,2587.185,-4915.8,-13577.085,-28607.58,-13467.87,-10498.5
1764762966.844873,-8397.72,-10310.22,2582.775,-4919.49,-13578.615,-28608.795,-13469.31,-10498.32
1764762966.844873,-8394.119999999999,-10306.305,2585.52,-4916.565,-13575.6,-28606.005,-13465.71,-10494.54
1764762966.844873,-8394.795,-10307.565,2587.41,-4914.675,-13575.33,-28605.915,-13467.51,-10495.53
1764762966.844873,-8394.75,-10308.195,2589.03,-4914.0,-13575.06,-28606.005,-13466.61,-10496.205
1764762966.844873,-8397.404999999999,-10310.535,2584.44,-4919.535,-13579.875,-28609.92,-13469.085,-10498.995
1764762966.8904948,-8403.705,-10316.745,2578.23,-4926.33,-13586.4,-28616.355,-13473.99,-10505.385
1764762966.8904948,-8404.335,-10317.42,2578.23,-4925.295,-13585.23,-28615.14,-13473.9,-10505.43
1764762966.8904948,-8401.005,-10313.415,2582.37,-4921.155,-13580.595,-28612.125,-13473.63,-10502.595
1764762966.8904948,-8397.27,-10309.455,2585.61,-4917.51,-13576.095,-28608.39,-13470.66,-10497.735
1764762966.8904948,-8402.085,-10313.91,2580.885,-4922.865,-13581.09,-28613.43,-13474.08,-10502.19
1764762966.8904948,-8401.32,-10312.605,2581.245,-4922.505,-13581.495,-28612.935,-13474.215,-10501.2
1764762966.8904948,-8396.775,-10309.095,2584.62,-4918.815,-13578.435,-28608.975,-13469.49,-10496.655
1764762966.8904948,-8399.34,-10312.29,2580.93,-4922.325,-13581.225,-28611.54,-13472.37,-10498.725
1764762966.8904948,-8403.66,-10317.78,2576.07,-4927.545,-13586.58,-28617.84,-13478.22,-10504.035
1764762966.8904948,-8403.75,-10317.33,2576.43,-4927.545,-13587.12,-28619.19,-13479.12,-10505.205
1764762966.8904948,-8402.085,-10315.035,2577.375,-4926.465,-13585.995,-28617.12,-13477.005,-10503.225
1764762966.8904948,-8399.205,-10312.65,2579.31,-4924.26,-13582.71,-28614.735,-13475.025,-10499.355
1764762966.8904948,-8397.449999999999,-10310.67,2581.605,-4922.82,-13581.27,-28614.015,-13473.72,-10498.59
1764762966.8904948,-8397.09,-10309.095,2584.08,-4920.255,-13578.795,-28612.62,-13474.26,-10499.67
1764762966.8904948,-8392.994999999999,-10305.54,2587.905,-4916.07,-13574.205,-28606.68,-13469.13,-10495.35
1764762966.8904948,-8393.58,-10306.665,2586.735,-4918.185,-13576.365,-28606.95,-13466.475,-10495.08
1764762966.8904948,-8392.815,-10305.09,2587.365,-4918.095,-13575.51,-28604.385,-13464.585,-10494.9
1764762966.8904948,-8395.515,-10307.61,2584.62,-4920.21,-13578.57,-28607.355,-13467.78,-10497.195
1764762966.8904948,-8396.145,-10308.105,2584.485,-4920.929999999999,-13579.065,-28609.65,-13468.815,-10495.8
1764762966.8904948,-8398.935,-10310.895,2581.11,-4924.755,-13583.79,-28614.87,-13472.685,-10498.365
1764762966.8904948,-8397.36,-10309.365,2582.37,-4923.045,-13581.72,-28611.855,-13468.68,-10496.88
1764762966.8904948,-8399.34,-10312.11,2580.255,-4924.98,-13582.935,-28613.295,-13469.715,-10499.67
1764762966.8904948,-8393.715,-10307.115,2586.195,-4919.264999999999,-13577.535,-28607.715,-13465.53,-10494.225
1764762966.8904948,-8395.83,-10309.005,2583.855,-4921.605,-13579.515,-28609.74,-13466.52,-10496.295
1764762966.9377444,-8398.035,-10311.255,2581.38,-4924.08,-13581.675,-28613.835,-13474.89,-10500.03
1764762966.9377444,-8393.67,-10307.43,2585.43,-4919.985,-13577.94,-28609.65,-13473.0,-10493.955
1764762966.9377444,-8390.654999999999,-10304.055,2589.57,-4915.8,-13575.015,-28605.87,-13465.845,-10488.87
1764762966.9377444,-8394.615,-10307.205,2586.825,-4918.815,-13577.4,-28610.145,-13469.67,-10493.82
1764762966.9377444,-8389.98,-10301.085,2592.27,-4913.145,-13572.0,-28604.52,-13465.17,-10490.22
1764762966.9377444,-8389.215,-10300.185,2593.35,-4912.65,-13572.09,-28604.79,-13464.54,-10489.59
1764762966.9377444,-8389.71,-10302.12,2591.325,-4915.215,-13574.565,-28605.6,-13462.56,-10489.545
1764762966.9377444,-8389.755,-10302.975,2590.335,-4915.395,-13575.24,-28604.7,-13461.12,-10489.5
1764762966.9377444,-8392.545,-10306.215,2587.23,-4917.915,-13577.31,-28607.13,-13463.1,-10491.795
1764762966.9377444,-8388.36,-10301.715,2591.955,-4914.135,-13573.89,-28603.575,-13459.68,-10487.79
1764762966.9377444,-8390.385,-10303.695,2591.325,-4915.125,-13575.105,-28605.825,-13464.855,-10491.975
1764762966.9377444,-8385.975,-10298.475,2596.545,-4910.355,-13569.57,-28600.515,-13462.515,-10487.295
1764762966.9377444,-8386.515,-10298.835,2596.005,-4910.58,-13570.875,-28601.505,-13460.67,-10487.565
1764762966.9377444,-8391.96,-10305.18,2590.47,-4916.7,-13576.545,-28608.03,-13467.015,-10493.19
1764762966.9377444,-8391.96,-10305.09,2590.155,-4916.79,-13576.815,-28608.93,-13466.97,-10493.145
1764762966.9377444,-8388.0,-10301.535,2594.655,-4913.415,-13573.08,-28605.015,-13464.18,-10489.59
1764762966.9377444,-8389.664999999999,-10303.02,2593.17,-4915.26,-13575.195,-28607.085,-13466.115,-10490.67
1764762966.9377444,-8385.255,-10299.78,2596.77,-4911.48,-13571.145,-28603.305,-13460.58,-10486.44
1764762966.9377444,-8384.355,-10299.33,2597.355,-4910.264999999999,-13570.11,-28601.28,-13458.195,-10485.855
1764762966.9377444,-8385.21,-10300.05,2596.23,-4911.345,-13570.74,-28601.325,-13460.715,-10486.53
1764762966.9377444,-8388.675,-10303.605,2590.83,-4916.52,-13575.06,-28605.06,-13463.865,-10489.86
1764762966.9377444,-8386.199999999999,-10300.815,2593.17,-4914.315,-13572.675,-28602.405,-13461.345,-10486.62
1764762966.982942,-8386.38,-10300.59,2596.32,-4911.03,-13570.695,-28601.37,-13460.805,-10487.34
1764762966.982942,-8388.225,-10302.615,2596.86,-4910.94,-13571.505,-28601.73,-13461.39,-10489.86
1764762966.982942,-8388.765,-10303.245,2594.565,-4913.099999999999,-13573.755,-28602.945,-13459.455,-10489.365
1764762966.982942,-8388.81,-10303.155,2594.115,-4912.92,-13573.35,-28602.135,-13458.645,-10489.32
1764762966.982942,-8390.654999999999,-10305.18,2591.64,-4915.125,-13574.79,-28604.565,-13465.8,-10491.03
1764762966.982942,-8385.119999999999,-10300.23,2597.31,-4910.49,-13569.975,-28601.415,-13464.675,-10486.62
1764762966.982942,-8384.895,-10301.22,2596.41,-4911.165,-13570.92,-28601.46,-13462.245,-10487.52
1764762966.982942,-8383.994999999999,-10300.14,2597.22,-4909.77,-13569.84,-28600.65,-13462.695,-10486.215
1764762966.982942,-8385.074999999999,-10301.895,2596.68,-4911.435,-13571.37,-28602.9,-13464.09,-10486.755
1764762966.982942,-8386.92,-10303.2,2594.655,-4913.145,-13572.945,-28605.645,-13466.07,-10488.42
1764762966.982942,-8382.465,-10298.34,2599.605,-4908.15,-13567.815,-28599.93,-13460.265,-10484.235
1764762966.982942,-8384.625,-10300.5,2597.895,-4909.905,-13568.31,-28598.985,-13458.51,-10486.395
1764762966.982942,-8389.395,-10305.945,2592.405,-4915.44,-13572.855,-28602.315,-13463.01,-10490.4
1764762966.982942,-8389.664999999999,-10305.9,2592.585,-4914.99,-13573.125,-28604.25,-13464.315,-10490.4
1764762966.9844568,-8383.994999999999,-10300.365,2597.715,-4909.32,-13568.4,-28599.93,-13460.265,-10485.495
1764762966.9844568,-8385.57,-10302.21,2596.095,-4911.165,-13571.19,-28601.73,-13462.875,-10487.88
1764762966.9844568,-8391.285,-10308.015,2590.47,-4917.06,-13577.4,-28607.805,-13467.825,-10493.415
1764762966.9844568,-8385.615,-10302.39,2596.23,-4911.75,-13571.64,-28601.91,-13462.74,-10487.97
1764762966.9844568,-8387.19,-10304.64,2594.43,-4913.28,-13573.44,-28604.745,-13464.18,-10489.815
1764762966.9844568,-8384.265,-10301.94,2596.815,-4911.165,-13569.795,-28600.515,-13461.39,-10485.9
1764762966.9844568,-8383.815,-10301.265,2596.59,-4911.57,-13570.38,-28600.965,-13461.615,-10485.135
1764762966.9844568,-8385.84,-10303.11,2595.33,-4912.38,-13572.72,-28603.89,-13465.665,-10487.565
1764762966.9844568,-8389.89,-10305.945,2593.08,-4915.17,-13575.42,-28608.345,-13470.66,-10492.74
1764762966.9844568,-8388.99,-10305.72,2593.395,-4915.17,-13575.78,-28609.695,-13469.175,-10492.38
1764762966.9844568,-8384.94,-10302.75,2595.555,-4911.974999999999,-13572.765,-28605.015,-13460.985,-10486.8
1764762966.9844568,-8383.41,-10301.715,2596.68,-4910.22,-13570.74,-28599.975,-13456.53,-10484.955
1764762967.0304868,-8384.535,-10302.48,2596.41,-4910.804999999999,-13570.83,-28600.83,-13462.29,-10488.015
1764762967.0304868,-8389.755,-10307.565,2591.145,-4916.565,-13576.59,-28607.4,-13467.915,-10493.055
1764762967.0304868,-8389.17,-10306.665,2592.585,-4915.889999999999,-13575.78,-28606.41,-13467.24,-10492.335
1764762967.0304868,-8384.67,-10302.345,2596.86,-4910.94,-13570.515,-28600.92,-13463.595,-10488.015
1764762967.0304868,-8380.98,-10299.375,2599.065,-4908.87,-13569.615,-28599.795,-13459.995,-10483.695
1764762967.0304868,-8387.91,-10306.35,2591.595,-4915.845,-13576.455,-28606.905,-13466.115,-10489.905
1764762967.0304868,-8389.08,-10307.16,2591.82,-4917.24,-13576.59,-28607.04,-13466.52,-10490.355
1764762967.0304868,-8387.324999999999,-10304.82,2594.25,-4915.304999999999,-13574.925,-28605.78,-13463.865,-10488.915
1764762967.0304868,-8386.92,-10303.92,2594.385,-4914.855,-13574.745,-28605.915,-13463.055,-10488.33
1764762967.0304868,-8385.795,-10303.695,2595.555,-4914.045,-13573.755,-28604.565,-13461.48,-10487.07
1764762967.0304868,-8383.5,-10300.41,2598.21,-4910.849999999999,-13570.605,-28600.965,-13458.825,-10484.955
1764762967.0304868,-8380.44,-10296.225,2602.98,-4905.9,-13566.465,-28598.535,-13464.36,-10483.38
1764762967.0304868,-8385.255,-10301.985,2597.4,-4911.84,-13572.9,-28603.98,-13467.78,-10488.69
1764762967.0304868,-8382.555,-10300.23,2599.02,-4910.264999999999,-13570.74,-28601.235,-13463.595,-10485.18
1764762967.0317094,-8381.34,-10298.88,2599.785,-4909.32,-13570.335,-28602.09,-13462.155,-10483.47
1764762967.0317094,-8380.485,-10297.26,2602.395,-4906.17,-13567.725,-28601.37,-13461.93,-10482.57
1764762967.0317094,-8381.789999999999,-10297.89,2601.63,-4907.025,-13568.715,-28602.18,-13463.505,-10485.45
1764762967.0317094,-8382.645,-10300.095,2599.56,-4910.264999999999,-13571.46,-28604.34,-13463.955,-10486.035
1764762967.0317094,-8385.074999999999,-10302.255,2596.86,-4913.595,-13573.755,-28605.42,-13464.315,-10487.025
1764762967.0317094,-8388.585,-10305.9,2593.08,-4917.105,-13577.49,-28606.455,-13465.395,-10490.265
1764762967.0317094,-8387.91,-10305.765,2593.26,-4917.15,-13577.715,-28606.32,-13464.99,-10489.77
1764762967.0317094,-8385.93,-10303.56,2595.195,-4914.9,-13574.835,-28604.205,-13464.045,-10487.745
1764762967.077979,-8382.42,-10299.015,2600.415,-4909.32,-13569.075,-28599.345,-13460.175,-10484.055
1764762967.077979,-8384.175,-10300.14,2599.47,-4911.48,-13571.46,-28602.765,-13462.47,-10486.17
1764762967.077979,-8379.18,-10296.135,2603.475,-4906.62,-13567.455,-28598.49,-13458.24,-10481.085
1764762967.077979,-8379.135,-10296.045,2602.305,-4907.16,-13567.905,-28598.31,-13459.59,-10480.77
1764762967.077979,-8382.96,-10300.77,2597.49,-4912.47,-13573.305,-28603.665,-13462.83,-10484.73
1764762967.077979,-8378.505,-10296.495,2601.72,-4908.33,-13569.165,-28600.065,-13458.285,-10481.13
1764762967.077979,-8379.449999999999,-10297.215,2600.91,-4908.78,-13569.795,-28601.145,-13459.095,-10482.3
1764762967.077979,-8381.52,-10298.835,2599.245,-4910.94,-13570.83,-28602.045,-13459.32,-10482.21
1764762967.077979,-8381.07,-10298.7,2600.055,-4910.58,-13568.805,-28602.09,-13461.93,-10482.345
1764762967.077979,-8380.529999999999,-10298.16,2600.46,-4909.905,-13569.165,-28602.36,-13463.73,-10482.12
1764762967.077979,-8384.265,-10302.39,2596.185,-4914.09,-13573.62,-28605.6,-13466.115,-10485.54
1764762967.077979,-8380.935,-10298.79,2599.785,-4911.12,-13571.82,-28602.72,-13462.11,-10482.615
1764762967.077979,-8382.06,-10300.005,2598.57,-4912.29,-13572.045,-28601.325,-13461.525,-10483.02
1764762967.077979,-8388.36,-10305.225,2593.62,-4917.014999999999,-13575.825,-28604.7,-13466.88,-10489.32
1764762967.077979,-8383.365,-10299.33,2599.02,-4911.929999999999,-13571.19,-28600.155,-13461.255,-10485.855
1764762967.077979,-8382.6,-10299.285,2598.705,-4911.929999999999,-13570.92,-28600.065,-13459.23,-10485.09
1764762967.077979,-8386.65,-10304.235,2594.07,-4916.115,-13575.69,-28604.61,-13463.1,-10488.555
1764762967.077979,-8384.039999999999,-10301.85,2597.085,-4913.955,-13574.16,-28602.72,-13459.815,-10485.9
1764762967.077979,-8386.605,-10304.145,2595.105,-4916.25,-13576.095,-28605.375,-13464.81,-10488.285
1764762967.077979,-8381.34,-10298.43,2600.91,-4910.849999999999,-13570.605,-28602.09,-13466.565,-10483.875
1764762967.077979,-8385.795,-10303.38,2595.375,-4915.665,-13576.185,-28605.69,-13469.13,-10487.655
1764762967.077979,-8383.32,-10301.67,2596.32,-4914.764999999999,-13575.24,-28604.565,-13466.97,-10485.225
1764762967.0798206,-8380.035,-10298.565,2599.155,-4912.02,-13572.45,-28602.315,-13463.1,-10482.615
1764762967.0798206,-8384.22,-10302.66,2596.275,-4915.08,-13575.33,-28605.465,-13466.115,-10487.52
1764762967.123217,-8382.33,-10300.05,2597.805,-4914.045,-13573.89,-28603.215,-13464.54,-10486.35
1764762967.123217,-8376.84,-10294.065,2602.53,-4909.455,-13568.625,-28597.995,-13459.095,-10480.05
1764762967.123217,-8378.414999999999,-10296.18,2601.675,-4910.13,-13569.57,-28599.345,-13459.185,-10480.095
1764762967.123217,-8377.425,-10296.63,2605.365,-4906.665,-13567.905,-28598.04,-13458.735,-10478.88
1764762967.123217,-8378.82,-10297.755,2603.52,-4908.78,-13569.48,-28600.02,-13460.31,-10481.94
1764762967.123217,-8375.67,-10295.01,2605.14,-4907.385,-13567.185,-28596.465,-13457.07,-10477.845
1764762967.123217,-8375.49,-10295.01,2605.005,-4907.07,-13567.23,-28596.105,-13457.115,-10477.305
1764762967.123217,-8376.119999999999,-10296.18,2603.52,-4908.33,-13568.13,-28598.4,-13458.735,-10478.16
1764762967.123217,-8373.869999999999,-10293.12,2606.76,-4905.09,-13564.89,-28594.35,-13457.07,-10475.505
1764762967.123217,-8376.885,-10295.73,2604.15,-4907.07,-13567.545,-28596.645,-13462.11,-10478.655
1764762967.124732,-8382.15,-10301.085,2598.93,-4912.56,-13572.99,-28602.765,-13467.33,-10483.155
1764762967.124732,-8379.855,-10298.565,2601.045,-4910.49,-13572.225,-28603.89,-13465.845,-10481.94
1764762967.124732,-8377.83,-10297.125,2602.53,-4908.33,-13570.92,-28602.945,-13461.39,-10480.545
1764762967.124732,-8374.005,-10294.245,2606.13,-4905.63,-13567.23,-28598.355,-13456.575,-10476.495
1764762967.124732,-8379.539999999999,-10300.05,2601.225,-4911.075,-13572.54,-28603.665,-13462.605,-10482.48
1764762967.124732,-8379.99,-10300.14,2600.46,-4911.66,-13572.675,-28603.665,-13463.01,-10483.335
1764762967.124732,-8377.785,-10298.34,2601.99,-4909.679999999999,-13570.695,-28599.57,-13458.78,-10480.095
1764762967.1251636,-8378.595,-10299.735,2600.595,-4911.03,-13572.045,-28600.515,-13459.14,-10480.59
1764762967.1251636,-8375.13,-10296.72,2604.24,-4908.195,-13568.715,-28598.22,-13456.935,-10477.305
1764762967.1251636,-8376.795,-10298.52,2603.07,-4909.77,-13569.84,-28599.615,-13458.465,-10479.465
1764762967.1251636,-8378.64,-10299.96,2602.035,-4910.804999999999,-13570.47,-28600.245,-13459.905,-10482.21
1764762967.1251636,-8376.795,-10298.43,2602.98,-4910.49,-13570.02,-28599.39,-13458.33,-10480.59
1764762967.170802,-8372.43,-10294.29,2607.885,-4906.035,-13566.105,-28594.62,-13451.445,-10475.82
1764762967.170802,-8373.33,-10294.29,2608.11,-4905.224999999999,-13566.195,-28594.62,-13452.3,-10476.99
1764762967.171813,-8373.285,-10293.57,2608.38,-4904.685,-13565.52,-28596.33,-13456.44,-10476.81
1764762967.171813,-8370.315,-10290.825,2610.855,-4902.255,-13563.63,-28596.915,-13461.615,-10473.84
1764762967.171813,-8371.664999999999,-10293.885,2608.38,-4904.955,-13565.34,-28595.43,-13459.05,-10476.36
1764762967.171813,-8372.385,-10295.055,2608.02,-4905.0,-13564.305,-28592.325,-13455.045,-10477.305
1764762967.171813,-8373.69,-10296.135,2607.345,-4905.585,-13564.62,-28593.495,-13456.44,-10478.61
1764762967.171813,-8378.82,-10302.165,2601.54,-4911.66,-13571.28,-28600.2,-13462.245,-10483.065
1764762967.171813,-8375.22,-10298.205,2604.735,-4908.06,-13568.265,-28597.59,-13458.825,-10479.33
1764762967.171813,-8374.904999999999,-10298.295,2604.06,-4908.465,-13568.67,-28598.085,-13460.04,-10479.285
1764762967.171813,-8372.385,-10294.11,2606.985,-4905.09,-13566.285,-28595.475,-13457.07,-10476.54
1764762967.171813,-8377.244999999999,-10298.07,2604.015,-4908.465,-13569.3,-28598.85,-13459.32,-10481.04
1764762967.1723194,-8373.869999999999,-10294.965,2607.84,-4904.28,-13565.61,-28595.34,-13455.63,-10476.99
1764762967.1723194,-8374.14,-10295.415,2607.525,-4904.37,-13566.195,-28595.295,-13456.845,-10476.72
1764762967.1723194,-8374.725,-10295.37,2608.605,-4903.965,-13566.06,-28595.925,-13458.87,-10477.62
1764762967.1723194,-8372.61,-10293.3,2610.585,-4902.345,-13563.855,-28593.315,-13456.08,-10477.305
1764762967.1723194,-8373.69,-10295.37,2607.75,-4906.17,-13564.845,-28593.63,-13455.0,-10476.63
1764762967.1723194,-8379.494999999999,-10300.95,2601.63,-4910.895,-13569.39,-28599.12,-13460.805,-10482.03
1764762967.1723194,-8374.5,-10296.225,2606.94,-4905.764999999999,-13565.835,-28595.34,-13457.295,-10478.34
1764762967.1723194,-8373.195,-10294.245,2608.155,-4904.37,-13565.34,-28595.385,-13455.405,-10476.585
1764762967.1723194,-8374.23,-10295.055,2606.445,-4905.99,-13566.24,-28597.005,-13456.305,-10477.215
1764762967.1723194,-8377.335,-10298.295,2603.43,-4909.275,-13569.93,-28599.48,-13460.04,-10480.815
1764762967.1723194,-8376.57,-10298.34,2603.07,-4909.41,-13569.84,-28599.48,-13459.095,-10480.455
1764762967.1723194,-8374.815,-10297.215,2604.285,-4908.87,-13568.04,-28597.95,-13457.205,-10477.935
1764762967.218207,-8374.545,-10296.63,2604.825,-4908.06,-13567.635,-28596.87,-13455.81,-10477.44
1764762967.218207,-8371.664999999999,-10292.985,2606.805,-4906.17,-13565.43,-28595.07,-13452.57,-10475.415
1764762967.218207,-8369.055,-10290.15,2608.65,-4904.73,-13563.495,-28593.18,-13450.725,-10472.445
1764762967.218207,-8371.98,-10293.93,2606.22,-4907.115,-13566.645,-28598.715,-13460.805,-10476.72
1764762967.218207,-8371.935,-10294.2,2608.695,-4904.28,-13564.935,-28597.23,-13458.195,-10475.595
1764762967.218207,-8367.615,-10289.115,2612.295,-4900.5,-13560.525,-28592.055,-13452.615,-10471.14
1764762967.218207,-8371.44,-10292.76,2608.155,-4904.865,-13564.755,-28594.17,-13455.99,-10474.695
1764762967.218207,-8367.975,-10290.105,2610.72,-4902.929999999999,-13561.695,-28590.03,-13452.57,-10471.275
1764762967.218207,-8371.305,-10293.39,2606.58,-4906.395,-13565.43,-28594.89,-13457.16,-10474.74
1764762967.218207,-8371.395,-10293.165,2606.355,-4907.115,-13565.97,-28596.24,-13456.845,-10474.02
1764762967.218207,-8367.75,-10291.05,2608.56,-4904.775,-13563.045,-28592.595,-13450.32,-10470.15
1764762967.218207,-8366.94,-10289.88,2610.495,-4902.389999999999,-13561.47,-28591.47,-13449.105,-10468.8
1764762967.218207,-8366.4,-10288.395,2612.61,-4900.86,-13559.58,-28591.02,-13450.095,-10469.475
1764762967.218207,-8369.055,-10290.915,2608.92,-4904.325,-13562.955,-28593.495,-13451.94,-10472.085
1764762967.218207,-8372.835,-10295.1,2604.51,-4908.915,-13567.455,-28597.815,-13455.63,-10475.865
1764762967.218207,-8373.105,-10295.55,2604.42,-4909.724999999999,-13568.58,-28600.56,-13458.735,-10476.72
1764762967.218207,-8373.465,-10296.405,2603.52,-4910.22,-13569.165,-28602.09,-13461.12,-10477.395
1764762967.218207,-8368.74,-10293.255,2606.04,-4907.07,-13565.745,-28598.895,-13456.755,-10473.03
1764762967.218207,-8370.675,-10295.28,2603.655,-4909.545,-13568.355,-28598.535,-13456.395,-10473.795
1764762967.218207,-8366.535,-10289.97,2608.83,-4903.92,-13562.055,-28589.805,-13448.61,-10469.115
1764762967.218207,-8372.07,-10294.515,2604.42,-4908.69,-13565.52,-28593.54,-13452.39,-10475.28
1764762967.218207,-8370.225,-10293.705,2604.645,-4907.745,-13564.44,-28592.82,-13451.535,-10472.715
1764762967.218207,-8365.904999999999,-10289.295,2608.785,-4903.47,-13561.065,-28589.895,-13448.34,-10468.98
1764762967.218207,-8366.94,-10290.15,2608.11,-4904.73,-13563.63,-28594.215,-13451.715,-10472.04
1764762967.265066,-8362.574999999999,-10286.055,2612.115,-4900.545,-13558.68,-28589.4,-13446.225,-10466.955
1764762967.265066,-8362.529999999999,-10285.515,2612.61,-4899.599999999999,-13557.87,-28589.04,-13445.325,-10466.55
1764762967.265066,-8365.949999999999,-10289.25,2608.875,-4903.605,-13561.2,-28592.505,-13449.105,-10470.735
1764762967.265066,-8363.07,-10286.1,2611.485,-4901.085,-13559.715,-28591.515,-13447.44,-10467.765
1764762967.265066,-8369.73,-10293.165,2604.15,-4907.295,-13565.34,-28596.87,-13454.01,-10472.94
1764762967.265066,-8369.73,-10293.345,2604.51,-4906.035,-13563.18,-28593.99,-13454.145,-10473.57
1764762967.265066,-8364.33,-10287.09,2611.08,-4900.139999999999,-13558.32,-28588.77,-13449.555,-10468.35
1764762967.2660763,-8362.845,-10286.64,2611.755,-4899.645,-13558.365,-28588.68,-13447.17,-10466.775
1764762967.2660763,-8364.195,-10288.485,2609.325,-4902.12,-13560.57,-28592.415,-13448.385,-10467.765
1764762967.2660763,-8370.404999999999,-10294.02,2604.105,-4907.88,-13565.52,-28596.96,-13453.02,-10473.705
1764762967.2660763,-8369.73,-10293.705,2604.24,-4908.014999999999,-13565.745,-28596.465,-13451.445,-10472.985
1764762967.2660763,-8369.64,-10294.29,2604.06,-4908.78,-13566.465,-28596.735,-13449.6,-10472.895
1764762967.2660763,-8371.98,-10295.865,2601.405,-4911.12,-13568.895,-28598.85,-13450.995,-10474.065
1764762967.2660763,-8369.369999999999,-10292.76,2604.105,-4908.06,-13565.475,-28597.41,-13453.965,-10471.05
1764762967.2660763,-8364.69,-10287.225,2609.865,-4901.895,-13560.93,-28594.44,-13457.34,-10467.99
1764762967.2660763,-8359.605,-10282.05,2615.175,-4896.764999999999,-13555.485,-28588.455,-13449.105,-10463.94
1764762967.2660763,-8359.695,-10283.445,2614.095,-4898.34,-13556.52,-28588.005,-13445.955,-10464.3
1764762967.2660763,-8361.315,-10286.145,2611.485,-4900.23,-13558.23,-28587.24,-13443.795,-10464.66
1764762967.2660763,-8362.755,-10286.82,2610.225,-4900.905,-13558.815,-28588.545,-13444.74,-10464.975
1764762967.2660763,-8362.664999999999,-10286.19,2610.855,-4900.5,-13558.815,-28589.895,-13448.385,-10466.235
1764762967.2660763,-8366.805,-10290.69,2607.57,-4905.135,-13563.765,-28593.765,-13452.795,-10470.105
1764762967.2660763,-8367.615,-10290.555,2608.11,-4905.224999999999,-13563.99,-28594.26,-13453.965,-10471.275
1764762967.310936,-8367.525,-10291.59,2606.76,-4906.08,-13564.62,-28596.015,-13452.48,-10471.275
1764762967.310936,-8366.175,-10290.915,2607.165,-4904.955,-13562.145,-28593.495,-13447.53,-10468.44
1764762967.310936,-8364.6,-10288.485,2609.685,-4902.705,-13560.39,-28591.785,-13448.295,-10466.19
1764762967.310936,-8359.56,-10283.94,2614.41,-4898.295,-13557.015,-28589.04,-13445.865,-10461.915
1764762967.310936,-8359.74,-10283.04,2615.355,-4896.855,-13555.845,-28587.24,-13445.91,-10462.86
1764762967.310936,-8361.63,-10284.57,2614.14,-4898.565,-13557.42,-28588.86,-13447.125,-10464.705
1764762967.310936,-8356.815,-10280.655,2616.84,-4894.92,-13554.63,-28585.125,-13441.905,-10459.53
1764762967.310936,-8361.449999999999,-10284.255,2612.385,-4899.33,-13557.915,-28587.51,-13443.84,-10462.86
1764762967.310936,-8357.895,-10281.015,2615.67,-4895.325,-13554.0,-28583.82,-13441.59,-10460.07
1764762967.310936,-8355.105,-10277.505,2618.64,-4892.04,-13551.525,-28582.245,-13441.275,-10459.305
1764762967.310936,-8356.994999999999,-10280.835,2613.51,-4897.755,-13555.755,-28585.755,-13441.905,-10460.43
1764762967.310936,-8362.529999999999,-10286.505,2607.885,-4903.38,-13560.615,-28590.12,-13445.775,-10464.615
1764762967.310936,-8358.57,-10283.13,2614.995,-4896.945,-13556.115,-28586.52,-13443.21,-10461.24
1764762967.310936,-8359.199999999999,-10283.355,2616.75,-4895.415,-13555.53,-28587.285,-13444.02,-10462.455
1764762967.310936,-8356.815,-10280.25,2618.82,-4892.804999999999,-13552.65,-28584.315,-13442.265,-10460.79
1764762967.310936,-8357.039999999999,-10281.24,2617.785,-4894.47,-13553.91,-28584.27,-13442.445,-10461.105
1764762967.310936,-8353.89,-10278.09,2620.62,-4891.679999999999,-13550.67,-28580.13,-13439.565,-10458.09
1764762967.310936,-8358.39,-10282.59,2615.715,-4896.27,-13555.395,-28584.63,-13443.705,-10462.635
1764762967.310936,-8357.265,-10280.97,2616.57,-4894.74,-13553.37,-28583.685,-13441.68,-10460.655
1764762967.310936,-8359.56,-10283.04,2614.275,-4897.349999999999,-13556.835,-28587.735,-13445.91,-10462.545
1764762967.310936,-8361.045,-10284.615,2613.285,-4899.69,-13558.59,-28589.445,-13445.055,-10463.85
1764762967.310936,-8359.785,-10283.94,2614.455,-4898.745,-13557.51,-28587.555,-13442.265,-10461.87
1764762967.3572557,-8355.195,-10279.35,2617.785,-4894.2,-13551.93,-28581.975,-13437.18,-10457.64
1764762967.3572557,-8354.385,-10278.765,2618.82,-4893.929999999999,-13551.84,-28580.67,-13435.92,-10458.315
1764762967.3572557,-8354.205,-10279.305,2618.505,-4894.875,-13553.145,-28583.37,-13442.49,-10457.28
1764762967.3572557,-8355.779999999999,-10280.61,2617.11,-4896.179999999999,-13554.63,-28586.88,-13447.485,-10459.665
1764762967.3572557,-8352.765,-10277.055,2620.53,-4892.985,-13550.175,-28581.885,-13439.88,-10456.47
1764762967.3572557,-8354.88,-10278.54,2618.415,-4893.929999999999,-13550.76,-28581.75,-13441.68,-10458.765
1764762967.3572557,-8349.57,-10273.815,2623.23,-4889.115,-13545.945,-28577.655,-13435.695,-10453.995
1764762967.3572557,-8351.73,-10276.29,2620.26,-4891.995,-13549.455,-28580.805,-13436.325,-10455.39
1764762967.3572557,-8351.91,-10276.695,2619.585,-4893.345,-13551.03,-28582.11,-13437.945,-10455.705
1764762967.3572557,-8349.164999999999,-10274.265,2622.015,-4890.78,-13548.78,-28579.095,-13435.2,-10453.095
1764762967.3572557,-8353.44,-10279.44,2616.075,-4896.585,-13553.505,-28584.135,-13438.98,-10457.19
1764762967.3572557,-8353.44,-10279.35,2616.615,-4895.955,-13552.29,-28583.145,-13438.305,-10456.245
1764762967.3572557,-8347.725,-10273.23,2622.96,-4889.835,-13545.765,-28577.565,-13436.82,-10452.33
1764762967.3572557,-8350.875,-10276.605,2618.775,-4893.345,-13550.49,-28581.345,-13439.115,-10455.48
1764762967.3572557,-8346.779999999999,-10273.275,2621.745,-4889.565,-13547.52,-28578.555,-13435.155,-10450.305
1764762967.3572557,-8347.635,-10274.04,2620.215,-4891.5,-13548.69,-28579.905,-13437.045,-10450.26
1764762967.3572557,-8350.785,-10276.605,2618.055,-4894.83,-13551.93,-28584.45,-13441.455,-10455.66
1764762967.3572557,-8347.275,-10274.13,2620.98,-4891.5,-13548.555,-28580.895,-13437.0,-10453.59
1764762967.3585792,-8347.59,-10274.22,2619.72,-4891.95,-13549.14,-28581.12,-13436.505,-10453.365
1764762967.3585792,-8346.645,-10272.375,2621.025,-4890.735,-13547.88,-28580.67,-13435.47,-10451.79
1764762967.3585792,-8349.3,-10274.985,2619.18,-4892.58,-13549.995,-28583.37,-13438.53,-10454.715
1764762967.3585792,-8346.06,-10271.25,2622.645,-4888.8,-13545.765,-28578.645,-13435.38,-10450.305
1764762967.3585792,-8350.065,-10276.02,2617.335,-4893.12,-13550.265,-28582.83,-13437.63,-10453.905
1764762967.3585792,-8349.705,-10276.02,2616.525,-4893.705,-13549.725,-28579.59,-13434.615,-10453.635
1764762967.3585792,-8347.14,-10273.005,2619.36,-4890.915,-13546.935,-28576.215,-13430.385,-10450.845
1764762967.3585792,-8350.154999999999,-10276.29,2616.12,-4894.514999999999,-13550.895,-28581.84,-13436.865,-10454.58
1764762967.4050417,-8348.58,-10275.03,2617.29,-4893.345,-13550.355,-28582.155,-13436.82,-10453.05
1764762967.4050417,-8344.215,-10270.575,2620.71,-4889.79,-13546.89,-28578.915,-13430.97,-10448.64
1764762967.4050417,-8345.565,-10272.195,2618.37,-4892.625,-13549.185,-28581.12,-13432.455,-10449.63
1764762967.4050417,-8350.289999999999,-10277.325,2614.05,-4897.349999999999,-13553.37,-28582.92,-13434.03,-10453.23
1764762967.4050417,-8349.39,-10275.93,2615.895,-4894.605,-13549.365,-28578.825,-13432.275,-10453.005
1764762967.4050417,-8346.555,-10273.59,2617.965,-4893.389999999999,-13548.015,-28579.5,-13437.675,-10452.105
1764762967.4050417,-8353.89,-10280.43,2610.72,-4900.995,-13555.53,-28586.43,-13442.49,-10459.98
1764762967.4050417,-8351.369999999999,-10278.225,2611.62,-4899.554999999999,-13553.46,-28584.18,-13438.44,-10457.91
1764762967.4050417,-8344.44,-10271.52,2618.235,-4893.3,-13547.61,-28579.455,-13433.715,-10450.395
1764762967.4050417,-8346.779999999999,-10273.635,2616.03,-4895.865,-13549.365,-28581.48,-13437.495,-10452.78
1764762967.4050417,-8350.47,-10277.595,2612.295,-4899.599999999999,-13554.405,-28584.72,-13441.32,-10458.09
1764762967.4050417,-8347.185,-10275.03,2614.905,-4897.215,-13551.975,-28583.28,-13437.855,-10453.95
1764762967.4050417,-8348.085,-10276.965,2612.745,-4899.915,-13553.775,-28586.115,-13437.45,-10453.95
1764762967.4050417,-8348.31,-10276.605,2612.34,-4899.915,-13553.055,-28584.495,-13433.355,-10454.625
1764762967.4050417,-8348.85,-10275.39,2614.77,-4896.495,-13551.03,-28582.065,-13436.19,-10455.795
1764762967.4050417,-8350.47,-10276.965,2613.33,-4897.395,-13553.595,-28586.97,-13440.645,-10457.955
1764762967.4050417,-8348.355,-10278.63,2610.27,-4902.255,-13555.845,-28588.59,-13439.07,-10454.895
1764762967.4050417,-8347.994999999999,-10278.0,2612.205,-4900.005,-13553.595,-28586.97,-13438.035,-10454.715
1764762967.4050417,-8345.88,-10274.94,2615.49,-4897.08,-13550.985,-28584.765,-13436.055,-10452.96
1764762967.4050417,-8348.31,-10277.46,2613.195,-4899.87,-13553.685,-28587.15,-13438.44,-10455.93
1764762967.4050417,-8340.93,-10270.62,2619.36,-4893.84,-13547.52,-28581.03,-13429.755,-10448.865
1764762967.4050417,-8341.65,-10270.845,2617.965,-4895.145,-13548.78,-28582.92,-13431.195,-10449.405
1764762967.452553,-8347.815,-10276.425,2612.205,-4901.535,-13555.08,-28589.445,-13437.495,-10454.85
1764762967.452553,-8348.85,-10276.74,2611.755,-4901.58,-13555.845,-28589.085,-13438.17,-10455.48
1764762967.452553,-8344.305,-10272.465,2614.95,-4897.575,-13551.075,-28583.55,-13432.545,-10451.295
1764762967.4535594,-8342.955,-10272.105,2615.535,-4897.17,-13549.68,-28581.255,-13430.25,-10449.63
1764762967.4535594,-8344.98,-10275.075,2613.51,-4899.465,-13551.615,-28584.585,-13432.95,-10451.52
1764762967.4535594,-8340.119999999999,-10268.82,2619.405,-4893.795,-13545.9,-28579.23,-13428.45,-10444.86
1764762967.4535594,-8339.805,-10267.245,2621.655,-4891.815,-13544.595,-28578.465,-13427.955,-10446.3
1764762967.4535594,-8342.82,-10270.62,2618.46,-4896.045,-13548.33,-28583.415,-13431.285,-10449.495
1764762967.4535594,-8344.89,-10272.825,2615.76,-4899.42,-13551.525,-28585.98,-13433.535,-10450.8
1764762967.4535594,-8348.85,-10276.245,2611.665,-4903.29,-13554.945,-28588.185,-13435.47,-10453.815
1764762967.4535594,-8346.914999999999,-10274.445,2613.69,-4900.5,-13552.515,-28586.25,-13434.3,-10451.655
1764762967.4535594,-8351.595,-10279.44,2609.685,-4905.585,-13557.33,-28592.055,-13439.88,-10455.93
1764762967.4535594,-8349.795,-10277.325,2610.9,-4904.37,-13557.6,-28592.865,-13438.53,-10455.975
1764762967.4535594,-8347.545,-10275.3,2613.285,-4901.31,-13554.27,-28587.645,-13432.815,-10453.995
1764762967.4535594,-8352.99,-10281.645,2606.58,-4907.655,-13560.705,-28590.3,-13434.03,-10458.0
1764762967.4535594,-8352.315,-10281.465,2606.535,-4907.52,-13559.175,-28588.545,-13432.77,-10455.345
1764762967.4535594,-8347.365,-10275.48,2612.745,-4901.985,-13553.415,-28587.42,-13437.63,-10451.34
1764762967.4535594,-8350.695,-10278.585,2610.27,-4905.045,-13557.105,-28592.235,-13441.86,-10456.155
1764762967.4535594,-8348.49,-10277.145,2612.16,-4903.065,-13555.125,-28588.545,-13437.0,-10453.68
1764762967.4535594,-8351.055,-10279.71,2609.19,-4906.17,-13557.87,-28590.75,-13438.395,-10455.705
1764762967.4535594,-8348.265,-10276.785,2611.845,-4903.245,-13554.99,-28589.265,-13435.29,-10453.23
1764762967.4535594,-8350.74,-10279.35,2608.515,-4906.035,-13557.15,-28591.515,-13438.665,-10456.515
1764762967.49669,-8346.914999999999,-10275.93,2612.295,-4903.29,-13554.315,-28588.815,-13437.18,-10452.915
1764762967.49669,-8351.685,-10280.97,2606.805,-4908.24,-13560.03,-28593.72,-13442.625,-10457.145
1764762967.49669,-8353.44,-10282.905,2604.96,-4910.085,-13561.965,-28595.79,-13444.47,-10458.09
1764762967.49669,-8350.515,-10279.98,2608.38,-4906.53,-13558.77,-28593.81,-13442.22,-10454.58
1764762967.49669,-8344.845,-10274.67,2613.735,-4901.49,-13553.325,-28587.105,-13431.78,-10449.09
1764762967.49669,-8343.449999999999,-10272.78,2615.76,-4899.24,-13550.4,-28583.415,-13431.915,-10451.07
1764762967.49669,-8343.27,-10273.14,2615.04,-4900.455,-13550.58,-28584.27,-13432.59,-10451.79
1764762967.49669,-8343.945,-10273.995,2614.095,-4901.445,-13551.48,-28585.71,-13432.905,-10450.305
1764762967.49669,-8346.24,-10275.84,2612.655,-4903.83,-13554.27,-28589.22,-13435.515,-10453.23
1764762967.49669,-8348.625,-10278.225,2609.955,-4906.53,-13558.23,-28593.09,-13438.62,-10456.155
1764762967.49669,-8347.365,-10277.145,2610.495,-4905.045,-13555.845,-28589.94,-13434.975,-10453.815
1764762967.4983969,-8350.83,-10280.025,2606.715,-4909.23,-13559.22,-28593.585,-13438.845,-10457.595
1764762967.4983969,-8351.055,-10280.565,2607.03,-4909.59,-13559.535,-28594.215,-13439.52,-10457.865
1764762967.4983969,-8347.77,-10278.225,2609.055,-4907.61,-13558.365,-28593.45,-13438.44,-10454.31
1764762967.4983969,-8343.945,-10274.58,2612.07,-4903.65,-13554.27,-28589.625,-13434.705,-10450.035
1764762967.4983969,-8346.33,-10276.83,2610.585,-4905.405,-13555.575,-28591.155,-13436.64,-10452.645
1764762967.4983969,-8349.255,-10279.89,2607.345,-4909.139999999999,-13558.815,-28594.26,-13439.475,-10456.29
1764762967.4983969,-8346.824999999999,-10278.855,2607.795,-4908.465,-13557.915,-28592.64,-13436.37,-10452.87
1764762967.4983969,-8340.39,-10272.87,2613.96,-4902.435,-13551.39,-28586.745,-13430.97,-10446.075
1764762967.4983969,-8340.345,-10271.61,2614.68,-4902.705,-13550.445,-28585.44,-13430.88,-10446.57
1764762967.4983969,-8343.225,-10274.13,2612.34,-4904.865,-13553.55,-28587.69,-13432.95,-10449.63
1764762967.4983969,-8340.525,-10270.53,2615.805,-4901.13,-13550.13,-28584.495,-13430.205,-10446.165
1764762967.4983969,-8342.1,-10271.97,2615.625,-4901.67,-13551.435,-28585.485,-13431.555,-10448.19
1764762967.4983969,-8344.305,-10274.805,2612.7,-4904.415,-13554.675,-28588.005,-13431.105,-10451.205
1764762967.5448089,-8338.77,-10270.08,2616.615,-4900.32,-13550.31,-28583.595,-13424.49,-10445.67
1764762967.5448089,-8344.17,-10275.93,2610.63,-4906.395,-13555.665,-28590.165,-13430.88,-10450.71
1764762967.5448089,-8341.244999999999,-10273.59,2614.095,-4902.03,-13550.94,-28587.69,-13431.195,-10447.74
1764762967.5448089,-8335.485,-10266.75,2620.62,-4896.09,-13546.98,-28586.475,-13434.84,-10443.42
1764762967.5448089,-8337.06,-10267.965,2619.09,-4899.15,-13551.075,-28590.12,-13435.965,-10444.95
1764762967.5448089,-8337.465,-10269.315,2617.695,-4901.22,-13552.065,-28588.995,-13432.545,-10445.355
1764762967.5448089,-8337.105,-10268.46,2617.92,-4900.77,-13550.715,-28584.855,-13427.595,-10444.77
1764762967.5448089,-8342.235,-10273.095,2613.285,-4905.179999999999,-13554.72,-28586.385,-13427.55,-10449.315
1764762967.5448089,-8340.615,-10270.53,2616.165,-4901.31,-13551.48,-28585.35,-13429.215,-10448.82
1764762967.5448089,-8341.289999999999,-10273.14,2612.52,-4905.9,-13554.63,-28590.165,-13432.095,-10447.515
1764762967.5448089,-8338.815,-10271.34,2613.915,-4905.36,-13553.01,-28587.735,-13428.27,-10443.69
1764762967.5448089,-8341.065,-10273.635,2612.16,-4907.429999999999,-13555.62,-28590.48,-13430.88,-10445.49
1764762967.5448089,-8337.24,-10269.63,2616.12,-4902.795,-13551.03,-28586.34,-13427.19,-10441.17
1764762967.5448089,-8335.08,-10267.065,2617.83,-4901.355,-13549.905,-28584.72,-13426.2,-10440.405
1764762967.5448089,-8335.755,-10266.975,2617.38,-4901.895,-13551.255,-28585.98,-13427.595,-10441.89
1764762967.5448089,-8339.895,-10269.945,2614.77,-4904.054999999999,-13554.225,-28589.58,-13430.88,-10446.75
1764762967.5448089,-8336.52,-10267.065,2615.67,-4901.804999999999,-13550.355,-28584.765,-13426.38,-10442.43
1764762967.5448089,-8336.34,-10268.055,2614.455,-4904.054999999999,-13551.03,-28584.675,-13426.29,-10441.08
1764762967.5448089,-8336.97,-10267.74,2617.02,-4902.12,-13548.96,-28583.01,-13426.605,-10441.44
1764762967.5448089,-8334.855,-10263.735,2621.97,-4897.125,-13545.045,-28580.715,-13429.035,-10440.675
1764762967.5448089,-8334.72,-10264.185,2620.26,-4898.655,-13546.62,-28582.92,-13427.775,-10440.045
1764762967.5448089,-8340.615,-10271.565,2613.87,-4905.72,-13554.135,-28589.94,-13429.305,-10445.31
1764762967.5461729,-8338.23,-10270.44,2614.455,-4904.46,-13552.56,-28588.23,-13426.515,-10442.97
1764762967.5461729,-8332.38,-10265.22,2619.495,-4899.87,-13547.745,-28583.145,-13423.59,-10437.435
1764762967.5942614,-8334.18,-10267.245,2616.615,-4903.02,-13550.67,-28585.53,-13426.29,-10438.605
1764762967.5942614,-8340.345,-10272.645,2610.27,-4909.905,-13557.51,-28592.055,-13432.635,-10445.04
1764762967.5942614,-8339.13,-10271.655,2612.88,-4907.205,-13555.89,-28591.605,-13431.195,-10445.985
1764762967.5942614,-8334.09,-10265.445,2618.73,-4901.13,-13548.645,-28586.07,-13426.965,-10442.205
1764762967.5951626,-8338.68,-10269.18,2614.275,-4904.595,-13550.76,-28587.465,-13429.44,-10446.12
1764762967.5951626,-8337.195,-10268.235,2613.555,-4905.36,-13550.58,-28587.195,-13426.605,-10442.295
1764762967.5951626,-8334.494999999999,-10266.615,2614.95,-4904.955,-13549.455,-28587.015,-13424.4,-10438.785
1764762967.5951626,-8342.64,-10275.255,2605.905,-4914.9,-13558.905,-28596.555,-13431.465,-10445.85
1764762967.5951626,-8343.315,-10275.03,2605.545,-4915.935,-13559.805,-28596.465,-13429.665,-10446.885
1764762967.5951626,-8337.195,-10269.09,2610.18,-4910.22,-13554.72,-28592.955,-13430.16,-10440.855
1764762967.5951626,-8341.56,-10273.545,2606.04,-4913.28,-13557.15,-28594.8,-13433.22,-10445.31
1764762967.5951626,-8340.57,-10272.42,2607.165,-4913.145,-13556.745,-28594.98,-13431.87,-10446.345
1764762967.5951626,-8336.835,-10268.73,2609.955,-4910.985,-13554.45,-28593.405,-13429.53,-10442.43
1764762967.5951626,-8338.77,-10270.755,2607.255,-4913.595,-13557.24,-28596.24,-13431.51,-10444.455
1764762967.5951626,-8335.619999999999,-10266.345,2612.115,-4908.915,-13552.695,-28591.515,-13428.045,-10441.44
1764762967.5951626,-8337.6,-10269.09,2609.145,-4910.67,-13553.415,-28592.145,-13428.99,-10443.06
1764762967.5951626,-8333.235,-10265.985,2612.205,-4907.61,-13549.05,-28587.96,-13425.255,-10438.425
1764762967.5951626,-8334.045,-10266.48,2611.845,-4909.139999999999,-13551.795,-28590.345,-13427.415,-10440.18
1764762967.5951626,-8337.42,-10268.685,2610.045,-4912.02,-13554.18,-28593.045,-13430.205,-10443.24
1764762967.5951626,-8330.715,-10262.115,2616.795,-4905.045,-13547.385,-28587.87,-13425.795,-10437.21
1764762967.5951626,-8328.105,-10260.36,2618.1,-4903.92,-13545.855,-28587.555,-13424.22,-10435.14
1764762967.5951626,-8327.25,-10260.18,2618.775,-4903.38,-13545.135,-28585.845,-13423.05,-10433.925
1764762967.6418958,-8329.68,-10261.89,2616.3,-4905.045,-13546.89,-28586.34,-13424.49,-10435.41
1764762967.6418958,-8335.035,-10267.245,2610.81,-4910.985,-13552.245,-28590.435,-13427.145,-10440.54
1764762967.6418958,-8331.164999999999,-10264.5,2613.555,-4907.925,-13549.23,-28586.52,-13422.465,-10435.68
1764762967.6418958,-8327.699999999999,-10260.99,2617.245,-4904.505,-13545.495,-28583.64,-13419.945,-10432.44
1764762967.6418958,-8327.565,-10259.55,2619.09,-4902.615,-13543.83,-28582.56,-13420.62,-10432.395
1764762967.6418958,-8330.445,-10262.88,2616.12,-4906.755,-13548.24,-28586.565,-13424.67,-10436.4
1764762967.6418958,-8334.18,-10266.75,2611.755,-4911.75,-13552.38,-28590.84,-13427.64,-10438.965
1764762967.6418958,-8331.84,-10264.23,2613.24,-4909.679999999999,-13550.715,-28589.49,-13427.145,-10436.49
1764762967.6418958,-8336.565,-10268.91,2609.775,-4911.795,-13552.02,-28590.84,-13430.07,-10441.125
1764762967.6418958,-8330.265,-10261.89,2616.93,-4906.44,-13546.395,-28585.935,-13423.995,-10435.41
1764762967.6418958,-8333.64,-10265.67,2612.655,-4909.815,-13549.77,-28588.23,-13425.84,-10437.84
1764762967.6418958,-8328.465,-10259.865,2618.145,-4904.415,-13543.695,-28580.895,-13421.79,-10433.07
1764762967.6418958,-8326.619999999999,-10258.47,2619.81,-4902.705,-13541.895,-28579.32,-13418.145,-10431.09
1764762967.6418958,-8327.295,-10259.91,2618.415,-4903.965,-13544.28,-28581.12,-13417.065,-10430.46
1764762967.6418958,-8326.17,-10259.46,2619.36,-4903.38,-13544.46,-28583.325,-13423.23,-10430.865
1764762967.6418958,-8326.529999999999,-10258.29,2620.485,-4903.38,-13544.685,-28585.17,-13428.63,-10433.25
1764762967.6418958,-8332.335,-10264.635,2613.69,-4908.825,-13549.5,-28588.77,-13430.07,-10438.425
1764762967.6418958,-8330.265,-10262.925,2615.535,-4907.295,-13547.925,-28589.22,-13427.01,-10434.33
1764762967.6418958,-8333.82,-10266.66,2612.7,-4910.535,-13551.48,-28593.045,-13429.17,-10437.975
1764762967.6418958,-8329.365,-10262.7,2616.66,-4907.34,-13548.51,-28589.49,-13424.22,-10434.915
1764762967.6418958,-8334.315,-10268.19,2610.9,-4912.514999999999,-13554.045,-28591.695,-13427.865,-10439.19
1764762967.6418958,-8333.775,-10268.145,2611.53,-4911.974999999999,-13552.02,-28589.265,-13427.46,-10439.37
1764762967.6418958,-8328.105,-10262.115,2617.29,-4905.585,-13546.035,-28584.045,-13422.87,-10434.015
1764762967.6418958,-8326.529999999999,-10261.395,2618.37,-4905.09,-13545.495,-28584.09,-13421.025,-10432.89
1764762967.6418958,-8327.385,-10262.655,2616.93,-4907.565,-13546.935,-28585.71,-13421.925,-10433.565
1764762967.6418958,-8329.725,-10264.59,2615.31,-4909.724999999999,-13549.185,-28587.69,-13424.985,-10436.265
1764762967.6891391,-8333.19,-10267.74,2613.105,-4911.705,-13551.885,-28590.66,-13427.685,-10440.405
1764762967.6891391,-8332.38,-10267.47,2614.05,-4910.67,-13551.165,-28590.165,-13426.605,-10440.09
1764762967.6891391,-8329.815,-10265.31,2616.165,-4908.014999999999,-13548.735,-28588.5,-13424.49,-10437.165
1764762967.6891391,-8322.705,-10258.38,2622.645,-4901.49,-13542.12,-28581.525,-13419.045,-10430.01
1764762967.6891391,-8325.72,-10261.305,2619.36,-4904.73,-13545.63,-28583.73,-13421.7,-10432.98
1764762967.6891391,-8322.21,-10256.13,2624.625,-4899.78,-13540.815,-28578.6,-13417.245,-10429.695
1764762967.6891391,-8325.045,-10258.29,2622.33,-4901.67,-13541.715,-28579.815,-13418.415,-10432.125
1764762967.6891391,-8328.33,-10261.935,2618.46,-4906.215,-13545.855,-28584.0,-13422.78,-10435.635
1764762967.6891391,-8324.19,-10259.415,2621.25,-4904.28,-13544.64,-28582.065,-13420.98,-10430.73
1764762967.6891391,-8328.105,-10263.51,2617.11,-4908.554999999999,-13549.005,-28586.745,-13425.39,-10435.23
1764762967.6891391,-8324.19,-10258.83,2621.025,-4904.505,-13543.02,-28580.535,-13419.81,-10431.585
1764762967.6891391,-8325.045,-10260.18,2620.305,-4905.9,-13543.695,-28582.11,-13419.81,-10431.675
1764762967.6891391,-8328.645,-10263.6,2616.435,-4908.87,-13548.24,-28586.79,-13424.49,-10435.77
1764762967.6891391,-8325.765,-10259.955,2620.755,-4904.46,-13545.72,-28584.765,-13422.87,-10434.195
1764762967.6891391,-8317.44,-10251.405,2629.935,-4895.639999999999,-13536.18,-28578.375,-13416.075,-10427.175
1764762967.6891391,-8323.02,-10259.64,2620.845,-4905.99,-13544.73,-28586.52,-13420.89,-10430.64
1764762967.6891391,-8324.414999999999,-10260.09,2622.06,-4904.865,-13544.685,-28585.395,-13421.52,-10433.34
1764762967.6891391,-8318.115,-10252.98,2628.135,-4898.205,-13538.07,-28577.745,-13414.05,-10427.58
1764762967.6891391,-8316.855,-10251.9,2629.485,-4897.665,-13537.17,-28575.495,-13409.055,-10424.43
1764762967.6891391,-8318.565,-10253.745,2627.505,-4900.139999999999,-13537.665,-28574.64,-13411.845,-10424.835
1764762967.6891391,-8319.06,-10254.645,2625.975,-4900.545,-13538.295,-28575.9,-13413.42,-10424.61
1764762967.6891391,-8322.93,-10258.875,2621.835,-4905.224999999999,-13542.615,-28581.48,-13416.435,-10428.03
1764762967.7318573,-8317.395,-10253.34,2627.595,-4899.645,-13536.72,-28577.34,-13416.48,-10424.88
1764762967.7318573,-8315.64,-10250.775,2629.89,-4896.495,-13534.47,-28574.55,-13415.85,-10424.745
1764762967.7318573,-8315.91,-10251.09,2629.53,-4896.81,-13535.325,-28574.685,-13415.04,-10424.79
1764762967.7323694,-8317.17,-10253.7,2627.595,-4900.23,-13539.78,-28577.835,-13414.995,-10425.87
1764762967.7323694,-8313.57,-10249.785,2631.24,-4896.764999999999,-13536.675,-28575.63,-13411.71,-10421.955
1764762967.7323694,-8314.11,-10249.29,2631.69,-4895.235,-13533.93,-28573.29,-13411.17,-10421.73
1764762967.7323694,-8313.615,-10248.345,2632.995,-4894.02,-13533.39,-28571.58,-13410.9,-10421.055
1764762967.7323694,-8314.83,-10250.505,2630.88,-4896.27,-13535.1,-28573.2,-13412.745,-10422.99
1764762967.7323694,-8317.755,-10253.205,2628.27,-4899.195,-13538.025,-28577.61,-13416.12,-10426.14
1764762967.7323694,-8312.67,-10248.795,2632.545,-4895.82,-13534.83,-28574.055,-13413.33,-10421.28
1764762967.7323694,-8312.355,-10248.795,2631.825,-4896.179999999999,-13535.685,-28573.74,-13412.295,-10421.325
1764762967.7323694,-8314.244999999999,-10250.73,2630.565,-4897.395,-13536.405,-28576.17,-13413.6,-10423.17
1764762967.7323694,-8317.17,-10253.835,2628.18,-4900.365,-13538.565,-28579.32,-13412.205,-10424.565
1764762967.7323694,-8313.119999999999,-10248.795,2633.85,-4894.425,-13533.165,-28572.975,-13406.355,-10420.695
1764762967.7323694,-8318.295,-10253.925,2627.55,-4899.51,-13537.44,-28577.295,-13413.015,-10425.375
1764762967.7323694,-8318.52,-10254.825,2625.57,-4900.679999999999,-13537.215,-28575.405,-13412.205,-10424.34
1764762967.7323694,-8309.295,-10245.465,2636.055,-4891.455,-13530.51,-28568.43,-13404.42,-10416.915
1764762967.7334175,-8310.465,-10246.995,2635.245,-4893.255,-13532.445,-28571.265,-13407.255,-10417.545
1764762967.7334175,-8314.38,-10251.63,2630.61,-4897.845,-13536.72,-28576.215,-13411.98,-10421.415
1764762967.7334175,-8314.83,-10252.53,2629.71,-4899.24,-13537.62,-28577.43,-13412.025,-10422.045
1764762967.7334175,-8314.38,-10251.405,2630.79,-4898.52,-13535.865,-28575.315,-13410.045,-10421.865
1764762967.7334175,-8314.515,-10251.675,2630.385,-4898.7,-13534.92,-28573.695,-13408.245,-10421.37
1764762967.7334175,-8312.94,-10249.425,2632.86,-4896.54,-13533.03,-28571.13,-13406.265,-10420.065
1764762967.7334175,-8308.529999999999,-10245.87,2636.91,-4892.535,-13529.61,-28567.8,-13403.655,-10416.645
1764762967.7794223,-8310.869999999999,-10248.57,2633.715,-4896.179999999999,-13533.57,-28573.335,-13412.61,-10419.3
1764762967.7794223,-8308.89,-10246.86,2634.66,-4894.83,-13532.58,-28572.165,-13411.53,-10417.59
1764762967.7794223,-8302.545,-10240.515,2640.375,-4889.115,-13526.46,-28565.685,-13404.915,-10411.515
1764762967.779927,-8305.515,-10242.99,2636.82,-4893.03,-13529.34,-28568.835,-13407.165,-10414.08
1764762967.779927,-8308.89,-10246.77,2633.355,-4897.17,-13534.605,-28575.045,-13411.845,-10417.59
1764762967.779927,-8303.13,-10240.74,2638.89,-4891.815,-13529.52,-28570.095,-13406.67,-10412.37
1764762967.779927,-8302.185,-10238.445,2640.6,-4890.465,-13527.9,-28568.7,-13404.87,-10411.11
1764762967.779927,-8304.435,-10240.56,2637.63,-4892.985,-13529.88,-28569.465,-13405.23,-10412.955
1764762967.779927,-8306.82,-10243.44,2634.84,-4894.56,-13530.105,-28567.89,-13405.68,-10414.755
1764762967.779927,-8309.789999999999,-10246.68,2632.77,-4896.764999999999,-13531.23,-28568.43,-13409.145,-10417.545
1764762967.779927,-8307.225,-10245.375,2634.165,-4895.73,-13530.915,-28567.485,-13408.92,-10416.645
1764762967.779927,-8305.065,-10242.765,2636.82,-4893.21,-13529.025,-28566.27,-13408.335,-10414.89
1764762967.779927,-8303.039999999999,-10240.2,2639.205,-4890.06,-13525.965,-28564.74,-13406.355,-10411.965
1764762967.779927,-8306.414999999999,-10243.26,2635.605,-4893.21,-13529.7,-28570.59,-13410.315,-10415.115
1764762967.779927,-8311.41,-10248.39,2630.16,-4898.295,-13535.37,-28575.9,-13415.265,-10420.74
1764762967.779927,-8310.06,-10248.12,2631.015,-4898.565,-13535.01,-28573.785,-13412.565,-10418.58
1764762967.779927,-8304.21,-10242.54,2636.46,-4893.57,-13529.835,-28567.62,-13407.48,-10412.19
1764762967.779927,-8301.914999999999,-10240.29,2638.755,-4891.05,-13527.855,-28565.865,-13406.58,-10410.48
1764762967.779927,-8303.265,-10241.325,2637.855,-4891.545,-13528.485,-28566.18,-13407.39,-10410.3
1764762967.779927,-8306.55,-10245.06,2634.345,-4894.92,-13530.24,-28567.17,-13409.37,-10412.37
1764762967.779927,-8307.63,-10246.14,2634.255,-4895.685,-13531.815,-28568.205,-13410.405,-10415.52
1764762967.779927,-8307.539999999999,-10244.88,2636.595,-4894.155,-13530.24,-28567.575,-13411.08,-10417.995
1764762967.8258169,-8307.765,-10244.52,2636.685,-4894.065,-13529.565,-28567.305,-13412.205,-10417.23
1764762967.8258169,-8314.154999999999,-10251.09,2631.24,-4900.23,-13534.965,-28573.92,-13418.775,-10422.63
1764762967.8258169,-8309.205,-10245.87,2636.28,-4895.82,-13531.905,-28572.165,-13414.905,-10418.22
1764762967.8258169,-8306.595,-10243.665,2637.99,-4894.065,-13530.87,-28570.545,-13408.605,-10416.69
1764762967.8258169,-8308.08,-10245.24,2635.605,-4894.514999999999,-13531.095,-28568.745,-13405.41,-10416.96
1764762967.8258169,-8308.485,-10245.06,2634.48,-4895.505,-13530.69,-28568.745,-13406.805,-10417.275
1764762967.8258169,-8309.295,-10246.32,2633.895,-4897.62,-13532.13,-28569.33,-13408.065,-10417.77
1764762967.8258169,-8310.42,-10247.715,2634.39,-4897.125,-13533.165,-28570.905,-13414.455,-10418.94
1764762967.8258169,-8304.66,-10242.54,2642.985,-4888.62,-13527.135,-28565.325,-13409.55,-10412.64
1764762967.8258169,-8303.49,-10240.65,2643.975,-4887.179999999999,-13525.875,-28564.515,-13408.11,-10412.1
1764762967.8258169,-8303.039999999999,-10239.48,2644.11,-4886.37,-13524.615,-28563.165,-13405.86,-10411.56
1764762967.8258169,-8303.22,-10239.075,2643.03,-4886.639999999999,-13524.435,-28561.86,-13404.69,-10411.965
1764762967.8258169,-8303.715,-10239.705,2641.815,-4887.764999999999,-13525.425,-28563.57,-13406.265,-10412.235
1764762967.8258169,-8310.465,-10247.355,2634.57,-4895.82,-13533.48,-28571.58,-13412.295,-10417.995
1764762967.8258169,-8310.195,-10247.265,2635.56,-4895.28,-13533.345,-28570.905,-13410.855,-10417.005
1764762967.8258169,-8309.52,-10246.32,2636.415,-4894.065,-13532.49,-28569.285,-13408.965,-10417.005
1764762967.8258169,-8308.08,-10243.89,2639.16,-4891.139999999999,-13529.655,-28566.63,-13410.315,-10418.94
1764762967.8258169,-8305.965,-10241.415,2642.85,-4887.945,-13526.37,-28564.92,-13410.585,-10417.32
1764762967.826873,-8303.22,-10240.11,2645.055,-4885.605,-13525.02,-28564.2,-13408.74,-10413.81
1764762967.826873,-8300.654999999999,-10238.22,2647.62,-4884.075,-13523.58,-28563.705,-13407.93,-10412.505
1764762967.826873,-8298.9,-10235.88,2649.195,-4882.679999999999,-13522.095,-28561.365,-13408.02,-10411.29
1764762967.826873,-8305.47,-10242.09,2642.58,-4888.17,-13526.415,-28563.75,-13411.035,-10416.645
1764762967.826873,-8304.029999999999,-10241.28,2643.795,-4888.17,-13525.605,-28561.32,-13404.105,-10414.755
1764762967.826873,-8306.865,-10244.43,2640.6,-4892.355,-13531.77,-28566.855,-13403.655,-10416.105
1764762967.872846,-8306.279999999999,-10244.295,2641.185,-4891.455,-13529.385,-28565.055,-13403.385,-10415.655
1764762967.872846,-8304.119999999999,-10241.505,2643.66,-4888.44,-13526.415,-28561.41,-13401.63,-10413.54
1764762967.872846,-8302.455,-10239.39,2647.71,-4884.48,-13523.265,-28559.34,-13403.655,-10413.225
1764762967.872846,-8293.994999999999,-10232.01,2653.83,-4879.755,-13517.865,-28556.37,-13404.195,-10404.495
1764762967.872846,-8301.285,-10239.165,2645.685,-4887.495,-13524.975,-28561.32,-13406.895,-10410.255
1764762967.872846,-8301.33,-10238.49,2647.17,-4885.56,-13523.4,-28560.78,-13405.32,-10410.57
1764762967.872846,-8295.255,-10232.46,2653.605,-4879.08,-13517.19,-28555.2,-13400.28,-10405.215
1764762967.872846,-8296.335,-10234.845,2652.075,-4880.61,-13519.26,-28556.64,-13401.945,-10406.52
1764762967.872846,-8298.045,-10236.15,2650.545,-4882.095,-13521.78,-28558.305,-13401.765,-10408.59
1764762967.872846,-8294.625,-10232.19,2653.38,-4879.44,-13519.53,-28557.405,-13398.75,-10404.855
1764762967.872846,-8296.335,-10234.08,2651.67,-4880.925,-13520.295,-28557.675,-13400.325,-10406.385
1764762967.872846,-8300.744999999999,-10239.12,2647.485,-4885.695,-13524.3,-28561.14,-13403.34,-10411.74
1764762967.872846,-8298.63,-10237.455,2648.52,-4884.705,-13523.265,-28560.645,-13402.44,-10410.39
1764762967.872846,-8293.5,-10232.235,2653.695,-4878.9,-13517.64,-28554.345,-13397.13,-10404.72
1764762967.872846,-8294.445,-10232.55,2653.56,-4878.63,-13517.46,-28553.49,-13397.445,-10404.405
1764762967.872846,-8292.105,-10230.255,2655.36,-4877.37,-13515.345,-28552.41,-13396.32,-10403.19
1764762967.872846,-8289.99,-10228.14,2656.845,-4875.705,-13513.545,-28550.43,-13394.565,-10401.255
1764762967.872846,-8290.845,-10228.77,2655.405,-4876.29,-13515.12,-28551.195,-13396.77,-10402.605
1764762967.872846,-8293.185,-10232.055,2652.255,-4880.25,-13518.495,-28556.73,-13401.225,-10404.945
1764762967.872846,-8292.914999999999,-10232.415,2651.625,-4881.15,-13519.755,-28560.195,-13401.495,-10404.18
1764762967.872846,-8292.914999999999,-10231.785,2652.21,-4880.115,-13519.44,-28558.53,-13398.57,-10403.865
1764762967.872846,-8289.99,-10227.645,2656.17,-4875.615,-13514.67,-28552.86,-13396.095,-10401.93
1764762967.872846,-8291.835,-10230.165,2654.145,-4878.27,-13516.38,-28553.22,-13395.78,-10403.01
1764762967.872846,-8287.02,-10226.925,2657.43,-4874.535,-13512.24,-28548.9,-13389.615,-10398.24
1764762967.9187052,-8287.02,-10226.745,2657.52,-4875.12,-13512.24,-28549.845,-13391.955,-10398.15
1764762967.9187052,-8286.48,-10226.52,2657.7,-4875.165,-13511.565,-28549.26,-13391.775,-10396.845
1764762967.9187052,-8286.93,-10226.295,2657.025,-4876.425,-13513.185,-28550.835,-13392.405,-10397.97
1764762967.9187052,-8292.24,-10230.3,2652.885,-4880.97,-13518.225,-28555.38,-13396.14,-10403.37
1764762967.9187052,-8286.615,-10224.765,2659.095,-4873.545,-13511.295,-28549.755,-13392.135,-10396.44
1764762967.919713,-8285.355,-10223.865,2659.59,-4873.635,-13511.07,-28549.485,-13389.075,-10395.135
1764762967.919713,-8286.164999999999,-10224.045,2659.68,-4874.264999999999,-13511.43,-28547.91,-13389.345,-10397.79
1764762967.919713,-8291.835,-10229.805,2653.695,-4879.125,-13515.345,-28553.58,-13397.76,-10403.1
1764762967.919713,-8288.145,-10226.295,2657.43,-4875.165,-13511.745,-28551.285,-13397.715,-10398.015
1764762967.919713,-8288.414999999999,-10227.33,2655.72,-4875.795,-13513.005,-28550.79,-13396.14,-10398.825
1764762967.919713,-8292.42,-10231.47,2652.075,-4879.935,-13516.065,-28553.85,-13397.895,-10403.865
1764762967.919713,-8289.27,-10228.725,2655.27,-4877.054999999999,-13512.24,-28549.44,-13393.755,-10402.245
1764762967.919713,-8285.49,-10224.99,2658.465,-4873.05,-13508.865,-28545.57,-13388.13,-10398.105
1764762967.919713,-8288.775,-10228.815,2655.045,-4877.82,-13515.12,-28552.77,-13393.125,-10400.715
1764762967.9208765,-8288.64,-10229.49,2654.73,-4877.55,-13515.12,-28553.85,-13393.08,-10400.535
1764762967.9208765,-8289.765,-10230.12,2653.92,-4878.81,-13515.39,-28553.175,-13392.945,-10400.985
1764762967.9208765,-8291.16,-10231.29,2653.335,-4880.07,-13516.695,-28555.065,-13394.52,-10401.705
1764762967.9208765,-8288.73,-10229.13,2656.305,-4876.965,-13514.805,-28552.635,-13395.06,-10400.49
