Timestamp,Channel1,Channel2,Channel3,Channel4,Channel5,Channel6,Channel7,Channel8
1764764057.404269,269.595,-1110.96,-27831.51,-6164.73,-19370.43,-27190.35,-6164.82,2062.98
1764764057.404269,270.135,-1110.24,-27830.25,-6164.325,-19371.33,-27191.475,-6165.99,2063.25
1764764057.404269,270.225,-1109.2949999999998,-27829.98,-6163.74,-19371.96,-27191.97,-6166.485,2063.07
1764764057.404269,269.55,-1108.575,-27828.495,-6162.929999999999,-19370.61,-27190.755,-6166.395,2061.945
1764764057.404269,269.28,-1109.115,-27826.695,-6161.264999999999,-19369.215,-27189.945,-6166.17,2060.775
1764764057.404269,266.445,-1110.69,-27827.865,-6162.21,-19372.095,-27193.095,-6167.969999999999,2057.13
1764764057.404269,267.525,-1107.9,-27825.93,-6160.094999999999,-19370.115,-27192.015,-6166.98,2058.3
1764764057.404269,270.135,-1106.235,-27825.12,-6158.88,-19367.73,-27188.595,-6165.135,2061.855
1764764057.404269,268.56,-1109.115,-27826.515,-6160.815,-19368.495,-27189.9,-6165.764999999999,2059.92
1764764057.404269,265.41,-1113.615,-27831.915,-6164.685,-19369.665,-27191.295,-6167.16,2057.625
1764764057.404269,268.335,-1111.14,-27829.98,-6161.985,-19367.145,-27188.145,-6164.639999999999,2061.18
1764764057.4047942,266.805,-1110.645,-27829.17,-6163.469999999999,-19372.05,-27193.14,-6167.925,2058.48
1764764057.4047942,270.72,-1104.255,-27821.34,-6156.63,-19367.73,-27189.81,-6166.08,2061.45
1764764057.4047942,267.345,-1108.935,-27826.92,-6160.32,-19368.855,-27189.405,-6166.17,2060.46
1764764057.4047942,261.72,-1118.745,-27839.565,-6170.625,-19372.95,-27190.89,-6168.33,2057.49
1764764057.4047942,264.33,-1115.955,-27836.505,-6167.745,-19369.755,-27187.92,-6165.945,2058.57
1764764057.4047942,268.245,-1112.04,-27833.355,-6163.469999999999,-19366.515,-27184.995,-6163.469999999999,2061.81
1764764057.4047942,265.59,-1116.675,-27837.72,-6168.465,-19369.71,-27186.885,-6164.55,2060.595
1764764057.4047942,264.285,-1117.665,-27837.99,-6169.094999999999,-19370.97,-27188.55,-6165.045,2058.93
1764764057.4047942,265.185,-1115.685,-27835.74,-6167.61,-19371.105,-27190.125,-6164.55,2058.525
1764764057.4047942,268.065,-1111.59,-27831.735,-6164.73,-19369.8,-27188.82,-6162.84,2062.53
1764764057.4047942,264.285,-1115.865,-27836.145,-6168.51,-19372.005,-27190.89,-6164.594999999999,2059.155
1764764057.4047942,267.975,-1112.94,-27832.095,-6164.415,-19367.595,-27186.435,-6162.389999999999,2062.17
1764764057.4047942,266.805,-1113.93,-27832.365,-6164.639999999999,-19368.63,-27187.65,-6163.469999999999,2060.235
1764764057.4509225,271.125,-1108.62,-27826.02,-6159.15,-19365.255,-27185.265,-6162.03,2063.025
1764764057.4509225,270.315,-1106.775,-27823.545,-6155.82,-19364.715,-27186.165,-6162.389999999999,2061.405
1764764057.4516156,271.89,-1103.805,-27818.955,-6151.05,-19362.24,-27185.085,-6161.085,2062.17
1764764057.4516156,273.645,-1101.735,-27816.795,-6149.52,-19359.54,-27182.88,-6159.554999999999,2064.555
1764764057.4516156,272.52,-1106.1,-27822.915,-6154.965,-19362.645,-27184.23,-6160.77,2064.96
1764764057.4516156,265.05,-1115.73,-27835.335,-6167.474999999999,-19374.3,-27192.78,-6167.025,2058.75
1764764057.4516156,264.51,-1117.53,-27839.295,-6171.165,-19376.775,-27194.085,-6168.465,2058.255
1764764057.4516156,261.45,-1121.805,-27844.605,-6176.205,-19380.015,-27196.875,-6170.31,2056.77
1764764057.4516156,260.865,-1121.49,-27843.345,-6173.73,-19377.27,-27195.84,-6169.32,2057.31
1764764057.4516156,268.11,-1112.94,-27833.805,-6164.594999999999,-19369.665,-27188.91,-6164.955,2062.53
1764764057.4516156,268.155,-1113.39,-27834.705,-6165.81,-19370.43,-27188.64,-6164.01,2062.845
1764764057.4516156,265.23,-1117.215,-27838.35,-6170.13,-19374.48,-27192.33,-6165.99,2059.425
1764764057.4526255,262.395,-1119.78,-27840.69,-6172.83,-19377.45,-27195.345,-6168.014999999999,2055.555
1764764057.4526255,264.195,-1117.755,-27838.215,-6170.04,-19375.38,-27193.815,-6167.385,2057.085
1764764057.4526255,265.05,-1116.27,-27835.83,-6166.98,-19372.95,-27192.195,-6165.81,2058.345
1764764057.4526255,266.445,-1112.94,-27831.735,-6163.74,-19369.8,-27189.9,-6163.605,2059.695
1764764057.4526255,272.16,-1105.965,-27825.615,-6156.99,-19364.67,-27185.04,-6159.375,2064.645
1764764057.4526255,268.065,-1109.7,-27828.81,-6161.445,-19369.845,-27189.855,-6162.929999999999,2060.505
1764764057.4526255,267.435,-1110.465,-27829.62,-6162.84,-19370.61,-27190.665,-6163.335,2059.02
1764764057.4526255,268.56,-1109.43,-27828.0,-6161.76,-19369.98,-27189.54,-6161.94,2060.82
1764764057.4526255,271.755,-1108.125,-27828.495,-6162.075,-19370.43,-27188.46,-6161.264999999999,2062.935
1764764057.4526255,270.585,-1108.08,-27829.08,-6162.66,-19372.095,-27191.79,-6163.155,2061.36
1764764057.4526255,267.03,-1109.475,-27831.195,-6164.37,-19373.805,-27193.185,-6164.82,2059.245
1764764057.4526255,269.1,-1108.845,-27830.97,-6163.38,-19370.655,-27189.27,-6161.535,2062.215
1764764057.498839,265.86,-1111.635,-27833.715,-6165.09,-19371.87,-27191.655,-6162.84,2058.615
1764764057.498839,270.585,-1105.83,-27825.93,-6159.33,-19369.89,-27190.26,-6161.715,2060.955
1764764057.498839,277.875,-1097.955,-27817.245,-6152.445,-19364.49,-27184.725,-6157.485,2066.49
1764764057.498839,274.005,-1101.465,-27821.115,-6156.179999999999,-19367.595,-27187.92,-6159.735,2063.205
1764764057.498839,274.545,-1102.23,-27823.05,-6156.81,-19366.515,-27186.345,-6158.34,2065.41
1764764057.498839,269.865,-1110.87,-27833.355,-6165.54,-19372.005,-27190.26,-6160.95,2062.08
1764764057.498839,268.38,-1113.12,-27836.28,-6167.655,-19370.97,-27188.415,-6161.13,2062.17
1764764057.498839,269.64,-1110.915,-27833.265,-6163.83,-19367.64,-27186.345,-6160.32,2062.98
1764764057.498839,269.415,-1112.31,-27833.67,-6163.155,-19364.85,-27184.095,-6159.105,2062.845
1764764057.5003605,269.955,-1111.905,-27832.86,-6163.065,-19364.535,-27183.15,-6158.34,2063.565
1764764057.5003605,265.95,-1114.785,-27838.035,-6167.835,-19369.08,-27187.2,-6160.815,2059.65
1764764057.5003605,269.055,-1111.725,-27834.345,-6165.09,-19367.37,-27186.66,-6159.285,2062.305
1764764057.5003605,275.085,-1105.2,-27827.055,-6159.69,-19364.805,-27183.87,-6155.505,2067.435
1764764057.5003605,273.105,-1106.235,-27827.865,-6161.625,-19369.17,-27187.65,-6156.54,2064.33
1764764057.5003605,272.43,-1106.595,-27827.91,-6161.264999999999,-19368.27,-27187.245,-6156.585,2064.69
1764764057.5003605,275.13,-1103.94,-27824.265,-6157.575,-19364.265,-27183.645,-6155.37,2067.12
1764764057.5003605,273.735,-1105.155,-27826.875,-6159.465,-19366.47,-27184.77,-6156.764999999999,2066.31
1764764057.5003605,273.87,-1103.265,-27824.175,-6156.63,-19364.265,-27184.005,-6156.405,2066.445
1764764057.5003605,273.825,-1102.59,-27822.42,-6154.74,-19361.88,-27182.79,-6155.594999999999,2066.67
1764764057.5003605,270.585,-1107.72,-27828.99,-6160.23,-19365.165,-27185.04,-6156.81,2063.745
1764764057.5003605,271.98,-1107.315,-27828.405,-6159.195,-19362.915,-27182.565,-6156.315,2064.78
1764764057.5003605,269.73,-1108.98,-27830.16,-6161.13,-19366.155,-27185.535,-6158.79,2062.215
1764764057.5013683,271.98,-1104.75,-27826.515,-6157.62,-19365.345,-27185.265,-6158.115,2064.42
1764764057.5013683,269.64,-1106.01,-27826.29,-6157.665,-19366.83,-27187.2,-6158.79,2062.125
1764764057.5437708,271.62,-1106.55,-27826.47,-6157.844999999999,-19365.12,-27184.185,-6156.179999999999,2065.095
1764764057.5437708,266.13,-1114.9199999999998,-27836.865,-6167.655,-19372.455,-27190.62,-6159.285,2060.82
1764764057.5437708,265.68,-1112.4,-27833.58,-6164.37,-19371.42,-27190.44,-6160.455,2059.47
1764764057.5437708,272.16,-1103.175,-27823.095,-6156.09,-19366.11,-27185.895,-6157.889999999999,2064.285
1764764057.5437708,270.945,-1107.09,-27830.115,-6162.525,-19370.52,-27188.1,-6157.844999999999,2064.645
1764764057.5437708,264.015,-1116.495,-27842.535,-6173.82,-19379.88,-27196.245,-6162.66,2058.57
1764764057.5437708,263.16,-1116.99,-27843.12,-6175.26,-19381.905,-27197.73,-6164.82,2057.715
1764764057.5437708,265.545,-1115.28,-27841.14,-6173.19,-19377.45,-27192.555,-6161.94,2061.315
1764764057.5437708,263.655,-1116.63,-27842.31,-6174.09,-19378.305,-27194.535,-6163.469999999999,2058.39
1764764057.5437708,261.495,-1117.485,-27841.77,-6174.0,-19380.825,-27198.405,-6166.53,2054.43
1764764057.5437708,268.92,-1109.2949999999998,-27832.995,-6165.54,-19373.715,-27191.205,-6160.95,2061.27
1764764057.5437708,271.575,-1106.37,-27830.025,-6163.155,-19368.855,-27187.38,-6156.764999999999,2064.96
1764764057.5437708,274.815,-1102.05,-27826.605,-6159.915,-19366.56,-27185.355,-6154.02,2067.48
1764764057.5437708,276.39,-1099.89,-27823.905,-6157.755,-19366.155,-27184.815,-6153.344999999999,2068.47
1764764057.5437708,274.455,-1102.77,-27826.29,-6160.094999999999,-19367.64,-27185.715,-6153.389999999999,2067.525
1764764057.5437708,271.485,-1107.405,-27831.105,-6163.785,-19369.935,-27187.02,-6155.19,2064.555
1764764057.5437708,266.67,-1113.255,-27837.99,-6171.075,-19375.29,-27191.07,-6158.205,2059.605
1764764057.5437708,267.3,-1112.49,-27837.945,-6171.84,-19376.01,-27191.79,-6157.8,2060.325
1764764057.5437708,270.18,-1108.98,-27833.805,-6167.88,-19373.67,-27189.945,-6156.315,2063.34
1764764057.5437708,267.885,-1110.4199999999998,-27835.605,-6170.445,-19376.595,-27193.59,-6157.889999999999,2061.315
1764764057.5437708,271.575,-1107.54,-27832.86,-6167.429999999999,-19373.4,-27190.44,-6155.594999999999,2065.41
1764764057.5437708,269.37,-1108.89,-27834.165,-6168.915,-19375.47,-27192.33,-6157.44,2062.215
1764764057.5437708,271.395,-1106.055,-27831.69,-6166.44,-19373.13,-27189.72,-6154.92,2065.32
1764764057.5437708,269.955,-1107.585,-27832.635,-6167.565,-19372.905,-27190.35,-6155.235,2063.655
1764764057.590623,271.62,-1106.235,-27830.655,-6164.82,-19370.295,-27188.37,-6154.065,2065.05
1764764057.590623,270.135,-1107.495,-27832.14,-6165.675,-19371.645,-27189.81,-6154.38,2063.43
1764764057.590623,273.735,-1102.275,-27826.605,-6161.445,-19369.08,-27187.65,-6153.48,2066.67
1764764057.590623,277.785,-1096.47,-27819.675,-6156.27,-19366.29,-27185.58,-6151.679999999999,2069.55
1764764057.590623,280.26,-1092.87,-27815.13,-6152.31,-19363.23,-27183.915,-6150.014999999999,2070.315
1764764057.590623,276.21,-1098.81,-27821.745,-6158.7,-19368.9,-27187.65,-6153.344999999999,2067.48
1764764057.590623,268.47,-1110.6,-27837.405,-6171.3,-19376.28,-27193.005,-6157.304999999999,2062.935
1764764057.590623,267.48,-1113.12,-27841.5,-6172.965,-19375.02,-27190.845,-6155.775,2063.385
1764764057.590623,267.255,-1111.5449999999998,-27838.845,-6171.344999999999,-19376.19,-27193.05,-6156.045,2061.945
1764764057.590623,268.92,-1108.485,-27835.065,-6168.24,-19374.345,-27191.835,-6155.145,2063.34
1764764057.590623,268.695,-1109.565,-27835.965,-6168.69,-19374.615,-27191.565,-6156.315,2062.62
1764764057.590623,271.62,-1106.865,-27831.69,-6164.955,-19371.015,-27188.28,-6154.425,2065.635
1764764057.590623,270.045,-1107.765,-27833.13,-6166.755,-19372.77,-27190.17,-6155.55,2063.61
1764764057.590623,266.31,-1111.14,-27836.01,-6169.679999999999,-19376.19,-27193.68,-6158.385,2059.74
1764764057.590623,272.385,-1103.265,-27827.595,-6162.57,-19371.015,-27190.035,-6154.92,2064.87
1764764057.590623,275.22,-1098.945,-27823.23,-6159.105,-19369.62,-27189.36,-6153.705,2066.76
1764764057.590623,275.22,-1098.045,-27821.79,-6157.844999999999,-19369.215,-27189.855,-6154.2,2066.13
1764764057.590623,272.52,-1100.79,-27825.93,-6160.995,-19371.42,-27191.25,-6155.82,2064.375
1764764057.590623,269.685,-1105.605,-27832.005,-6165.675,-19372.815,-27190.98,-6156.495,2062.26
1764764057.590623,267.57,-1107.945,-27832.77,-6166.755,-19373.985,-27192.915,-6157.98,2059.38
1764764057.590623,274.725,-1097.01,-27820.08,-6154.469999999999,-19366.155,-27186.66,-6153.48,2065.23
1764764057.590623,277.38,-1093.23,-27815.58,-6150.915,-19364.625,-27184.59,-6150.78,2068.515
1764764057.6371417,276.885,-1095.255,-27819.765,-6155.594999999999,-19369.08,-27187.335,-6151.185,2068.56
1764764057.6371417,270.81,-1106.685,-27834.075,-6168.645,-19375.29,-27191.295,-6153.795,2064.825
1764764057.6371417,266.355,-1115.145,-27844.965,-6175.98,-19376.46,-27190.845,-6154.875,2063.025
1764764057.6371417,264.375,-1115.235,-27844.515,-6175.665,-19378.35,-27194.04,-6157.485,2059.245
1764764057.6371417,266.31,-1111.23,-27840.465,-6173.054999999999,-19375.965,-27192.6,-6156.495,2061.0
1764764057.6371417,266.58,-1111.77,-27840.465,-6173.775,-19376.01,-27192.42,-6156.719999999999,2061.36
1764764057.6371417,269.145,-1107.63,-27835.83,-6168.105,-19371.645,-27188.82,-6154.155,2063.745
1764764057.6371417,270.405,-1106.145,-27833.265,-6165.495,-19371.6,-27188.415,-6153.974999999999,2064.51
1764764057.6371417,270.63,-1104.615,-27832.995,-6166.035,-19374.12,-27190.935,-6154.29,2064.105
1764764057.6371417,276.39,-1099.395,-27828.945,-6163.785,-19373.13,-27189.99,-6151.86,2069.145
1764764057.6371417,272.88,-1104.075,-27832.275,-6166.889999999999,-19374.3,-27190.305,-6152.355,2066.4
1764764057.6371417,274.05,-1101.645,-27829.395,-6163.65,-19371.195,-27187.605,-6150.645,2066.805
1764764057.6371417,277.29,-1098.45,-27825.705,-6160.32,-19368.09,-27184.41,-6149.34,2069.955
1764764057.6371417,271.98,-1104.39,-27832.05,-6165.764999999999,-19373.85,-27189.495,-6153.75,2064.735
1764764057.6371417,272.295,-1104.21,-27831.465,-6165.855,-19373.715,-27189.405,-6153.57,2064.96
1764764057.6371417,272.655,-1104.705,-27832.545,-6166.395,-19372.905,-27188.64,-6152.04,2065.77
1764764057.6371417,274.41,-1103.625,-27831.465,-6165.405,-19369.755,-27185.04,-6150.06,2068.785
1764764057.6371417,274.68,-1101.87,-27827.775,-6162.75,-19368.45,-27184.275,-6149.205,2068.335
1764764057.6371417,273.195,-1101.465,-27827.055,-6161.535,-19369.62,-27186.255,-6151.139999999999,2065.5
1764764057.6371417,275.355,-1097.865,-27821.745,-6156.54,-19364.895,-27184.005,-6150.06,2066.805
1764764057.6371417,279.135,-1093.68,-27818.145,-6153.03,-19361.835,-27181.08,-6147.045,2071.035
1764764057.6371417,274.95,-1099.53,-27825.03,-6159.735,-19367.145,-27184.32,-6148.53,2068.245
1764764057.6837804,273.6,-1103.94,-27831.69,-6165.09,-19369.755,-27184.995,-6149.025,2067.795
1764764057.6837804,269.1,-1107.945,-27836.865,-6170.94,-19377.045,-27192.42,-6154.605,2062.395
1764764057.6837804,271.98,-1104.075,-27831.87,-6165.63,-19373.31,-27189.405,-6153.435,2063.97
1764764057.6837804,272.295,-1104.03,-27831.78,-6164.865,-19372.095,-27187.695,-6152.31,2065.32
1764764057.6837804,272.745,-1105.515,-27833.445,-6166.125,-19370.97,-27185.715,-6151.139999999999,2066.85
1764764057.6837804,271.8,-1107.27,-27834.075,-6167.25,-19372.68,-27187.2,-6152.58,2065.68
1764764057.6837804,271.935,-1106.28,-27832.77,-6166.215,-19372.23,-27187.38,-6152.94,2065.095
1764764057.6837804,272.88,-1104.975,-27831.87,-6164.55,-19370.79,-27186.39,-6152.04,2066.175
1764764057.6837804,271.305,-1106.28,-27832.77,-6166.215,-19373.4,-27189.09,-6152.895,2064.285
1764764057.6837804,271.935,-1105.515,-27832.455,-6165.09,-19373.04,-27188.37,-6152.13,2065.14
1764764057.6837804,274.68,-1101.78,-27828.405,-6161.04,-19369.755,-27185.85,-6150.105,2067.885
1764764057.6837804,274.68,-1101.195,-27826.425,-6160.635,-19370.115,-27187.29,-6151.005,2067.075
1764764057.6837804,273.96,-1101.195,-27826.2,-6160.365,-19371.06,-27189.315,-6151.724999999999,2065.095
1764764057.6837804,277.335,-1094.895,-27818.955,-6153.48,-19367.955,-27187.11,-6149.205,2068.245
1764764057.6837804,279.0,-1092.87,-27816.615,-6151.545,-19366.02,-27185.355,-6147.945,2068.65
1764764057.6837804,275.535,-1099.53,-27825.03,-6157.844999999999,-19366.965,-27184.5,-6148.304999999999,2067.12
1764764057.6837804,272.97,-1105.065,-27834.615,-6165.585,-19370.295,-27184.815,-6148.98,2068.245
1764764057.6837804,270.36,-1109.385,-27840.69,-6171.48,-19374.57,-27188.28,-6151.545,2066.04
1764764057.6837804,268.02,-1111.005,-27842.265,-6172.785,-19375.74,-27189.495,-6152.94,2063.565
1764764057.6837804,272.295,-1104.93,-27835.29,-6167.295,-19372.095,-27185.985,-6150.645,2067.48
1764764057.6837804,274.545,-1103.265,-27832.23,-6164.415,-19369.665,-27183.69,-6147.405,2069.46
1764764057.6837804,275.67,-1102.005,-27830.655,-6162.75,-19368.09,-27182.97,-6146.505,2070.27
1764764057.7314606,276.21,-1101.51,-27829.89,-6161.94,-19367.73,-27182.79,-6146.19,2069.865
1764764057.7314606,274.23,-1103.85,-27831.33,-6163.469999999999,-19368.045,-27184.14,-6146.91,2068.29
1764764057.7314606,273.78,-1104.165,-27832.23,-6164.145,-19368.405,-27184.41,-6147.0,2068.11
1764764057.7314606,280.26,-1095.48,-27822.51,-6154.83,-19360.98,-27178.74,-6142.995,2073.96
1764764057.7314606,280.26,-1093.365,-27818.595,-6150.825,-19357.2,-27176.805,-6142.59,2073.87
1764764057.7314606,279.765,-1094.085,-27818.865,-6149.745,-19355.76,-27174.87,-6141.645,2073.69
1764764057.7314606,278.505,-1097.55,-27824.85,-6155.28,-19360.755,-27177.165,-6142.32,2072.925
1764764057.7314606,277.515,-1099.305,-27828.225,-6159.69,-19366.155,-27181.125,-6144.255,2071.305
1764764057.7314606,277.605,-1098.09,-27827.46,-6160.139999999999,-19369.035,-27184.68,-6145.83,2070.27
1764764057.7314606,274.905,-1100.295,-27830.295,-6164.415,-19373.58,-27189.27,-6148.53,2067.12
1764764057.7314606,276.48,-1101.15,-27830.52,-6164.054999999999,-19369.845,-27185.13,-6146.594999999999,2069.73
1764764057.7314606,272.745,-1106.145,-27835.695,-6167.295,-19370.475,-27185.49,-6148.17,2067.435
1764764057.7314606,272.835,-1105.2,-27834.885,-6166.665,-19371.465,-27186.705,-6148.935,2067.21
1764764057.7314606,272.88,-1104.12,-27831.555,-6164.46,-19371.69,-27187.965,-6148.935,2066.535
1764764057.7314606,279.27,-1095.48,-27822.42,-6155.145,-19365.57,-27183.69,-6145.245,2071.08
1764764057.7314606,280.17,-1091.295,-27816.345,-6150.014999999999,-19362.42,-27182.88,-6144.795,2070.045
1764764057.7314606,281.835,-1091.925,-27816.705,-6149.655,-19360.305,-27180.405,-6142.815,2072.835
1764764057.7314606,273.915,-1103.58,-27831.15,-6162.84,-19369.035,-27186.57,-6146.82,2068.02
1764764057.7314606,272.385,-1107.765,-27836.955,-6167.745,-19370.205,-27186.345,-6147.99,2067.885
1764764057.7314606,270.405,-1110.015,-27839.565,-6170.625,-19371.915,-27187.875,-6149.34,2065.545
1764764057.7314606,270.18,-1108.89,-27837.72,-6169.59,-19374.03,-27190.71,-6149.745,2064.51
1764764057.7314606,271.395,-1107.495,-27836.73,-6167.79,-19372.005,-27187.74,-6148.665,2065.59
1764764057.7314606,272.97,-1105.92,-27835.02,-6165.99,-19369.53,-27184.455,-6146.594999999999,2067.93
1764764057.7314606,274.77,-1103.805,-27831.87,-6162.435,-19366.515,-27182.43,-6144.12,2070.18
1764764057.7314606,276.66,-1101.24,-27828.63,-6159.014999999999,-19363.095,-27180.315,-6143.04,2070.45
1764764057.7314606,277.65,-1099.305,-27826.2,-6157.62,-19362.6,-27180.27,-6142.545,2071.08
1764764057.7775493,277.335,-1100.61,-27828.495,-6160.094999999999,-19365.84,-27182.88,-6142.995,2070.765
1764764057.7775493,276.345,-1102.185,-27830.97,-6161.535,-19366.245,-27183.825,-6142.455,2070.405
1764764057.7775493,277.065,-1100.97,-27830.025,-6161.67,-19367.46,-27184.68,-6142.815,2070.675
1764764057.7775493,272.61,-1104.615,-27831.555,-6165.045,-19372.095,-27189.99,-6147.27,2066.085
1764764057.7775493,273.015,-1103.445,-27829.125,-6162.03,-19369.755,-27187.965,-6146.46,2066.265
1764764057.7775493,273.06,-1104.39,-27830.43,-6163.29,-19370.34,-27187.38,-6146.235,2066.85
1764764057.7775493,274.14,-1105.11,-27831.915,-6164.82,-19370.52,-27187.515,-6146.28,2067.705
1764764057.7775493,281.25,-1097.82,-27823.815,-6157.08,-19363.68,-27180.945,-6141.195,2073.87
1764764057.7775493,283.725,-1092.69,-27817.605,-6152.13,-19362.33,-27180.63,-6139.53,2074.86
1764764057.7775493,286.83,-1089.09,-27814.41,-6149.115,-19360.17,-27178.605,-6138.945,2076.615
1764764057.7775493,282.465,-1094.805,-27821.7,-6156.09,-19363.59,-27180.405,-6140.835,2074.725
1764764057.7775493,278.37,-1099.44,-27826.02,-6160.139999999999,-19366.56,-27182.475,-6141.87,2071.395
1764764057.7775493,280.035,-1096.875,-27823.455,-6156.63,-19365.12,-27181.17,-6141.06,2072.97
1764764057.7775493,278.19,-1097.64,-27823.95,-6157.889999999999,-19368.45,-27185.355,-6142.77,2070.585
1764764057.7775493,276.75,-1101.465,-27828.54,-6162.165,-19367.505,-27184.275,-6142.635,2071.125
1764764057.7775493,270.72,-1109.43,-27837.855,-6169.455,-19372.905,-27188.64,-6146.91,2066.175
1764764057.7775493,270.9,-1108.26,-27836.595,-6168.15,-19373.265,-27188.91,-6147.585,2065.815
1764764057.7775493,270.495,-1108.035,-27835.92,-6167.474999999999,-19372.815,-27189.18,-6148.349999999999,2064.105
1764764057.7775493,271.71,-1106.19,-27833.535,-6164.639999999999,-19370.655,-27187.02,-6147.36,2064.42
1764764057.7775493,273.105,-1103.895,-27829.8,-6160.995,-19367.325,-27185.04,-6146.054999999999,2066.13
1764764057.7775493,277.2,-1099.665,-27825.48,-6157.575,-19365.165,-27182.52,-6144.165,2070.315
1764764057.7775493,278.37,-1098.045,-27824.805,-6158.295,-19367.01,-27184.14,-6144.48,2071.17
1764764057.8210547,278.235,-1098.18,-27824.265,-6157.349999999999,-19367.28,-27184.23,-6144.615,2071.17
1764764057.8215644,274.185,-1104.57,-27832.77,-6164.28,-19371.915,-27187.38,-6146.505,2067.93
1764764057.8215644,273.015,-1104.705,-27833.67,-6164.865,-19372.32,-27188.145,-6146.594999999999,2066.985
1764764057.8215644,275.31,-1101.24,-27827.505,-6161.219999999999,-19371.915,-27189.27,-6147.0,2067.21
1764764057.8215644,272.295,-1104.3,-27830.88,-6163.514999999999,-19373.4,-27190.305,-6148.575,2063.52
1764764057.8215644,273.87,-1102.59,-27830.115,-6162.21,-19371.015,-27187.065,-6146.46,2066.13
1764764057.8215644,271.8,-1105.695,-27835.425,-6167.88,-19374.705,-27189.585,-6147.99,2065.32
1764764057.8215644,269.73,-1108.62,-27840.195,-6171.615,-19377.135,-27191.565,-6149.025,2064.015
1764764057.8215644,271.98,-1105.83,-27836.01,-6168.105,-19374.615,-27189.9,-6147.405,2064.825
1764764057.8215644,273.285,-1102.32,-27831.465,-6163.38,-19372.185,-27188.64,-6145.875,2065.32
1764764057.8215644,277.65,-1096.965,-27826.515,-6157.98,-19367.64,-27184.59,-6142.77,2069.73
1764764057.8215644,274.365,-1101.24,-27831.42,-6163.514999999999,-19371.15,-27187.965,-6145.469999999999,2067.435
1764764057.8215644,271.845,-1104.525,-27835.695,-6167.655,-19374.615,-27191.205,-6147.224999999999,2064.825
1764764057.8215644,269.145,-1105.425,-27836.64,-6168.554999999999,-19378.215,-27194.76,-6149.52,2061.63
1764764057.8215644,273.78,-1099.62,-27830.43,-6162.795,-19374.345,-27190.35,-6146.594999999999,2064.78
1764764057.8215644,278.145,-1094.355,-27823.725,-6156.495,-19369.035,-27186.48,-6143.219999999999,2068.425
1764764057.8215644,274.86,-1098.99,-27830.52,-6162.255,-19372.275,-27188.19,-6145.56,2067.03
1764764057.8215644,269.235,-1106.82,-27839.52,-6171.344999999999,-19377.315,-27191.835,-6148.349999999999,2063.295
1764764057.8215644,272.88,-1102.32,-27834.03,-6167.565,-19375.155,-27190.98,-6147.54,2065.77
1764764057.8215644,272.43,-1101.465,-27830.79,-6164.415,-19373.94,-27191.565,-6147.09,2064.42
1764764057.8215644,277.695,-1095.03,-27823.815,-6157.53,-19367.955,-27186.435,-6143.445,2069.685
1764764057.8215644,273.06,-1102.725,-27833.085,-6164.639999999999,-19371.825,-27189.405,-6146.28,2065.995
1764764057.8215644,263.835,-1113.84,-27845.64,-6176.79,-19380.015,-27195.84,-6151.094999999999,2058.48
1764764057.8215644,264.24,-1113.12,-27845.505,-6176.655,-19380.645,-27195.885,-6151.094999999999,2059.38
1764764057.872191,272.25,-1103.94,-27835.065,-6166.62,-19373.04,-27189.045,-6145.92,2066.22
1764764057.872191,274.365,-1101.33,-27831.33,-6164.594999999999,-19373.13,-27189.45,-6145.56,2067.705
1764764057.8728616,273.96,-1101.69,-27832.185,-6165.63,-19375.74,-27191.295,-6145.65,2067.03
1764764057.8728616,270.945,-1103.445,-27834.795,-6166.844999999999,-19377.945,-27193.95,-6147.99,2063.475
1764764057.8728616,268.92,-1108.62,-27840.555,-6171.66,-19378.8,-27194.355,-6148.889999999999,2062.53
1764764057.8728616,266.535,-1111.725,-27843.615,-6174.495,-19381.32,-27196.02,-6149.79,2060.01
1764764057.8728616,273.735,-1100.925,-27831.195,-6163.83,-19374.84,-27191.61,-6145.965,2066.4
1764764057.8728616,273.825,-1099.125,-27828.18,-6161.895,-19373.94,-27192.24,-6146.775,2065.86
1764764057.8728616,274.995,-1097.415,-27826.155,-6159.735,-19372.23,-27191.43,-6145.965,2066.355
1764764057.8728616,271.71,-1103.085,-27833.355,-6165.719999999999,-19375.02,-27193.59,-6146.37,2064.6
1764764057.8728616,266.22,-1111.68,-27844.29,-6174.9,-19380.735,-27197.19,-6149.429999999999,2059.785
1764764057.8728616,270.225,-1106.145,-27838.575,-6169.815,-19377.765,-27193.23,-6146.955,2063.835
1764764057.8728616,268.29,-1107.27,-27838.665,-6171.165,-19380.195,-27196.47,-6148.575,2061.675
1764764057.8728616,266.67,-1109.475,-27841.14,-6172.38,-19380.6,-27196.335,-6148.44,2061.72
1764764057.8728616,266.76,-1110.87,-27844.515,-6173.82,-19380.15,-27193.77,-6147.45,2062.485
1764764057.8728616,270.135,-1106.775,-27839.295,-6170.4,-19377.54,-27191.475,-6146.325,2065.23
1764764057.8728616,273.42,-1103.355,-27834.795,-6166.844999999999,-19375.02,-27190.08,-6143.94,2066.94
1764764057.8728616,272.295,-1103.67,-27834.57,-6167.205,-19376.145,-27190.575,-6144.974999999999,2066.175
1764764057.8728616,272.88,-1103.265,-27833.355,-6166.71,-19376.415,-27190.62,-6144.12,2067.48
1764764057.8728616,269.46,-1105.83,-27836.64,-6169.32,-19379.745,-27193.41,-6145.965,2063.835
1764764057.8728616,273.735,-1101.33,-27832.095,-6163.469999999999,-19374.39,-27188.19,-6142.139999999999,2068.155
1764764057.8728616,270.81,-1103.49,-27835.38,-6165.675,-19376.73,-27190.755,-6143.49,2065.455
1764764057.9165075,270.495,-1103.22,-27834.345,-6164.955,-19377.09,-27192.645,-6144.705,2064.33
1764764057.9165075,272.61,-1100.52,-27828.63,-6160.23,-19374.57,-27190.935,-6142.995,2065.995
1764764057.9165075,278.55,-1093.68,-27821.115,-6153.12,-19367.955,-27185.49,-6139.304999999999,2070.54
1764764057.9165075,277.47,-1093.725,-27820.98,-6153.795,-19370.7,-27188.73,-6141.06,2068.605
1764764057.9172077,281.25,-1089.945,-27816.84,-6150.87,-19368.0,-27186.39,-6138.855,2071.575
1764764057.9172077,275.67,-1095.885,-27824.445,-6158.7,-19375.47,-27192.645,-6141.69,2067.345
1764764057.9172077,270.18,-1104.795,-27836.595,-6168.33,-19378.935,-27193.68,-6143.715,2064.24
1764764057.9172077,269.73,-1106.28,-27838.215,-6167.969999999999,-19376.91,-27191.115,-6143.58,2064.015
1764764057.9172077,271.935,-1104.795,-27837.495,-6166.755,-19376.055,-27188.865,-6142.275,2066.22
1764764057.9172077,267.615,-1110.24,-27843.255,-6172.56,-19379.97,-27192.06,-6144.435,2064.105
1764764057.9172077,273.96,-1102.635,-27833.49,-6165.045,-19374.57,-27187.56,-6142.094999999999,2069.325
1764764057.9172077,274.23,-1098.945,-27829.44,-6161.804999999999,-19374.705,-27188.73,-6142.094999999999,2067.075
1764764057.9172077,273.33,-1099.08,-27830.295,-6162.885,-19376.415,-27191.07,-6143.264999999999,2065.68
1764764057.9172077,272.97,-1098.72,-27829.8,-6161.715,-19374.975,-27190.215,-6143.67,2065.77
1764764057.9172077,273.6,-1098.765,-27829.665,-6160.455,-19371.42,-27186.165,-6140.429999999999,2068.335
1764764057.9172077,268.065,-1106.19,-27838.53,-6167.655,-19375.335,-27189.63,-6143.67,2063.61
1764764057.9172077,266.535,-1107.09,-27838.8,-6168.24,-19376.505,-27192.51,-6145.605,2060.37
1764764057.9172077,271.53,-1100.655,-27831.33,-6162.12,-19372.68,-27188.64,-6143.264999999999,2064.915
1764764057.9172077,272.43,-1099.17,-27831.015,-6164.325,-19377.18,-27192.195,-6144.165,2065.095
1764764057.9172077,266.175,-1106.82,-27840.78,-6174.495,-19384.875,-27197.82,-6147.675,2059.965
1764764057.9172077,261.18,-1114.02,-27850.545,-6181.785,-19387.08,-27198.18,-6149.88,2056.995
1764764057.9172077,260.55,-1115.91,-27853.605,-6185.025,-19389.24,-27199.485,-6150.42,2057.22
1764764057.9172077,265.5,-1110.555,-27848.34,-6180.795,-19387.395,-27198.18,-6147.585,2061.63
1764764057.9172077,271.485,-1103.445,-27841.41,-6174.36,-19382.67,-27193.635,-6143.58,2067.3
1764764057.9172077,273.06,-1102.365,-27840.645,-6174.36,-19383.165,-27193.23,-6141.825,2068.47
1764764057.9172077,271.17,-1104.255,-27841.68,-6175.44,-19385.37,-27195.57,-6144.21,2066.04
1764764057.9637096,274.455,-1099.935,-27836.19,-6169.545,-19380.195,-27191.295,-6141.96,2068.245
1764764057.9637096,273.375,-1099.35,-27834.345,-6168.33,-19378.89,-27191.88,-6142.77,2066.265
1764764057.9637096,270.72,-1100.205,-27834.48,-6168.24,-19379.925,-27193.275,-6143.895,2062.89
1764764057.9637096,270.585,-1099.98,-27832.59,-6166.035,-19376.91,-27190.44,-6142.139999999999,2063.385
1764764057.9637096,275.13,-1095.57,-27828.09,-6161.264999999999,-19372.635,-27187.155,-6139.8,2067.12
1764764057.9637096,273.285,-1096.38,-27829.44,-6163.695,-19375.74,-27190.665,-6141.105,2065.59
1764764057.9637096,278.73,-1091.61,-27825.795,-6160.77,-19374.03,-27189.315,-6138.719999999999,2070.045
1764764057.965247,278.145,-1093.77,-27828.315,-6162.435,-19375.245,-27190.44,-6139.395,2070.09
1764764057.965247,270.405,-1104.84,-27841.59,-6173.054999999999,-19379.835,-27192.69,-6142.815,2065.86
1764764057.965247,263.835,-1114.515,-27852.165,-6182.415,-19384.515,-27195.165,-6146.37,2060.865
1764764057.965247,267.075,-1108.89,-27845.37,-6176.925,-19381.635,-27193.815,-6143.895,2062.26
1764764057.965247,268.335,-1105.56,-27840.33,-6173.594999999999,-19380.825,-27194.985,-6143.4,2062.08
1764764057.965247,273.105,-1099.665,-27834.57,-6167.655,-19377.27,-27192.015,-6141.78,2066.22
1764764057.965247,274.095,-1099.035,-27833.085,-6166.844999999999,-19377.405,-27192.285,-6142.23,2066.265
1764764057.965247,271.98,-1100.745,-27834.705,-6167.115,-19377.225,-27192.465,-6142.679999999999,2064.105
1764764057.965247,266.445,-1106.325,-27840.24,-6173.099999999999,-19383.345,-27197.865,-6146.415,2059.74
1764764057.965247,265.185,-1109.925,-27845.28,-6177.24,-19384.92,-27197.865,-6146.415,2060.19
1764764057.965247,269.28,-1107.405,-27844.02,-6174.99,-19381.365,-27193.095,-6143.715,2064.69
1764764057.965247,271.71,-1104.3,-27840.735,-6172.38,-19378.17,-27189.99,-6141.375,2066.715
1764764057.965247,272.205,-1103.355,-27838.125,-6169.59,-19377.72,-27190.62,-6140.88,2066.175
1764764057.965247,270.27,-1104.21,-27838.395,-6169.455,-19379.61,-27193.68,-6141.375,2063.115
1764764057.965247,270.855,-1102.23,-27835.965,-6167.385,-19379.295,-27192.87,-6141.735,2063.61
1764764058.0122354,272.16,-1099.89,-27833.22,-6164.099999999999,-19376.235,-27190.215,-6140.655,2065.095
1764764058.0122354,275.31,-1096.56,-27829.98,-6160.455,-19372.59,-27187.065,-6138.09,2068.02
1764764058.0122354,272.61,-1104.12,-27839.205,-6169.365,-19379.07,-27191.565,-6140.07,2065.545
1764764058.0122354,272.16,-1106.145,-27842.49,-6172.245,-19379.655,-27192.15,-6140.925,2065.86
1764764058.0122354,271.215,-1105.83,-27841.59,-6172.245,-19380.69,-27194.355,-6142.679999999999,2063.88
1764764058.0122354,276.75,-1099.35,-27834.12,-6164.82,-19374.435,-27188.235,-6138.405,2069.235
1764764058.0122354,280.08,-1094.49,-27828.045,-6158.655,-19369.17,-27182.745,-6133.455,2072.88
1764764058.0122354,277.29,-1097.505,-27829.89,-6160.365,-19371.195,-27185.4,-6134.67,2069.91
1764764058.0132585,280.98,-1093.77,-27825.795,-6155.19,-19365.57,-27181.035,-6131.88,2073.06
1764764058.0132585,279.945,-1094.445,-27826.605,-6156.0,-19365.525,-27180.72,-6131.61,2072.97
1764764058.0132585,275.175,-1101.69,-27835.155,-6163.965,-19372.41,-27185.4,-6135.344999999999,2069.28
1764764058.0132585,273.105,-1105.155,-27839.97,-6168.735,-19378.305,-27189.315,-6138.27,2066.67
1764764058.0132585,274.365,-1102.59,-27837.18,-6167.205,-19378.17,-27189.405,-6138.27,2067.885
1764764058.0132585,272.835,-1103.04,-27837.54,-6168.78,-19379.52,-27190.845,-6139.304999999999,2065.905
1764764058.0132585,270.045,-1105.335,-27841.275,-6172.695,-19383.075,-27194.94,-6141.554999999999,2061.945
1764764058.0132585,271.98,-1103.085,-27838.89,-6170.31,-19382.355,-27194.265,-6141.42,2063.52
1764764058.0132585,276.435,-1098.54,-27834.48,-6165.855,-19378.62,-27190.395,-6137.82,2067.66
1764764058.0132585,275.76,-1099.845,-27836.685,-6167.88,-19381.41,-27193.545,-6138.99,2066.535
1764764058.0132585,275.13,-1100.52,-27837.18,-6167.565,-19380.87,-27193.995,-6138.99,2066.085
1764764058.0132585,272.205,-1101.96,-27837.675,-6167.745,-19381.815,-27195.345,-6140.429999999999,2062.575
1764764058.0132585,274.23,-1098.315,-27832.86,-6163.155,-19378.98,-27193.5,-6138.81,2063.745
1764764058.0132585,274.095,-1097.82,-27831.825,-6162.795,-19378.98,-27193.545,-6139.8,2063.655
1764764058.0132585,275.265,-1097.28,-27832.635,-6162.12,-19377.315,-27190.935,-6138.719999999999,2065.41
1764764058.0132585,273.555,-1100.295,-27836.19,-6166.125,-19379.79,-27192.15,-6139.304999999999,2064.87
1764764058.0602589,277.335,-1095.12,-27830.43,-6160.32,-19373.94,-27187.65,-6136.155,2068.56
1764764058.0602589,278.37,-1094.58,-27830.7,-6160.005,-19371.375,-27185.895,-6134.58,2069.46
1764764058.0602589,274.545,-1099.53,-27837.72,-6166.08,-19375.695,-27189.27,-6136.785,2068.785
1764764058.0602589,271.035,-1104.075,-27842.76,-6171.57,-19380.825,-27193.455,-6140.34,2065.23
1764764058.0602589,270.855,-1104.03,-27842.85,-6173.639999999999,-19385.28,-27197.415,-6141.825,2062.98
1764764058.0602589,274.5,-1099.53,-27838.17,-6169.679999999999,-19381.905,-27195.12,-6139.755,2065.455
1764764058.0602589,273.87,-1099.98,-27838.17,-6168.825,-19381.095,-27194.175,-6138.54,2064.78
1764764058.0602589,271.53,-1100.88,-27838.98,-6169.905,-19382.67,-27195.66,-6140.16,2062.98
1764764058.0602589,276.03,-1096.515,-27835.065,-6165.63,-19377.54,-27190.17,-6137.054999999999,2067.075
1764764058.0602589,273.825,-1100.88,-27840.015,-6169.635,-19378.395,-27190.44,-6137.415,2065.365
1764764058.0602589,267.93,-1106.775,-27845.82,-6174.764999999999,-19383.345,-27194.715,-6140.88,2061.225
1764764058.0602589,270.27,-1103.94,-27842.445,-6171.929999999999,-19381.365,-27192.33,-6138.719999999999,2064.33
1764764058.0602589,276.12,-1096.695,-27835.065,-6164.639999999999,-19374.84,-27186.39,-6134.175,2069.685
1764764058.0602589,274.41,-1097.865,-27835.605,-6166.08,-19377.495,-27189.18,-6136.155,2066.58
1764764058.0602589,273.825,-1099.35,-27837.045,-6167.07,-19379.7,-27191.745,-6136.965,2065.05
1764764058.0602589,278.55,-1095.795,-27833.67,-6163.155,-19376.64,-27189.18,-6134.804999999999,2069.1
1764764058.0602589,280.71,-1094.265,-27832.005,-6162.03,-19374.255,-27187.47,-6133.455,2071.035
1764764058.0602589,281.835,-1091.205,-27827.235,-6158.07,-19371.96,-27185.895,-6132.51,2071.215
1764764058.0602589,279.135,-1091.565,-27826.515,-6158.429999999999,-19373.625,-27187.92,-6134.625,2068.695
1764764058.0602589,277.335,-1094.76,-27829.305,-6160.724999999999,-19374.93,-27189.18,-6136.155,2066.76
1764764058.0602589,275.58,-1098.765,-27832.725,-6162.344999999999,-19374.345,-27188.235,-6136.29,2065.725
1764764058.0602589,277.245,-1097.505,-27832.41,-6161.175,-19372.68,-27186.255,-6134.264999999999,2068.83
1764764058.0602589,277.83,-1098.09,-27833.715,-6162.57,-19373.445,-27185.985,-6133.545,2068.695
1764764058.0602589,275.085,-1101.015,-27836.19,-6165.36,-19375.29,-27188.55,-6135.12,2065.23
1764764058.1059318,274.455,-1101.78,-27836.775,-6165.99,-19376.505,-27189.405,-6135.03,2064.87
1764764058.1059318,277.065,-1100.43,-27836.01,-6166.44,-19376.505,-27188.19,-6134.219999999999,2067.48
1764764058.1059318,275.49,-1102.77,-27840.33,-6170.04,-19377.99,-27189.045,-6134.76,2067.03
1764764058.1059318,275.13,-1102.95,-27841.005,-6169.59,-19377.765,-27188.955,-6135.03,2066.445
1764764058.1059318,276.39,-1101.15,-27839.07,-6168.87,-19379.43,-27190.395,-6134.58,2066.85
1764764058.1059318,273.87,-1102.455,-27840.375,-6171.344999999999,-19382.715,-27193.635,-6136.2,2064.42
1764764058.1059318,276.57,-1098.945,-27836.505,-6166.98,-19379.025,-27189.675,-6133.455,2067.48
1764764058.1059318,278.28,-1096.515,-27832.77,-6163.605,-19375.74,-27187.29,-6131.969999999999,2069.73
1764764058.1059318,281.61,-1092.42,-27827.955,-6159.87,-19371.78,-27184.5,-6129.54,2072.43
1764764058.1059318,279.135,-1094.04,-27828.36,-6160.59,-19373.175,-27186.435,-6131.205,2069.955
1764764058.1059318,277.02,-1097.145,-27832.545,-6163.875,-19375.29,-27189.045,-6132.915,2067.525
1764764058.1059318,271.62,-1104.93,-27842.175,-6172.245,-19382.22,-27194.58,-6135.974999999999,2062.98
1764764058.1059318,271.575,-1104.93,-27843.57,-6172.74,-19382.085,-27194.355,-6136.11,2062.98
1764764058.1059318,277.11,-1098.495,-27836.73,-6166.62,-19377.135,-27189.72,-6133.455,2068.695
1764764058.106955,277.965,-1097.415,-27835.11,-6165.315,-19376.64,-27188.415,-6131.655,2069.64
1764764058.106955,274.275,-1100.79,-27838.215,-6168.599999999999,-19379.745,-27191.97,-6134.04,2066.58
1764764058.106955,277.335,-1098.18,-27835.695,-6165.81,-19377.18,-27189.945,-6132.78,2068.965
1764764058.106955,278.145,-1095.795,-27833.4,-6163.065,-19375.425,-27188.775,-6132.105,2069.46
1764764058.106955,278.64,-1094.445,-27831.96,-6161.67,-19375.47,-27188.775,-6132.645,2069.28
1764764058.106955,278.145,-1092.51,-27828.945,-6160.365,-19376.91,-27191.025,-6133.995,2068.38
1764764058.106955,278.82,-1090.395,-27825.345,-6157.53,-19375.065,-27189.81,-6133.139999999999,2068.605
1764764058.106955,276.615,-1093.68,-27828.225,-6159.014999999999,-19374.66,-27189.315,-6133.545,2065.995
1764764058.106955,269.73,-1102.095,-27838.8,-6168.014999999999,-19380.6,-27193.32,-6136.695,2061.09
1764764058.106955,265.68,-1109.655,-27850.14,-6178.86,-19385.955,-27196.29,-6138.135,2060.19
1764764058.152804,269.505,-1105.605,-27846.855,-6176.25,-19384.245,-27194.13,-6137.82,2062.89
1764764058.152804,270.81,-1102.815,-27843.975,-6173.955,-19384.38,-27195.3,-6138.45,2062.62
1764764058.152804,271.035,-1102.365,-27844.11,-6174.764999999999,-19386.495,-27197.28,-6139.125,2062.305
1764764058.152804,271.935,-1101.465,-27842.535,-6173.685,-19385.145,-27196.515,-6137.594999999999,2062.98
1764764058.1533108,274.455,-1098.54,-27839.34,-6170.49,-19382.58,-27193.905,-6135.12,2064.465
1764764058.1533108,272.385,-1100.88,-27841.095,-6172.695,-19385.055,-27196.56,-6137.505,2062.125
1764764058.1533108,271.395,-1101.78,-27842.445,-6173.685,-19387.575,-27198.54,-6138.315,2060.415
1764764058.1533108,270.855,-1100.34,-27841.995,-6172.605,-19386.27,-27197.865,-6138.179999999999,2059.695
1764764058.1533108,271.08,-1099.665,-27840.78,-6172.02,-19384.74,-27196.65,-6137.28,2060.37
1764764058.1533108,273.465,-1096.92,-27838.71,-6169.59,-19383.84,-27195.435,-6135.795,2062.08
1764764058.1533108,279.81,-1089.045,-27830.34,-6161.445,-19377.855,-27189.765,-6132.06,2067.795
1764764058.1533108,278.1,-1091.52,-27831.915,-6163.11,-19378.305,-27190.26,-6132.554999999999,2065.275
1764764058.1533108,271.665,-1099.35,-27841.59,-6171.929999999999,-19384.92,-27196.065,-6136.605,2060.01
1764764058.1533108,273.735,-1097.955,-27841.455,-6172.469999999999,-19385.505,-27195.93,-6135.57,2063.07
1764764058.1533108,277.47,-1095.435,-27838.08,-6168.24,-19381.095,-27191.43,-6132.554999999999,2066.76
1764764058.1533108,275.985,-1096.38,-27837.99,-6168.105,-19381.23,-27192.42,-6134.715,2064.015
1764764058.1533108,276.525,-1095.525,-27836.595,-6166.53,-19380.105,-27191.745,-6133.995,2064.915
1764764058.1533108,274.05,-1097.055,-27837.945,-6168.554999999999,-19382.355,-27194.535,-6134.94,2061.72
1764764058.154318,277.83,-1091.79,-27832.275,-6164.594999999999,-19381.095,-27193.32,-6132.915,2064.195
1764764058.154318,282.33,-1086.345,-27826.245,-6157.844999999999,-19375.92,-27189.0,-6129.719999999999,2069.055
1764764058.1547463,274.545,-1095.39,-27835.83,-6165.09,-19378.755,-27191.52,-6132.33,2064.15
1764764058.1547463,268.965,-1105.02,-27847.17,-6174.764999999999,-19382.76,-27192.6,-6134.13,2061.27
1764764058.197174,274.545,-1099.665,-27842.805,-6170.58,-19379.295,-27189.315,-6130.889999999999,2065.41
1764764058.1977184,280.395,-1091.115,-27833.805,-6164.46,-19377.72,-27188.28,-6129.315,2069.235
1764764058.1977184,280.935,-1089.135,-27830.655,-6161.76,-19377.495,-27189.765,-6130.215,2068.56
1764764058.1977184,276.57,-1093.185,-27834.615,-6165.99,-19381.815,-27194.805,-6134.49,2063.025
1764764058.1977184,275.535,-1096.2,-27837.405,-6168.69,-19381.95,-27193.77,-6134.804999999999,2062.845
1764764058.1977184,270.45,-1101.69,-27843.435,-6174.09,-19385.64,-27196.065,-6136.469999999999,2059.02
1764764058.1977184,272.88,-1098.765,-27840.51,-6170.4,-19382.625,-27193.815,-6134.355,2061.315
1764764058.1977184,276.12,-1096.065,-27838.89,-6167.7,-19378.845,-27189.765,-6131.565,2064.78
1764764058.1977184,274.545,-1099.62,-27843.255,-6171.03,-19380.15,-27190.35,-6131.205,2063.61
1764764058.1977184,276.705,-1095.795,-27839.07,-6167.79,-19377.765,-27187.785,-6129.764999999999,2066.445
1764764058.1977184,275.535,-1095.615,-27837.18,-6167.429999999999,-19378.215,-27189.09,-6130.125,2065.275
1764764058.1977184,274.545,-1096.065,-27836.775,-6167.88,-19380.285,-27191.79,-6131.745,2064.105
1764764058.1988077,278.145,-1093.005,-27833.94,-6164.01,-19376.64,-27188.64,-6129.719999999999,2067.885
1764764058.1988077,274.41,-1097.37,-27836.82,-6166.485,-19379.475,-27192.735,-6132.96,2063.16
1764764058.1988077,278.01,-1093.5,-27832.5,-6162.84,-19376.55,-27189.765,-6130.755,2065.635
1764764058.1988077,277.47,-1094.31,-27835.02,-6164.639999999999,-19377.225,-27188.955,-6130.08,2066.535
1764764058.1988077,275.31,-1094.94,-27835.065,-6166.215,-19380.51,-27192.735,-6131.52,2064.105
1764764058.1988077,278.91,-1088.955,-27826.02,-6158.34,-19375.38,-27189.765,-6129.179999999999,2065.815
1764764058.1988077,279.63,-1088.73,-27826.245,-6157.889999999999,-19375.065,-27189.99,-6129.495,2066.445
1764764058.1988077,271.845,-1102.455,-27845.415,-6175.62,-19385.055,-27196.155,-6133.905,2062.575
1764764058.1988077,266.805,-1111.905,-27855.99,-6183.54,-19388.88,-27198.225,-6136.514999999999,2058.885
1764764058.1988077,271.62,-1103.94,-27845.82,-6174.315,-19383.21,-27194.58,-6133.59,2062.305
1764764058.1988077,278.145,-1095.795,-27836.055,-6165.675,-19377.315,-27189.09,-6129.315,2067.93
1764764058.1988077,276.66,-1096.83,-27836.82,-6167.295,-19380.555,-27191.97,-6130.08,2066.22
1764764058.245121,279.63,-1093.815,-27834.165,-6164.28,-19378.26,-27188.82,-6128.865,2069.235
1764764058.245121,279.0,-1093.365,-27833.49,-6163.965,-19377.72,-27189.18,-6129.495,2067.93
1764764058.245121,279.36,-1092.915,-27832.5,-6163.83,-19378.125,-27189.72,-6128.91,2067.57
1764764058.245121,282.96,-1088.82,-27828.54,-6159.33,-19373.355,-27184.68,-6125.67,2071.8
1764764058.245121,281.385,-1091.835,-27831.375,-6160.995,-19372.905,-27184.14,-6124.995,2070.405
1764764058.245121,277.605,-1096.38,-27836.505,-6166.08,-19376.37,-27187.695,-6127.514999999999,2067.3
1764764058.245121,275.67,-1097.595,-27836.64,-6166.304999999999,-19377.225,-27190.35,-6129.99,2063.97
1764764058.245121,281.025,-1090.215,-27826.92,-6157.53,-19370.07,-27186.255,-6126.929999999999,2067.48
1764764058.245121,280.935,-1090.845,-27828.27,-6158.474999999999,-19371.555,-27186.03,-6126.615,2068.92
1764764058.245121,272.88,-1102.905,-27843.48,-6173.28,-19380.78,-27192.195,-6131.79,2063.655
1764764058.2456388,267.795,-1109.115,-27851.04,-6180.389999999999,-19385.415,-27195.93,-6134.849999999999,2059.47
1764764058.2456388,267.435,-1107.945,-27849.69,-6179.67,-19387.62,-27198.27,-6136.245,2057.67
1764764058.2456388,272.655,-1101.78,-27842.985,-6172.875,-19381.59,-27192.915,-6132.195,2062.845
1764764058.2456388,270.18,-1102.86,-27845.415,-6174.045,-19382.355,-27193.23,-6133.23,2061.27
1764764058.2456388,268.92,-1104.48,-27846.09,-6175.485,-19383.84,-27194.67,-6133.5,2059.425
1764764058.2456388,274.32,-1098.945,-27840.645,-6170.625,-19379.52,-27191.07,-6130.62,2063.79
1764764058.2456388,273.645,-1099.62,-27842.13,-6172.245,-19381.77,-27194.04,-6132.105,2062.26
1764764058.2456388,275.535,-1098.315,-27840.645,-6170.67,-19380.51,-27193.05,-6132.195,2064.105
1764764058.2456388,275.895,-1097.145,-27839.745,-6169.32,-19379.835,-27191.34,-6130.844999999999,2065.095
1764764058.2456388,273.645,-1098.225,-27839.52,-6169.815,-19381.23,-27193.995,-6132.195,2061.9
1764764058.2456388,277.74,-1093.05,-27833.715,-6163.65,-19376.415,-27190.44,-6129.045,2065.185
1764764058.2456388,281.565,-1089.0,-27828.945,-6157.935,-19370.97,-27185.67,-6126.48,2067.975
1764764058.2456388,277.65,-1093.68,-27834.165,-6162.795,-19374.12,-27187.605,-6127.74,2065.545
1764764058.2456388,273.78,-1098.72,-27840.015,-6167.79,-19377.405,-27190.71,-6130.035,2062.89
1764764058.2917182,273.87,-1099.485,-27841.5,-6169.905,-19378.8,-27191.25,-6130.8,2063.295
1764764058.2917182,275.49,-1097.91,-27839.79,-6167.969999999999,-19376.415,-27188.595,-6129.63,2065.275
1764764058.2917182,272.835,-1099.89,-27841.725,-6170.085,-19380.195,-27191.88,-6130.44,2062.62
1764764058.2917182,275.13,-1096.965,-27839.565,-6168.195,-19378.665,-27190.215,-6129.045,2064.24
1764764058.2917182,281.88,-1089.72,-27832.68,-6161.49,-19371.78,-27184.545,-6124.32,2070.585
1764764058.2917182,280.53,-1090.395,-27833.085,-6162.57,-19373.13,-27186.03,-6125.535,2069.19
1764764058.29223,280.845,-1089.135,-27831.33,-6160.995,-19373.625,-27186.75,-6125.67,2068.29
1764764058.29223,283.41,-1086.705,-27828.0,-6158.115,-19372.05,-27185.265,-6125.219999999999,2071.08
1764764058.29223,280.98,-1090.575,-27832.41,-6162.255,-19374.615,-27187.065,-6126.929999999999,2069.325
1764764058.29223,280.305,-1091.205,-27832.635,-6161.58,-19373.715,-27186.975,-6127.02,2066.985
1764764058.29223,276.66,-1094.22,-27834.435,-6163.83,-19376.685,-27189.36,-6128.685,2063.52
1764764058.29223,276.75,-1093.05,-27832.77,-6162.929999999999,-19375.29,-27188.28,-6128.955,2064.195
1764764058.29223,280.575,-1090.125,-27829.71,-6159.645,-19373.445,-27187.02,-6126.974999999999,2067.21
1764764058.29223,273.87,-1100.97,-27842.67,-6170.535,-19378.89,-27190.305,-6129.224999999999,2063.7
1764764058.29223,271.125,-1106.055,-27849.51,-6175.125,-19378.53,-27189.0,-6129.495,2062.845
1764764058.29223,269.73,-1106.235,-27848.565,-6174.81,-19381.14,-27192.915,-6132.014999999999,2060.145
1764764058.29223,268.875,-1106.235,-27847.89,-6174.945,-19383.48,-27195.12,-6132.69,2057.985
1764764058.29223,270.855,-1103.67,-27844.695,-6172.2,-19382.13,-27194.31,-6131.88,2058.615
1764764058.29223,273.645,-1101.015,-27840.825,-6168.554999999999,-19379.025,-27192.51,-6129.405,2061.315
1764764058.29223,273.375,-1100.205,-27839.295,-6167.745,-19378.665,-27192.06,-6129.45,2061.225
1764764058.29223,272.34,-1100.25,-27839.655,-6167.61,-19379.79,-27192.375,-6131.07,2060.1
1764764058.29223,272.745,-1099.845,-27839.25,-6166.53,-19378.62,-27192.195,-6131.07,2060.28
1764764058.3379755,275.4,-1098.405,-27838.215,-6164.054999999999,-19374.615,-27186.975,-6127.92,2063.745
1764764058.3379755,276.885,-1097.415,-27836.595,-6162.48,-19373.31,-27184.545,-6125.985,2064.555
1764764058.3379755,278.73,-1095.48,-27833.895,-6160.139999999999,-19372.545,-27184.815,-6124.77,2065.95
1764764058.3379755,277.245,-1095.93,-27834.03,-6161.445,-19376.685,-27188.955,-6126.929999999999,2063.61
1764764058.3379755,281.295,-1092.195,-27829.755,-6158.025,-19373.355,-27186.03,-6124.545,2067.39
1764764058.3379755,278.955,-1094.94,-27832.05,-6160.094999999999,-19375.47,-27187.02,-6125.219999999999,2065.455
1764764058.3379755,279.27,-1094.13,-27831.555,-6160.094999999999,-19376.82,-27188.64,-6125.67,2064.87
1764764058.3379755,275.31,-1098.18,-27836.73,-6164.775,-19378.71,-27191.07,-6126.929999999999,2062.935
1764764058.3379755,274.32,-1102.365,-27844.245,-6170.13,-19379.295,-27189.72,-6126.705,2063.745
1764764058.3379755,271.395,-1107.54,-27850.005,-6175.62,-19382.805,-27191.565,-6127.155,2061.045
1764764058.3379755,272.88,-1104.57,-27845.505,-6172.514999999999,-19381.5,-27190.62,-6126.255,2062.17
1764764058.3379755,275.895,-1101.87,-27841.68,-6168.78,-19378.89,-27187.605,-6124.545,2064.465
1764764058.3379755,280.62,-1096.38,-27836.955,-6163.29,-19374.705,-27184.365,-6121.53,2069.955
1764764058.3379755,275.985,-1099.44,-27840.645,-6168.195,-19381.275,-27191.16,-6125.625,2064.195
1764764058.3379755,278.325,-1096.83,-27837.54,-6164.865,-19378.665,-27189.495,-6124.185,2064.96
1764764058.3379755,280.305,-1094.355,-27835.2,-6161.49,-19375.605,-27187.02,-6122.745,2066.355
1764764058.3379755,282.51,-1091.655,-27831.825,-6159.195,-19373.31,-27183.78,-6120.719999999999,2069.505
1764764058.3379755,279.99,-1093.905,-27834.615,-6161.175,-19373.94,-27184.365,-6120.945,2067.705
1764764058.3379755,278.235,-1095.705,-27836.19,-6161.264999999999,-19373.715,-27184.455,-6121.665,2066.085
1764764058.3379755,277.92,-1095.93,-27835.875,-6161.445,-19374.255,-27185.13,-6122.565,2065.005
1764764058.3379755,277.965,-1095.795,-27836.55,-6162.48,-19375.605,-27185.805,-6123.195,2064.96
1764764058.3379755,281.7,-1092.15,-27834.48,-6160.05,-19374.39,-27184.905,-6121.44,2067.57
1764764058.3379755,286.425,-1088.055,-27830.115,-6155.73,-19368.405,-27178.56,-6116.535,2074.095
1764764058.3379755,283.545,-1093.185,-27834.795,-6160.05,-19372.41,-27181.845,-6118.65,2070.18
1764764058.3850946,278.64,-1097.73,-27839.925,-6166.665,-19380.42,-27188.595,-6123.51,2064.915
1764764058.3850946,279.36,-1095.615,-27838.395,-6166.53,-19380.105,-27188.775,-6124.41,2066.13
1764764058.3850946,276.84,-1098.09,-27841.32,-6169.005,-19382.355,-27191.655,-6126.075,2063.655
1764764058.3850946,280.26,-1094.085,-27836.82,-6163.74,-19377.045,-27186.345,-6123.24,2067.345
1764764058.3850946,277.785,-1095.39,-27837.945,-6165.27,-19377.9,-27187.83,-6123.915,2064.915
1764764058.3850946,279.36,-1093.905,-27835.245,-6162.974999999999,-19375.47,-27186.525,-6121.44,2066.31
1764764058.3850946,282.78,-1090.44,-27831.96,-6158.745,-19373.4,-27183.465,-6118.74,2068.875
1764764058.3850946,288.135,-1082.385,-27823.23,-6150.825,-19368.0,-27179.595,-6116.13,2073.105
1764764058.3850946,290.655,-1077.705,-27816.795,-6146.639999999999,-19367.01,-27180.315,-6115.23,2073.645
1764764058.3850946,288.405,-1079.1,-27817.56,-6147.27,-19368.675,-27183.42,-6117.165,2070.855
1764764058.3850946,284.13,-1085.895,-27825.57,-6153.705,-19372.32,-27184.905,-6119.775,2068.335
1764764058.3850946,279.135,-1095.615,-27838.08,-6163.965,-19376.19,-27185.535,-6121.08,2066.31
1764764058.3850946,277.335,-1098.855,-27844.47,-6168.96,-19379.115,-27185.985,-6122.295,2066.22
1764764058.3850946,281.7,-1092.195,-27837.225,-6162.57,-19374.66,-27183.015,-6120.36,2068.47
1764764058.3850946,288.045,-1082.295,-27823.905,-6150.465,-19366.92,-27178.785,-6116.13,2072.52
1764764058.3850946,292.185,-1074.555,-27814.905,-6142.32,-19363.41,-27177.39,-6114.42,2074.545
1764764058.3850946,289.845,-1076.535,-27817.155,-6144.705,-19365.66,-27179.1,-6116.13,2072.34
1764764058.3850946,275.76,-1097.64,-27843.255,-6167.835,-19379.295,-27187.245,-6122.88,2063.205
1764764058.3850946,270.9,-1108.89,-27857.655,-6179.355,-19383.615,-27188.145,-6125.085,2061.045
1764764058.3850946,270.27,-1106.955,-27853.29,-6176.115,-19384.425,-27192.105,-6127.469999999999,2058.975
1764764058.3850946,274.86,-1100.34,-27846.765,-6170.715,-19381.5,-27190.215,-6124.545,2062.755
1764764058.3850946,276.615,-1097.64,-27843.84,-6168.014999999999,-19380.375,-27188.64,-6123.15,2064.195
1764764058.4357305,280.845,-1092.42,-27837.72,-6162.75,-19376.91,-27186.12,-6120.63,2066.805
1764764058.4357305,283.635,-1087.38,-27830.745,-6156.675,-19371.78,-27182.34,-6118.29,2069.46
1764764058.4357305,284.715,-1084.32,-27826.965,-6153.57,-19369.485,-27180.18,-6117.12,2069.955
1764764058.4357305,286.875,-1082.97,-27826.92,-6153.389999999999,-19370.295,-27180.0,-6116.264999999999,2071.575
1764764058.4357305,281.565,-1089.72,-27834.885,-6160.95,-19375.65,-27185.49,-6120.36,2066.355
1764764058.4357305,280.305,-1092.15,-27836.415,-6162.344999999999,-19374.705,-27184.23,-6120.495,2065.545
1764764058.4357305,281.43,-1092.285,-27837.72,-6161.94,-19373.49,-27182.43,-6118.11,2068.245
1764764058.4357305,275.04,-1099.575,-27847.35,-6171.165,-19381.545,-27189.09,-6122.295,2062.98
1764764058.4357305,275.625,-1099.395,-27847.305,-6171.21,-19381.5,-27188.37,-6122.52,2064.195
1764764058.4357305,278.82,-1094.49,-27841.77,-6165.764999999999,-19377.405,-27185.49,-6120.63,2067.21
1764764058.4357305,278.73,-1094.67,-27841.59,-6165.99,-19378.44,-27186.93,-6119.955,2065.995
1764764058.4357305,280.485,-1093.455,-27839.115,-6164.865,-19377.09,-27185.535,-6119.505,2067.075
1764764058.4357305,278.595,-1095.03,-27840.42,-6166.395,-19378.845,-27187.875,-6120.27,2064.51
1764764058.4357305,278.415,-1094.085,-27838.8,-6164.73,-19377.27,-27186.795,-6120.09,2065.14
1764764058.4357305,283.86,-1089.045,-27833.715,-6159.554999999999,-19372.635,-27181.755,-6116.264999999999,2070.315
1764764058.4357305,286.155,-1087.29,-27831.105,-6157.53,-19370.7,-27179.64,-6114.645,2072.79
1764764058.4357305,285.705,-1087.47,-27831.465,-6157.62,-19370.925,-27180.36,-6115.139999999999,2071.98
1764764058.4357305,281.835,-1089.63,-27834.03,-6160.094999999999,-19373.85,-27184.095,-6118.605,2068.56
1764764058.4357305,281.88,-1087.92,-27832.095,-6157.304999999999,-19373.31,-27183.96,-6118.965,2067.165
1764764058.4357305,283.275,-1085.355,-27828.495,-6154.335,-19372.14,-27183.33,-6117.57,2067.885
1764764058.4357305,280.215,-1087.875,-27830.115,-6157.304999999999,-19376.28,-27187.29,-6120.63,2064.285
1764764058.4357305,281.385,-1086.66,-27828.675,-6155.955,-19374.75,-27185.13,-6118.92,2065.905
1764764058.4357305,277.11,-1094.49,-27838.53,-6162.84,-19376.865,-27185.58,-6119.505,2063.835
1764764058.4357305,270.945,-1104.48,-27850.995,-6174.315,-19383.39,-27189.585,-6123.285,2059.83
1764764058.4357305,273.105,-1101.825,-27848.88,-6172.965,-19383.75,-27189.945,-6122.88,2061.81
1764764058.4357305,279.405,-1093.23,-27838.575,-6163.065,-19376.055,-27183.78,-6118.155,2066.94
1764764058.4786727,283.185,-1088.55,-27832.41,-6157.035,-19371.735,-27180.945,-6115.815,2069.01
1764764058.4786727,281.745,-1087.155,-27829.44,-6155.054999999999,-19371.015,-27182.385,-6117.795,2067.075
1764764058.4786727,282.15,-1084.59,-27827.19,-6152.4,-19369.35,-27181.53,-6116.49,2067.03
1764764058.4786727,279.18,-1089.54,-27833.85,-6160.679999999999,-19377.675,-27187.83,-6119.505,2064.42
1764764058.4786727,280.89,-1088.865,-27834.21,-6161.895,-19377.315,-27187.245,-6120.135,2065.95
1764764058.4786727,280.98,-1089.36,-27832.77,-6159.554999999999,-19373.985,-27184.635,-6119.37,2066.175
1764764058.4786727,277.38,-1094.355,-27839.655,-6165.45,-19376.82,-27185.04,-6118.92,2065.275
1764764058.4786727,272.25,-1101.24,-27849.24,-6173.82,-19384.38,-27190.755,-6122.655,2060.685
1764764058.4786727,274.59,-1098.945,-27847.89,-6173.73,-19386.495,-27193.095,-6123.465,2060.82
1764764058.4786727,277.02,-1096.38,-27845.145,-6171.705,-19384.74,-27192.06,-6122.429999999999,2061.99
1764764058.4786727,280.215,-1092.015,-27840.195,-6166.8,-19380.555,-27188.55,-6120.54,2065.455
1764764058.4786727,277.47,-1092.555,-27839.07,-6166.485,-19381.59,-27191.115,-6123.195,2062.575
1764764058.4786727,276.03,-1093.725,-27839.97,-6167.16,-19383.12,-27193.41,-6123.465,2059.785
1764764058.4786727,274.905,-1094.94,-27842.4,-6169.139999999999,-19384.515,-27194.04,-6123.645,2059.245
1764764058.4786727,272.88,-1097.82,-27845.37,-6172.74,-19387.17,-27195.705,-6124.23,2058.57
1764764058.4786727,273.555,-1098.72,-27847.89,-6174.585,-19389.24,-27195.615,-6125.13,2059.785
1764764058.4786727,278.73,-1093.14,-27843.39,-6171.21,-19386.09,-27192.24,-6122.385,2064.645
1764764058.4786727,276.3,-1093.59,-27843.39,-6171.84,-19388.745,-27195.795,-6124.005,2060.82
1764764058.4786727,278.64,-1090.935,-27839.115,-6167.565,-19385.28,-27193.095,-6121.889999999999,2062.62
1764764058.4786727,281.385,-1089.225,-27837.18,-6164.639999999999,-19380.915,-27187.515,-6119.054999999999,2065.545
1764764058.4786727,280.935,-1089.18,-27837.315,-6164.145,-19380.06,-27186.66,-6117.66,2065.5
1764764058.4786727,275.085,-1096.11,-27845.73,-6172.065,-19385.19,-27191.88,-6121.304999999999,2060.73
1764764058.5263467,276.345,-1095.795,-27846.0,-6170.445,-19381.23,-27187.47,-6118.83,2062.98
1764764058.5263467,277.2,-1095.75,-27843.48,-6167.745,-19379.34,-27186.03,-6118.29,2063.385
1764764058.5263467,277.695,-1095.39,-27842.4,-6166.8,-19379.115,-27185.76,-6117.929999999999,2063.205
1764764058.5263467,275.715,-1097.1,-27844.785,-6169.005,-19382.94,-27189.09,-6119.685,2060.82
1764764058.5263467,275.805,-1096.425,-27844.38,-6168.69,-19382.67,-27188.955,-6119.82,2061.135
1764764058.5263467,276.795,-1093.59,-27841.32,-6165.764999999999,-19379.385,-27187.155,-6119.46,2062.26
1764764058.5263467,276.39,-1093.815,-27841.905,-6166.17,-19380.465,-27188.685,-6119.37,2061.405
1764764058.5263467,281.655,-1089.675,-27837.765,-6162.3,-19376.505,-27184.095,-6115.815,2066.22
1764764058.5263467,281.88,-1089.63,-27838.305,-6163.065,-19376.46,-27183.915,-6115.724999999999,2066.445
1764764058.5263467,276.255,-1095.39,-27843.84,-6168.465,-19381.32,-27188.955,-6119.594999999999,2061.72
1764764058.5263467,275.085,-1096.515,-27844.875,-6169.32,-19383.48,-27191.07,-6120.315,2059.83
1764764058.5263467,279.135,-1091.52,-27840.015,-6164.37,-19379.43,-27187.605,-6117.885,2063.385
1764764058.5263467,280.485,-1090.215,-27838.08,-6162.66,-19377.18,-27185.94,-6115.905,2065.095
1764764058.5263467,278.82,-1091.61,-27839.34,-6163.83,-19378.395,-27186.48,-6116.264999999999,2063.385
1764764058.5263467,280.26,-1090.035,-27838.215,-6162.389999999999,-19377.765,-27186.03,-6115.995,2063.97
1764764058.5263467,282.06,-1087.875,-27835.875,-6159.78,-19375.74,-27184.365,-6114.78,2065.275
1764764058.5263467,286.425,-1083.42,-27830.565,-6154.155,-19370.655,-27180.63,-6111.45,2068.83
1764764058.5263467,285.615,-1083.78,-27829.89,-6153.165,-19370.34,-27180.72,-6110.82,2069.28
1764764058.5263467,286.335,-1082.7,-27828.405,-6151.905,-19368.675,-27178.74,-6109.785,2069.91
1764764058.5263467,283.68,-1086.345,-27832.95,-6156.495,-19372.815,-27182.565,-6112.665,2066.805
1764764058.5263467,280.305,-1091.34,-27840.285,-6162.84,-19377.54,-27186.255,-6114.69,2064.285
1764764058.5263467,276.345,-1096.515,-27845.865,-6167.88,-19380.78,-27188.82,-6116.804999999999,2061.945
1764764058.5263467,278.505,-1093.905,-27841.77,-6164.415,-19379.295,-27188.145,-6115.995,2062.8
1764764058.5263467,283.14,-1086.57,-27833.22,-6157.395,-19376.325,-27187.155,-6115.005,2065.32
1764764058.5747418,289.485,-1077.84,-27823.05,-6147.945,-19369.17,-27181.665,-6111.495,2069.955
1764764058.5747418,289.395,-1077.93,-27823.185,-6147.315,-19368.99,-27182.205,-6111.719999999999,2069.28
1764764058.5747418,278.685,-1093.59,-27841.545,-6163.92,-19379.97,-27189.27,-6116.445,2062.44
1764764058.5747418,273.375,-1103.13,-27852.615,-6172.83,-19382.715,-27189.27,-6117.66,2060.505
1764764058.5747418,274.095,-1101.195,-27849.42,-6170.49,-19382.265,-27189.765,-6117.75,2060.235
1764764058.5747418,271.53,-1102.815,-27850.545,-6171.929999999999,-19385.865,-27193.545,-6120.9,2056.545
1764764058.5747418,275.085,-1099.125,-27847.305,-6169.05,-19383.93,-27190.665,-6119.235,2059.74
1764764058.5747418,276.03,-1098.36,-27846.54,-6168.51,-19383.03,-27189.945,-6119.594999999999,2060.325
1764764058.5747418,278.235,-1095.345,-27843.525,-6165.945,-19380.375,-27188.415,-6117.615,2062.62
1764764058.5747418,276.21,-1096.245,-27845.055,-6169.545,-19384.605,-27192.51,-6119.054999999999,2060.73
1764764058.5747418,278.91,-1093.32,-27842.13,-6166.665,-19382.265,-27189.945,-6117.255,2063.655
1764764058.5747418,277.47,-1094.085,-27843.03,-6167.969999999999,-19384.245,-27191.88,-6118.425,2061.405
1764764058.5747418,274.905,-1096.02,-27845.955,-6170.355,-19387.215,-27194.715,-6120.0,2058.885
1764764058.5747418,277.245,-1092.6,-27841.365,-6166.08,-19382.895,-27192.465,-6117.84,2061.27
1764764058.5747418,278.955,-1091.25,-27840.87,-6165.045,-19381.905,-27190.935,-6118.2,2061.63
1764764058.5747418,277.605,-1092.96,-27843.57,-6167.295,-19383.165,-27191.475,-6120.09,2060.82
1764764058.5747418,278.91,-1091.115,-27841.14,-6165.54,-19382.49,-27190.305,-6118.74,2062.575
1764764058.5747418,276.795,-1093.365,-27843.57,-6168.06,-19384.2,-27191.655,-6118.83,2060.91
1764764058.5747418,273.015,-1097.28,-27847.89,-6171.57,-19385.82,-27193.905,-6120.855,2057.535
1764764058.5747418,276.48,-1093.365,-27842.445,-6166.304999999999,-19381.275,-27189.765,-6119.054999999999,2060.055
1764764058.5747418,274.41,-1094.715,-27843.795,-6167.52,-19382.715,-27190.755,-6119.639999999999,2058.39
1764764058.5747418,276.21,-1092.735,-27841.725,-6165.315,-19380.825,-27189.18,-6117.57,2060.685
1764764058.622373,280.53,-1088.1,-27836.955,-6161.264999999999,-19376.415,-27185.67,-6113.7,2065.41
1764764058.622373,278.055,-1089.675,-27839.025,-6164.054999999999,-19379.07,-27188.55,-6114.69,2062.845
1764764058.622373,280.935,-1085.895,-27836.325,-6161.625,-19378.305,-27187.155,-6113.655,2065.095
1764764058.622373,275.985,-1090.44,-27840.195,-6165.9,-19383.03,-27192.69,-6118.695,2059.65
1764764058.622373,276.48,-1091.07,-27840.69,-6166.53,-19383.57,-27193.635,-6119.73,2059.785
1764764058.622373,278.505,-1089.54,-27840.465,-6165.045,-19380.465,-27189.45,-6116.67,2063.43
1764764058.622373,274.545,-1093.59,-27845.73,-6169.545,-19383.39,-27190.98,-6117.435,2061.045
1764764058.622373,275.85,-1093.455,-27846.765,-6169.275,-19382.58,-27190.305,-6116.804999999999,2061.72
1764764058.622373,275.13,-1094.22,-27846.27,-6169.365,-19383.165,-27190.53,-6116.804999999999,2061.18
1764764058.622373,279.855,-1089.36,-27841.23,-6163.605,-19377.225,-27185.49,-6112.575,2066.22
1764764058.622373,281.385,-1087.605,-27839.655,-6161.804999999999,-19375.74,-27185.22,-6112.08,2067.525
1764764058.622373,280.305,-1089.045,-27839.97,-6163.38,-19377.405,-27186.615,-6112.215,2066.67
1764764058.622373,280.395,-1089.27,-27840.105,-6163.514999999999,-19377.675,-27186.345,-6111.27,2066.895
1764764058.622373,278.28,-1091.25,-27842.85,-6166.035,-19380.87,-27188.595,-6113.34,2064.195
1764764058.622373,275.13,-1094.31,-27845.19,-6168.78,-19383.93,-27192.06,-6115.59,2061.0
1764764058.622373,278.73,-1091.07,-27841.59,-6165.405,-19380.69,-27188.955,-6113.07,2064.33
1764764058.622373,284.58,-1085.355,-27836.505,-6158.835,-19374.57,-27183.105,-6108.57,2069.82
1764764058.622373,284.085,-1086.03,-27836.64,-6158.7,-19373.76,-27182.97,-6109.335,2069.28
1764764058.622373,283.005,-1086.21,-27836.685,-6159.69,-19374.21,-27184.725,-6111.224999999999,2068.11
1764764058.622373,283.095,-1085.58,-27836.37,-6160.185,-19375.83,-27185.895,-6112.17,2067.345
1764764058.622373,284.085,-1085.04,-27835.47,-6159.554999999999,-19376.82,-27187.515,-6112.215,2067.21
1764764058.622373,283.5,-1084.41,-27834.255,-6157.8,-19375.695,-27188.19,-6112.8,2066.58
1764764058.622373,291.69,-1073.97,-27821.52,-6145.605,-19366.02,-27181.035,-6107.49,2072.295
1764764058.622373,297.0,-1063.845,-27808.56,-6134.94,-19362.105,-27179.37,-6105.645,2074.185
1764764058.6654985,298.035,-1058.895,-27801.0,-6128.73,-19360.8,-27178.965,-6104.655,2074.23
1764764058.6660397,297.225,-1060.695,-27804.105,-6130.62,-19361.115,-27179.55,-6105.51,2074.05
1764764058.6660397,286.56,-1082.52,-27835.02,-6158.745,-19375.65,-27186.255,-6110.955,2070.72
1764764058.6660397,272.835,-1105.245,-27864.225,-6185.385,-19390.905,-27194.535,-6118.2,2062.755
1764764058.6660397,273.51,-1102.635,-27859.005,-6182.145,-19392.48,-27198.27,-6120.63,2060.865
1764764058.6660397,271.035,-1102.725,-27857.655,-6182.01,-19394.73,-27202.815,-6122.7,2056.545
1764764058.6660397,270.585,-1103.085,-27859.14,-6182.505,-19393.38,-27200.79,-6121.26,2057.535
1764764058.6660397,275.58,-1097.37,-27852.525,-6176.205,-19389.24,-27196.56,-6117.389999999999,2061.945
1764764058.6660397,282.735,-1088.595,-27842.895,-6167.07,-19383.12,-27190.26,-6111.719999999999,2068.65
1764764058.6670628,278.145,-1092.645,-27846.405,-6170.804999999999,-19387.665,-27193.905,-6114.105,2063.835
1764764058.6670628,278.91,-1092.645,-27845.91,-6169.094999999999,-19384.2,-27188.82,-6111.315,2065.635
1764764058.6670628,272.79,-1100.655,-27855.09,-6176.835,-19389.735,-27192.285,-6114.195,2060.37
1764764058.6670628,273.735,-1100.34,-27855.63,-6175.62,-19387.53,-27189.54,-6113.205,2061.495
1764764058.6670628,279.225,-1092.465,-27844.605,-6164.82,-19378.17,-27182.61,-6108.615,2066.22
1764764058.6675615,281.88,-1086.075,-27836.415,-6157.844999999999,-19375.02,-27182.115,-6107.13,2067.03
1764764058.6675615,288.45,-1076.67,-27825.84,-6147.675,-19368.54,-27177.885,-6103.349999999999,2072.025
1764764058.6675615,287.595,-1078.83,-27828.225,-6149.429999999999,-19369.755,-27178.02,-6103.304999999999,2071.395
1764764058.6675615,277.92,-1092.69,-27844.605,-6163.875,-19378.305,-27184.05,-6107.445,2064.735
1764764058.6675615,272.25,-1103.04,-27858.42,-6175.62,-19383.93,-27187.56,-6110.865,2062.125
1764764058.6675615,268.245,-1105.875,-27860.85,-6178.679999999999,-19388.43,-27193.095,-6115.005,2057.355
1764764058.6675615,272.7,-1099.35,-27853.335,-6171.795,-19383.93,-27189.495,-6112.71,2060.37
1764764058.6675615,274.185,-1097.235,-27850.905,-6170.535,-19382.67,-27188.505,-6112.17,2061.18
1764764058.6675615,277.245,-1093.995,-27847.35,-6167.07,-19379.07,-27185.58,-6110.775,2064.87
1764764058.6675615,278.505,-1093.14,-27846.09,-6165.27,-19378.08,-27184.995,-6110.28,2065.635
1764764058.7155504,279.045,-1092.465,-27846.0,-6166.665,-19380.915,-27187.155,-6110.594999999999,2065.185
1764764058.7155504,276.3,-1095.165,-27849.33,-6170.355,-19386.405,-27192.465,-6112.304999999999,2061.855
1764764058.7155504,276.12,-1094.805,-27847.89,-6168.87,-19384.02,-27191.25,-6111.81,2062.26
1764764058.7155504,278.955,-1091.205,-27843.795,-6164.415,-19379.88,-27187.65,-6109.875,2064.285
1764764058.7155504,284.805,-1084.95,-27836.865,-6158.52,-19374.84,-27183.195,-6105.78,2069.01
1764764058.7155504,281.16,-1086.03,-27838.53,-6160.95,-19378.26,-27187.065,-6108.389999999999,2065.905
1764764058.7155504,284.04,-1083.06,-27836.28,-6159.15,-19377.27,-27186.39,-6108.075,2068.785
1764764058.7155504,279.135,-1090.17,-27844.605,-6167.025,-19383.48,-27191.79,-6110.955,2064.735
1764764058.7155504,276.21,-1096.11,-27851.265,-6172.92,-19385.64,-27191.61,-6111.9,2062.755
1764764058.7155504,274.455,-1097.1,-27852.435,-6172.29,-19385.46,-27190.8,-6112.17,2061.27
1764764058.7155504,276.93,-1093.77,-27848.385,-6168.735,-19382.175,-27188.73,-6111.09,2063.25
1764764058.7155504,282.195,-1087.875,-27841.905,-6162.84,-19376.415,-27183.465,-6107.715,2067.435
1764764058.7155504,282.555,-1086.93,-27840.42,-6160.41,-19374.84,-27182.79,-6107.04,2067.84
1764764058.7155504,280.44,-1088.64,-27842.31,-6162.12,-19377.855,-27186.12,-6108.48,2065.32
1764764058.7155504,284.985,-1082.25,-27835.83,-6156.315,-19374.615,-27183.285,-6105.96,2069.64
1764764058.7155504,286.83,-1077.795,-27831.24,-6153.255,-19374.885,-27185.445,-6107.219999999999,2070.495
1764764058.7155504,287.01,-1076.67,-27830.79,-6152.264999999999,-19375.515,-27186.3,-6107.58,2070.765
1764764058.7155504,277.965,-1088.865,-27844.335,-6164.865,-19383.255,-27191.79,-6112.215,2063.61
1764764058.7155504,272.745,-1096.875,-27853.92,-6173.415,-19387.755,-27194.445,-6115.275,2060.19
1764764058.7155504,277.02,-1091.295,-27848.115,-6166.98,-19382.13,-27189.225,-6112.304999999999,2063.745
1764764058.7155504,278.46,-1088.415,-27844.065,-6163.02,-19379.79,-27187.245,-6110.639999999999,2064.375
1764764058.7155504,271.575,-1097.955,-27853.83,-6172.965,-19386.54,-27192.465,-6113.61,2059.155
1764764058.7155504,270.855,-1101.24,-27857.97,-6177.24,-19388.43,-27194.13,-6113.925,2058.795
1764764058.7155504,273.555,-1096.02,-27852.03,-6172.2,-19385.505,-27192.555,-6112.349999999999,2060.685
1764764058.7595496,278.235,-1089.0,-27844.605,-6165.54,-19381.005,-27188.91,-6109.11,2063.88
1764764058.7595496,275.31,-1091.52,-27845.82,-6167.295,-19385.055,-27193.635,-6113.115,2059.695
1764764058.7595496,280.17,-1086.48,-27838.665,-6160.185,-19379.385,-27189.45,-6111.045,2063.61
1764764058.7595496,277.56,-1088.91,-27841.725,-6163.245,-19381.59,-27191.25,-6111.54,2062.035
1764764058.7595496,279.135,-1087.695,-27841.32,-6162.255,-19377.99,-27187.38,-6108.84,2064.78
1764764058.7595496,276.48,-1091.07,-27846.495,-6166.304999999999,-19380.555,-27189.18,-6109.605,2062.53
1764764058.7595496,278.055,-1091.655,-27848.97,-6168.375,-19380.96,-27187.515,-6109.02,2065.455
1764764058.7595496,276.435,-1094.58,-27851.85,-6170.985,-19384.47,-27189.585,-6110.505,2064.06
1764764058.7595496,273.735,-1096.155,-27852.39,-6173.145,-19387.17,-27192.33,-6112.304999999999,2060.73
1764764058.7595496,279.27,-1089.18,-27844.785,-6164.955,-19381.275,-27188.145,-6110.19,2065.23
1764764058.760056,280.8,-1087.83,-27842.265,-6162.75,-19380.465,-27188.64,-6110.865,2066.49
1764764058.760056,277.92,-1091.655,-27845.505,-6165.945,-19383.66,-27191.655,-6112.485,2063.925
1764764058.760056,277.785,-1092.15,-27846.27,-6166.755,-19383.93,-27192.015,-6111.675,2063.115
1764764058.760056,273.78,-1097.145,-27853.38,-6173.505,-19389.33,-27196.02,-6114.645,2058.93
1764764058.760056,272.745,-1098.495,-27854.055,-6173.82,-19388.43,-27195.075,-6113.969999999999,2059.56
1764764058.760056,276.21,-1094.265,-27848.61,-6169.905,-19385.865,-27192.78,-6112.62,2061.99
1764764058.760056,275.85,-1094.895,-27849.465,-6170.715,-19385.595,-27191.88,-6112.349999999999,2061.45
1764764058.760056,274.32,-1096.47,-27851.85,-6171.929999999999,-19385.505,-27192.105,-6112.755,2059.875
1764764058.760056,274.95,-1094.31,-27848.835,-6168.915,-19383.975,-27190.845,-6112.17,2059.92
1764764058.760056,276.21,-1092.105,-27846.72,-6167.34,-19384.605,-27192.33,-6111.99,2060.46
1764764058.761252,282.33,-1085.13,-27838.53,-6159.42,-19378.44,-27188.055,-6108.255,2065.545
1764764058.761252,280.485,-1086.885,-27839.88,-6160.679999999999,-19380.195,-27188.73,-6108.84,2064.285
1764764058.8075817,277.65,-1090.665,-27843.3,-6164.37,-19384.29,-27191.745,-6110.73,2061.855
1764764058.8075817,278.955,-1089.81,-27842.13,-6162.84,-19382.22,-27189.585,-6109.155,2063.295
1764764058.8075817,276.48,-1093.365,-27847.935,-6167.7,-19384.02,-27189.945,-6109.56,2062.215
1764764058.8075817,273.645,-1098.135,-27854.55,-6172.785,-19386.315,-27191.565,-6112.08,2060.46
1764764058.8075817,276.03,-1095.345,-27852.12,-6170.715,-19385.64,-27190.305,-6110.594999999999,2063.43
1764764058.8080957,281.295,-1089.99,-27846.135,-6165.315,-19381.365,-27186.615,-6107.4,2067.345
1764764058.8080957,280.575,-1090.755,-27847.17,-6166.665,-19384.245,-27189.63,-6108.57,2065.86
1764764058.8080957,277.245,-1093.41,-27848.97,-6168.735,-19387.305,-27193.005,-6110.505,2062.17
1764764058.8080957,280.215,-1089.225,-27844.29,-6164.639999999999,-19383.345,-27188.865,-6107.715,2066.175
1764764058.8080957,279.225,-1090.215,-27845.055,-6164.37,-19382.895,-27189.9,-6108.84,2064.645
1764764058.8080957,275.31,-1093.365,-27848.835,-6167.79,-19386.495,-27192.87,-6111.27,2060.685
1764764058.8080957,273.42,-1094.58,-27850.68,-6169.365,-19387.89,-27194.49,-6113.745,2058.84
1764764058.8080957,276.705,-1091.655,-27846.99,-6165.495,-19384.155,-27190.89,-6111.27,2061.765
1764764058.8080957,279.855,-1088.505,-27841.86,-6161.49,-19380.87,-27188.1,-6108.84,2064.465
1764764058.8080957,276.21,-1091.52,-27844.875,-6164.145,-19384.605,-27192.06,-6111.315,2060.595
1764764058.8080957,275.58,-1090.8,-27844.02,-6162.615,-19382.715,-27191.25,-6110.955,2059.605
1764764058.8080957,274.68,-1091.565,-27845.505,-6163.11,-19382.445,-27190.305,-6111.09,2060.145
1764764058.8080957,274.41,-1093.41,-27849.375,-6167.07,-19384.02,-27189.855,-6110.55,2061.63
1764764058.8080957,279.0,-1092.195,-27848.79,-6166.889999999999,-19383.075,-27187.83,-6108.255,2064.735
1764764058.8080957,279.36,-1091.385,-27848.25,-6168.96,-19387.44,-27192.735,-6110.505,2063.115
1764764058.8080957,280.17,-1087.155,-27843.705,-6166.08,-19388.745,-27195.795,-6110.91,2062.62
1764764058.8080957,282.96,-1081.305,-27835.92,-6157.71,-19382.13,-27191.115,-6108.75,2065.05
1764764058.8548083,285.345,-1080.09,-27834.975,-6156.764999999999,-19377.99,-27186.48,-6106.679999999999,2068.155
1764764058.8548083,278.595,-1092.51,-27850.455,-6170.13,-19384.965,-27189.045,-6108.885,2063.925
1764764058.8548083,273.96,-1096.965,-27854.145,-6172.38,-19388.205,-27192.24,-6110.73,2059.425
1764764058.8548083,276.705,-1089.945,-27845.55,-6165.224999999999,-19386.27,-27192.555,-6109.65,2060.37
1764764058.855312,279.72,-1085.805,-27841.32,-6162.705,-19385.1,-27191.925,-6109.785,2062.26
1764764058.855312,280.395,-1088.19,-27845.19,-6165.27,-19382.58,-27188.73,-6108.344999999999,2064.6
1764764058.855312,276.165,-1095.84,-27854.685,-6172.02,-19384.335,-27189.18,-6108.974999999999,2062.08
1764764058.855312,274.095,-1096.74,-27855.045,-6173.054999999999,-19386.45,-27191.52,-6111.99,2059.155
1764764058.855312,273.78,-1096.515,-27853.065,-6170.895,-19384.92,-27190.845,-6111.27,2058.39
1764764058.855312,272.61,-1097.19,-27854.865,-6172.065,-19387.26,-27193.725,-6112.485,2056.86
1764764058.855312,276.255,-1092.555,-27850.5,-6168.96,-19383.705,-27189.945,-6110.099999999999,2061.36
1764764058.855312,277.74,-1091.07,-27847.8,-6167.34,-19383.84,-27189.585,-6109.74,2062.08
1764764058.855312,279.405,-1088.055,-27844.605,-6165.315,-19385.55,-27191.835,-6110.235,2062.665
1764764058.855312,278.73,-1088.37,-27844.47,-6165.179999999999,-19386.09,-27193.545,-6110.865,2061.585
1764764058.855312,274.995,-1093.005,-27850.275,-6169.679999999999,-19388.745,-27196.29,-6112.215,2058.57
1764764058.855312,273.96,-1095.975,-27854.685,-6173.955,-19390.14,-27196.065,-6112.889999999999,2058.435
1764764058.855312,277.11,-1093.77,-27853.335,-6171.84,-19386.855,-27192.42,-6109.965,2061.81
1764764058.855312,274.365,-1095.57,-27853.425,-6171.615,-19388.655,-27195.975,-6111.99,2058.93
1764764058.855312,277.785,-1091.295,-27848.79,-6167.474999999999,-19385.415,-27192.195,-6110.28,2062.62
1764764058.855312,276.57,-1094.445,-27852.255,-6170.804999999999,-19387.665,-27194.04,-6111.585,2061.27
1764764058.855312,276.84,-1093.545,-27850.68,-6169.139999999999,-19387.215,-27194.445,-6111.135,2060.505
1764764058.855312,275.58,-1094.265,-27851.265,-6169.724999999999,-19387.62,-27195.75,-6112.26,2058.345
1764764058.855312,272.52,-1096.74,-27854.55,-6173.054999999999,-19391.58,-27198.315,-6113.52,2054.97
1764764058.855312,274.455,-1094.4,-27851.58,-6169.724999999999,-19388.925,-27195.3,-6111.495,2058.345
1764764058.855312,278.055,-1091.16,-27847.62,-6165.09,-19383.84,-27191.025,-6108.615,2061.225
1764764058.855312,275.13,-1093.815,-27850.05,-6169.995,-19388.61,-27195.66,-6111.495,2058.705
1764764058.9017518,276.345,-1093.365,-27850.95,-6170.264999999999,-19387.26,-27194.13,-6110.685,2060.955
1764764058.9017518,272.25,-1097.91,-27854.955,-6174.09,-19391.85,-27198.45,-6112.935,2056.59
1764764058.9017518,273.105,-1099.665,-27856.89,-6177.014999999999,-19393.515,-27197.82,-6112.17,2057.085
1764764058.9017518,272.43,-1100.565,-27858.24,-6178.59,-19393.785,-27196.47,-6111.63,2057.58
1764764058.9017518,269.235,-1103.085,-27861.615,-6180.929999999999,-19396.215,-27199.575,-6113.429999999999,2054.88
1764764058.9017518,272.655,-1098.09,-27856.035,-6175.08,-19392.075,-27197.415,-6111.945,2058.3
1764764058.9017518,275.04,-1095.435,-27853.965,-6171.885,-19389.87,-27195.975,-6110.415,2059.74
1764764058.9017518,277.695,-1093.14,-27851.715,-6169.905,-19386.99,-27193.815,-6108.389999999999,2061.36
1764764058.9017518,277.785,-1092.78,-27851.58,-6169.95,-19387.305,-27193.905,-6108.615,2060.73
1764764058.9017518,279.765,-1090.845,-27848.295,-6168.24,-19386.36,-27193.32,-6107.355,2062.125
1764764058.902274,279.405,-1089.72,-27847.755,-6167.565,-19386.045,-27193.59,-6107.445,2062.305
1764764058.902274,275.355,-1092.735,-27850.095,-6170.355,-19389.96,-27198.09,-6110.37,2058.48
1764764058.902274,275.895,-1092.69,-27851.58,-6170.219999999999,-19389.6,-27197.325,-6109.29,2059.92
1764764058.902274,278.055,-1091.79,-27852.39,-6169.545,-19386.765,-27193.86,-6107.31,2063.25
1764764058.902274,278.595,-1091.25,-27851.94,-6170.58,-19388.655,-27194.805,-6107.895,2062.98
1764764058.902274,278.685,-1090.71,-27849.285,-6169.32,-19388.34,-27194.94,-6108.3,2062.035
1764764058.902274,278.82,-1087.74,-27844.92,-6164.775,-19385.28,-27194.265,-6107.94,2062.215
1764764058.902274,274.95,-1092.915,-27851.535,-6171.48,-19390.905,-27199.44,-6111.764999999999,2058.435
1764764058.902274,269.19,-1102.14,-27863.595,-6180.84,-19395.495,-27202.185,-6114.375,2055.285
1764764058.902274,270.495,-1100.43,-27862.38,-6178.455,-19393.155,-27199.575,-6112.575,2056.635
1764764058.902274,275.175,-1094.13,-27855.585,-6174.0,-19391.31,-27197.865,-6110.685,2060.235
1764764058.902274,271.35,-1096.38,-27856.305,-6175.755,-19395.99,-27203.625,-6114.69,2055.195
1764764058.902274,270.99,-1096.965,-27856.215,-6175.8,-19394.865,-27202.905,-6114.87,2054.745
1764764058.902274,272.07,-1096.515,-27856.8,-6176.115,-19393.92,-27202.365,-6113.205,2056.455
1764764058.9490268,270.135,-1100.43,-27861.84,-6179.715,-19396.305,-27203.13,-6114.195,2055.285
1764764058.9490268,270.135,-1101.465,-27862.965,-6180.705,-19396.98,-27202.455,-6115.05,2055.195
1764764058.9490268,272.025,-1097.685,-27858.825,-6177.42,-19394.505,-27200.565,-6113.34,2056.635
1764764058.9490268,273.105,-1095.66,-27855.855,-6174.315,-19391.445,-27199.08,-6111.45,2057.715
1764764058.9490268,273.015,-1095.3,-27856.26,-6174.179999999999,-19391.895,-27199.17,-6111.63,2058.03
1764764058.9490268,275.76,-1091.79,-27852.975,-6171.885,-19389.69,-27197.145,-6109.38,2061.27
1764764058.9490268,282.51,-1086.48,-27848.655,-6167.429999999999,-19384.965,-27192.465,-6104.565,2066.67
1764764058.9490268,278.73,-1089.54,-27851.76,-6170.13,-19387.62,-27195.615,-6108.075,2063.025
1764764058.9490268,276.975,-1091.205,-27853.47,-6171.885,-19388.25,-27196.29,-6108.48,2061.36
1764764058.9490268,276.57,-1091.79,-27853.515,-6173.325,-19390.05,-27197.595,-6108.795,2060.235
1764764058.9490268,279.72,-1089.09,-27850.005,-6170.76,-19388.655,-27196.155,-6107.895,2062.755
1764764058.9490268,277.92,-1090.26,-27851.265,-6171.705,-19392.12,-27199.53,-6110.415,2059.83
1764764058.9490268,279.72,-1087.875,-27848.79,-6169.005,-19390.23,-27197.73,-6109.875,2061.675
1764764058.9490268,279.495,-1088.73,-27851.04,-6170.4,-19389.465,-27196.02,-6109.02,2063.16
1764764058.9490268,275.22,-1092.195,-27854.775,-6173.37,-19391.67,-27199.17,-6111.36,2058.795
1764764058.9490268,279.63,-1088.1,-27848.88,-6166.71,-19385.73,-27194.49,-6107.264999999999,2062.53
1764764058.9490268,279.855,-1088.235,-27848.565,-6166.665,-19385.28,-27194.265,-6106.59,2062.755
1764764058.9490268,276.39,-1091.205,-27852.255,-6170.31,-19387.35,-27195.48,-6108.66,2059.965
1764764058.9490268,274.095,-1094.22,-27854.955,-6172.514999999999,-19389.24,-27197.415,-6109.56,2057.49
1764764058.9490268,276.84,-1091.34,-27852.39,-6170.13,-19388.565,-27197.19,-6108.3,2059.425
1764764058.9490268,280.26,-1087.605,-27848.16,-6166.304999999999,-19385.505,-27193.185,-6105.69,2062.125
1764764058.9490268,277.605,-1088.595,-27850.455,-6167.88,-19387.755,-27195.66,-6106.5,2060.055
1764764058.997415,277.605,-1089.135,-27851.4,-6169.23,-19389.195,-27197.415,-6108.165,2059.56
1764764058.997415,278.055,-1090.35,-27852.93,-6170.804999999999,-19389.15,-27196.83,-6107.715,2060.91
1764764058.997415,278.685,-1091.43,-27854.865,-6172.695,-19389.555,-27194.94,-6107.445,2062.755
1764764058.997415,278.73,-1090.485,-27854.28,-6172.425,-19390.86,-27196.65,-6107.264999999999,2062.215
1764764058.997415,278.73,-1088.325,-27852.345,-6170.49,-19389.465,-27196.335,-6106.86,2062.215
1764764058.997415,273.06,-1094.04,-27856.98,-6176.07,-19394.235,-27201.285,-6110.775,2057.355
1764764058.997415,270.72,-1095.84,-27858.915,-6177.24,-19397.025,-27203.76,-6113.835,2054.97
1764764058.997415,270.81,-1094.355,-27857.295,-6175.755,-19396.35,-27203.265,-6113.969999999999,2055.33
1764764058.997415,275.31,-1090.8,-27853.155,-6171.12,-19390.41,-27197.955,-6111.495,2059.47
1764764058.997415,277.695,-1089.09,-27851.355,-6168.51,-19387.755,-27195.66,-6108.615,2060.955
1764764058.997415,277.245,-1087.47,-27849.24,-6166.035,-19386.36,-27196.425,-6107.264999999999,2060.595
1764764058.997415,272.25,-1093.545,-27855.765,-6172.065,-19391.04,-27200.565,-6109.605,2056.545
1764764058.997415,270.945,-1096.11,-27858.96,-6174.99,-19392.03,-27199.98,-6110.099999999999,2055.87
1764764058.997415,270.18,-1096.965,-27859.95,-6175.8,-19393.11,-27200.565,-6112.035,2055.465
1764764058.997415,270.765,-1097.415,-27862.29,-6177.645,-19394.01,-27200.565,-6112.08,2057.085
1764764058.997415,268.605,-1099.98,-27865.89,-6182.01,-19399.995,-27206.145,-6114.78,2053.98
1764764058.997415,272.34,-1096.605,-27862.29,-6179.445,-19398.87,-27205.695,-6113.565,2056.185
1764764058.997415,276.57,-1092.15,-27857.43,-6174.45,-19393.245,-27200.43,-6110.505,2059.83
1764764058.997415,275.13,-1092.87,-27858.06,-6173.46,-19392.48,-27200.745,-6110.235,2058.48
1764764058.997415,278.37,-1088.73,-27853.785,-6169.32,-19388.25,-27196.515,-6107.58,2061.36
1764764058.997415,278.46,-1088.865,-27852.93,-6169.455,-19388.835,-27196.74,-6107.804999999999,2061.27
1764764058.997415,278.19,-1088.82,-27852.39,-6169.32,-19390.275,-27198.675,-6108.165,2060.73
1764764058.997415,276.255,-1090.395,-27853.695,-6171.929999999999,-19392.39,-27201.15,-6110.37,2059.065
1764764058.997415,274.635,-1092.06,-27856.26,-6174.0,-19392.435,-27200.61,-6110.19,2058.21
1764764059.04045,275.715,-1090.215,-27855.99,-6172.875,-19390.41,-27198.945,-6108.57,2059.335
1764764059.04045,274.95,-1092.06,-27857.79,-6175.349999999999,-19392.66,-27201.105,-6109.245,2058.75
1764764059.04045,271.35,-1095.525,-27860.805,-6179.04,-19397.385,-27205.29,-6112.215,2054.97
1764764059.04045,276.795,-1088.19,-27852.3,-6171.57,-19392.345,-27200.52,-6109.065,2060.73
1764764059.04045,279.945,-1084.545,-27847.845,-6167.52,-19389.24,-27198.45,-6107.13,2062.71
1764764059.04045,277.065,-1087.695,-27852.255,-6171.3,-19392.165,-27199.755,-6108.615,2061.225
1764764059.04045,271.665,-1096.47,-27862.695,-6179.49,-19395.855,-27201.465,-6111.585,2057.895
1764764059.04045,269.01,-1100.475,-27866.925,-6182.099999999999,-19397.655,-27203.67,-6112.304999999999,2054.52
1764764059.04045,271.71,-1096.38,-27862.92,-6178.005,-19395.81,-27202.77,-6111.0,2055.465
1764764059.04045,277.245,-1088.91,-27855.9,-6172.83,-19393.29,-27200.475,-6108.435,2060.595
1764764059.04045,279.09,-1085.445,-27852.75,-6172.155,-19396.53,-27203.85,-6108.84,2061.63
1764764059.04045,278.37,-1085.625,-27851.67,-6171.929999999999,-19396.98,-27205.92,-6110.46,2059.38
1764764059.04045,279.09,-1086.48,-27852.975,-6171.66,-19393.38,-27201.24,-6108.615,2061.855
1764764059.04045,274.5,-1094.445,-27862.965,-6179.31,-19396.035,-27201.42,-6110.19,2058.93
1764764059.04045,271.485,-1097.055,-27865.215,-6180.84,-19397.025,-27203.265,-6110.55,2055.51
1764764059.04045,273.195,-1093.95,-27861.075,-6177.96,-19394.91,-27201.465,-6110.865,2056.32
1764764059.04045,273.645,-1092.78,-27860.625,-6176.429999999999,-19393.875,-27200.52,-6110.415,2056.725
1764764059.04045,274.275,-1092.33,-27859.77,-6175.62,-19394.055,-27200.25,-6109.469999999999,2056.725
1764764059.04045,270.585,-1095.66,-27862.965,-6179.76,-19398.51,-27204.93,-6111.945,2052.765
1764764059.0414734,272.07,-1093.995,-27861.795,-6178.094999999999,-19396.35,-27202.635,-6110.145,2054.565
1764764059.0414734,277.245,-1089.0,-27856.35,-6171.705,-19390.365,-27196.695,-6105.78,2060.73
1764764059.0414734,276.21,-1089.45,-27856.125,-6172.065,-19392.75,-27199.53,-6107.49,2058.84
1764764059.0915904,281.115,-1084.32,-27850.59,-6166.665,-19389.105,-27195.84,-6105.645,2062.485
1764764059.0915904,281.07,-1084.14,-27850.005,-6166.755,-19388.43,-27196.515,-6105.87,2061.585
1764764059.0915904,274.905,-1091.07,-27857.97,-6174.719999999999,-19394.28,-27201.33,-6109.514999999999,2055.51
1764764059.0915904,270.63,-1095.84,-27863.73,-6179.58,-19396.26,-27202.995,-6111.405,2053.35
1764764059.0915904,273.33,-1091.565,-27859.59,-6174.45,-19393.02,-27199.845,-6109.155,2056.23
1764764059.0915904,275.67,-1088.37,-27853.83,-6169.679999999999,-19389.915,-27198.0,-6107.49,2057.76
1764764059.0915904,274.545,-1088.865,-27855.315,-6170.895,-19391.04,-27199.62,-6109.02,2056.77
1764764059.0915904,275.625,-1087.245,-27855.63,-6171.12,-19391.265,-27199.665,-6107.849999999999,2058.12
1764764059.0915904,278.28,-1084.635,-27853.02,-6168.33,-19389.465,-27197.415,-6105.33,2061.18
1764764059.0915904,281.16,-1080.18,-27847.215,-6163.155,-19387.62,-27196.335,-6105.014999999999,2062.71
1764764059.0915904,283.995,-1075.005,-27840.465,-6157.26,-19384.38,-27194.85,-6103.889999999999,2063.79
1764764059.0915904,283.905,-1075.41,-27839.295,-6156.54,-19381.995,-27193.23,-6102.764999999999,2063.295
1764764059.0915904,281.07,-1079.505,-27843.57,-6160.32,-19384.02,-27194.04,-6103.215,2061.405
1764764059.0915904,275.625,-1088.235,-27852.57,-6167.88,-19387.98,-27196.515,-6104.969999999999,2057.805
1764764059.0925834,271.755,-1095.345,-27861.84,-6175.98,-19391.13,-27196.605,-6105.645,2056.32
1764764059.0925834,268.965,-1099.08,-27867.285,-6181.11,-19395.765,-27200.34,-6108.75,2054.475
1764764059.0925834,272.655,-1095.75,-27865.08,-6178.32,-19393.92,-27198.54,-6106.905,2057.265
1764764059.0925834,274.095,-1093.905,-27862.74,-6176.025,-19393.29,-27198.09,-6106.139999999999,2057.85
1764764059.0925834,281.25,-1085.355,-27854.055,-6167.745,-19386.315,-27192.195,-6101.37,2064.33
1764764059.0925834,282.285,-1084.95,-27852.75,-6166.44,-19385.955,-27192.195,-6100.74,2064.645
1764764059.0925834,282.555,-1083.78,-27850.545,-6164.19,-19385.28,-27191.43,-6099.795,2064.51
1764764059.0925834,281.205,-1083.69,-27849.375,-6163.74,-19387.035,-27193.95,-6101.325,2060.955
1764764059.0925834,284.13,-1080.18,-27846.0,-6162.255,-19386.72,-27194.04,-6101.37,2063.16
1764764059.0925834,281.655,-1082.07,-27848.7,-6166.665,-19391.985,-27199.395,-6103.98,2061.855
1764764059.1366172,283.545,-1080.315,-27849.96,-6169.815,-19396.44,-27202.23,-6105.915,2063.43
1764764059.1366172,274.365,-1091.745,-27863.82,-6181.425,-19402.29,-27206.01,-6109.785,2057.535
1764764059.1366172,271.62,-1096.695,-27869.22,-6184.26,-19401.615,-27203.805,-6108.885,2056.275
1764764059.1366172,272.655,-1094.13,-27864.495,-6180.3,-19399.455,-27201.69,-6106.95,2057.04
1764764059.1366172,279.135,-1085.265,-27855.135,-6171.255,-19392.885,-27195.435,-6102.63,2063.07
1764764059.1366172,276.885,-1086.795,-27857.52,-6172.155,-19393.965,-27197.955,-6105.195,2060.28
1764764059.1366172,275.58,-1088.28,-27858.915,-6172.74,-19394.055,-27198.315,-6106.455,2059.02
1764764059.1366172,274.905,-1089.405,-27859.77,-6175.08,-19395.9,-27199.755,-6108.03,2057.985
1764764059.1366172,274.545,-1089.225,-27859.77,-6175.844999999999,-19397.115,-27201.015,-6108.48,2057.355
1764764059.1366172,273.735,-1089.225,-27859.32,-6175.98,-19397.43,-27202.905,-6108.795,2055.105
1764764059.1366172,275.805,-1086.57,-27855.36,-6172.74,-19394.82,-27201.105,-6107.355,2055.96
1764764059.1376295,276.48,-1084.41,-27853.425,-6170.355,-19392.615,-27199.17,-6105.69,2057.535
1764764059.1376295,279.45,-1082.88,-27853.245,-6167.969999999999,-19389.555,-27194.94,-6103.08,2061.135
1764764059.1376295,277.83,-1084.455,-27855.18,-6169.724999999999,-19390.455,-27197.1,-6103.485,2059.785
1764764059.1376295,278.415,-1081.665,-27851.94,-6167.655,-19391.58,-27199.44,-6105.554999999999,2060.01
1764764059.1376295,274.455,-1085.805,-27856.44,-6173.505,-19398.96,-27205.83,-6109.74,2055.78
1764764059.1376295,277.335,-1084.815,-27856.62,-6173.639999999999,-19397.115,-27202.995,-6107.625,2059.155
1764764059.1376295,272.43,-1092.24,-27866.115,-6181.425,-19400.805,-27203.265,-6108.48,2056.95
1764764059.1376295,269.325,-1095.84,-27869.4,-6185.429999999999,-19403.73,-27205.695,-6110.19,2054.16
1764764059.1376295,276.03,-1088.73,-27860.355,-6176.925,-19395.9,-27199.62,-6106.185,2059.245
1764764059.1376295,277.2,-1087.245,-27857.565,-6173.639999999999,-19394.055,-27197.865,-6105.51,2059.695
1764764059.1376295,273.285,-1091.43,-27860.4,-6176.565,-19396.89,-27201.825,-6108.75,2054.835
1764764059.1376295,273.735,-1090.53,-27860.04,-6176.25,-19395.855,-27201.87,-6108.615,2054.7
1764764059.1376295,277.02,-1085.805,-27856.62,-6172.56,-19392.345,-27198.54,-6105.33,2058.48
1764764059.1832843,281.25,-1082.61,-27851.94,-6167.205,-19386.945,-27194.445,-6102.135,2062.305
1764764059.1832843,278.505,-1085.535,-27854.595,-6170.13,-19390.095,-27197.415,-6104.16,2059.29
1764764059.1832843,274.32,-1089.675,-27860.445,-6176.52,-19395.315,-27201.465,-6106.59,2056.23
1764764059.1832843,277.11,-1087.92,-27859.365,-6176.16,-19393.74,-27199.215,-6104.835,2059.245
1764764059.1832843,277.11,-1087.83,-27860.445,-6177.285,-19396.665,-27200.97,-6105.825,2058.705
1764764059.1832843,274.905,-1089.675,-27861.12,-6178.455,-19399.095,-27203.04,-6107.355,2055.825
1764764059.1842844,274.77,-1088.91,-27859.59,-6176.205,-19397.385,-27202.095,-6108.12,2055.15
1764764059.1842844,277.02,-1086.03,-27854.955,-6170.895,-19393.02,-27198.72,-6105.105,2057.445
1764764059.1842844,278.73,-1084.365,-27852.435,-6168.014999999999,-19388.88,-27195.615,-6102.81,2059.245
1764764059.1842844,275.355,-1088.865,-27857.205,-6172.469999999999,-19392.3,-27198.225,-6105.014999999999,2056.455
1764764059.1842844,276.345,-1089.18,-27857.565,-6174.179999999999,-19394.46,-27199.89,-6106.59,2056.77
1764764059.1842844,273.51,-1091.97,-27860.355,-6177.15,-19396.845,-27202.14,-6107.94,2054.43
1764764059.1842844,278.64,-1086.3,-27855.405,-6170.625,-19391.085,-27196.245,-6104.07,2059.695
1764764059.1842844,277.83,-1087.155,-27858.24,-6173.505,-19394.37,-27199.98,-6105.735,2058.345
1764764059.1842844,272.79,-1092.555,-27864.81,-6180.344999999999,-19400.805,-27205.29,-6109.245,2053.485
1764764059.1852882,272.88,-1092.465,-27864.09,-6179.715,-19401.21,-27205.245,-6109.605,2053.26
1764764059.1852882,275.4,-1088.28,-27858.555,-6174.405,-19397.97,-27203.355,-6107.67,2056.05
1764764059.1852882,279.18,-1082.115,-27850.32,-6167.34,-19391.805,-27199.845,-6105.78,2059.065
1764764059.1852882,279.0,-1082.7,-27850.32,-6167.925,-19392.21,-27200.7,-6106.185,2057.76
1764764059.1852882,273.015,-1090.89,-27858.96,-6175.889999999999,-19397.745,-27204.12,-6108.84,2053.62
1764764059.1852882,277.38,-1088.82,-27858.33,-6173.505,-19393.245,-27198.18,-6103.889999999999,2059.47
1764764059.1852882,276.48,-1089.945,-27860.085,-6175.935,-19395.765,-27200.88,-6105.735,2057.985
1764764059.2279096,277.02,-1088.82,-27858.915,-6174.54,-19396.44,-27201.24,-6104.969999999999,2058.57
1764764059.2279096,274.545,-1090.215,-27860.985,-6176.61,-19399.275,-27204.03,-6106.905,2056.185
1764764059.2279096,279.09,-1085.175,-27854.37,-6170.219999999999,-19394.1,-27199.53,-6103.395,2060.235
1764764059.2279096,275.76,-1088.46,-27857.52,-6173.145,-19396.845,-27201.78,-6104.61,2056.995
1764764059.228447,276.3,-1088.1,-27858.195,-6172.425,-19396.62,-27201.465,-6104.25,2056.68
1764764059.228447,278.28,-1083.96,-27853.245,-6168.014999999999,-19394.37,-27199.845,-6103.395,2058.075
1764764059.228447,279.855,-1081.665,-27850.77,-6165.945,-19392.48,-27198.045,-6102.495,2060.37
1764764059.228447,277.11,-1085.49,-27854.685,-6169.545,-19394.505,-27199.755,-6102.719999999999,2057.895
1764764059.228447,281.34,-1082.07,-27852.525,-6166.62,-19391.715,-27196.965,-6100.469999999999,2062.485
1764764059.228447,276.705,-1087.11,-27859.23,-6174.495,-19399.995,-27203.895,-6105.51,2057.85
1764764059.228447,274.995,-1089.495,-27863.46,-6178.23,-19401.525,-27204.075,-6106.185,2057.895
1764764059.2295623,275.4,-1088.82,-27863.955,-6177.285,-19398.69,-27201.465,-6105.105,2059.02
1764764059.2295623,274.68,-1087.245,-27860.985,-6174.99,-19397.7,-27202.995,-6105.915,2056.005
1764764059.2295623,278.82,-1081.665,-27853.29,-6168.87,-19394.19,-27200.97,-6104.385,2058.03
1764764059.2295623,278.46,-1081.53,-27851.895,-6167.969999999999,-19394.46,-27201.69,-6104.115,2057.22
1764764059.2295623,279.675,-1079.955,-27851.13,-6165.63,-19391.22,-27198.0,-6102.045,2059.11
1764764059.2295623,276.75,-1085.49,-27857.34,-6171.75,-19395.945,-27200.745,-6103.395,2058.48
1764764059.2295623,273.375,-1092.015,-27866.655,-6180.165,-19402.02,-27204.435,-6105.24,2057.13
1764764059.2295623,275.175,-1089.405,-27863.55,-6178.905,-19402.02,-27205.245,-6104.52,2058.12
1764764059.2295623,273.375,-1089.63,-27863.865,-6180.66,-19404.855,-27208.395,-6107.31,2056.365
1764764059.2295623,272.43,-1090.845,-27865.44,-6182.46,-19405.26,-27209.07,-6107.804999999999,2055.645
1764764059.2295623,270.855,-1092.24,-27866.655,-6183.27,-19406.88,-27211.23,-6107.895,2053.26
1764764059.2295623,272.835,-1090.44,-27864.18,-6180.255,-19405.035,-27208.845,-6107.31,2054.745
1764764059.2295623,275.175,-1088.19,-27862.56,-6178.005,-19402.965,-27206.19,-6106.455,2056.995
1764764059.2735708,271.215,-1091.205,-27865.665,-6180.75,-19405.35,-27209.25,-6107.58,2053.305
1764764059.2735708,270.36,-1091.115,-27866.07,-6181.514999999999,-19406.205,-27209.52,-6107.804999999999,2052.54
1764764059.2735708,272.43,-1088.955,-27864.45,-6180.255,-19404.54,-27207.18,-6106.815,2054.745
1764764059.2735708,278.01,-1083.87,-27858.465,-6174.675,-19398.6,-27201.465,-6102.855,2060.415
1764764059.2735708,277.155,-1085.58,-27859.905,-6176.429999999999,-19400.13,-27202.95,-6102.54,2058.84
1764764059.2735708,269.505,-1093.005,-27868.365,-6183.81,-19407.015,-27209.025,-6107.804999999999,2052.54
1764764059.2735708,273.105,-1089.225,-27864.54,-6179.849999999999,-19403.37,-27204.93,-6105.87,2056.23
1764764059.2735708,272.295,-1089.72,-27865.08,-6180.3,-19404.0,-27205.605,-6105.825,2054.52
1764764059.2735708,271.215,-1091.25,-27866.655,-6181.92,-19404.225,-27206.46,-6106.5,2052.675
1764764059.2735708,271.035,-1091.07,-27867.015,-6181.83,-19404.72,-27206.82,-6107.04,2052.585
1764764059.2755785,268.245,-1093.275,-27869.22,-6184.125,-19407.69,-27208.665,-6108.615,2050.605
1764764059.2755785,269.46,-1091.88,-27866.61,-6181.74,-19406.115,-27207.9,-6108.12,2051.595
1764764059.2755785,273.015,-1086.57,-27860.355,-6176.385,-19402.695,-27206.505,-6106.86,2054.52
1764764059.2755785,277.335,-1080.045,-27852.93,-6169.815,-19397.925,-27202.5,-6104.25,2057.895
1764764059.2755785,279.36,-1077.615,-27850.365,-6166.53,-19393.605,-27199.485,-6102.224999999999,2060.01
1764764059.2755785,270.45,-1090.44,-27865.215,-6179.715,-19402.605,-27206.19,-6107.445,2053.035
1764764059.2755785,271.125,-1089.99,-27865.71,-6180.389999999999,-19402.74,-27204.75,-6106.815,2053.98
1764764059.2755785,271.485,-1088.64,-27864.27,-6180.705,-19405.395,-27208.17,-6107.13,2053.935
1764764059.2755785,273.825,-1087.695,-27862.965,-6180.12,-19405.08,-27207.0,-6107.04,2055.195
1764764059.2755785,268.11,-1093.815,-27869.895,-6186.06,-19408.995,-27210.735,-6110.865,2049.255
1764764059.2755785,268.11,-1093.725,-27868.86,-6184.98,-19406.925,-27208.665,-6110.28,2049.48
1764764059.2755785,270.99,-1088.28,-27862.29,-6177.87,-19403.1,-27206.865,-6110.054999999999,2051.055
1764764059.3233492,275.76,-1080.945,-27852.795,-6169.86,-19397.565,-27203.355,-6107.58,2055.555
1764764059.3233492,274.185,-1082.34,-27853.965,-6171.03,-19398.555,-27203.265,-6106.635,2054.205
1764764059.3233492,274.77,-1084.545,-27857.25,-6171.795,-19397.205,-27201.015,-6104.745,2055.96
1764764059.3233492,265.32,-1096.965,-27870.84,-6184.349999999999,-19405.845,-27207.09,-6110.46,2048.355
1764764059.3233492,264.015,-1099.935,-27875.655,-6187.77,-19407.24,-27206.595,-6110.28,2048.355
1764764059.3233492,261.405,-1103.22,-27879.525,-6192.315,-19411.965,-27210.69,-6112.125,2046.6
1764764059.3233492,265.59,-1098.945,-27876.375,-6189.84,-19412.19,-27210.375,-6110.955,2049.12
1764764059.3233492,271.71,-1092.105,-27869.58,-6184.125,-19408.365,-27207.09,-6108.12,2054.565
1764764059.3233492,272.43,-1091.655,-27868.815,-6184.26,-19409.49,-27208.53,-6108.165,2054.295
1764764059.3233492,269.415,-1093.995,-27870.255,-6185.79,-19411.965,-27210.915,-6109.38,2051.325
1764764059.3233492,270.135,-1092.645,-27867.87,-6182.46,-19409.895,-27209.07,-6108.84,2051.775
1764764059.3233492,273.195,-1088.595,-27862.47,-6177.285,-19405.305,-27206.37,-6106.679999999999,2054.295
1764764059.3233492,277.11,-1083.42,-27856.44,-6171.57,-19399.815,-27202.14,-6102.99,2058.3
1764764059.3233492,270.72,-1091.97,-27866.61,-6181.245,-19405.98,-27207.0,-6107.219999999999,2052.945
1764764059.3233492,270.585,-1093.725,-27868.905,-6182.099999999999,-19405.44,-27205.02,-6106.905,2053.395
1764764059.3233492,268.965,-1094.985,-27870.525,-6183.315,-19408.095,-27207.945,-6108.03,2051.37
1764764059.3233492,271.8,-1090.89,-27866.295,-6179.58,-19405.53,-27205.875,-6106.905,2052.81
1764764059.3233492,275.58,-1086.12,-27860.895,-6174.45,-19401.345,-27202.365,-6104.655,2057.13
1764764059.3233492,276.435,-1085.04,-27859.545,-6173.775,-19400.715,-27201.87,-6103.485,2057.895
1764764059.3233492,275.31,-1087.02,-27862.065,-6175.889999999999,-19402.38,-27202.77,-6104.34,2056.545
1764764059.3233492,271.035,-1092.555,-27867.15,-6181.335,-19407.15,-27206.415,-6107.264999999999,2052.855
1764764059.3233492,271.575,-1092.33,-27867.195,-6181.695,-19406.52,-27205.965,-6106.455,2053.935
1764764059.3233492,275.13,-1088.505,-27864.18,-6177.87,-19401.93,-27201.735,-6103.889999999999,2057.49
1764764059.3233492,270.855,-1091.61,-27866.295,-6179.94,-19404.27,-27205.695,-6106.635,2053.44
1764764059.3660083,275.535,-1085.805,-27858.915,-6173.55,-19399.725,-27200.97,-6103.62,2056.545
1764764059.3660083,276.93,-1082.655,-27853.515,-6168.735,-19398.375,-27200.115,-6103.485,2056.545
1764764059.3660083,275.535,-1081.935,-27852.435,-6167.79,-19399.77,-27203.355,-6104.655,2055.555
1764764059.3660083,273.78,-1085.58,-27856.89,-6173.639999999999,-19404.495,-27206.37,-6105.87,2054.655
1764764059.3660083,268.11,-1095.165,-27869.58,-6185.745,-19411.74,-27209.34,-6108.3,2051.28
1764764059.3660083,266.175,-1097.73,-27874.62,-6189.48,-19412.955,-27209.16,-6108.929999999999,2050.74
1764764059.3660083,271.755,-1091.34,-27867.24,-6183.045,-19408.41,-27205.965,-6106.545,2054.97
1764764059.3660083,273.195,-1089.495,-27864.315,-6179.625,-19406.34,-27204.75,-6105.42,2055.87
1764764059.3660083,271.98,-1090.755,-27866.475,-6181.29,-19406.25,-27204.255,-6105.33,2055.33
1764764059.3660083,271.17,-1091.655,-27867.015,-6181.605,-19406.07,-27205.155,-6106.679999999999,2054.43
1764764059.3660083,272.7,-1090.8,-27865.755,-6180.435,-19405.08,-27203.94,-6105.465,2055.6
1764764059.3660083,272.25,-1091.025,-27865.845,-6180.615,-19405.845,-27204.57,-6105.78,2054.79
1764764059.3660083,270.585,-1092.105,-27867.15,-6181.469999999999,-19406.115,-27204.165,-6106.139999999999,2053.755
1764764059.3660083,268.83,-1093.5,-27868.545,-6182.054999999999,-19407.69,-27205.065,-6107.535,2051.595
1764764059.3660083,267.885,-1094.67,-27869.04,-6183.315,-19410.12,-27207.18,-6108.165,2049.795
1764764059.3660083,270.585,-1091.61,-27865.125,-6180.165,-19408.545,-27206.505,-6106.5,2051.64
1764764059.3660083,274.185,-1088.55,-27861.39,-6176.745,-19406.205,-27205.515,-6105.645,2053.8
1764764059.3673544,278.73,-1084.455,-27856.8,-6171.48,-19400.265,-27200.205,-6102.585,2058.795
1764764059.3673544,279.81,-1082.385,-27854.19,-6168.87,-19398.645,-27198.945,-6100.11,2059.92
1764764059.3673544,277.605,-1082.565,-27853.74,-6168.87,-19400.895,-27202.545,-6102.27,2056.095
1764764059.3673544,280.98,-1079.55,-27850.995,-6166.215,-19398.015,-27199.62,-6100.469999999999,2059.38
1764764059.3673544,273.105,-1089.675,-27863.325,-6177.24,-19405.08,-27204.255,-6103.98,2053.845
1764764059.3673544,268.065,-1098.09,-27873.135,-6184.98,-19408.455,-27204.12,-6105.87,2051.235
1764764059.3673544,262.53,-1103.13,-27877.05,-6188.535,-19411.92,-27207.765,-6108.795,2046.645
1764764059.4146445,263.205,-1102.995,-27876.24,-6187.86,-19412.37,-27208.665,-6108.795,2046.645
1764764059.4146445,262.845,-1102.275,-27876.015,-6187.365,-19412.73,-27209.88,-6109.83,2045.97
1764764059.4146445,263.295,-1101.285,-27874.755,-6186.24,-19412.73,-27210.195,-6110.775,2046.195
1764764059.4146445,269.505,-1093.995,-27865.8,-6178.59,-19406.565,-27205.38,-6106.365,2051.64
1764764059.4146445,273.69,-1088.685,-27859.905,-6173.19,-19404.0,-27203.13,-6103.08,2054.88
1764764059.4146445,274.59,-1087.74,-27859.5,-6173.054999999999,-19405.26,-27205.02,-6103.844999999999,2053.755
1764764059.4146445,272.34,-1090.305,-27861.615,-6174.63,-19406.295,-27206.055,-6104.295,2052.27
1764764059.4146445,267.795,-1095.84,-27867.78,-6180.525,-19409.715,-27208.71,-6106.545,2049.12
1764764059.4146445,267.255,-1097.505,-27869.805,-6181.514999999999,-19408.635,-27207.855,-6107.715,2049.435
1764764059.4146445,265.095,-1099.125,-27870.84,-6182.37,-19409.49,-27207.945,-6108.75,2047.995
1764764059.4146445,263.835,-1099.665,-27870.795,-6182.235,-19411.92,-27211.14,-6110.28,2044.62
1764764059.4146445,266.985,-1095.615,-27867.285,-6179.04,-19409.04,-27209.565,-6109.065,2046.87
1764764059.4146445,267.885,-1096.11,-27870.93,-6181.875,-19408.635,-27208.035,-6107.625,2049.705
1764764059.4146445,267.3,-1097.1,-27873.27,-6184.08,-19409.67,-27208.755,-6107.355,2050.2
1764764059.4146445,269.91,-1092.69,-27868.815,-6181.29,-19410.12,-27208.98,-6106.32,2051.325
1764764059.4146445,269.145,-1093.455,-27867.51,-6179.04,-19410.345,-27209.475,-6107.219999999999,2049.3
1764764059.4146445,268.2,-1093.68,-27866.025,-6177.42,-19410.57,-27210.645,-6107.445,2047.77
1764764059.4146445,273.915,-1086.93,-27858.105,-6170.49,-19404.54,-27205.92,-6104.745,2051.955
1764764059.4146445,273.6,-1086.48,-27858.96,-6170.76,-19403.865,-27205.065,-6104.745,2051.91
1764764059.4146445,268.155,-1093.77,-27867.06,-6178.139999999999,-19408.455,-27208.08,-6106.905,2048.535
1764764059.4146445,267.48,-1097.325,-27871.2,-6180.75,-19408.77,-27206.505,-6105.69,2049.57
1764764059.4146445,264.285,-1100.79,-27875.52,-6186.105,-19413.99,-27211.095,-6108.615,2045.97
1764764059.4146445,269.37,-1093.77,-27867.915,-6177.78,-19408.14,-27207.045,-6105.645,2050.29
1764764059.4146445,272.07,-1090.8,-27863.505,-6173.91,-19405.395,-27204.84,-6104.34,2052.405
1764764059.461433,268.335,-1094.67,-27867.195,-6179.31,-19411.695,-27211.185,-6109.83,2047.77
1764764059.461433,260.46,-1104.255,-27879.165,-6191.37,-19421.865,-27219.24,-6115.635,2041.785
1764764059.461433,262.395,-1102.77,-27878.625,-6190.38,-19420.335,-27216.99,-6114.554999999999,2044.53
1764764059.461433,263.97,-1099.395,-27873.675,-6185.7,-19416.195,-27214.605,-6112.08,2045.295
1764764059.461433,266.4,-1097.64,-27872.64,-6183.99,-19413.18,-27211.365,-6110.145,2047.815
1764764059.461433,261.405,-1103.58,-27879.39,-6189.795,-19417.14,-27214.515,-6112.62,2044.17
1764764059.461433,262.755,-1101.33,-27876.78,-6187.05,-19415.07,-27212.94,-6111.495,2045.475
1764764059.461433,265.815,-1097.28,-27871.515,-6182.73,-19412.1,-27209.565,-6109.605,2048.085
1764764059.461433,263.97,-1098.09,-27871.47,-6182.28,-19412.955,-27211.86,-6109.605,2046.105
1764764059.461433,265.5,-1095.705,-27869.085,-6179.4,-19410.75,-27210.645,-6109.245,2047.77
1764764059.461433,269.82,-1090.485,-27864.36,-6174.63,-19406.655,-27206.955,-6106.635,2052.045
1764764059.461433,267.255,-1093.23,-27865.89,-6176.61,-19408.5,-27208.665,-6108.705,2048.985
1764764059.461433,261.63,-1099.44,-27873.225,-6184.62,-19415.07,-27214.335,-6112.44,2044.8
1764764059.461433,262.53,-1099.44,-27875.115,-6187.275,-19419.39,-27217.305,-6114.014999999999,2044.305
1764764059.461433,266.67,-1095.615,-27870.93,-6183.675,-19415.745,-27213.975,-6112.08,2046.96
1764764059.461433,266.535,-1096.29,-27871.335,-6184.62,-19414.62,-27212.445,-6110.775,2047.68
1764764059.461433,269.82,-1094.265,-27869.355,-6181.875,-19411.155,-27207.855,-6107.67,2051.685
1764764059.461433,267.435,-1096.065,-27870.84,-6182.639999999999,-19411.515,-27208.305,-6107.985,2049.66
1764764059.461433,264.51,-1099.26,-27874.89,-6185.79,-19414.665,-27212.04,-6109.785,2045.925
1764764059.461433,268.92,-1095.21,-27871.11,-6181.965,-19411.02,-27208.44,-6106.815,2050.155
1764764059.461433,269.325,-1093.995,-27869.49,-6181.02,-19409.94,-27207.945,-6106.05,2050.335
1764764059.461433,263.43,-1097.865,-27873.09,-6184.71,-19414.26,-27213.39,-6110.19,2044.35
1764764059.5083213,263.52,-1096.38,-27870.93,-6182.28,-19412.19,-27212.085,-6110.37,2045.025
1764764059.5083213,265.77,-1094.22,-27868.905,-6180.165,-19409.58,-27208.665,-6108.03,2047.77
1764764059.5083213,262.305,-1099.53,-27874.71,-6185.79,-19414.17,-27211.365,-6109.605,2044.485
1764764059.5083213,265.185,-1096.83,-27873.27,-6184.62,-19411.92,-27209.34,-6108.705,2046.33
1764764059.5096087,264.195,-1097.01,-27873.315,-6185.429999999999,-19414.53,-27211.86,-6109.83,2045.25
1764764059.5096087,269.01,-1092.915,-27869.085,-6181.02,-19410.57,-27207.99,-6107.264999999999,2049.66
1764764059.5096087,270.27,-1091.43,-27867.465,-6179.715,-19409.49,-27207.405,-6106.77,2050.965
1764764059.5096087,268.695,-1093.365,-27868.59,-6179.985,-19410.39,-27207.675,-6107.4,2049.3
1764764059.5096087,270.36,-1090.575,-27864.63,-6176.79,-19406.655,-27206.19,-6105.87,2049.525
1764764059.5096087,268.47,-1091.385,-27865.845,-6177.33,-19407.285,-27207.765,-6107.175,2048.085
1764764059.5096087,263.385,-1098.09,-27873.315,-6183.99,-19412.055,-27211.32,-6110.235,2043.045
1764764059.5096087,263.52,-1096.965,-27871.74,-6183.09,-19412.505,-27211.365,-6111.045,2043.045
1764764059.5096087,266.58,-1092.915,-27867.555,-6178.32,-19409.04,-27208.71,-6108.615,2045.295
1764764059.5096087,269.1,-1090.71,-27864.27,-6174.179999999999,-19405.665,-27205.29,-6105.915,2047.68
1764764059.5096087,267.57,-1093.995,-27868.095,-6177.599999999999,-19406.43,-27205.065,-6105.96,2047.725
1764764059.5096087,267.3,-1094.67,-27870.66,-6180.21,-19406.79,-27205.515,-6106.094999999999,2048.22
1764764059.5096087,264.195,-1099.17,-27877.86,-6187.23,-19412.145,-27210.015,-6108.165,2045.07
1764764059.5096087,266.94,-1098.495,-27878.805,-6186.96,-19412.1,-27208.44,-6107.895,2047.905
1764764059.5096087,267.435,-1097.685,-27876.015,-6183.9,-19410.12,-27206.73,-6106.635,2048.22
1764764059.5096087,263.52,-1102.005,-27879.48,-6187.5,-19414.215,-27209.88,-6109.29,2044.17
1764764059.5096087,267.435,-1098.09,-27875.925,-6184.215,-19411.38,-27206.82,-6106.95,2047.635
1764764059.5096087,268.2,-1096.335,-27874.395,-6182.685,-19410.3,-27205.785,-6106.5,2048.31
1764764059.5096087,265.545,-1098.765,-27876.285,-6185.16,-19413.135,-27208.98,-6107.94,2045.835
1764764059.5096087,268.83,-1094.22,-27870.255,-6179.13,-19408.815,-27205.875,-6106.139999999999,2048.13
1764764059.557173,267.93,-1093.59,-27869.085,-6178.094999999999,-19408.275,-27205.74,-6106.724999999999,2046.51
1764764059.557173,271.035,-1091.97,-27868.77,-6177.645,-19406.745,-27203.355,-6104.429999999999,2049.57
1764764059.557173,270.18,-1094.04,-27871.425,-6180.84,-19408.68,-27205.695,-6105.195,2049.21
1764764059.557173,269.235,-1095.345,-27872.64,-6180.705,-19408.185,-27205.245,-6105.33,2048.535
1764764059.557173,268.83,-1096.515,-27874.17,-6181.514999999999,-19409.58,-27205.47,-6104.79,2048.4
1764764059.557173,263.745,-1101.105,-27879.255,-6187.005,-19416.195,-27211.86,-6109.74,2043.585
1764764059.557173,265.995,-1097.415,-27875.16,-6183.36,-19413.675,-27209.52,-6108.075,2046.42
1764764059.557173,265.095,-1099.44,-27877.455,-6187.05,-19417.005,-27211.545,-6109.065,2044.665
1764764059.557173,266.13,-1099.665,-27877.59,-6187.365,-19414.755,-27208.575,-6108.03,2046.735
1764764059.557173,261.225,-1103.76,-27882.675,-6191.73,-19418.4,-27211.905,-6111.27,2042.28
1764764059.557173,262.935,-1101.645,-27880.65,-6189.66,-19416.915,-27210.78,-6109.965,2042.775
1764764059.557173,265.41,-1097.145,-27876.015,-6185.565,-19414.44,-27209.16,-6108.48,2045.61
1764764059.557173,263.745,-1098.495,-27876.735,-6186.78,-19417.59,-27212.22,-6110.865,2043.54
1764764059.557173,269.01,-1092.465,-27870.48,-6180.795,-19412.73,-27208.26,-6107.94,2047.86
1764764059.557173,273.015,-1088.055,-27865.305,-6176.835,-19409.67,-27206.865,-6105.375,2050.335
1764764059.557173,269.91,-1091.205,-27868.545,-6180.48,-19413.765,-27211.185,-6107.94,2047.815
1764764059.557173,264.6,-1096.605,-27875.115,-6186.375,-19417.905,-27214.38,-6110.28,2043.63
1764764059.557173,265.23,-1095.615,-27873.09,-6184.395,-19416.375,-27213.12,-6109.56,2043.945
1764764059.557173,267.03,-1095.66,-27874.53,-6185.205,-19415.61,-27210.465,-6107.76,2046.15
1764764059.557173,261.63,-1102.86,-27883.575,-6192.09,-19419.57,-27213.21,-6109.83,2041.92
1764764059.557173,264.24,-1100.745,-27882.405,-6190.38,-19416.33,-27209.79,-6107.76,2045.295
1764764059.557173,264.285,-1099.755,-27880.83,-6189.57,-19417.23,-27211.455,-6108.525,2045.16
1764764059.557173,262.035,-1100.295,-27882.045,-6192.045,-19420.83,-27214.83,-6110.865,2043.18
1764764059.557173,264.51,-1098.18,-27880.56,-6191.099999999999,-19419.21,-27213.66,-6109.92,2045.7
1764764059.6048317,265.365,-1097.415,-27878.94,-6189.389999999999,-19417.32,-27211.95,-6108.525,2046.555
1764764059.6048317,264.33,-1097.73,-27878.49,-6188.13,-19416.465,-27212.895,-6109.29,2044.215
1764764059.6048317,262.125,-1100.115,-27880.56,-6190.605,-19420.29,-27217.035,-6111.0,2041.605
1764764059.6048317,262.035,-1099.575,-27879.345,-6190.83,-19422.27,-27218.295,-6112.17,2041.515
1764764059.6048317,264.915,-1094.04,-27873.045,-6185.34,-19418.445,-27215.73,-6110.28,2043.585
1764764059.6048317,267.975,-1089.405,-27867.555,-6180.344999999999,-19415.835,-27213.93,-6108.03,2045.385
1764764059.6048317,266.58,-1091.34,-27870.705,-6182.505,-19416.78,-27213.39,-6107.895,2044.755
1764764059.6048317,263.43,-1096.74,-27877.005,-6187.815,-19419.615,-27215.775,-6110.054999999999,2042.505
1764764059.6048317,260.595,-1102.455,-27884.34,-6193.17,-19422.045,-27216.63,-6110.865,2041.38
1764764059.6048317,262.08,-1102.005,-27883.755,-6191.054999999999,-19417.59,-27213.48,-6107.67,2043.405
1764764059.6048317,266.22,-1095.795,-27876.465,-6184.665,-19412.865,-27208.98,-6105.33,2047.005
1764764059.6048317,261.63,-1098.72,-27878.76,-6187.815,-19416.645,-27213.12,-6107.4,2043.09
1764764059.6048317,264.915,-1094.58,-27874.125,-6182.325,-19413.27,-27210.78,-6106.185,2045.43
1764764059.6048317,270.405,-1088.145,-27868.32,-6177.06,-19408.545,-27206.46,-6104.025,2048.67
1764764059.6048317,269.28,-1090.215,-27870.3,-6178.905,-19409.22,-27206.145,-6103.08,2048.715
1764764059.6048317,266.31,-1095.615,-27876.195,-6183.81,-19412.19,-27206.685,-6103.98,2046.555
1764764059.6048317,263.97,-1098.135,-27879.93,-6188.355,-19417.95,-27211.005,-6105.78,2044.395
1764764059.6048317,265.455,-1097.73,-27879.795,-6188.895,-19419.435,-27212.31,-6105.42,2046.15
1764764059.6048317,267.345,-1095.48,-27876.69,-6185.61,-19415.97,-27209.835,-6104.745,2047.815
1764764059.6048317,271.17,-1091.61,-27871.155,-6180.705,-19411.695,-27206.505,-6102.81,2051.145
1764764059.6048317,271.17,-1090.755,-27870.255,-6179.895,-19412.145,-27206.865,-6102.855,2050.83
1764764059.6048317,266.13,-1094.85,-27873.495,-6183.764999999999,-19416.195,-27210.69,-6105.465,2045.97
1764764059.6048317,268.065,-1093.995,-27872.37,-6181.65,-19413.945,-27207.63,-6103.844999999999,2047.995
1764764059.6058922,265.23,-1098.18,-27877.005,-6185.07,-19415.565,-27208.665,-6104.79,2045.88
1764764059.6497824,262.62,-1100.79,-27879.84,-6187.86,-19418.445,-27211.995,-6106.365,2043.585
1764764059.6497824,265.185,-1097.505,-27877.275,-6185.88,-19417.095,-27210.69,-6104.969999999999,2046.06
1764764059.6497824,263.61,-1098.36,-27878.715,-6187.094999999999,-19419.3,-27212.805,-6106.545,2043.855
1764764059.6497824,266.31,-1094.985,-27873.945,-6183.719999999999,-19418.445,-27212.58,-6106.59,2044.89
1764764059.6502907,267.255,-1092.105,-27870.84,-6181.74,-19417.815,-27214.065,-6106.32,2044.62
1764764059.6502907,271.845,-1088.685,-27866.835,-6177.014999999999,-19412.64,-27209.205,-6102.495,2049.615
1764764059.6502907,270.45,-1092.465,-27871.92,-6180.12,-19412.865,-27208.35,-6101.594999999999,2049.885
1764764059.6502907,265.005,-1097.775,-27877.095,-6185.7,-19416.87,-27213.39,-6105.014999999999,2044.395
1764764059.6502907,266.625,-1095.615,-27874.53,-6183.135,-19416.015,-27212.985,-6104.34,2045.43
1764764059.6502907,265.455,-1098.045,-27878.175,-6186.014999999999,-19418.13,-27213.615,-6105.195,2045.34
1764764059.6502907,264.51,-1098.585,-27881.505,-6188.535,-19418.355,-27212.355,-6104.969999999999,2046.24
1764764059.651652,261.0,-1103.13,-27885.6,-6191.955,-19420.515,-27214.245,-6107.04,2043.36
1764764059.651652,262.665,-1100.79,-27882.855,-6188.4,-19418.85,-27213.615,-6106.815,2043.81
1764764059.651652,264.735,-1097.28,-27878.535,-6183.945,-19416.465,-27211.77,-6105.645,2045.295
1764764059.651652,264.6,-1095.39,-27876.465,-6182.505,-19415.79,-27211.32,-6105.105,2044.62
1764764059.651652,264.375,-1094.85,-27875.97,-6182.594999999999,-19417.77,-27213.39,-6105.195,2043.72
1764764059.651652,271.8,-1086.84,-27867.105,-6176.115,-19413.495,-27210.78,-6102.135,2049.75
1764764059.651652,272.025,-1085.85,-27867.015,-6176.025,-19414.665,-27211.905,-6103.844999999999,2048.355
1764764059.651652,267.48,-1091.655,-27873.855,-6180.929999999999,-19416.465,-27212.265,-6105.33,2045.835
1764764059.651652,260.235,-1101.645,-27886.41,-6193.215,-19425.42,-27218.43,-6109.11,2040.435
1764764059.651652,260.595,-1103.715,-27888.93,-6195.554999999999,-19426.275,-27218.79,-6109.469999999999,2040.03
1764764059.651652,261.18,-1103.58,-27888.705,-6195.15,-19425.42,-27218.07,-6109.38,2040.75
1764764059.6962342,263.88,-1101.465,-27885.555,-6191.415,-19422.54,-27214.83,-6107.219999999999,2043.18
1764764059.6962342,263.385,-1101.195,-27885.735,-6192.495,-19423.98,-27216.045,-6108.03,2042.415
1764764059.69725,261.81,-1101.465,-27886.365,-6192.764999999999,-19424.295,-27216.63,-6108.48,2041.74
1764764059.69725,261.36,-1100.295,-27884.205,-6191.73,-19425.6,-27218.61,-6109.92,2039.805
1764764059.69725,265.545,-1095.48,-27879.255,-6187.32,-19423.665,-27217.755,-6108.974999999999,2042.325
1764764059.69725,261.585,-1098.27,-27882.045,-6189.03,-19425.87,-27221.22,-6111.719999999999,2038.68
1764764059.69725,262.26,-1097.325,-27881.37,-6188.49,-19422.63,-27218.475,-6108.795,2041.245
1764764059.69725,264.96,-1095.885,-27880.56,-6185.969999999999,-19418.94,-27213.255,-6105.915,2045.16
1764764059.69725,263.745,-1096.155,-27879.795,-6185.7,-19419.48,-27214.83,-6106.815,2042.955
1764764059.69725,264.78,-1097.19,-27880.605,-6186.375,-19418.715,-27212.58,-6105.645,2044.935
1764764059.69725,259.515,-1103.445,-27888.03,-6193.17,-19423.125,-27215.145,-6108.795,2040.66
1764764059.69725,260.73,-1101.96,-27885.465,-6191.37,-19422.855,-27215.505,-6108.03,2041.245
1764764059.69725,262.98,-1100.52,-27883.665,-6190.605,-19422.18,-27213.795,-6106.275,2043.855
1764764059.69725,260.595,-1103.895,-27886.275,-6192.855,-19423.755,-27216.585,-6107.264999999999,2041.29
1764764059.69725,264.51,-1100.16,-27882.945,-6189.3,-19420.74,-27213.165,-6104.745,2044.98
1764764059.69725,262.44,-1101.645,-27884.835,-6191.37,-19423.125,-27216.045,-6107.625,2042.01
1764764059.69725,262.935,-1101.375,-27883.305,-6189.795,-19422.45,-27215.55,-6107.94,2042.01
1764764059.6977625,263.43,-1099.62,-27881.64,-6187.815,-19419.795,-27213.21,-6105.645,2043.315
1764764059.6977625,262.71,-1099.98,-27881.55,-6187.59,-19419.84,-27213.435,-6105.195,2043.495
1764764059.6977625,259.335,-1103.58,-27884.43,-6189.165,-19422.765,-27216.495,-6108.03,2040.39
1764764059.6977625,262.8,-1098.945,-27879.84,-6184.755,-19420.02,-27214.605,-6106.5,2042.46
1764764059.6977625,267.435,-1093.185,-27873.405,-6179.535,-19416.285,-27210.96,-6104.115,2047.32
1764764059.6977625,267.435,-1092.915,-27873.135,-6180.435,-19417.77,-27211.365,-6104.385,2047.59
1764764059.6977625,266.355,-1096.695,-27878.04,-6185.295,-19420.965,-27212.4,-6104.429999999999,2046.105
1764764059.7445526,265.77,-1099.305,-27881.19,-6188.355,-19423.395,-27215.37,-6105.24,2045.07
1764764059.7445526,262.62,-1101.555,-27883.08,-6189.705,-19426.365,-27219.555,-6107.985,2041.92
1764764059.7445526,265.32,-1099.71,-27882.225,-6188.715,-19423.71,-27216.765,-6105.69,2045.97
1764764059.7445526,265.23,-1101.06,-27883.35,-6189.929999999999,-19421.775,-27213.705,-6103.8,2047.005
1764764059.7445526,264.96,-1099.755,-27882.045,-6188.67,-19421.37,-27214.29,-6103.98,2046.195
1764764059.7445526,263.52,-1100.07,-27882.045,-6189.03,-19423.08,-27216.18,-6104.25,2044.8
1764764059.7445526,266.13,-1098.315,-27881.19,-6187.275,-19421.865,-27215.235,-6102.9,2047.23
1764764059.7445526,269.685,-1095.12,-27878.175,-6184.98,-19419.39,-27212.625,-6101.73,2050.155
1764764059.7445526,266.715,-1098.315,-27880.47,-6188.219999999999,-19421.955,-27215.055,-6103.395,2047.5
1764764059.7445526,263.34,-1100.565,-27882.54,-6190.11,-19423.89,-27218.07,-6105.24,2043.9
1764764059.7445526,268.875,-1093.5,-27875.16,-6181.83,-19417.23,-27212.445,-6101.19,2049.12
1764764059.7445526,268.56,-1092.915,-27874.215,-6181.02,-19417.77,-27213.12,-6102.54,2048.805
1764764059.7445526,267.885,-1092.915,-27874.665,-6181.83,-19419.84,-27214.02,-6102.855,2048.22
1764764059.7445526,265.815,-1093.77,-27876.42,-6184.304999999999,-19423.755,-27217.71,-6104.925,2045.16
1764764059.7445526,270.135,-1089.945,-27872.505,-6180.974999999999,-19419.525,-27214.245,-6102.945,2049.435
1764764059.7445526,267.21,-1094.4,-27878.355,-6187.59,-19424.115,-27218.34,-6104.969999999999,2047.185
1764764059.7445526,259.02,-1104.165,-27892.125,-6199.335,-19433.52,-27224.865,-6109.92,2041.335
1764764059.7445526,256.77,-1106.82,-27895.32,-6201.945,-19435.59,-27226.26,-6111.99,2039.535
1764764059.7445526,259.785,-1102.05,-27888.435,-6196.86,-19432.395,-27224.19,-6110.73,2041.155
1764764059.7445526,265.545,-1095.48,-27879.93,-6189.255,-19425.96,-27219.33,-6106.77,2045.61
1764764059.7445526,270.945,-1089.45,-27873.54,-6183.09,-19420.38,-27214.83,-6103.395,2049.84
1764764059.7445526,268.2,-1092.69,-27877.455,-6187.005,-19424.16,-27218.205,-6105.87,2046.735
1764764059.7445526,264.42,-1097.19,-27883.755,-6192.179999999999,-19427.895,-27221.04,-6107.625,2044.17
1764764059.7445526,259.695,-1103.265,-27890.91,-6198.344999999999,-19433.565,-27224.91,-6109.65,2040.93
1764764059.791578,260.37,-1103.13,-27890.64,-6198.3,-19430.955,-27221.535,-6108.21,2042.91
1764764059.791578,261.36,-1101.33,-27889.335,-6196.95,-19430.28,-27221.355,-6108.48,2042.28
1764764059.791578,263.52,-1097.37,-27884.97,-6191.73,-19427.355,-27219.465,-6107.58,2043.135
1764764059.791578,264.555,-1094.805,-27882.855,-6189.929999999999,-19426.23,-27219.465,-6106.815,2043.495
1764764059.791578,262.485,-1096.2,-27884.205,-6192.495,-19429.875,-27222.705,-6107.895,2041.605
1764764059.791578,264.69,-1093.59,-27881.64,-6190.29,-19429.02,-27221.94,-6107.849999999999,2042.64
1764764059.791578,271.215,-1084.14,-27871.155,-6179.445,-19420.785,-27215.82,-6103.304999999999,2048.625
1764764059.791578,270.045,-1085.805,-27872.505,-6180.389999999999,-19421.91,-27216.945,-6104.16,2047.32
1764764059.7921164,262.395,-1096.74,-27884.97,-6191.73,-19428.12,-27220.95,-6107.625,2042.46
1764764059.7921164,261.585,-1098.225,-27887.13,-6192.945,-19426.725,-27218.34,-6106.77,2042.91
1764764059.7921164,261.945,-1098.585,-27888.03,-6193.53,-19426.005,-27217.35,-6104.969999999999,2043.81
1764764059.7921164,261.405,-1100.835,-27891.72,-6196.365,-19426.545,-27216.675,-6105.195,2043.675
1764764059.7921164,261.945,-1101.15,-27892.17,-6196.815,-19427.94,-27217.35,-6104.969999999999,2043.405
1764764059.7921164,261.36,-1101.285,-27891.27,-6196.32,-19429.335,-27219.645,-6106.32,2042.28
1764764059.7921164,262.71,-1098.27,-27887.13,-6192.27,-19426.59,-27218.205,-6105.69,2043.315
1764764059.7921164,269.145,-1089.765,-27878.49,-6184.53,-19419.975,-27213.03,-6101.415,2049.435
1764764059.7921164,272.205,-1085.4,-27873.855,-6180.48,-19418.13,-27211.905,-6100.469999999999,2051.055
1764764059.7921164,267.075,-1090.17,-27878.49,-6185.115,-19423.35,-27218.07,-6105.06,2044.755
1764764059.7921164,263.655,-1094.94,-27884.79,-6190.74,-19425.96,-27218.61,-6106.32,2042.145
1764764059.7921164,261.18,-1098.72,-27888.57,-6194.745,-19427.22,-27219.195,-6106.77,2041.83
1764764059.7921164,263.61,-1096.38,-27886.86,-6192.27,-19423.98,-27217.125,-6104.52,2044.305
1764764059.7921164,265.185,-1095.66,-27886.41,-6190.245,-19421.37,-27214.335,-6102.36,2046.735
1764764059.840058,262.485,-1097.64,-27886.995,-6191.46,-19423.26,-27217.305,-6104.61,2043.27
1764764059.840058,264.285,-1094.445,-27882.045,-6186.735,-19419.615,-27215.415,-6103.26,2044.62
1764764059.840058,269.1,-1089.09,-27876.42,-6182.19,-19416.195,-27211.725,-6100.92,2048.355
1764764059.840058,269.775,-1089.495,-27877.995,-6184.935,-19418.13,-27212.67,-6100.56,2048.985
1764764059.840058,267.66,-1093.14,-27884.07,-6191.37,-19424.115,-27218.07,-6102.405,2048.31
1764764059.840058,263.205,-1098.765,-27890.055,-6197.219999999999,-19429.695,-27223.335,-6106.679999999999,2043.63
1764764059.840058,266.985,-1095.12,-27885.6,-6192.99,-19425.555,-27218.475,-6103.755,2046.735
1764764059.840058,265.275,-1095.615,-27885.42,-6193.08,-19425.78,-27218.655,-6104.88,2045.025
1764764059.840058,260.46,-1100.475,-27889.92,-6196.77,-19429.515,-27222.795,-6107.94,2040.525
1764764059.840058,259.56,-1101.33,-27890.415,-6196.455,-19429.065,-27222.48,-6107.804999999999,2039.58
1764764059.840058,261.45,-1098.495,-27885.87,-6191.955,-19425.555,-27220.455,-6106.815,2041.605
