Timestamp,Channel1,Channel2,Channel3,Channel4,Channel5,Channel6,Channel7,Channel8
1764764135.3028812,-8545.32,-16121.115,-2532.555,-8316.09,-19971.99,-27904.05,-12073.14,-8937.765
1764764135.3028812,-8548.515,-16124.445,-2534.58,-8318.565,-19972.35,-27904.995,-12077.91,-8941.59
1764764135.3028812,-8549.505,-16126.74,-2537.28,-8321.805,-19976.805,-27908.73,-12081.78,-8940.869999999999
1764764135.3028812,-8545.815,-16123.095,-2534.445,-8318.52,-19973.61,-27904.905,-12076.29,-8936.82
1764764135.3034,-8546.22,-16123.86,-2534.76,-8318.88,-19974.105,-27905.94,-12077.145,-8938.125
1764764135.3034,-8547.705,-16124.535,-2536.605,-8320.68,-19975.635,-27908.055,-12079.44,-8940.105
1764764135.3034,-8549.64,-16126.245,-2538.27,-8322.615,-19978.38,-27910.755,-12083.76,-8943.435
1764764135.3034,-8550.135,-16125.03,-2535.93,-8319.69,-19976.58,-27909.0,-12082.59,-8942.85
1764764135.3034,-8549.505,-16126.515,-2536.29,-8316.9,-19972.845,-27906.345,-12078.945,-8938.17
1764764135.3034,-8542.619999999999,-16118.865,-2530.215,-8312.67,-19968.48,-27900.855,-12072.645,-8932.5
1764764135.3034,-8543.34,-16117.605,-2529.0,-8311.904999999999,-19968.3,-27900.855,-12074.625,-8935.605
1764764135.3034,-8545.949999999999,-16121.745,-2532.24,-8314.695,-19970.19,-27904.41,-12077.37,-8936.19
1764764135.3034,-8549.82,-16125.93,-2536.065,-8319.33,-19974.87,-27909.36,-12081.915,-8940.24
1764764135.3034,-8545.86,-16119.765,-2530.305,-8314.154999999999,-19969.245,-27903.555,-12078.18,-8938.619999999999
1764764135.3034,-8545.86,-16119.945,-2530.98,-8314.199999999999,-19968.39,-27901.17,-12076.965,-8938.529999999999
1764764135.3034,-8545.68,-16120.755,-2531.475,-8315.505,-19970.28,-27902.835,-12076.29,-8938.215
1764764135.3034,-8547.39,-16123.14,-2534.085,-8317.215,-19972.44,-27905.22,-12078.54,-8938.89
1764764135.3034,-8550.404999999999,-16126.83,-2537.82,-8320.23,-19975.32,-27908.595,-12082.455,-8941.859999999999
1764764135.3034,-8546.85,-16121.88,-2533.995,-8315.955,-19971.18,-27904.41,-12078.945,-8937.585
1764764135.3034,-8548.289999999999,-16123.995,-2535.93,-8317.755,-19974.015,-27907.695,-12080.205,-8939.16
1764764135.3034,-8554.77,-16131.33,-2542.23,-8323.11,-19977.75,-27912.24,-12085.965,-8945.595
1764764135.3034,-8549.865,-16126.695,-2538.09,-8319.735,-19974.555,-27907.92,-12079.125,-8939.744999999999
1764764135.3034,-8548.154999999999,-16121.97,-2533.635,-8316.315,-19972.845,-27906.39,-12078.585,-8939.789999999999
1764764135.350316,-8548.695,-16123.725,-2535.48,-8317.44,-19973.7,-27907.245,-12079.755,-8939.835
1764764135.350316,-8546.445,-16122.78,-2534.085,-8315.865,-19972.215,-27906.03,-12077.325,-8937.404999999999
1764764135.350316,-8552.205,-16129.395,-2540.52,-8323.154999999999,-19980.54,-27913.23,-12080.385,-8942.355
1764764135.350316,-8550.63,-16125.3,-2537.055,-8318.52,-19974.105,-27906.795,-12079.62,-8942.13
1764764135.350316,-8551.35,-16125.48,-2536.38,-8317.935,-19974.33,-27906.39,-12078.135,-8941.994999999999
1764764135.350316,-8545.86,-16120.575,-2532.24,-8314.38,-19969.74,-27903.69,-12075.3,-8935.695
1764764135.350316,-8540.955,-16115.895,-2527.74,-8310.69,-19966.455,-27903.825,-12078.45,-8932.59
1764764135.350834,-8545.365,-16120.44,-2531.475,-8314.47,-19970.235,-27907.605,-12080.43,-8937.27
1764764135.350834,-8543.565,-16118.19,-2530.08,-8312.355,-19968.705,-27905.265,-12077.37,-8935.065
1764764135.350834,-8545.32,-16120.845,-2532.87,-8314.965,-19971.315,-27908.19,-12078.855,-8935.065
1764764135.350834,-8549.865,-16125.615,-2536.605,-8318.925,-19974.69,-27909.855,-12082.5,-8939.744999999999
1764764135.350834,-8547.93,-16122.69,-2533.455,-8316.315,-19970.82,-27902.43,-12078.18,-8940.06
1764764135.350834,-8548.02,-16123.14,-2535.615,-8317.125,-19972.305,-27903.465,-12076.65,-8939.16
1764764135.350834,-8543.43,-16118.505,-2531.025,-8312.67,-19967.58,-27900.855,-12074.76,-8934.255
1764764135.350834,-8543.88,-16118.82,-2530.62,-8313.119999999999,-19967.58,-27902.295,-12076.065,-8934.705
1764764135.350834,-8549.324999999999,-16124.49,-2536.38,-8318.16,-19972.935,-27907.785,-12080.97,-8939.744999999999
1764764135.350834,-8545.68,-16120.215,-2532.195,-8313.795,-19969.515,-27904.905,-12075.39,-8934.615
1764764135.3513584,-8551.17,-16125.345,-2536.875,-8319.06,-19976.175,-27911.25,-12080.7,-8941.275
1764764135.3513584,-8548.515,-16122.69,-2534.895,-8316.99,-19972.17,-27908.73,-12079.665,-8938.215
1764764135.3513584,-8549.279999999999,-16123.725,-2537.28,-8318.88,-19974.42,-27911.61,-12083.94,-8939.43
1764764135.3513584,-8550.045,-16125.345,-2538.72,-8319.375,-19975.365,-27915.345,-12087.675,-8939.789999999999
1764764135.3513584,-8541.72,-16115.04,-2528.145,-8308.845,-19965.285,-27904.77,-12076.2,-8932.815
1764764135.3979144,-8540.505,-16113.06,-2526.21,-8306.775,-19962.945,-27902.475,-12072.51,-8931.69
1764764135.3979144,-8546.715,-16120.395,-2534.445,-8314.65,-19970.055,-27907.245,-12076.47,-8937.18
1764764135.3979144,-8547.39,-16121.655,-2535.12,-8315.145,-19968.615,-27900.09,-12068.64,-8934.705
1764764135.3979144,-8545.68,-16119.63,-2533.05,-8312.895,-19966.5,-27899.01,-12069.63,-8933.355
1764764135.3994348,-8544.869999999999,-16118.865,-2533.41,-8312.76,-19966.68,-27903.42,-12074.76,-8933.085
1764764135.3994348,-8547.795,-16121.295,-2536.47,-8316.99,-19971.135,-27908.145,-12078.09,-8936.55
1764764135.3994348,-8546.445,-16118.775,-2533.23,-8313.39,-19968.03,-27905.94,-12076.245,-8936.73
1764764135.3994348,-8547.525,-16121.205,-2535.66,-8315.865,-19970.865,-27909.045,-12077.55,-8935.56
1764764135.3994348,-8546.265,-16119.0,-2533.095,-8313.795,-19968.57,-27905.58,-12077.055,-8935.335
1764764135.3994348,-8544.869999999999,-16117.65,-2531.25,-8312.22,-19966.05,-27902.655,-12077.37,-8934.705
1764764135.3994348,-8548.38,-16121.79,-2535.345,-8316.18,-19971.45,-27908.415,-12077.55,-8938.08
1764764135.399936,-8546.535,-16118.955,-2531.7,-8311.86,-19966.14,-27901.125,-12069.495,-8935.605
1764764135.399936,-8545.68,-16118.955,-2531.52,-8312.805,-19966.68,-27901.8,-12070.26,-8934.074999999999
1764764135.399936,-8548.605,-16121.565,-2534.04,-8315.505,-19969.38,-27906.93,-12076.515,-8937.0
1764764135.399936,-8543.654999999999,-16117.11,-2530.44,-8311.32,-19966.815,-27909.945,-12080.475,-8930.835
1764764135.399936,-8546.445,-16120.17,-2532.87,-8313.074999999999,-19969.38,-27912.51,-12082.59,-8932.41
1764764135.399936,-8545.59,-16116.39,-2528.595,-8308.305,-19963.575,-27903.69,-12078.54,-8935.02
1764764135.399936,-8543.07,-16114.5,-2528.055,-8307.9,-19963.845,-27902.655,-12074.715,-8932.77
1764764135.399936,-8541.945,-16113.42,-2526.93,-8306.595,-19963.17,-27900.495,-12072.15,-8929.98
1764764135.399936,-8545.23,-16117.56,-2530.845,-8310.824999999999,-19966.905,-27902.565,-12072.645,-8932.365
1764764135.399936,-8544.779999999999,-16117.065,-2530.125,-8308.574999999999,-19963.755,-27901.08,-12072.42,-8931.42
1764764135.40044,-8548.38,-16121.07,-2532.87,-8312.085,-19967.04,-27904.77,-12075.03,-8934.164999999999
1764764135.40044,-8544.42,-16116.93,-2527.47,-8307.449999999999,-19963.755,-27902.97,-12074.265,-8931.69
1764764135.40044,-8546.85,-16119.99,-2532.465,-8311.86,-19965.87,-27904.905,-12076.83,-8934.615
1764764135.442198,-8544.96,-16116.93,-2529.405,-8309.43,-19964.115,-27902.79,-12073.725,-8931.779999999999
1764764135.442198,-8548.244999999999,-16119.36,-2532.33,-8313.164999999999,-19969.38,-27908.055,-12077.595,-8934.119999999999
1764764135.442198,-8545.14,-16117.56,-2529.99,-8310.42,-19966.995,-27905.85,-12073.905,-8931.96
1764764135.442198,-8545.005,-16117.92,-2529.99,-8310.779999999999,-19966.41,-27905.58,-12074.22,-8932.455
1764764135.442198,-8547.795,-16119.63,-2531.79,-8312.085,-19968.57,-27907.47,-12077.1,-8934.435
1764764135.4432094,-8549.414999999999,-16121.115,-2533.59,-8313.705,-19970.505,-27910.845,-12080.565,-8937.494999999999
1764764135.4432094,-8549.73,-16123.41,-2537.64,-8317.529999999999,-19972.17,-27912.24,-12079.935,-8936.19
1764764135.4432094,-8549.1,-16122.915,-2536.65,-8316.045,-19971.09,-27910.89,-12079.485,-8936.279999999999
1764764135.4432094,-8544.779999999999,-16116.885,-2530.305,-8309.88,-19965.87,-27905.805,-12075.165,-8931.555
1764764135.4432094,-8545.005,-16116.165,-2530.17,-8310.195,-19965.33,-27906.03,-12075.03,-8931.555
1764764135.4432094,-8546.895,-16118.28,-2532.06,-8312.22,-19967.805,-27908.01,-12076.785,-8933.445
1764764135.4432094,-8551.574999999999,-16123.095,-2536.74,-8316.855,-19972.845,-27913.14,-12082.275,-8937.99
1764764135.4432094,-8551.98,-16123.41,-2538.09,-8316.9,-19972.665,-27913.23,-12081.51,-8935.965
1764764135.4432094,-8548.02,-16118.145,-2533.275,-8312.58,-19968.345,-27908.775,-12077.505,-8933.4
1764764135.4432094,-8550.0,-16120.53,-2535.705,-8314.11,-19969.65,-27909.675,-12079.89,-8937.539999999999
1764764135.4432094,-8546.805,-16118.01,-2533.185,-8311.68,-19967.085,-27907.11,-12078.405,-8934.119999999999
1764764135.4432094,-8548.83,-16119.945,-2534.715,-8312.715,-19966.995,-27905.58,-12079.665,-8934.48
1764764135.4432094,-8549.235,-16120.035,-2535.57,-8313.3,-19966.95,-27906.03,-12082.59,-8935.695
1764764135.4432094,-8546.13,-16116.345,-2531.835,-8310.914999999999,-19966.23,-27907.335,-12080.79,-8934.119999999999
1764764135.4432094,-8548.065,-16119.135,-2535.525,-8316.404999999999,-19974.33,-27915.75,-12078.81,-8934.164999999999
1764764135.4432094,-8548.02,-16119.72,-2536.92,-8316.404999999999,-19973.88,-27915.03,-12075.39,-8932.68
1764764135.4432094,-8545.725,-16116.75,-2533.68,-8312.355,-19968.84,-27910.53,-12076.785,-8933.625
1764764135.4941282,-8543.115,-16114.59,-2531.835,-8310.914999999999,-19967.805,-27909.045,-12075.12,-8931.24
1764764135.4941282,-8547.84,-16118.82,-2535.615,-8314.83,-19972.08,-27913.23,-12080.25,-8935.605
1764764135.4941282,-8544.105,-16114.365,-2531.205,-8309.699999999999,-19965.555,-27906.885,-12076.965,-8932.14
1764764135.4941282,-8547.84,-16118.145,-2535.66,-8314.065,-19970.055,-27909.945,-12079.26,-8935.199999999999
1764764135.4941282,-8544.42,-16115.625,-2533.32,-8311.77,-19967.715,-27907.65,-12076.695,-8932.365
1764764135.4941282,-8544.869999999999,-16115.76,-2533.41,-8312.4,-19967.085,-27908.325,-12077.1,-8932.77
1764764135.4941282,-8550.72,-16121.565,-2540.16,-8318.385,-19972.575,-27914.76,-12084.12,-8937.315
1764764135.4951336,-8551.8,-16123.23,-2542.77,-8320.904999999999,-19975.185,-27917.64,-12084.75,-8934.705
1764764135.4951336,-8544.015,-16112.115,-2531.205,-8310.69,-19965.51,-27906.93,-12073.725,-8930.475
1764764135.4951336,-8544.105,-16110.72,-2529.63,-8308.574999999999,-19962.765,-27904.41,-12070.89,-8931.869999999999
1764764135.4951336,-8546.355,-16114.68,-2534.67,-8312.49,-19967.04,-27909.45,-12075.75,-8932.095
1764764135.4951336,-8543.744999999999,-16112.34,-2532.24,-8311.14,-19965.51,-27909.27,-12074.85,-8926.83
1764764135.4951336,-8544.465,-16111.665,-2531.43,-8310.24,-19964.835,-27907.155,-12075.12,-8930.025
1764764135.4951336,-8543.699999999999,-16110.495,-2529.765,-8307.765,-19961.73,-27903.51,-12071.835,-8931.51
1764764135.4951336,-8546.805,-16113.915,-2534.535,-8311.635,-19965.735,-27909.045,-12075.795,-8932.904999999999
1764764135.4951336,-8545.545,-16112.43,-2532.015,-8309.34,-19963.89,-27906.345,-12073.905,-8931.465
1764764135.4951336,-8548.605,-16116.705,-2536.92,-8314.244999999999,-19968.885,-27911.88,-12078.18,-8933.49
1764764135.4951336,-8548.605,-16116.3,-2537.37,-8314.38,-19968.93,-27910.89,-12076.74,-8933.085
1764764135.4951336,-8544.51,-16111.845,-2532.645,-8309.744999999999,-19964.88,-27907.335,-12073.77,-8929.619999999999
1764764135.4951336,-8549.73,-16117.74,-2538.81,-8315.73,-19971.405,-27913.59,-12077.82,-8934.345
1764764135.4951336,-8549.369999999999,-16116.705,-2537.865,-8313.975,-19969.155,-27911.79,-12075.705,-8933.355
1764764135.4951336,-8552.654999999999,-16118.685,-2539.98,-8316.135,-19970.415,-27913.23,-12077.1,-8936.234999999999
1764764135.4951336,-8553.869999999999,-16118.91,-2540.205,-8316.494999999999,-19970.685,-27913.005,-12078.045,-8938.215
1764764135.4951336,-8551.35,-16116.93,-2538.27,-8314.425,-19968.3,-27912.015,-12081.195,-8935.335
1764764135.5377092,-8548.83,-16114.05,-2536.65,-8313.57,-19969.785,-27912.51,-12079.485,-8934.3
1764764135.5377092,-8549.414999999999,-16114.5,-2537.325,-8314.065,-19969.335,-27911.79,-12077.73,-8934.48
1764764135.5377092,-8542.215,-16106.58,-2529.54,-8304.48,-19959.165,-27902.25,-12071.745,-8928.045
1764764135.5377092,-8540.414999999999,-16105.77,-2528.46,-8303.49,-19958.13,-27901.215,-12071.07,-8926.875
1764764135.5377092,-8542.89,-16108.02,-2530.44,-8305.785,-19960.92,-27903.825,-12072.87,-8927.82
1764764135.5377092,-8547.705,-16111.89,-2534.58,-8310.105,-19964.655,-27908.82,-12076.785,-8931.69
1764764135.5387187,-8543.43,-16108.29,-2531.205,-8306.369999999999,-19960.605,-27905.13,-12073.05,-8929.215
1764764135.5387187,-8543.744999999999,-16108.155,-2531.205,-8306.1,-19960.515,-27905.58,-12073.14,-8929.035
1764764135.5387187,-8546.445,-16111.89,-2535.705,-8310.465,-19965.195,-27909.495,-12076.38,-8932.185
1764764135.5387187,-8547.21,-16113.105,-2536.425,-8312.039999999999,-19966.59,-27910.935,-12077.595,-8932.365
1764764135.5387187,-8548.65,-16114.23,-2537.055,-8312.715,-19966.545,-27910.17,-12077.37,-8931.824999999999
1764764135.5387187,-8549.505,-16114.77,-2537.28,-8312.805,-19967.445,-27911.34,-12077.685,-8933.625
1764764135.5387187,-8549.595,-16113.735,-2536.38,-8311.77,-19966.545,-27910.26,-12077.37,-8934.164999999999
1764764135.5387187,-8548.695,-16113.195,-2536.065,-8311.005,-19965.96,-27909.99,-12076.65,-8933.49
1764764135.539912,-8545.815,-16110.765,-2533.77,-8308.17,-19962.855,-27907.065,-12074.04,-8930.115
1764764135.539912,-8549.775,-16115.76,-2538.675,-8312.625,-19968.795,-27912.645,-12078.045,-8933.039999999999
1764764135.539912,-8550.135,-16114.32,-2536.74,-8311.635,-19968.3,-27912.195,-12078.315,-8934.57
1764764135.539912,-8546.715,-16110.63,-2532.735,-8307.045,-19963.845,-27907.38,-12074.58,-8931.015
1764764135.539912,-8547.66,-16111.62,-2534.355,-8309.115,-19965.645,-27909.63,-12076.515,-8932.005
1764764135.539912,-8549.595,-16114.185,-2537.28,-8311.994999999999,-19967.31,-27911.79,-12079.17,-8934.164999999999
1764764135.539912,-8549.73,-16114.275,-2537.235,-8312.039999999999,-19966.95,-27911.565,-12078.99,-8933.895
1764764135.539912,-8549.279999999999,-16113.825,-2537.055,-8311.32,-19966.365,-27910.17,-12077.955,-8933.625
1764764135.539912,-8549.64,-16114.32,-2537.37,-8312.355,-19967.85,-27912.015,-12078.27,-8934.975
1764764135.539912,-8550.225,-16114.095,-2536.65,-8310.869999999999,-19967.31,-27910.62,-12077.64,-8935.605
1764764135.586205,-8545.41,-16110.54,-2533.32,-8307.72,-19962.855,-27908.055,-12074.715,-8930.07
1764764135.586205,-8548.47,-16113.735,-2536.83,-8311.59,-19965.87,-27910.89,-12077.82,-8933.715
1764764135.586205,-8548.244999999999,-16113.195,-2535.795,-8310.375,-19965.15,-27909.315,-12076.695,-8932.005
1764764135.586205,-8551.529999999999,-16116.435,-2539.62,-8313.615,-19968.66,-27912.24,-12079.71,-8935.74
1764764135.586205,-8551.17,-16115.715,-2538.72,-8313.255,-19968.255,-27912.15,-12079.665,-8935.425
1764764135.586205,-8546.039999999999,-16110.18,-2532.51,-8307.765,-19962.36,-27906.795,-12077.19,-8930.52
1764764135.587212,-8548.515,-16112.655,-2535.03,-8310.015,-19964.79,-27909.72,-12078.855,-8932.77
1764764135.587212,-8545.904999999999,-16110.945,-2533.455,-8308.035,-19962.855,-27907.29,-12076.065,-8930.699999999999
1764764135.587212,-8545.815,-16111.755,-2534.085,-8308.619999999999,-19963.125,-27906.615,-12075.48,-8930.789999999999
1764764135.587212,-8544.195,-16109.64,-2531.7,-8306.865,-19962.315,-27905.67,-12072.465,-8928.72
1764764135.587212,-8546.94,-16112.565,-2534.715,-8309.789999999999,-19965.825,-27910.485,-12073.59,-8928.045
1764764135.587212,-8550.09,-16115.625,-2537.19,-8311.904999999999,-19965.69,-27910.08,-12075.165,-8930.52
1764764135.587212,-8549.91,-16114.455,-2536.155,-8312.4,-19968.75,-27913.095,-12078.675,-8933.535
1764764135.587212,-8542.395,-16105.77,-2527.92,-8304.255,-19959.03,-27905.58,-12079.53,-8929.26
1764764135.587212,-8546.49,-16111.17,-2533.05,-8309.025,-19962.675,-27909.36,-12080.16,-8932.994999999999
1764764135.587212,-8545.14,-16110.63,-2532.33,-8307.99,-19963.035,-27909.765,-12079.845,-8930.88
1764764135.587212,-8548.38,-16113.105,-2535.345,-8310.555,-19965.78,-27911.925,-12081.015,-8933.31
1764764135.587212,-8544.465,-16108.47,-2531.205,-8306.279999999999,-19960.965,-27905.715,-12076.065,-8929.08
1764764135.587212,-8545.725,-16109.73,-2532.87,-8307.539999999999,-19961.325,-27904.14,-12074.355,-8929.44
1764764135.587212,-8545.86,-16110.72,-2533.86,-8308.529999999999,-19962.045,-27903.555,-12073.23,-8929.664999999999
1764764135.587212,-8546.67,-16111.44,-2534.58,-8308.935,-19962.765,-27905.985,-12075.345,-8930.744999999999
1764764135.587212,-8552.97,-16117.875,-2540.745,-8315.505,-19970.415,-27914.04,-12081.555,-8936.145
1764764135.587212,-8551.935,-16116.885,-2539.215,-8314.515,-19969.695,-27913.545,-12080.88,-8937.045
1764764135.587212,-8550.765,-16116.795,-2539.395,-8314.154999999999,-19968.48,-27912.78,-12080.745,-8936.55
1764764135.633419,-8549.82,-16116.12,-2538.585,-8312.805,-19967.985,-27912.42,-12080.07,-8934.57
1764764135.633419,-8546.895,-16112.61,-2534.85,-8309.52,-19964.43,-27909.045,-12076.38,-8930.97
1764764135.633419,-8546.715,-16112.475,-2535.3,-8310.465,-19965.195,-27909.36,-12076.92,-8931.105
1764764135.633419,-8544.645,-16110.0,-2531.925,-8306.19,-19959.75,-27905.445,-12074.85,-8929.35
1764764135.633419,-8548.199999999999,-16114.095,-2535.93,-8309.295,-19964.115,-27908.055,-12077.055,-8933.13
1764764135.633419,-8543.88,-16110.27,-2532.915,-8305.38,-19960.875,-27906.435,-12076.47,-8927.775
1764764135.633419,-8546.445,-16116.57,-2541.33,-8314.199999999999,-19969.155,-27913.68,-12081.285,-8927.505
1764764135.633419,-8550.27,-16117.875,-2541.6,-8315.595,-19969.74,-27914.04,-12081.69,-8934.795
1764764135.633419,-8545.949999999999,-16110.36,-2533.005,-8307.18,-19961.595,-27907.065,-12073.365,-8931.33
1764764135.633419,-8542.98,-16107.66,-2530.62,-8304.3,-19958.805,-27903.87,-12070.935,-8928.315
1764764135.633419,-8540.73,-16106.265,-2528.91,-8302.14,-19956.105,-27901.305,-12067.965,-8926.065
1764764135.633419,-8545.725,-16111.08,-2535.03,-8307.72,-19960.965,-27907.02,-12072.915,-8930.565
1764764135.633419,-8547.705,-16113.195,-2537.73,-8310.779999999999,-19964.115,-27910.44,-12076.785,-8932.32
1764764135.633419,-8547.255,-16112.565,-2535.48,-8307.765,-19961.055,-27909.225,-12078.36,-8931.914999999999
1764764135.633419,-8544.42,-16109.055,-2532.015,-8303.67,-19956.105,-27901.8,-12071.34,-8928.81
1764764135.633419,-8545.14,-16108.74,-2533.77,-8307.18,-19960.38,-27906.165,-12071.385,-8928.765
1764764135.6339855,-8541.81,-16105.995,-2529.81,-8302.949999999999,-19956.015,-27904.59,-12071.07,-8926.065
1764764135.6339855,-8547.029999999999,-16111.125,-2534.265,-8308.305,-19960.335,-27908.19,-12076.83,-8932.275
1764764135.6339855,-8548.065,-16112.745,-2536.74,-8310.42,-19962.945,-27909.27,-12076.605,-8933.445
1764764135.6339855,-8550.675,-16116.39,-2540.835,-8314.515,-19968.03,-27914.535,-12079.17,-8934.119999999999
1764764135.6339855,-8546.4,-16111.395,-2535.615,-8308.529999999999,-19961.055,-27906.975,-12076.695,-8931.42
1764764135.6339855,-8541.18,-16105.32,-2529.225,-8302.185,-19954.89,-27900.225,-12070.305,-8926.83
1764764135.6796248,-8543.43,-16107.57,-2530.755,-8304.48,-19957.095,-27902.07,-12070.89,-8927.19
1764764135.6796248,-8545.365,-16108.515,-2532.015,-8306.145,-19958.445,-27903.645,-12071.925,-8929.17
1764764135.6796248,-8547.795,-16111.44,-2535.795,-8309.744999999999,-19962.405,-27908.505,-12073.32,-8929.619999999999
1764764135.6796248,-8550.63,-16114.815,-2539.26,-8313.164999999999,-19966.545,-27912.33,-12075.93,-8931.195
1764764135.6796248,-8546.715,-16108.965,-2532.555,-8306.145,-19957.59,-27903.24,-12072.465,-8931.42
1764764135.6796248,-8551.485,-16114.725,-2539.53,-8312.67,-19964.115,-27908.91,-12074.94,-8935.154999999999
1764764135.6796248,-8547.705,-16109.955,-2534.355,-8308.44,-19960.56,-27908.055,-12077.415,-8931.06
1764764135.6796248,-8549.279999999999,-16111.8,-2535.435,-8309.295,-19961.145,-27909.99,-12081.015,-8932.545
1764764135.6796248,-8547.84,-16110.855,-2534.22,-8307.63,-19960.605,-27907.65,-12076.02,-8930.654999999999
1764764135.6796248,-8551.125,-16115.355,-2538.045,-8311.365,-19964.925,-27911.475,-12079.17,-8934.795
1764764135.6796248,-8552.61,-16117.29,-2539.53,-8312.895,-19964.745,-27911.88,-12080.16,-8935.289999999999
1764764135.6796248,-8551.44,-16115.445,-2538.315,-8311.455,-19964.115,-27911.025,-12078.18,-8933.13
1764764135.6796248,-8545.23,-16107.165,-2529.945,-8304.119999999999,-19957.995,-27904.59,-12073.185,-8929.44
1764764135.6796248,-8544.645,-16106.67,-2530.08,-8303.94,-19957.815,-27905.13,-12073.005,-8928.315
1764764135.6796248,-8547.93,-16111.44,-2535.39,-8308.529999999999,-19959.795,-27906.165,-12074.04,-8930.385
1764764135.6796248,-8553.779999999999,-16117.56,-2540.61,-8314.244999999999,-19966.545,-27912.78,-12080.205,-8936.414999999999
1764764135.6796248,-8553.69,-16117.56,-2540.205,-8314.515,-19966.59,-27913.68,-12080.565,-8935.92
1764764135.6796248,-8551.215,-16114.815,-2538.09,-8311.365,-19963.575,-27911.655,-12077.73,-8933.31
1764764135.6796248,-8546.445,-16109.91,-2533.59,-8307.045,-19959.255,-27906.975,-12072.78,-8928.72
1764764135.6796248,-8547.074999999999,-16110.63,-2533.59,-8307.225,-19959.255,-27905.58,-12072.825,-8929.17
1764764135.6796248,-8547.435,-16110.0,-2532.375,-8305.11,-19958.805,-27905.94,-12073.32,-8929.44
1764764135.6796248,-8548.154999999999,-16112.205,-2536.11,-8309.115,-19960.245,-27908.28,-12074.625,-8927.775
1764764135.6796248,-8551.35,-16115.715,-2540.115,-8312.895,-19962.81,-27910.845,-12077.64,-8930.654999999999
1764764135.6796248,-8550.135,-16113.465,-2538.18,-8312.13,-19965.015,-27913.365,-12077.865,-8930.654999999999
1764764135.7287383,-8544.33,-16107.12,-2530.305,-8303.76,-19956.645,-27905.805,-12071.52,-8926.335
1764764135.7287383,-8549.369999999999,-16111.35,-2534.85,-8307.99,-19959.525,-27909.945,-12076.875,-8930.295
1764764135.7287383,-8551.305,-16114.32,-2538.495,-8311.455,-19962.945,-27914.49,-12080.97,-8932.185
1764764135.7287383,-8552.07,-16116.39,-2540.115,-8312.805,-19963.62,-27915.255,-12082.23,-8933.625
1764764135.7287383,-8550.27,-16113.42,-2538.36,-8312.67,-19964.34,-27915.795,-12078.495,-8931.869999999999
1764764135.7287383,-8549.865,-16113.33,-2539.305,-8312.49,-19964.61,-27913.725,-12076.965,-8931.015
1764764135.7287383,-8543.699999999999,-16107.39,-2532.375,-8305.11,-19955.43,-27901.17,-12069.765,-8926.83
1764764135.7287383,-8547.615,-16112.295,-2536.515,-8309.565,-19961.145,-27905.715,-12072.195,-8929.755
1764764135.7287383,-8545.545,-16110.675,-2534.805,-8307.765,-19959.165,-27906.075,-12071.7,-8926.875
1764764135.7287383,-8547.21,-16111.935,-2536.335,-8309.385,-19960.74,-27908.73,-12074.67,-8929.755
1764764135.7287383,-8542.755,-16106.94,-2531.205,-8304.3,-19955.655,-27903.555,-12070.44,-8925.93
1764764135.7287383,-8547.029999999999,-16112.34,-2536.2,-8308.755,-19959.795,-27908.325,-12074.355,-8929.89
1764764135.7287383,-8543.654999999999,-16109.235,-2533.05,-8305.56,-19957.23,-27906.21,-12070.8,-8926.109999999999
1764764135.7287383,-8543.16,-16108.74,-2532.195,-8305.289999999999,-19957.32,-27906.12,-12070.62,-8925.48
1764764135.7287383,-8544.33,-16110.09,-2533.455,-8307.225,-19958.715,-27906.48,-12072.195,-8926.74
1764764135.7287383,-8544.779999999999,-16110.495,-2534.22,-8307.404999999999,-19959.57,-27906.57,-12072.51,-8927.865
1764764135.7287383,-8546.445,-16111.71,-2536.245,-8309.07,-19961.325,-27908.19,-12073.05,-8929.44
1764764135.7287383,-8549.145,-16114.14,-2538.495,-8312.039999999999,-19963.53,-27910.755,-12075.525,-8931.42
1764764135.7287383,-8545.815,-16110.63,-2535.255,-8308.664999999999,-19960.875,-27907.56,-12071.565,-8927.82
1764764135.7287383,-8545.32,-16111.665,-2536.605,-8309.52,-19961.73,-27910.53,-12075.12,-8924.805
1764764135.7287383,-8543.61,-16110.0,-2535.03,-8307.945,-19960.38,-27910.08,-12078.9,-8924.49
1764764135.7287383,-8547.255,-16109.955,-2534.445,-8307.675,-19960.38,-27908.055,-12077.955,-8932.14
1764764135.7287383,-8543.565,-16106.895,-2532.105,-8304.615,-19955.88,-27903.69,-12072.42,-8927.505
1764764135.7287383,-8544.824999999999,-16109.1,-2535.57,-8307.855,-19959.705,-27907.605,-12073.905,-8926.695
1764764135.7761464,-8546.039999999999,-16108.515,-2534.445,-8306.505,-19959.57,-27907.515,-12074.76,-8928.855
1764764135.7761464,-8545.41,-16106.805,-2532.195,-8304.119999999999,-19956.555,-27904.23,-12073.005,-8927.955
1764764135.7761464,-8546.67,-16109.1,-2534.355,-8306.46,-19958.58,-27907.38,-12074.49,-8928.404999999999
1764764135.7761464,-8546.22,-16108.47,-2533.59,-8307.315,-19959.48,-27908.415,-12074.31,-8928.045
1764764135.7761464,-8546.94,-16110.045,-2535.345,-8308.215,-19961.055,-27909.54,-12075.075,-8929.44
1764764135.7761464,-8546.355,-16110.18,-2535.075,-8307.765,-19959.84,-27908.64,-12074.355,-8928.675
1764764135.7761464,-8543.16,-16107.615,-2531.79,-8304.84,-19957.005,-27905.4,-12071.07,-8925.164999999999
1764764135.777209,-8548.289999999999,-16112.025,-2536.74,-8309.43,-19962.54,-27910.89,-12075.84,-8930.25
1764764135.777209,-8548.244999999999,-16110.72,-2536.2,-8308.619999999999,-19961.19,-27909.765,-12074.31,-8930.52
1764764135.777209,-8543.565,-16105.68,-2531.115,-8302.32,-19955.97,-27905.805,-12071.205,-8926.47
1764764135.777209,-8543.34,-16107.795,-2533.545,-8306.369999999999,-19958.985,-27907.47,-12072.24,-8925.48
1764764135.777209,-8543.744999999999,-16106.94,-2533.005,-8306.64,-19959.345,-27908.28,-12074.085,-8925.795
1764764135.777209,-8546.67,-16109.685,-2535.75,-8307.449999999999,-19959.3,-27908.145,-12075.345,-8928.18
1764764135.777209,-8554.185,-16118.55,-2543.535,-8314.695,-19964.88,-27913.14,-12081.285,-8933.265
1764764135.7782063,-8549.955,-16114.545,-2539.665,-8312.895,-19964.97,-27913.68,-12078.045,-8929.125
1764764135.7782063,-8551.619999999999,-16114.23,-2540.07,-8313.21,-19966.95,-27916.605,-12080.79,-8932.545
1764764135.7782063,-8547.795,-16110.765,-2536.335,-8308.529999999999,-19958.805,-27908.145,-12077.505,-8928.585
1764764135.7782063,-8547.615,-16109.73,-2535.66,-8308.44,-19960.47,-27910.665,-12076.47,-8929.755
1764764135.7782063,-8546.22,-16106.4,-2532.87,-8306.145,-19957.5,-27907.605,-12072.69,-8928.315
1764764135.7782063,-8547.84,-16109.865,-2535.93,-8309.07,-19960.02,-27910.08,-12075.21,-8928.945
1764764135.7782063,-8547.255,-16109.775,-2535.84,-8308.845,-19960.605,-27910.125,-12076.335,-8928.449999999999
1764764135.7782063,-8545.68,-16108.11,-2534.67,-8307.675,-19959.165,-27908.73,-12075.39,-8926.56
1764764135.7782063,-8543.295,-16105.59,-2531.655,-8305.02,-19956.375,-27905.805,-12071.205,-8924.22
1764764135.7782063,-8543.61,-16105.365,-2530.98,-8304.3,-19955.565,-27904.95,-12070.485,-8923.859999999999
1764764135.8204482,-8544.015,-16105.14,-2531.295,-8305.289999999999,-19956.69,-27905.67,-12071.16,-8923.365
1764764135.8204482,-8542.08,-16104.375,-2530.17,-8303.67,-19956.015,-27905.895,-12071.97,-8922.105
1764764135.8204482,-8541.585,-16103.565,-2529.405,-8302.68,-19955.655,-27906.84,-12072.915,-8921.97
1764764135.8204482,-8546.039999999999,-16108.155,-2534.445,-8307.945,-19960.47,-27911.925,-12076.965,-8926.74
1764764135.8204482,-8543.654999999999,-16105.815,-2532.465,-8305.83,-19958.67,-27910.08,-12073.5,-8924.13
1764764135.8204482,-8544.375,-16106.67,-2533.5,-8307.18,-19958.49,-27910.215,-12073.41,-8924.895
1764764135.8204482,-8544.779999999999,-16107.525,-2533.185,-8307.09,-19956.78,-27906.48,-12072.105,-8925.48
1764764135.8204482,-8547.3,-16111.08,-2536.56,-8310.51,-19960.785,-27908.055,-12074.31,-8927.955
1764764135.8204482,-8543.16,-16106.67,-2532.465,-8306.235,-19957.095,-27905.04,-12070.935,-8924.039999999999
1764764135.8204482,-8547.57,-16110.315,-2536.425,-8310.6,-19961.595,-27909.63,-12075.345,-8927.91
1764764135.8204482,-8545.68,-16107.795,-2533.995,-8307.81,-19959.345,-27907.38,-12073.77,-8925.57
1764764135.8204482,-8544.33,-16106.895,-2532.24,-8306.279999999999,-19957.77,-27906.435,-12072.105,-8924.445
1764764135.8204482,-8544.015,-16106.31,-2532.42,-8305.605,-19957.815,-27906.705,-12071.43,-8924.039999999999
1764764135.8204482,-8549.64,-16112.43,-2538.495,-8311.815,-19963.755,-27912.915,-12076.875,-8929.935
1764764135.8204482,-8547.435,-16109.82,-2536.38,-8309.789999999999,-19961.73,-27910.125,-12073.32,-8927.955
1764764135.8204482,-8550.494999999999,-16112.745,-2539.215,-8313.39,-19965.42,-27912.645,-12075.84,-8931.24
1764764135.8221552,-8550.675,-16114.005,-2540.385,-8313.705,-19966.32,-27912.69,-12075.57,-8931.824999999999
1764764135.8221552,-8546.85,-16110.585,-2536.965,-8309.835,-19961.82,-27908.955,-12073.68,-8928.675
1764764135.8221552,-8548.425,-16111.215,-2538.0,-8310.96,-19963.8,-27914.13,-12081.69,-8929.845
1764764135.8221552,-8548.65,-16111.755,-2537.91,-8311.68,-19963.665,-27912.69,-12080.475,-8929.89
1764764135.8221552,-8547.84,-16111.755,-2537.685,-8311.365,-19962.9,-27911.61,-12078.135,-8929.755
1764764135.8221552,-8542.619999999999,-16106.4,-2532.96,-8305.92,-19957.77,-27906.84,-12073.05,-8924.039999999999
1764764135.868551,-8544.42,-16108.875,-2535.48,-8308.17,-19960.2,-27910.665,-12073.5,-8922.33
1764764135.868551,-8548.38,-16113.645,-2539.98,-8312.355,-19965.06,-27915.435,-12077.37,-8925.66
1764764135.868551,-8543.205,-16104.24,-2530.395,-8302.86,-19956.645,-27905.715,-12073.14,-8927.595
1764764135.868551,-8542.08,-16102.935,-2531.16,-8305.38,-19957.77,-27906.345,-12070.8,-8925.795
1764764135.868551,-8547.75,-16109.505,-2537.595,-8310.6,-19962.135,-27910.845,-12075.39,-8929.845
1764764135.868551,-8547.39,-16109.37,-2537.325,-8309.744999999999,-19961.235,-27910.35,-12075.165,-8929.44
1764764135.8700714,-8546.805,-16108.695,-2536.65,-8309.565,-19961.28,-27910.305,-12075.3,-8928.99
1764764135.8700714,-8543.115,-16105.14,-2532.51,-8306.145,-19957.86,-27906.75,-12072.555,-8925.39
1764764135.8700714,-8543.025,-16105.77,-2533.185,-8306.505,-19958.535,-27907.965,-12074.715,-8925.66
1764764135.8700714,-8543.34,-16106.49,-2534.04,-8307.18,-19959.615,-27908.865,-12074.895,-8926.109999999999
1764764135.8700714,-8548.47,-16111.71,-2538.945,-8311.994999999999,-19965.015,-27913.725,-12079.035,-8930.385
1764764135.8700714,-8551.845,-16114.23,-2540.52,-8313.39,-19965.24,-27914.85,-12082.005,-8934.119999999999
1764764135.8700714,-8552.88,-16115.085,-2541.78,-8314.92,-19966.41,-27914.625,-12081.735,-8934.255
1764764135.8700714,-8549.1,-16111.305,-2538.585,-8312.58,-19963.665,-27912.33,-12077.415,-8930.475
1764764135.8700714,-8552.205,-16113.915,-2541.69,-8315.73,-19966.455,-27915.48,-12080.025,-8932.994999999999
1764764135.8700714,-8554.635,-16116.345,-2544.93,-8318.52,-19970.91,-27919.62,-12081.96,-8934.164999999999
1764764135.8700714,-8552.34,-16114.455,-2542.41,-8315.64,-19967.625,-27915.21,-12080.97,-8932.859999999999
1764764135.8700714,-8547.84,-16109.37,-2536.155,-8308.98,-19959.75,-27908.73,-12077.145,-8930.34
1764764135.8700714,-8546.31,-16107.345,-2533.86,-8307.855,-19958.49,-27908.865,-12074.94,-8927.46
1764764135.8700714,-8547.164999999999,-16109.28,-2535.93,-8309.699999999999,-19960.11,-27910.305,-12075.48,-8927.414999999999
1764764135.8700714,-8549.324999999999,-16112.205,-2540.7,-8314.154999999999,-19964.7,-27914.445,-12077.37,-8928.855
1764764135.8700714,-8552.205,-16112.52,-2541.105,-8314.515,-19965.69,-27915.93,-12079.395,-8932.095
1764764135.8700714,-8552.52,-16112.385,-2540.745,-8313.57,-19964.745,-27914.715,-12078.585,-8932.545
1764764135.8700714,-8552.25,-16112.925,-2541.375,-8314.47,-19966.14,-27915.795,-12079.755,-8932.455
1764764135.914375,-8552.34,-16113.645,-2541.915,-8315.279999999999,-19967.94,-27918.18,-12080.97,-8932.949999999999
1764764135.914375,-8553.645,-16114.77,-2542.275,-8315.1,-19967.94,-27917.415,-12080.43,-8934.57
1764764135.914375,-8550.225,-16111.98,-2539.35,-8312.31,-19964.25,-27916.11,-12081.825,-8931.15
1764764135.914375,-8549.55,-16112.34,-2540.745,-8313.795,-19964.97,-27917.1,-12085.695,-8929.395
1764764135.914375,-8550.27,-16111.44,-2539.98,-8313.074999999999,-19965.195,-27913.77,-12080.34,-8931.105
1764764135.914375,-8553.96,-16115.67,-2543.94,-8316.81,-19969.065,-27916.065,-12081.555,-8933.895
1764764135.914375,-8553.779999999999,-16114.455,-2542.365,-8314.965,-19968.255,-27916.965,-12082.545,-8932.949999999999
1764764135.914375,-8555.805,-16115.805,-2543.715,-8316.045,-19968.975,-27918.315,-12085.605,-8936.19
1764764135.914375,-8553.015,-16114.41,-2542.14,-8313.975,-19966.005,-27914.805,-12081.24,-8933.039999999999
1764764135.914375,-8549.055,-16110.0,-2538.18,-8311.14,-19963.62,-27911.745,-12077.055,-8929.8
1764764135.914375,-8549.369999999999,-16109.505,-2537.37,-8310.914999999999,-19964.25,-27912.42,-12077.865,-8931.105
1764764135.914375,-8553.15,-16114.635,-2541.87,-8315.279999999999,-19968.57,-27919.89,-12084.345,-8933.76
1764764135.914375,-8560.44,-16126.065,-2554.425,-8326.485,-19978.74,-27929.655,-12091.005,-8936.865
1764764135.914375,-8554.185,-16118.46,-2546.235,-8318.07,-19970.415,-27919.845,-12086.055,-8933.13
1764764135.914375,-8550.539999999999,-16111.62,-2539.98,-8313.345,-19966.095,-27913.77,-12079.17,-8932.68
1764764135.914375,-8545.77,-16106.58,-2534.805,-8307.945,-19960.29,-27908.505,-12072.42,-8926.38
1764764135.914375,-8545.185,-16106.67,-2534.715,-8307.945,-19960.74,-27909.63,-12074.355,-8927.64
1764764135.914375,-8548.154999999999,-16110.945,-2538.585,-8312.355,-19965.69,-27914.895,-12078.315,-8930.16
1764764135.914375,-8549.73,-16112.16,-2540.79,-8313.885,-19968.525,-27919.395,-12078.315,-8929.619999999999
1764764135.914375,-8550.494999999999,-16112.34,-2541.15,-8313.435,-19965.69,-27914.985,-12077.82,-8930.654999999999
1764764135.914375,-8547.119999999999,-16108.38,-2536.38,-8308.305,-19960.11,-27909.18,-12075.795,-8928.585
1764764135.914375,-8550.315,-16112.925,-2541.015,-8313.75,-19965.33,-27914.175,-12078.945,-8932.095
1764764135.914375,-8551.17,-16114.14,-2541.6,-8314.244999999999,-19965.915,-27915.75,-12079.845,-8933.31
1764764135.914375,-8550.72,-16113.105,-2540.475,-8313.705,-19965.015,-27915.705,-12079.71,-8932.32
1764764135.961111,-8545.725,-16107.705,-2536.155,-8309.07,-19961.28,-27911.565,-12075.66,-8927.414999999999
1764764135.961111,-8544.105,-16106.805,-2534.265,-8307.18,-19960.155,-27910.53,-12074.49,-8926.425
1764764135.9621158,-8545.32,-16107.84,-2535.435,-8308.664999999999,-19961.415,-27911.655,-12075.93,-8927.145
1764764135.9621158,-8553.33,-16115.22,-2543.355,-8316.225,-19969.38,-27919.17,-12083.49,-8934.48
1764764135.9621158,-8551.664999999999,-16113.285,-2541.735,-8314.83,-19967.67,-27916.605,-12082.455,-8933.94
1764764135.9621158,-8546.22,-16107.795,-2536.2,-8308.8,-19961.595,-27910.665,-12076.38,-8927.414999999999
1764764135.9621158,-8546.67,-16107.615,-2536.785,-8309.43,-19962.27,-27912.105,-12076.515,-8927.369999999999
1764764135.9621158,-8549.55,-16111.305,-2540.205,-8312.58,-19965.555,-27915.885,-12079.755,-8931.105
1764764135.9621158,-8547.84,-16110.135,-2538.855,-8311.095,-19964.88,-27914.265,-12078.9,-8929.44
1764764135.9621158,-8550.315,-16112.475,-2541.15,-8312.445,-19965.555,-27914.49,-12079.755,-8930.565
1764764135.9621158,-8548.199999999999,-16109.28,-2539.125,-8310.645,-19964.88,-27914.04,-12078.405,-8928.539999999999
1764764135.9621158,-8546.49,-16107.255,-2536.605,-8308.035,-19961.73,-27912.06,-12078.09,-8928.315
1764764135.9621158,-8541.63,-16103.295,-2533.095,-8304.795,-19957.365,-27906.75,-12072.915,-8922.824999999999
1764764135.9621158,-8548.199999999999,-16109.28,-2539.755,-8311.68,-19964.43,-27913.995,-12077.64,-8928.404999999999
1764764135.9621158,-8547.255,-16106.895,-2537.64,-8309.744999999999,-19963.305,-27912.69,-12076.695,-8928.494999999999
1764764135.9621158,-8545.23,-16106.13,-2536.29,-8307.494999999999,-19961.325,-27910.575,-12075.615,-8926.425
1764764135.9621158,-8546.22,-16107.255,-2537.73,-8308.664999999999,-19962.585,-27911.97,-12075.93,-8927.055
1764764135.9621158,-8545.14,-16106.94,-2536.74,-8307.18,-19961.325,-27911.115,-12075.39,-8926.199999999999
1764764135.963133,-8543.295,-16105.5,-2535.39,-8305.244999999999,-19959.03,-27908.595,-12074.13,-8924.85
1764764135.963133,-8541.09,-16102.845,-2533.14,-8302.949999999999,-19956.645,-27905.805,-12071.79,-8921.97
1764764135.963133,-8542.89,-16105.185,-2535.345,-8304.3,-19957.905,-27907.29,-12073.59,-8923.005
1764764135.963133,-8544.645,-16108.695,-2537.55,-8307.449999999999,-19961.82,-27910.215,-12076.83,-8923.545
1764764136.0057354,-8541.81,-16104.78,-2533.59,-8304.164999999999,-19959.165,-27908.28,-12075.03,-8922.465
1764764136.0057354,-8545.365,-16107.435,-2537.325,-8308.529999999999,-19962.36,-27911.115,-12076.515,-8925.84
1764764136.0057354,-8546.265,-16108.785,-2538.0,-8309.43,-19963.44,-27911.88,-12077.28,-8926.38
1764764136.0057354,-8543.744999999999,-16106.445,-2535.435,-8306.82,-19961.01,-27908.82,-12074.58,-8923.949999999999
1764764136.0062635,-8542.845,-16104.195,-2533.545,-8303.67,-19958.58,-27906.84,-12074.31,-8923.365
1764764136.0062635,-8542.755,-16105.59,-2535.84,-8306.82,-19959.615,-27909.18,-12075.21,-8921.88
1764764136.0062635,-8546.4,-16109.145,-2539.17,-8310.465,-19963.035,-27911.88,-12077.145,-8924.895
1764764136.0062635,-8544.195,-16107.12,-2536.83,-8307.63,-19961.325,-27910.08,-12074.535,-8922.33
1764764136.0062635,-8549.1,-16113.735,-2543.355,-8314.244999999999,-19968.03,-27916.83,-12077.235,-8924.039999999999
1764764136.0062635,-8541.9,-16103.835,-2532.645,-8304.255,-19956.96,-27905.13,-12069.9,-8920.17
1764764136.0062635,-8539.56,-16100.145,-2528.235,-8300.835,-19953.54,-27900.585,-12064.68,-8919.449999999999
1764764136.0062635,-8542.305,-16104.195,-2532.465,-8305.244999999999,-19959.165,-27908.28,-12073.95,-8920.529999999999
1764764136.0062635,-8537.58,-16098.12,-2526.84,-8298.765,-19951.92,-27901.62,-12072.645,-8917.605
1764764136.0062635,-8540.865,-16101.45,-2530.71,-8303.13,-19956.105,-27904.59,-12072.78,-8920.17
1764764136.0062635,-8543.88,-16105.095,-2534.265,-8306.82,-19959.525,-27907.695,-12075.3,-8922.195
1764764136.0062635,-8538.255,-16099.695,-2528.505,-8300.744999999999,-19954.305,-27903.06,-12069.945,-8916.66
1764764136.0062635,-8540.955,-16103.835,-2532.42,-8305.154999999999,-19959.03,-27907.605,-12072.645,-8920.395
1764764136.0062635,-8540.82,-16102.44,-2531.43,-8304.615,-19958.58,-27906.705,-12072.06,-8919.27
1764764136.0062635,-8542.17,-16103.34,-2532.015,-8304.48,-19957.095,-27906.12,-12073.86,-8920.98
1764764136.0062635,-8538.66,-16101.09,-2529.855,-8301.869999999999,-19954.125,-27902.475,-12068.82,-8917.65
1764764136.0062635,-8539.74,-16102.035,-2530.395,-8302.68,-19954.935,-27902.475,-12068.73,-8917.83
1764764136.0062635,-8537.85,-16100.325,-2528.37,-8302.14,-19956.105,-27904.275,-12070.53,-8917.605
1764764136.0062635,-8539.695,-16102.485,-2531.565,-8303.985,-19957.185,-27906.615,-12071.565,-8919.27
1764764136.0062635,-8543.34,-16107.165,-2535.84,-8308.395,-19961.19,-27910.665,-12074.895,-8922.779999999999
1764764136.053808,-8540.19,-16104.42,-2532.78,-8305.38,-19958.4,-27906.435,-12071.97,-8920.44
1764764136.053808,-8540.775,-16105.455,-2534.22,-8306.64,-19960.29,-27908.37,-12073.59,-8920.664999999999
1764764136.053808,-8541.045,-16104.33,-2532.555,-8304.615,-19958.31,-27906.93,-12073.14,-8921.789999999999
1764764136.053808,-8544.465,-16107.48,-2536.02,-8307.945,-19960.74,-27909.63,-12076.38,-8924.49
1764764136.053808,-8541.585,-16105.32,-2534.4,-8306.145,-19959.615,-27908.01,-12074.445,-8920.845
1764764136.053808,-8541.494999999999,-16105.095,-2533.77,-8305.47,-19959.3,-27908.55,-12074.445,-8920.305
1764764136.053808,-8543.115,-16105.455,-2534.355,-8306.279999999999,-19959.885,-27909.36,-12074.715,-8920.71
1764764136.053808,-8547.119999999999,-16108.875,-2538.72,-8310.645,-19963.755,-27913.095,-12078.405,-8924.715
1764764136.0551424,-8543.61,-16106.04,-2535.21,-8307.99,-19960.515,-27910.305,-12074.67,-8921.654999999999
1764764136.0551424,-8545.994999999999,-16108.245,-2536.785,-8309.52,-19962.54,-27912.825,-12077.28,-8923.904999999999
1764764136.0551424,-8547.615,-16110.54,-2538.18,-8310.195,-19963.665,-27913.455,-12079.755,-8925.57
1764764136.0551424,-8546.805,-16110.63,-2537.865,-8310.42,-19963.125,-27911.52,-12077.37,-8924.22
1764764136.0551424,-8539.695,-16102.305,-2529.495,-8304.029999999999,-19957.905,-27905.715,-12069.9,-8917.83
1764764136.0551424,-8540.73,-16102.395,-2529.0,-8302.68,-19958.085,-27906.615,-12071.835,-8919.18
1764764136.0561724,-8544.869999999999,-16108.83,-2537.19,-8310.555,-19965.24,-27915.84,-12079.62,-8920.845
1764764136.0561724,-8547.93,-16112.745,-2542.095,-8315.145,-19968.885,-27917.37,-12080.565,-8923.5
1764764136.0561724,-8542.035,-16104.645,-2532.915,-8305.289999999999,-19958.445,-27907.065,-12071.655,-8919.81
1764764136.0561724,-8540.64,-16102.62,-2531.52,-8305.065,-19959.03,-27907.515,-12070.485,-8919.449999999999
1764764136.0561724,-8540.595,-16102.53,-2531.115,-8304.705,-19959.75,-27909.09,-12072.465,-8919.63
1764764136.0561724,-8543.25,-16105.95,-2533.59,-8307.27,-19962.765,-27913.005,-12074.04,-8921.835
1764764136.0561724,-8549.01,-16111.845,-2539.62,-8312.895,-19968.435,-27918.855,-12076.29,-8925.48
1764764136.0561724,-8549.414999999999,-16111.845,-2541.645,-8314.74,-19965.915,-27915.705,-12078.27,-8926.244999999999
1764764136.0561724,-8548.065,-16109.37,-2539.08,-8312.94,-19964.88,-27913.365,-12075.39,-8925.84
1764764136.0561724,-8551.125,-16113.015,-2542.14,-8315.414999999999,-19968.48,-27918.855,-12080.205,-8927.775
1764764136.100088,-8544.33,-16106.58,-2534.85,-8307.72,-19961.595,-27913.59,-12080.25,-8921.475
1764764136.100088,-8545.5,-16106.625,-2535.165,-8307.585,-19960.02,-27910.575,-12077.64,-8925.029999999999
1764764136.100088,-8542.89,-16103.97,-2532.87,-8306.505,-19958.715,-27909.405,-12071.52,-8920.755
1764764136.100088,-8546.265,-16107.84,-2536.785,-8310.914999999999,-19964.52,-27914.04,-12074.58,-8923.275
1764764136.100088,-8550.945,-16112.655,-2540.925,-8315.369999999999,-19968.21,-27918.135,-12079.485,-8927.369999999999
1764764136.100088,-8550.945,-16112.565,-2541.465,-8315.55,-19968.12,-27917.82,-12079.395,-8927.1
1764764136.100088,-8547.119999999999,-16107.975,-2537.055,-8311.77,-19964.655,-27914.535,-12076.02,-8923.05
1764764136.100088,-8544.735,-16105.005,-2534.22,-8309.07,-19962.045,-27912.33,-12075.03,-8922.51
1764764136.100088,-8545.23,-16106.22,-2535.39,-8309.115,-19962.495,-27912.24,-12075.93,-8923.095
1764764136.100088,-8547.074999999999,-16108.695,-2538.405,-8311.994999999999,-19965.24,-27915.12,-12077.37,-8925.39
1764764136.100088,-8551.26,-16112.88,-2542.68,-8315.775,-19968.93,-27919.485,-12081.33,-8929.215
1764764136.100088,-8547.975,-16109.37,-2539.44,-8312.94,-19966.095,-27917.145,-12078.63,-8924.85
1764764136.100088,-8546.67,-16107.66,-2537.73,-8310.779999999999,-19963.62,-27915.615,-12077.505,-8924.175
1764764136.100088,-8545.5,-16107.03,-2537.325,-8310.779999999999,-19962.945,-27914.895,-12076.425,-8924.22
1764764136.100088,-8548.289999999999,-16109.28,-2540.25,-8314.425,-19967.445,-27918.855,-12079.53,-8926.83
1764764136.100088,-8545.14,-16105.365,-2536.47,-8311.005,-19963.215,-27914.265,-12077.64,-8923.05
1764764136.100088,-8547.255,-16108.56,-2539.08,-8312.13,-19964.34,-27914.22,-12079.845,-8924.49
1764764136.100088,-8545.68,-16106.67,-2537.64,-8310.195,-19963.575,-27914.175,-12078.495,-8924.31
1764764136.100088,-8544.42,-16105.095,-2536.56,-8309.654999999999,-19963.305,-27915.795,-12078.18,-8924.085
1764764136.100088,-8545.59,-16107.255,-2537.55,-8311.5,-19963.71,-27916.47,-12076.29,-8924.4
1764764136.100088,-8548.56,-16109.82,-2540.25,-8314.154999999999,-19966.23,-27918.18,-12076.245,-8927.145
1764764136.100088,-8545.455,-16106.4,-2537.415,-8311.455,-19962.855,-27914.13,-12075.255,-8924.085
1764764136.1463883,-8545.5,-16106.58,-2537.505,-8311.86,-19963.17,-27914.805,-12076.2,-8924.175
1764764136.1463883,-8551.619999999999,-16112.655,-2543.94,-8317.44,-19969.56,-27921.24,-12082.365,-8930.34
1764764136.1463883,-8549.46,-16109.865,-2540.7,-8315.279999999999,-19968.345,-27920.655,-12080.745,-8927.324999999999
1764764136.1463883,-8546.265,-16106.445,-2537.37,-8311.545,-19964.295,-27915.975,-12076.38,-8924.13
1764764136.1463883,-8548.605,-16108.47,-2539.35,-8313.48,-19965.735,-27917.1,-12078.045,-8926.335
1764764136.1463883,-8546.94,-16105.365,-2536.965,-8311.005,-19963.845,-27914.58,-12076.11,-8924.265
1764764136.1463883,-8549.865,-16109.19,-2539.665,-8312.715,-19966.68,-27919.08,-12080.205,-8928.225
1764764136.1463883,-8550.945,-16111.845,-2543.625,-8316.945,-19968.165,-27920.385,-12080.34,-8927.414999999999
1764764136.1463883,-8550.27,-16111.665,-2542.365,-8315.865,-19967.94,-27920.205,-12079.71,-8927.324999999999
1764764136.1463883,-8548.47,-16109.55,-2539.89,-8313.345,-19966.86,-27919.62,-12077.64,-8925.66
1764764136.1463883,-8543.43,-16103.565,-2535.21,-8308.17,-19961.19,-27913.32,-12072.555,-8920.529999999999
1764764136.1463883,-8545.32,-16104.87,-2537.415,-8310.15,-19964.115,-27914.895,-12074.805,-8922.555
1764764136.1463883,-8547.48,-16107.84,-2539.98,-8312.355,-19966.32,-27918.27,-12077.28,-8924.67
1764764136.1463883,-8550.09,-16110.945,-2542.095,-8314.74,-19967.895,-27920.655,-12079.89,-8927.414999999999
1764764136.1463883,-8546.94,-16108.155,-2539.575,-8312.67,-19965.6,-27919.035,-12076.425,-8925.119999999999
1764764136.1463883,-8552.61,-16114.455,-2546.055,-8319.105,-19971.99,-27925.875,-12081.555,-8929.619999999999
1764764136.1463883,-8548.875,-16110.27,-2541.465,-8313.21,-19964.97,-27916.875,-12079.35,-8925.795
1764764136.1463883,-8548.83,-16109.64,-2541.33,-8313.93,-19966.545,-27919.35,-12079.44,-8925.435
1764764136.1463883,-8553.015,-16112.43,-2543.13,-8315.595,-19968.255,-27920.61,-12081.015,-8931.33
1764764136.1463883,-8550.18,-16109.28,-2539.215,-8311.815,-19965.375,-27918.495,-12079.35,-8927.595
1764764136.1463883,-8547.57,-16107.075,-2538.315,-8311.949999999999,-19965.24,-27918.63,-12078.0,-8925.885
1764764136.1463883,-8551.845,-16111.53,-2543.94,-8316.81,-19969.155,-27922.095,-12081.285,-8931.015
1764764136.1463883,-8550.63,-16109.325,-2540.52,-8313.119999999999,-19966.05,-27918.315,-12079.305,-8929.755
1764764136.1463883,-8552.475,-16111.71,-2543.085,-8315.145,-19968.57,-27920.97,-12081.465,-8930.744999999999
1764764136.192972,-8552.52,-16111.44,-2543.22,-8314.244999999999,-19968.615,-27921.915,-12081.285,-8930.97
1764764136.192972,-8551.26,-16110.315,-2541.555,-8312.805,-19967.13,-27919.755,-12081.015,-8929.08
1764764136.192972,-8547.48,-16106.67,-2537.64,-8309.52,-19963.035,-27915.435,-12078.135,-8925.255
1764764136.192972,-8549.73,-16108.695,-2539.35,-8311.14,-19965.105,-27918.315,-12079.89,-8926.74
1764764136.1934874,-8553.51,-16113.735,-2543.355,-8315.82,-19969.965,-27923.13,-12081.42,-8929.755
1764764136.1934874,-8549.505,-16110.99,-2541.015,-8313.3,-19967.625,-27921.15,-12076.11,-8923.5
1764764136.1934874,-8547.119999999999,-16107.525,-2538.405,-8310.195,-19963.755,-27918.045,-12077.46,-8922.465
1764764136.1934874,-8548.605,-16107.66,-2538.63,-8310.51,-19962.405,-27914.805,-12078.855,-8927.505
1764764136.1934874,-8551.35,-16109.82,-2541.15,-8313.93,-19968.03,-27919.62,-12081.24,-8930.25
1764764136.1934874,-8549.279999999999,-16107.705,-2538.54,-8311.904999999999,-19967.625,-27920.925,-12082.095,-8928.045
1764764136.1934874,-8547.029999999999,-16106.175,-2536.785,-8308.305,-19962.54,-27916.38,-12078.225,-8925.39
1764764136.1934874,-8551.935,-16111.08,-2542.32,-8314.154999999999,-19966.905,-27919.845,-12081.96,-8929.529999999999
1764764136.1934874,-8550.855,-16110.99,-2542.365,-8314.335,-19966.995,-27920.79,-12083.625,-8927.055
1764764136.1934874,-8551.89,-16112.385,-2544.615,-8316.135,-19969.155,-27921.915,-12086.37,-8928.135
1764764136.1934874,-8551.845,-16108.605,-2539.08,-8311.275,-19965.195,-27917.865,-12081.33,-8930.34
1764764136.1934874,-8548.56,-16107.12,-2538.27,-8311.275,-19964.205,-27917.91,-12077.595,-8924.67
1764764136.1934874,-8544.24,-16104.015,-2536.065,-8308.935,-19963.08,-27914.805,-12073.68,-8920.845
1764764136.1934874,-8545.86,-16104.51,-2535.525,-8307.18,-19960.965,-27914.22,-12076.155,-8922.465
1764764136.1934874,-8549.595,-16108.83,-2539.755,-8311.005,-19964.385,-27917.955,-12079.08,-8926.065
1764764136.1934874,-8551.125,-16110.405,-2541.51,-8313.345,-19966.86,-27919.98,-12080.61,-8927.055
1764764136.1934874,-8552.25,-16112.34,-2544.075,-8315.73,-19969.47,-27923.04,-12080.655,-8926.244999999999
1764764136.1934874,-8550.18,-16109.64,-2541.87,-8313.66,-19967.265,-27919.665,-12079.125,-8926.289999999999
1764764136.2432046,-8545.23,-16103.43,-2535.3,-8306.19,-19959.57,-27910.845,-12074.805,-8923.41
1764764136.2432046,-8544.375,-16103.115,-2534.94,-8305.785,-19959.885,-27910.98,-12071.88,-8921.07
1764764136.2432046,-8544.735,-16103.43,-2534.805,-8306.505,-19960.245,-27911.925,-12073.815,-8921.115
1764764136.2432046,-8542.26,-16101.405,-2532.96,-8304.255,-19958.265,-27913.275,-12078.045,-8917.74
1764764136.2432046,-8540.82,-16099.92,-2531.79,-8303.13,-19957.005,-27911.205,-12073.77,-8915.67
1764764136.2432046,-8543.34,-16101.99,-2533.14,-8304.705,-19957.77,-27911.61,-12075.345,-8919.539999999999
1764764136.2432046,-8545.635,-16106.085,-2537.055,-8308.755,-19961.685,-27914.58,-12076.875,-8921.385
1764764136.2432046,-8545.59,-16104.375,-2535.66,-8308.35,-19962.495,-27916.605,-12076.425,-8922.015
1764764136.2432046,-8548.92,-16107.165,-2537.73,-8310.24,-19963.98,-27917.595,-12077.955,-8925.164999999999
1764764136.2432046,-8549.369999999999,-16108.02,-2538.855,-8311.32,-19965.15,-27917.865,-12078.945,-8925.255
1764764136.2432046,-8548.965,-16107.84,-2539.17,-8310.869999999999,-19965.465,-27917.64,-12078.63,-8925.029999999999
1764764136.2432046,-8548.515,-16107.795,-2538.855,-8310.105,-19964.655,-27917.415,-12078.315,-8924.4
1764764136.2432046,-8544.33,-16103.88,-2535.48,-8307.135,-19961.325,-27913.455,-12074.895,-8920.484999999999
1764764136.2432046,-8545.005,-16104.375,-2536.065,-8307.765,-19962.18,-27913.68,-12075.615,-8920.755
1764764136.2432046,-8547.795,-16107.345,-2538.9,-8309.654999999999,-19964.52,-27916.74,-12078.63,-8923.59
1764764136.2432046,-8553.24,-16112.43,-2543.175,-8314.83,-19969.425,-27922.545,-12083.445,-8928.315
1764764136.2432046,-8549.414999999999,-16108.74,-2539.845,-8311.005,-19965.78,-27918.495,-12079.98,-8924.76
1764764136.2432046,-8550.9,-16108.965,-2539.44,-8310.6,-19966.365,-27918.27,-12081.465,-8926.74
1764764136.2432046,-8546.13,-16103.79,-2535.48,-8306.55,-19961.685,-27915.345,-12078.225,-8921.744999999999
1764764136.2432046,-8547.705,-16105.32,-2537.865,-8308.755,-19961.865,-27915.165,-12077.595,-8922.51
1764764136.2432046,-8550.585,-16108.065,-2540.07,-8310.645,-19964.7,-27917.865,-12079.53,-8925.615
1764764136.2432046,-8547.705,-16105.14,-2537.28,-8307.72,-19962.72,-27914.895,-12076.245,-8922.6
1764764136.289712,-8548.83,-16107.345,-2539.125,-8309.52,-19964.97,-27916.65,-12078.0,-8924.22
1764764136.289712,-8544.015,-16102.125,-2534.31,-8304.795,-19960.155,-27913.05,-12074.22,-8919.81
1764764136.289712,-8545.994999999999,-16105.23,-2536.83,-8307.045,-19962.63,-27914.58,-12075.3,-8920.89
1764764136.289712,-8549.775,-16109.055,-2538.945,-8309.52,-19963.485,-27914.805,-12077.595,-8923.005
1764764136.289712,-8544.33,-16101.225,-2531.385,-8303.445,-19958.085,-27910.305,-12075.705,-8920.619999999999
1764764136.289712,-8546.175,-16103.115,-2534.4,-8305.785,-19962.09,-27915.795,-12078.405,-8922.96
1764764136.289712,-8545.005,-16104.87,-2536.695,-8308.17,-19961.415,-27914.04,-12075.075,-8919.359999999999
1764764136.289712,-8543.654999999999,-16103.7,-2534.76,-8306.865,-19959.75,-27913.23,-12074.085,-8918.369999999999
1764764136.289712,-8545.41,-16104.06,-2535.255,-8307.045,-19961.55,-27915.255,-12075.57,-8919.494999999999
1764764136.289712,-8547.48,-16106.13,-2538.18,-8308.89,-19963.35,-27918.63,-12077.145,-8919.99
1764764136.3370645,-8546.805,-16103.925,-2535.84,-8306.145,-19959.57,-27913.23,-12076.605,-8922.015
1764764136.3370645,-8543.43,-16100.145,-2532.105,-8302.725,-19956.42,-27909.405,-12072.015,-8918.865
1764764136.3370645,-8544.195,-16101.54,-2533.545,-8304.3,-19958.445,-27911.7,-12073.5,-8918.73
1764764136.3380728,-8548.11,-16105.68,-2537.64,-8308.529999999999,-19963.395,-27917.19,-12078.54,-8922.195
1764764136.3380728,-8545.005,-16102.845,-2535.03,-8305.47,-19959.975,-27914.985,-12075.57,-8919.945
1764764136.3380728,-8549.01,-16107.435,-2539.08,-8309.565,-19963.845,-27918.405,-12079.125,-8923.815
1764764136.3380728,-8549.55,-16108.38,-2539.665,-8310.105,-19965.15,-27918.36,-12079.53,-8924.76
1764764136.3380728,-8548.65,-16107.525,-2538.81,-8309.654999999999,-19964.61,-27917.145,-12079.395,-8924.4
1764764136.3380728,-8544.869999999999,-16102.89,-2534.805,-8305.695,-19960.695,-27913.455,-12075.3,-8919.404999999999
1764764136.3380728,-8547.39,-16106.22,-2538.18,-8308.98,-19964.79,-27918.09,-12076.65,-8920.395
1764764136.3380728,-8548.065,-16106.535,-2537.64,-8308.71,-19963.17,-27915.615,-12079.89,-8922.734999999999
1764764136.3380728,-8545.005,-16102.98,-2533.86,-8305.605,-19959.165,-27911.52,-12076.155,-8920.935
1764764136.3380728,-8541.72,-16099.11,-2530.89,-8302.59,-19957.14,-27910.035,-12072.465,-8916.705
1764764136.3380728,-8547.029999999999,-16104.51,-2536.065,-8307.585,-19962.945,-27915.57,-12077.325,-8921.744999999999
1764764136.3380728,-8548.154999999999,-16105.905,-2536.92,-8309.61,-19964.7,-27917.415,-12079.215,-8923.365
1764764136.3380728,-8548.605,-16106.805,-2538.225,-8310.24,-19965.24,-27918.315,-12079.26,-8923.859999999999
1764764136.3380728,-8547.705,-16105.005,-2537.505,-8308.619999999999,-19963.08,-27916.47,-12077.73,-8923.095
1764764136.339076,-8543.654999999999,-16099.965,-2533.005,-8303.85,-19958.13,-27911.61,-12073.365,-8918.595
1764764136.339076,-8548.605,-16105.005,-2537.1,-8307.99,-19962.765,-27915.705,-12077.46,-8922.465
1764764136.339076,-8549.775,-16107.615,-2538.765,-8310.779999999999,-19964.79,-27918.585,-12080.115,-8923.23
1764764136.339076,-8551.35,-16110.765,-2541.78,-8314.065,-19967.985,-27922.995,-12081.645,-8924.49
1764764136.339076,-8546.31,-16103.745,-2535.345,-8307.315,-19960.155,-27915.795,-12078.09,-8919.945
1764764136.339076,-8541.63,-16097.13,-2530.17,-8303.13,-19956.645,-27911.295,-12072.825,-8917.02
1764764136.339076,-8544.465,-16100.325,-2532.69,-8305.47,-19958.94,-27913.86,-12074.895,-8921.88
1764764136.339076,-8542.08,-16099.38,-2531.52,-8304.57,-19956.645,-27911.88,-12073.005,-8919.045
1764764136.339076,-8544.195,-16101.36,-2534.22,-8308.35,-19960.965,-27914.49,-12074.4,-8919.99
1764764136.339076,-8546.67,-16104.42,-2537.64,-8310.555,-19963.755,-27918.63,-12078.045,-8923.365
1764764136.339076,-8547.39,-16107.39,-2539.17,-8310.6,-19961.64,-27915.48,-12075.435,-8922.42
1764764136.339076,-8549.1,-16108.02,-2540.295,-8313.615,-19966.365,-27919.215,-12076.605,-8924.13
1764764136.339076,-8542.755,-16099.38,-2531.295,-8304.705,-19957.815,-27913.815,-12072.42,-8918.46
1764764136.339076,-8543.565,-16100.505,-2533.095,-8305.289999999999,-19959.255,-27916.38,-12076.92,-8917.83
1764764136.339076,-8544.645,-16101.135,-2534.13,-8306.82,-19961.19,-27916.155,-12075.57,-8919.72
1764764136.339076,-8543.699999999999,-16099.605,-2532.375,-8304.66,-19959.66,-27915.21,-12074.22,-8919.494999999999
1764764136.339076,-8544.69,-16101.72,-2535.75,-8308.08,-19961.145,-27917.55,-12076.56,-8920.44
1764764136.339076,-8548.65,-16105.005,-2539.98,-8311.77,-19965.195,-27920.52,-12079.8,-8924.67
1764764136.339076,-8546.58,-16101.63,-2536.02,-8307.27,-19961.865,-27917.1,-12076.065,-8921.789999999999
1764764136.339076,-8545.815,-16100.46,-2533.59,-8304.93,-19960.47,-27916.875,-12076.38,-8921.609999999999
1764764136.339076,-8545.635,-16103.295,-2537.64,-8308.755,-19961.82,-27918.27,-12076.2,-8919.855
1764764136.339076,-8546.67,-16104.33,-2538.045,-8308.71,-19962.495,-27919.125,-12076.605,-8921.295
1764764136.339076,-8549.91,-16107.795,-2541.015,-8311.68,-19966.59,-27923.31,-12080.115,-8925.21
1764764136.3818357,-8549.865,-16107.66,-2540.97,-8311.68,-19966.77,-27922.545,-12080.25,-8925.435
1764764136.3818357,-8542.98,-16101.36,-2534.04,-8305.56,-19960.47,-27915.705,-12074.4,-8919.045
1764764136.3818357,-8543.205,-16101.405,-2534.76,-8305.515,-19960.965,-27915.975,-12074.67,-8919.045
1764764136.3818357,-8551.664999999999,-16109.865,-2543.67,-8315.55,-19972.17,-27926.82,-12082.23,-8926.425
1764764136.3828404,-8553.42,-16111.575,-2545.29,-8317.395,-19974.15,-27928.935,-12083.715,-8927.19
1764764136.3828404,-8545.095,-16101.315,-2534.4,-8305.02,-19959.39,-27914.67,-12076.965,-8921.115
1764764136.3828404,-8544.735,-16101.63,-2535.93,-8306.19,-19960.785,-27915.3,-12073.95,-8919.0
1764764136.3828404,-8547.029999999999,-16104.015,-2538.99,-8308.619999999999,-19963.035,-27917.73,-12076.245,-8921.609999999999
1764764136.3828404,-8545.545,-16101.63,-2536.065,-8305.11,-19960.2,-27914.13,-12073.05,-8918.82
1764764136.3828404,-8545.725,-16101.225,-2536.38,-8305.515,-19959.705,-27914.535,-12073.095,-8919.135
1764764136.3828404,-8545.455,-16100.415,-2536.155,-8307.539999999999,-19962.63,-27917.64,-12074.805,-8920.125
1764764136.3828404,-8547.705,-16103.07,-2538.225,-8310.06,-19965.555,-27921.735,-12077.505,-8921.565
1764764136.3828404,-8545.5,-16102.98,-2537.73,-8309.385,-19964.925,-27921.69,-12075.57,-8917.38
1764764136.3828404,-8545.365,-16100.55,-2536.11,-8306.775,-19961.415,-27916.02,-12075.93,-8920.71
1764764136.3828404,-8542.035,-16097.085,-2532.33,-8302.32,-19957.05,-27911.205,-12071.205,-8918.145
1764764136.3828404,-8543.205,-16099.47,-2534.31,-8304.57,-19958.985,-27914.22,-12073.23,-8917.56
1764764136.3828404,-8549.414999999999,-16107.57,-2542.995,-8313.39,-19967.715,-27923.94,-12081.87,-8923.005
1764764136.3828404,-8546.94,-16104.42,-2539.395,-8310.15,-19963.98,-27919.53,-12078.675,-8921.565
1764764136.3828404,-8547.84,-16103.385,-2537.28,-8308.035,-19962.54,-27916.29,-12075.66,-8923.455
1764764136.3828404,-8548.154999999999,-16104.645,-2538.945,-8309.52,-19963.89,-27917.55,-12078.495,-8923.904999999999
1764764136.3828404,-8547.93,-16106.175,-2540.16,-8310.779999999999,-19965.42,-27919.44,-12079.305,-8923.005
1764764136.3828404,-8548.56,-16106.445,-2540.925,-8311.41,-19966.23,-27920.52,-12079.395,-8922.375
1764764136.4290628,-8543.61,-16100.145,-2535.255,-8305.605,-19961.505,-27915.93,-12075.795,-8920.305
1764764136.4290628,-8552.295,-16107.75,-2542.59,-8312.355,-19968.885,-27922.815,-12083.535,-8927.64
1764764136.4290628,-8553.15,-16109.64,-2543.76,-8313.93,-19968.705,-27922.995,-12082.905,-8927.64
1764764136.4290628,-8545.095,-16100.64,-2536.47,-8306.505,-19961.73,-27917.37,-12076.56,-8920.44
1764764136.4290628,-8545.635,-16102.08,-2537.1,-8307.675,-19962.855,-27918.225,-12076.83,-8920.98
1764764136.4290628,-8545.635,-16102.35,-2537.505,-8308.305,-19962.81,-27918.225,-12077.055,-8921.07
1764764136.4290628,-8545.949999999999,-16103.025,-2537.415,-8308.529999999999,-19963.215,-27918.045,-12077.505,-8921.34
1764764136.4290628,-8547.164999999999,-16103.385,-2538.855,-8310.15,-19963.62,-27918.09,-12078.18,-8922.015
1764764136.4290628,-8546.94,-16103.07,-2538.0,-8309.88,-19963.26,-27919.305,-12077.415,-8921.205
1764764136.4290628,-8547.84,-16102.71,-2537.595,-8309.789999999999,-19964.205,-27920.52,-12078.765,-8921.115
1764764136.4301038,-8545.275,-16100.28,-2535.12,-8307.539999999999,-19961.73,-27917.37,-12075.975,-8918.55
1764764136.4301038,-8549.145,-16104.24,-2538.81,-8311.5,-19965.015,-27921.24,-12079.215,-8922.869999999999
1764764136.4301038,-8544.824999999999,-16100.28,-2534.85,-8307.539999999999,-19960.65,-27917.64,-12074.445,-8919.0
1764764136.4301038,-8545.904999999999,-16101.54,-2536.92,-8309.97,-19962.99,-27919.665,-12076.155,-8920.619999999999
1764764136.4301038,-8544.42,-16099.74,-2535.165,-8307.36,-19960.74,-27917.505,-12076.29,-8920.619999999999
1764764136.4301038,-8545.77,-16101.99,-2538.045,-8308.935,-19961.595,-27917.28,-12076.155,-8920.89
1764764136.4301038,-8545.5,-16100.055,-2535.885,-8307.765,-19962.765,-27918.675,-12076.92,-8921.205
1764764136.4301038,-8543.565,-16098.39,-2534.04,-8306.64,-19961.19,-27917.46,-12075.39,-8917.74
1764764136.4301038,-8549.955,-16106.67,-2543.445,-8316.449999999999,-19969.425,-27922.995,-12079.125,-8923.68
1764764136.4301038,-8547.705,-16105.185,-2541.6,-8314.695,-19969.605,-27923.355,-12075.795,-8921.789999999999
1764764136.4301038,-8544.24,-16100.1,-2536.02,-8308.125,-19960.92,-27915.39,-12073.095,-8918.775
1764764136.4301038,-8547.255,-16102.125,-2538.765,-8310.645,-19963.215,-27916.875,-12073.95,-8921.295
1764764136.4301038,-8551.26,-16106.85,-2543.445,-8314.695,-19968.12,-27922.32,-12079.305,-8925.84
1764764136.4301038,-8547.615,-16103.88,-2539.665,-8310.824999999999,-19964.43,-27921.825,-12082.77,-8922.195
1764764136.4771962,-8546.039999999999,-16102.395,-2538.855,-8310.015,-19963.395,-27919.53,-12078.945,-8917.785
1764764136.4771962,-8548.56,-16104.015,-2540.745,-8312.49,-19966.905,-27922.095,-12079.845,-8922.015
1764764136.4771962,-8548.244999999999,-16102.71,-2538.405,-8310.735,-19964.43,-27919.62,-12077.325,-8922.555
1764764136.4771962,-8548.244999999999,-16103.97,-2540.43,-8312.31,-19966.455,-27921.555,-12079.035,-8922.015
1764764136.4771962,-8547.885,-16102.98,-2539.8,-8311.815,-19966.68,-27922.365,-12079.17,-8921.52
1764764136.4771962,-8545.005,-16099.29,-2535.795,-8307.449999999999,-19961.64,-27918.27,-12076.155,-8918.234999999999
1764764136.4771962,-8544.869999999999,-16101.495,-2538.135,-8308.664999999999,-19962.675,-27919.935,-12074.265,-8914.41
1764764136.4771962,-8550.09,-16106.85,-2543.715,-8314.11,-19969.065,-27925.425,-12080.43,-8920.664999999999
1764764136.4771962,-8544.69,-16099.47,-2536.245,-8307.27,-19961.73,-27916.245,-12075.345,-8920.98
1764764136.4771962,-8548.56,-16103.115,-2540.475,-8311.635,-19965.33,-27919.935,-12077.73,-8923.545
1764764136.4771962,-8545.86,-16101.135,-2538.27,-8309.115,-19962.585,-27918.945,-12077.01,-8920.529999999999
1764764136.4771962,-8550.63,-16106.22,-2542.815,-8312.31,-19965.69,-27921.645,-12081.735,-8924.265
1764764136.4771962,-8547.66,-16102.26,-2539.35,-8309.52,-19964.25,-27919.44,-12078.09,-8920.89
1764764136.4771962,-8546.76,-16100.055,-2536.785,-8307.945,-19962.36,-27918.45,-12078.36,-8920.26
1764764136.4771962,-8543.205,-16096.68,-2534.265,-8304.48,-19957.14,-27913.86,-12073.995,-8915.445
1764764136.4771962,-8541.855,-16096.32,-2535.075,-8305.11,-19958.13,-27915.165,-12074.085,-8915.58
1764764136.4771962,-8541.18,-16096.32,-2534.355,-8305.02,-19958.58,-27916.02,-12073.905,-8915.4
1764764136.4771962,-8543.34,-16098.705,-2536.29,-8307.36,-19960.695,-27918.18,-12075.48,-8917.695
1764764136.4771962,-8544.42,-16099.83,-2536.695,-8308.664999999999,-19961.865,-27919.17,-12077.01,-8918.64
1764764136.4771962,-8546.4,-16102.08,-2538.72,-8310.645,-19963.395,-27920.295,-12079.305,-8919.945
1764764136.478653,-8545.005,-16100.37,-2537.235,-8308.44,-19961.865,-27918.45,-12075.885,-8917.965
1764764136.478653,-8549.369999999999,-16105.14,-2542.365,-8313.164999999999,-19965.735,-27922.14,-12079.935,-8921.52
1764764136.478653,-8548.785,-16105.365,-2542.905,-8313.48,-19965.87,-27922.77,-12080.07,-8921.52
1764764136.478653,-8542.08,-16097.085,-2535.03,-8306.64,-19959.84,-27917.37,-12076.2,-8917.695
1764764136.521325,-8544.914999999999,-16099.11,-2536.695,-8307.404999999999,-19960.695,-27917.73,-12076.965,-8918.82
1764764136.521325,-8547.795,-16102.305,-2539.755,-8310.375,-19963.17,-27921.24,-12079.395,-8921.52
1764764136.521325,-8544.69,-16099.605,-2536.92,-8307.585,-19960.425,-27919.17,-12076.695,-8918.234999999999
1764764136.521325,-8547.119999999999,-16101.855,-2539.215,-8309.475,-19962.63,-27920.565,-12078.675,-8920.664999999999
1764764136.521325,-8551.125,-16105.185,-2542.005,-8312.22,-19966.23,-27924.03,-12081.42,-8924.13
1764764136.521325,-8551.08,-16105.32,-2542.815,-8312.94,-19966.635,-27924.255,-12081.78,-8924.445
1764764136.521325,-8546.355,-16100.37,-2537.415,-8307.765,-19962.45,-27919.395,-12077.505,-8919.27
1764764136.521325,-8549.595,-16102.8,-2539.125,-8309.115,-19964.655,-27921.33,-12079.44,-8921.835
1764764136.521325,-8545.77,-16099.335,-2536.47,-8306.145,-19960.65,-27918.405,-12076.2,-8917.154999999999
1764764136.521325,-8548.289999999999,-16103.16,-2540.61,-8310.555,-19963.215,-27920.25,-12079.305,-8919.315
1764764136.521325,-8548.785,-16102.98,-2539.62,-8309.565,-19963.845,-27920.7,-12079.755,-8919.945
1764764136.5223372,-8548.02,-16102.395,-2539.305,-8309.115,-19963.215,-27919.215,-12078.36,-8919.045
1764764136.5223372,-8545.815,-16101.09,-2538.135,-8309.115,-19963.89,-27919.755,-12076.695,-8916.119999999999
1764764136.5223372,-8549.414999999999,-16104.645,-2541.06,-8312.22,-19968.39,-27925.65,-12079.305,-8920.44
1764764136.5223372,-8543.385,-16097.58,-2533.995,-8303.58,-19958.445,-27914.94,-12074.67,-8915.984999999999
1764764136.5223372,-8543.97,-16097.895,-2534.805,-8304.84,-19958.94,-27915.75,-12075.795,-8916.255
1764764136.5223372,-8550.99,-16106.265,-2543.58,-8313.345,-19967.805,-27926.01,-12082.455,-8922.015
1764764136.5223372,-8554.59,-16109.46,-2546.73,-8316.404999999999,-19970.865,-27927.72,-12085.38,-8924.895
1764764136.5233495,-8550.0,-16102.17,-2538.27,-8308.89,-19962.945,-27919.755,-12081.105,-8922.465
1764764136.5233495,-8547.975,-16101.36,-2538.0,-8309.205,-19962.72,-27919.53,-12078.27,-8919.72
1764764136.5233495,-8548.154999999999,-16102.53,-2539.755,-8310.195,-19962.81,-27918.72,-12077.505,-8919.0
1764764136.5233495,-8543.115,-16097.265,-2534.67,-8305.02,-19958.22,-27914.13,-12073.77,-8914.005
1764764136.5233495,-8543.97,-16098.525,-2535.75,-8306.46,-19959.93,-27915.525,-12074.22,-8914.77
1764764136.5243475,-8549.414999999999,-16103.115,-2540.25,-8311.59,-19965.015,-27920.97,-12078.585,-8920.305
1764764136.57083,-8545.77,-16100.145,-2537.415,-8308.08,-19961.595,-27917.685,-12074.49,-8917.109999999999
1764764136.57083,-8549.595,-16104.015,-2541.555,-8312.22,-19964.925,-27921.33,-12077.19,-8921.07
1764764136.57083,-8546.895,-16101.27,-2539.08,-8308.98,-19961.73,-27918.405,-12074.13,-8918.414999999999
1764764136.57083,-8548.605,-16102.62,-2540.655,-8310.375,-19963.305,-27920.565,-12079.08,-8920.08
1764764136.57083,-8552.07,-16105.95,-2544.93,-8314.065,-19967.175,-27926.28,-12088.665,-8923.994999999999
1764764136.57083,-8548.154999999999,-16101.63,-2541.15,-8309.34,-19963.125,-27920.97,-12080.745,-8919.539999999999
1764764136.57083,-8548.74,-16101.54,-2540.745,-8310.465,-19964.925,-27922.815,-12079.53,-8919.99
1764764136.57083,-8544.06,-16097.265,-2536.785,-8306.955,-19961.37,-27918.09,-12075.03,-8915.715
1764764136.57083,-8543.61,-16097.265,-2536.245,-8307.449999999999,-19960.56,-27918.0,-12074.4,-8915.039999999999
1764764136.57083,-8547.75,-16101.495,-2540.25,-8311.635,-19964.565,-27922.365,-12078.54,-8918.595
1764764136.57083,-8544.285,-16098.12,-2536.695,-8307.945,-19960.92,-27919.575,-12075.165,-8915.265
1764764136.57083,-8548.695,-16102.08,-2540.79,-8311.815,-19964.475,-27923.085,-12078.765,-8919.63
1764764136.57083,-8549.64,-16103.115,-2541.105,-8312.535,-19965.87,-27924.03,-12079.98,-8920.89
1764764136.57083,-8544.69,-16099.2,-2536.74,-8308.845,-19961.46,-27919.485,-12076.065,-8916.615
1764764136.57083,-8546.175,-16100.055,-2537.55,-8310.195,-19963.305,-27920.745,-12077.28,-8918.145
1764764136.57083,-8552.34,-16105.86,-2543.805,-8315.145,-19968.03,-27925.515,-12082.545,-8923.77
1764764136.57083,-8551.395,-16105.095,-2543.265,-8315.055,-19967.49,-27925.29,-12081.96,-8923.005
1764764136.57083,-8546.85,-16100.91,-2538.405,-8310.69,-19963.305,-27920.205,-12077.28,-8918.324999999999
1764764136.57083,-8547.48,-16100.91,-2538.495,-8310.42,-19963.845,-27921.015,-12077.505,-8918.82
1764764136.57083,-8552.205,-16105.365,-2543.31,-8315.73,-19968.435,-27926.19,-12082.815,-8924.22
1764764136.57083,-8547.93,-16100.865,-2539.53,-8311.59,-19963.8,-27922.095,-12078.945,-8919.945
1764764136.57083,-8549.865,-16102.44,-2541.15,-8312.535,-19965.15,-27922.365,-12079.89,-8920.935
1764764136.6140263,-8553.96,-16106.04,-2544.12,-8315.324999999999,-19968.93,-27927.36,-12084.975,-8926.605
1764764136.6140263,-8553.69,-16108.74,-2547.99,-8319.51,-19972.26,-27930.915,-12085.785,-8925.795
1764764136.6140263,-8552.88,-16106.94,-2545.605,-8316.675,-19968.75,-27926.64,-12084.345,-8925.39
1764764136.6140263,-8549.955,-16102.98,-2541.87,-8312.625,-19964.205,-27922.59,-12081.735,-8921.789999999999
1764764136.6140263,-8545.365,-16099.695,-2538.72,-8309.295,-19962.27,-27920.43,-12077.73,-8916.525
1764764136.6140263,-8544.015,-16099.74,-2538.855,-8309.34,-19962.405,-27921.15,-12076.92,-8915.039999999999
1764764136.6140263,-8544.6,-16099.515,-2539.755,-8310.375,-19964.07,-27924.075,-12077.955,-8915.715
1764764136.6140263,-8547.029999999999,-16100.1,-2540.88,-8311.095,-19964.205,-27923.265,-12079.71,-8918.64
1764764136.6140263,-8551.98,-16104.015,-2544.03,-8315.279999999999,-19968.66,-27925.74,-12082.005,-8923.904999999999
1764764136.6140263,-8545.455,-16097.04,-2536.83,-8306.64,-19959.12,-27916.785,-12077.46,-8917.965
1764764136.6140263,-8549.505,-16102.17,-2541.78,-8311.904999999999,-19965.015,-27922.365,-12080.205,-8920.755
1764764136.6140263,-8550.36,-16102.44,-2541.555,-8312.67,-19966.14,-27923.715,-12081.69,-8922.33
1764764136.6140263,-8548.92,-16100.19,-2540.97,-8310.779999999999,-19964.295,-27920.79,-12079.665,-8921.07
1764764136.6140263,-8544.465,-16096.905,-2538.225,-8307.494999999999,-19960.425,-27917.325,-12075.255,-8917.335
1764764136.6140263,-8548.74,-16101.63,-2541.375,-8312.22,-19964.34,-27920.97,-12079.395,-8920.215
1764764136.6140263,-8554.095,-16106.355,-2545.56,-8317.215,-19970.595,-27927.72,-12085.92,-8924.805
1764764136.6140263,-8550.449999999999,-16103.16,-2542.68,-8313.93,-19965.69,-27924.03,-12082.185,-8923.005
1764764136.6140263,-8552.61,-16104.375,-2544.57,-8316.765,-19969.965,-27927.72,-12084.255,-8925.75
1764764136.6140263,-8550.99,-16102.845,-2542.14,-8315.505,-19968.84,-27926.91,-12082.86,-8924.58
1764764136.6140263,-8548.47,-16101.99,-2541.24,-8313.705,-19966.455,-27923.715,-12080.52,-8921.835
1764764136.6140263,-8550.225,-16103.52,-2544.12,-8316.315,-19968.66,-27924.84,-12081.825,-8921.609999999999
1764764136.6140263,-8550.18,-16102.08,-2543.265,-8314.92,-19968.255,-27925.605,-12082.32,-8923.14
1764764136.6140263,-8546.22,-16098.39,-2539.17,-8310.465,-19962.54,-27920.79,-12077.73,-8920.035
1764764136.6140263,-8547.795,-16101.18,-2541.105,-8312.94,-19964.745,-27922.905,-12079.305,-8921.654999999999
1764764136.6603212,-8551.529999999999,-16104.87,-2544.66,-8316.315,-19969.335,-27926.505,-12083.13,-8925.48
1764764136.6603212,-8549.64,-16102.845,-2542.995,-8315.235,-19968.03,-27924.66,-12080.88,-8923.005
1764764136.6608622,-8546.805,-16100.145,-2540.61,-8313.705,-19966.68,-27923.175,-12077.73,-8918.505
1764764136.6608622,-8549.279999999999,-16101.27,-2540.52,-8314.065,-19966.32,-27926.145,-12082.23,-8921.654999999999
1764764136.6608622,-8549.145,-16101.72,-2541.6,-8314.199999999999,-19965.24,-27924.165,-12080.655,-8921.744999999999
1764764136.6608622,-8550.494999999999,-16102.98,-2543.265,-8315.505,-19967.31,-27924.255,-12080.07,-8921.97
1764764136.6608622,-8550.585,-16102.305,-2541.87,-8315.19,-19967.175,-27922.725,-12079.305,-8923.14
1764764136.6608622,-8547.074999999999,-16099.02,-2538.36,-8310.735,-19962.99,-27920.07,-12077.91,-8920.08
1764764136.6608622,-8550.675,-16104.42,-2545.695,-8317.755,-19969.425,-27924.21,-12078.18,-8921.16
1764764136.6608622,-8550.494999999999,-16103.79,-2544.615,-8317.08,-19969.38,-27927.045,-12085.245,-8920.8
1764764136.6619182,-8549.685,-16103.475,-2544.075,-8314.83,-19966.905,-27926.415,-12089.79,-8920.619999999999
1764764136.6619182,-8550.045,-16103.835,-2543.895,-8314.83,-19967.22,-27926.01,-12083.94,-8920.664999999999
1764764136.6619182,-8547.57,-16098.435,-2537.865,-8310.195,-19962.54,-27919.98,-12076.965,-8920.44
1764764136.6619182,-8552.07,-16103.565,-2543.67,-8316.135,-19968.075,-27926.01,-12083.715,-8924.94
1764764136.6619182,-8548.38,-16100.19,-2541.195,-8313.119999999999,-19964.97,-27922.41,-12080.565,-8920.26
1764764136.6619182,-8547.66,-16098.615,-2539.98,-8312.039999999999,-19963.62,-27921.105,-12079.17,-8918.279999999999
1764764136.6619182,-8548.11,-16099.47,-2539.935,-8312.625,-19964.43,-27921.51,-12078.99,-8918.64
1764764136.6619182,-8547.84,-16099.065,-2540.07,-8312.13,-19964.025,-27920.43,-12078.81,-8917.92
1764764136.6619182,-8549.279999999999,-16101.09,-2541.195,-8314.154999999999,-19966.095,-27923.265,-12079.845,-8920.08
1764764136.6619182,-8548.425,-16100.64,-2540.79,-8313.525,-19965.915,-27923.445,-12079.665,-8919.09
1764764136.6619182,-8547.795,-16099.56,-2539.845,-8312.445,-19965.645,-27922.815,-12079.305,-8918.505
1764764136.6619182,-8548.335,-16100.505,-2540.25,-8312.67,-19965.6,-27922.95,-12079.575,-8918.19
1764764136.6629293,-8551.71,-16104.96,-2544.795,-8316.63,-19969.83,-27928.17,-12082.455,-8918.55
1764764136.6629293,-8549.01,-16101.18,-2540.655,-8314.065,-19968.48,-27927.225,-12081.825,-8916.66
1764764136.7089925,-8549.01,-16098.84,-2539.845,-8313.255,-19967.805,-27923.94,-12080.16,-8919.675
1764764136.7089925,-8552.295,-16101.585,-2542.32,-8316.315,-19969.965,-27927.0,-12082.68,-8924.085
1764764136.7089925,-8554.05,-16103.61,-2543.67,-8316.315,-19969.47,-27927.765,-12085.605,-8924.895
1764764136.7089925,-8554.32,-16104.915,-2545.605,-8318.565,-19971.135,-27928.305,-12085.155,-8925.255
1764764136.7089925,-8555.58,-16105.59,-2546.055,-8319.105,-19971.855,-27929.565,-12086.145,-8926.785
1764764136.7089925,-8555.94,-16105.545,-2546.19,-8319.465,-19971.9,-27929.655,-12086.235,-8925.93
1764764136.7089925,-8555.895,-16106.175,-2545.83,-8319.645,-19972.08,-27929.7,-12085.965,-8925.525
1764764136.7089925,-8551.44,-16104.42,-2543.13,-8316.404999999999,-19968.885,-27926.37,-12081.645,-8921.52
1764764136.7089925,-8548.244999999999,-16101.0,-2540.97,-8314.335,-19968.345,-27926.865,-12079.89,-8918.955
1764764136.7089925,-8548.47,-16099.2,-2539.935,-8313.164999999999,-19966.41,-27924.345,-12078.09,-8919.945
1764764136.7089925,-8554.14,-16105.23,-2545.605,-8318.07,-19972.215,-27929.565,-12082.815,-8924.805
1764764136.7089925,-8554.32,-16105.68,-2545.47,-8318.654999999999,-19972.035,-27931.005,-12084.84,-8925.119999999999
1764764136.7089925,-8554.545,-16106.94,-2547.675,-8320.275,-19971.18,-27929.52,-12084.12,-8924.58
1764764136.7089925,-8546.715,-16097.265,-2539.17,-8312.039999999999,-19964.835,-27923.355,-12078.405,-8917.38
1764764136.7089925,-8547.57,-16097.445,-2538.765,-8312.445,-19965.42,-27923.4,-12078.27,-8918.324999999999
1764764136.7089925,-8548.65,-16099.695,-2540.745,-8314.02,-19966.59,-27925.515,-12079.755,-8919.359999999999
1764764136.7089925,-8550.63,-16102.53,-2543.265,-8316.404999999999,-19968.66,-27928.035,-12081.87,-8920.484999999999
1764764136.7089925,-8546.49,-16098.435,-2539.98,-8312.67,-19965.195,-27924.3,-12077.955,-8916.029999999999
1764764136.7089925,-8545.86,-16097.895,-2539.395,-8312.445,-19964.97,-27923.94,-12077.505,-8915.535
1764764136.7089925,-8548.38,-16100.415,-2541.285,-8314.199999999999,-19966.725,-27924.84,-12079.17,-8918.01
1764764136.7089925,-8551.44,-16102.53,-2542.545,-8316.0,-19969.2,-27929.205,-12083.04,-8921.43
1764764136.7089925,-8548.785,-16100.865,-2542.41,-8315.865,-19967.58,-27927.135,-12080.925,-8917.02
1764764136.755324,-8549.505,-16100.865,-2542.995,-8316.27,-19967.94,-27926.73,-12081.6,-8918.1
1764764136.755324,-8550.045,-16100.73,-2542.455,-8315.64,-19967.625,-27926.325,-12082.32,-8918.414999999999
1764764136.755324,-8550.99,-16102.125,-2543.94,-8316.18,-19968.75,-27927.315,-12083.22,-8918.505
1764764136.755324,-8554.32,-16104.87,-2547.18,-8320.815,-19972.89,-27930.735,-12086.91,-8924.085
1764764136.755324,-8554.095,-16103.655,-2545.02,-8318.565,-19970.64,-27929.52,-12086.505,-8923.635
1764764136.755324,-8551.845,-16101.225,-2543.4,-8316.27,-19968.3,-27928.395,-12083.625,-8920.395
1764764136.755324,-8549.64,-16099.92,-2542.14,-8315.414999999999,-19969.245,-27927.99,-12080.295,-8916.93
1764764136.755324,-8551.44,-16101.495,-2543.805,-8316.63,-19969.2,-27927.315,-12084.525,-8920.89
1764764136.755324,-8546.265,-16096.185,-2538.99,-8311.815,-19965.69,-27923.355,-12080.52,-8916.345
1764764136.755324,-8549.01,-16099.155,-2541.78,-8314.154999999999,-19968.165,-27925.74,-12082.545,-8918.685
1764764136.755324,-8552.34,-16101.63,-2544.615,-8315.414999999999,-19968.93,-27928.305,-12085.83,-8920.755
1764764136.755324,-8554.455,-16105.455,-2548.305,-8319.42,-19971.99,-27929.565,-12086.73,-8922.465
1764764136.755324,-8551.17,-16100.73,-2543.04,-8314.289999999999,-19967.04,-27923.625,-12082.005,-8921.789999999999
1764764136.755324,-8546.175,-16095.735,-2537.73,-8310.42,-19964.34,-27921.78,-12079.53,-8917.38
1764764136.755324,-8543.789999999999,-16093.62,-2535.345,-8308.08,-19959.975,-27919.215,-12077.01,-8913.33
1764764136.755324,-8543.205,-16092.99,-2535.165,-8307.225,-19959.885,-27917.46,-12074.31,-8910.9
1764764136.755324,-8542.935,-16092.765,-2534.355,-8307.404999999999,-19961.055,-27918.135,-12073.86,-8912.025
1764764136.755324,-8546.265,-16096.635,-2538.09,-8310.69,-19963.755,-27920.52,-12077.19,-8916.48
1764764136.755324,-8548.02,-16099.02,-2540.745,-8313.84,-19965.33,-27923.4,-12080.43,-8918.279999999999
1764764136.755324,-8543.34,-16094.34,-2536.02,-8309.295,-19960.965,-27918.45,-12077.055,-8914.05
1764764136.755324,-8544.195,-16094.565,-2536.11,-8309.52,-19961.19,-27918.45,-12077.28,-8914.005
1764764136.755324,-8546.715,-16096.365,-2537.82,-8311.14,-19962.54,-27919.71,-12078.405,-8915.94
1764764136.8026109,-8550.404999999999,-16100.505,-2542.41,-8314.425,-19966.005,-27922.635,-12081.33,-8919.855
1764764136.8026109,-8550.09,-16100.64,-2543.04,-8315.01,-19966.23,-27922.365,-12080.43,-8918.73
1764764136.8026109,-8551.035,-16099.965,-2541.78,-8314.965,-19967.895,-27923.94,-12079.755,-8920.529999999999
1764764136.8026109,-8544.42,-16093.8,-2534.58,-8307.18,-19959.165,-27916.47,-12073.455,-8914.859999999999
1764764136.8026109,-8540.955,-16091.64,-2531.88,-8305.83,-19956.96,-27916.425,-12076.92,-8911.935
1764764136.8026109,-8542.305,-16092.675,-2532.87,-8306.955,-19959.615,-27918.63,-12078.09,-8913.645
1764764136.8026109,-8547.795,-16099.38,-2541.285,-8314.56,-19965.645,-27925.245,-12082.905,-8918.55
1764764136.8026109,-8548.695,-16101.99,-2543.04,-8316.135,-19967.445,-27927.0,-12083.22,-8915.94
1764764136.8026109,-8542.215,-16093.44,-2534.13,-8307.494999999999,-19959.3,-27917.055,-12076.74,-8911.619999999999
1764764136.8026109,-8541.27,-16090.92,-2532.78,-8305.965,-19957.41,-27913.815,-12073.275,-8913.51
1764764136.8026109,-8542.664999999999,-16092.945,-2534.67,-8307.494999999999,-19959.255,-27916.47,-12074.805,-8913.42
1764764136.8026109,-8546.22,-16096.185,-2539.215,-8312.039999999999,-19964.205,-27920.565,-12077.595,-8914.859999999999
1764764136.8026109,-8545.095,-16093.17,-2535.525,-8308.44,-19961.37,-27918.765,-12076.785,-8916.119999999999
1764764136.8026109,-8540.82,-16088.625,-2530.665,-8303.535,-19955.655,-27914.13,-12074.625,-8913.105
1764764136.8026109,-8540.865,-16091.775,-2534.895,-8308.71,-19959.12,-27917.415,-12074.31,-8911.17
1764764136.8026109,-8547.21,-16097.265,-2540.745,-8314.74,-19966.59,-27925.695,-12078.36,-8916.48
1764764136.8026109,-8542.529999999999,-16091.91,-2535.615,-8308.71,-19959.84,-27919.125,-12074.58,-8912.52
1764764136.8026109,-8539.02,-16087.905,-2531.205,-8303.445,-19954.08,-27913.23,-12072.195,-8910.99
1764764136.8026109,-8539.875,-16089.39,-2532.69,-8305.38,-19956.465,-27915.435,-12072.42,-8911.44
1764764136.8026109,-8541.404999999999,-16090.515,-2533.635,-8306.64,-19957.77,-27916.155,-12073.23,-8911.935
1764764136.8026109,-8543.43,-16092.54,-2535.93,-8307.72,-19958.805,-27916.785,-12074.445,-8913.33
1764764136.8026109,-8545.05,-16094.34,-2538.045,-8310.51,-19963.08,-27922.095,-12078.09,-8915.67
1764764136.8026109,-8542.529999999999,-16091.055,-2534.49,-8307.135,-19959.48,-27918.63,-12074.985,-8913.015
1764764136.8026109,-8541.225,-16090.155,-2533.95,-8306.369999999999,-19958.67,-27918.27,-12074.22,-8911.89
1764764136.8026109,-8542.395,-16092.0,-2535.48,-8308.845,-19960.02,-27920.295,-12076.245,-8912.789999999999
1764764136.8026109,-8547.48,-16098.21,-2541.33,-8314.515,-19965.24,-27924.93,-12082.365,-8916.435
1764764136.8457203,-8543.789999999999,-16093.035,-2537.235,-8311.41,-19963.53,-27922.815,-12077.415,-8914.545
1764764136.8457203,-8542.98,-16089.975,-2533.77,-8307.945,-19959.84,-27918.63,-12072.645,-8914.14
1764764136.8457203,-8543.565,-16091.28,-2536.065,-8309.565,-19960.245,-27919.62,-12073.32,-8912.925
1764764136.8457203,-8539.83,-16086.555,-2532.195,-8306.505,-19956.6,-27915.39,-12070.62,-8910.539999999999
1764764136.8457203,-8541.315,-16088.445,-2532.42,-8307.539999999999,-19957.815,-27917.055,-12073.59,-8913.24
1764764136.8457203,-8537.039999999999,-16084.755,-2529.765,-8303.805,-19954.485,-27913.5,-12070.89,-8908.74
1764764136.8457203,-8537.085,-16085.16,-2530.305,-8304.93,-19955.385,-27914.04,-12070.395,-8908.83
1764764136.8457203,-8538.029999999999,-16085.79,-2529.855,-8305.02,-19954.98,-27915.525,-12071.79,-8910.045
1764764136.8457203,-8541.27,-16089.84,-2534.04,-8308.89,-19958.13,-27918.27,-12072.645,-8912.88
1764764136.8457203,-8546.22,-16095.465,-2540.115,-8314.605,-19965.465,-27923.985,-12076.74,-8918.595
1764764136.8457203,-8546.175,-16095.42,-2539.44,-8314.47,-19964.835,-27922.365,-12076.515,-8917.47
1764764136.8457203,-8552.115,-16102.35,-2546.82,-8322.39,-19973.385,-27930.915,-12082.32,-8922.24
1764764136.8457203,-8544.105,-16093.305,-2536.56,-8311.68,-19962.405,-27921.06,-12074.805,-8916.48
1764764136.8457203,-8540.145,-16088.58,-2532.15,-8306.73,-19955.97,-27917.64,-12075.84,-8911.305
1764764136.8457203,-8543.654999999999,-16090.56,-2535.255,-8310.33,-19960.11,-27920.565,-12078.18,-8915.49
1764764136.8457203,-8547.57,-16093.53,-2537.19,-8311.949999999999,-19964.385,-27924.75,-12080.745,-8918.91
1764764136.8457203,-8544.465,-16093.53,-2538.54,-8313.255,-19963.395,-27926.505,-12077.82,-8913.195
1764764136.8457203,-8540.82,-16089.345,-2534.895,-8309.88,-19956.915,-27916.65,-12073.095,-8911.529999999999
1764764136.8457203,-8542.44,-16091.46,-2535.705,-8311.365,-19960.065,-27917.91,-12072.33,-8913.33
1764764136.8457203,-8544.465,-16092.99,-2537.19,-8312.985,-19962.63,-27922.365,-12075.21,-8914.59
1764764136.8457203,-8542.395,-16089.345,-2533.275,-8308.395,-19957.905,-27918.855,-12072.735,-8913.869999999999
1764764136.8457203,-8544.15,-16091.82,-2535.84,-8310.555,-19960.425,-27920.79,-12074.58,-8914.59
1764764136.892629,-8543.97,-16092.09,-2535.795,-8309.925,-19960.56,-27919.89,-12074.265,-8913.914999999999
1764764136.892629,-8544.869999999999,-16093.755,-2536.965,-8311.5,-19961.91,-27921.375,-12075.57,-8915.22
1764764136.893148,-8549.64,-16098.84,-2542.905,-8318.205,-19969.605,-27928.935,-12079.665,-8919.494999999999
1764764136.893148,-8546.49,-16094.835,-2538.99,-8314.65,-19963.8,-27923.715,-12078.27,-8916.615
1764764136.893148,-8547.615,-16095.69,-2538.405,-8313.885,-19962.45,-27922.545,-12079.845,-8919.135
1764764136.893148,-8548.605,-16096.815,-2540.34,-8315.01,-19964.25,-27923.625,-12080.475,-8919.945
1764764136.893148,-8546.265,-16093.485,-2537.595,-8312.22,-19962.225,-27921.06,-12077.325,-8916.525
1764764136.893148,-8554.59,-16102.26,-2545.74,-8321.085,-19971.135,-27931.14,-12085.92,-8923.949999999999
1764764136.893148,-8554.635,-16102.44,-2545.605,-8320.68,-19970.145,-27930.33,-12085.47,-8923.859999999999
1764764136.893148,-8545.815,-16092.72,-2536.56,-8312.805,-19963.44,-27922.41,-12077.64,-8916.3
1764764136.893148,-8546.625,-16094.16,-2538.18,-8314.425,-19965.42,-27924.345,-12078.9,-8917.02
1764764136.893148,-8545.68,-16093.215,-2536.38,-8310.96,-19961.28,-27922.005,-12079.26,-8915.49
1764764136.893148,-8546.985,-16094.385,-2538.72,-8312.67,-19962.99,-27922.815,-12078.63,-8915.445
1764764136.893148,-8547.255,-16094.07,-2538.765,-8312.715,-19963.17,-27922.995,-12079.305,-8918.234999999999
1764764136.893148,-8551.35,-16097.895,-2542.77,-8316.09,-19966.635,-27926.955,-12083.58,-8922.24
1764764136.893148,-8549.595,-16096.77,-2541.15,-8314.965,-19965.915,-27926.46,-12082.32,-8920.17
1764764136.893148,-8543.61,-16091.595,-2535.615,-8309.97,-19961.145,-27921.645,-12076.065,-8914.815
1764764136.893148,-8545.095,-16092.54,-2537.28,-8310.735,-19962.0,-27922.365,-12077.505,-8915.85
1764764136.893148,-8548.11,-16095.51,-2539.845,-8314.065,-19965.015,-27925.515,-12080.43,-8918.73
1764764136.893148,-8545.32,-16092.36,-2536.92,-8311.23,-19961.145,-27922.095,-12077.73,-8915.715
1764764136.893148,-8545.86,-16093.17,-2537.505,-8311.455,-19961.415,-27922.905,-12077.955,-8916.57
1764764136.893148,-8548.56,-16095.33,-2540.115,-8313.84,-19964.61,-27925.92,-12080.61,-8917.65
1764764136.9402924,-8543.925,-16090.38,-2535.345,-8309.565,-19960.02,-27921.555,-12076.695,-8913.914999999999
1764764136.9402924,-8544.914999999999,-16091.73,-2536.02,-8309.789999999999,-19958.895,-27920.43,-12076.245,-8915.13
1764764136.9402924,-8547.525,-16093.71,-2538.225,-8312.535,-19963.44,-27925.065,-12079.89,-8917.065
1764764136.9402924,-8543.925,-16090.245,-2535.21,-8309.295,-19960.695,-27922.14,-12076.2,-8914.005
1764764136.9402924,-8544.51,-16091.28,-2536.29,-8310.375,-19960.965,-27922.815,-12075.84,-8914.859999999999
1764764136.9402924,-8548.02,-16095.735,-2539.8,-8313.885,-19964.52,-27925.47,-12078.045,-8918.369999999999
1764764136.9402924,-8544.24,-16092.72,-2536.92,-8311.32,-19960.38,-27921.69,-12074.355,-8914.005
1764764136.9402924,-8545.904999999999,-16094.79,-2539.17,-8313.119999999999,-19963.08,-27924.03,-12074.67,-8916.435
1764764136.9402924,-8549.82,-16098.3,-2543.265,-8316.539999999999,-19966.815,-27927.675,-12079.53,-8920.125
1764764136.9402924,-8548.47,-16096.5,-2541.015,-8314.154999999999,-19965.195,-27927.72,-12085.38,-8918.505
1764764136.9402924,-8547.75,-16095.645,-2539.755,-8313.119999999999,-19964.34,-27926.37,-12082.905,-8918.145
1764764136.9402924,-8547.48,-16093.62,-2537.19,-8310.555,-19962.72,-27924.345,-12080.565,-8917.65
1764764136.9402924,-8545.275,-16093.17,-2538.09,-8312.039999999999,-19962.495,-27924.57,-12078.585,-8913.824999999999
1764764136.9402924,-8542.215,-16090.065,-2533.545,-8307.945,-19957.365,-27919.26,-12074.4,-8910.72
1764764136.9413002,-8542.305,-16091.595,-2535.03,-8309.07,-19958.13,-27920.43,-12075.3,-8911.935
1764764136.9413002,-8542.845,-16092.405,-2537.37,-8312.13,-19962.225,-27924.705,-12077.505,-8913.015
1764764136.9413002,-8543.744999999999,-16091.955,-2535.84,-8310.779999999999,-19961.055,-27923.985,-12077.46,-8915.265
1764764136.9413002,-8545.455,-16093.215,-2537.415,-8311.904999999999,-19961.64,-27925.29,-12079.125,-8915.58
1764764136.9413002,-8545.86,-16093.665,-2538.27,-8311.994999999999,-19962.045,-27924.93,-12078.495,-8915.355
1764764136.9413002,-8543.25,-16090.965,-2535.255,-8309.43,-19959.12,-27921.465,-12075.84,-8912.789999999999
1764764136.94181,-8546.445,-16094.205,-2538.63,-8312.355,-19963.215,-27925.155,-12079.71,-8916.345
1764764136.94181,-8546.175,-16094.745,-2540.7,-8315.279999999999,-19967.13,-27930.24,-12080.43,-8914.815
1764764136.9873908,-8548.695,-16096.95,-2542.68,-8316.135,-19965.6,-27928.35,-12082.365,-8917.695
1764764136.9873908,-8542.125,-16089.795,-2534.625,-8307.63,-19955.97,-27917.82,-12075.84,-8912.475
1764764136.9873908,-8539.605,-16087.68,-2533.095,-8306.64,-19955.7,-27918.09,-12072.555,-8910.0
1764764136.9873908,-8545.5,-16093.62,-2539.62,-8312.67,-19961.325,-27924.39,-12079.17,-8914.5
1764764136.9873908,-8543.97,-16092.675,-2538.945,-8312.985,-19961.595,-27925.47,-12076.74,-8910.99
1764764136.987911,-8538.885,-16085.655,-2531.52,-8305.74,-19954.935,-27917.37,-12072.915,-8908.74
1764764136.987911,-8539.38,-16086.33,-2532.24,-8306.19,-19955.115,-27916.47,-12072.24,-8910.494999999999
1764764136.987911,-8541.045,-16088.895,-2535.075,-8308.619999999999,-19958.715,-27919.62,-12073.5,-8911.89
1764764136.987911,-8544.105,-16091.505,-2537.865,-8311.455,-19963.305,-27924.3,-12076.83,-8914.904999999999
1764764136.987911,-8541.855,-16087.905,-2533.905,-8306.73,-19957.275,-27919.89,-12073.59,-8911.574999999999
1764764136.987911,-8546.985,-16094.34,-2541.015,-8313.029999999999,-19963.17,-27925.47,-12079.035,-8916.93
1764764136.987911,-8547.66,-16095.42,-2542.185,-8313.57,-19965.015,-27926.415,-12078.54,-8916.93
1764764136.987911,-8540.46,-16086.915,-2533.365,-8305.56,-19957.185,-27919.395,-12071.205,-8910.72
1764764136.987911,-8541.045,-16088.715,-2534.94,-8307.315,-19958.985,-27920.745,-12072.105,-8910.315
1764764136.987911,-8543.61,-16090.875,-2537.685,-8310.42,-19962.405,-27923.715,-12075.255,-8913.24
1764764136.987911,-8546.535,-16092.765,-2539.485,-8313.164999999999,-19964.34,-27925.515,-12078.315,-8918.19
1764764136.987911,-8542.574999999999,-16089.48,-2536.605,-8310.105,-19960.29,-27922.365,-12075.12,-8913.465
1764764136.987911,-8543.744999999999,-16091.595,-2538.72,-8310.869999999999,-19961.955,-27923.625,-12077.055,-8914.365
1764764136.987911,-8548.289999999999,-16097.355,-2544.39,-8316.36,-19967.31,-27928.8,-12081.69,-8917.38
1764764136.987911,-8545.32,-16092.99,-2540.115,-8312.445,-19965.015,-27926.37,-12078.99,-8914.77
1764764136.987911,-8540.505,-16086.735,-2532.87,-8305.875,-19958.265,-27918.765,-12072.78,-8911.8
1764764136.989077,-8539.02,-16085.205,-2530.89,-8303.94,-19956.6,-27918.0,-12072.285,-8910.449999999999
1764764136.989077,-8539.199999999999,-16086.645,-2533.725,-8307.539999999999,-19958.355,-27921.105,-12072.87,-8908.47
1764764136.989077,-8543.475,-16090.605,-2537.415,-8310.69,-19962.72,-27924.66,-12076.29,-8912.25
1764764136.989077,-8542.71,-16090.11,-2536.74,-8310.465,-19962.09,-27923.895,-12076.245,-8913.24
1764764136.989077,-8543.744999999999,-16090.515,-2537.73,-8311.275,-19962.54,-27924.93,-12076.29,-8913.6
1764764137.0317316,-8545.635,-16091.46,-2539.485,-8312.085,-19964.07,-27926.82,-12078.045,-8914.994999999999
1764764137.0317316,-8543.744999999999,-16088.895,-2536.515,-8309.295,-19959.48,-27922.815,-12077.37,-8914.005
1764764137.0317316,-8548.515,-16095.51,-2542.455,-8315.279999999999,-19964.97,-27927.045,-12079.44,-8917.83
1764764137.0317316,-8546.039999999999,-16092.495,-2539.08,-8313.345,-19964.16,-27927.54,-12078.855,-8916.3
1764764137.0317316,-8539.965,-16085.97,-2533.005,-8307.63,-19959.21,-27921.15,-12073.905,-8910.99
1764764137.0317316,-8541.539999999999,-16087.995,-2534.58,-8309.07,-19960.245,-27922.905,-12075.66,-8911.44
1764764137.0317316,-8548.605,-16097.985,-2544.975,-8319.42,-19970.73,-27933.435,-12083.13,-8916.84
1764764137.0317316,-8548.965,-16097.58,-2545.605,-8320.545,-19971.585,-27934.38,-12084.345,-8919.539999999999
1764764137.0317316,-8537.445,-16081.245,-2528.82,-8302.904999999999,-19952.145,-27913.32,-12064.995,-8911.305
1764764137.0317316,-8540.865,-16086.42,-2533.815,-8307.18,-19956.87,-27918.54,-12069.585,-8912.654999999999
1764764137.0317316,-8544.33,-16091.37,-2537.955,-8311.455,-19961.46,-27925.695,-12080.745,-8916.029999999999
1764764137.0317316,-8544.51,-16091.595,-2538.495,-8312.085,-19961.325,-27925.515,-12080.565,-8915.535
1764764137.0317316,-8542.755,-16090.29,-2537.19,-8310.914999999999,-19959.435,-27923.265,-12077.1,-8913.195
1764764137.0317316,-8545.095,-16091.595,-2538.855,-8312.76,-19962.855,-27925.605,-12077.955,-8915.265
1764764137.0317316,-8544.33,-16090.74,-2538.09,-8312.355,-19962.045,-27925.515,-12077.325,-8915.58
1764764137.0317316,-8543.115,-16089.345,-2536.38,-8310.824999999999,-19960.155,-27923.94,-12075.3,-8913.33
1764764137.0317316,-8538.164999999999,-16085.025,-2531.7,-8306.369999999999,-19955.295,-27919.755,-12071.25,-8907.885
1764764137.0317316,-8540.73,-16087.32,-2534.625,-8308.395,-19957.77,-27922.095,-12073.725,-8910.81
1764764137.0317316,-8543.97,-16089.57,-2536.695,-8310.285,-19960.065,-27924.03,-12076.92,-8915.13
1764764137.0317316,-8541.855,-16086.96,-2533.68,-8308.035,-19957.32,-27921.195,-12073.77,-8911.17
1764764137.0317316,-8540.235,-16086.15,-2532.78,-8307.315,-19956.915,-27920.97,-12073.5,-8909.955
1764764137.0317316,-8542.26,-16088.04,-2534.715,-8309.654999999999,-19959.165,-27923.04,-12076.245,-8912.16
1764764137.0787995,-8546.265,-16092.36,-2538.945,-8313.39,-19962.54,-27927.18,-12080.07,-8916.345
1764764137.0787995,-8545.275,-16092.27,-2538.72,-8313.39,-19963.17,-27929.34,-12079.44,-8913.69
1764764137.0787995,-8547.525,-16094.34,-2540.97,-8315.145,-19964.88,-27931.545,-12081.555,-8915.4
1764764137.0793338,-8541.72,-16087.32,-2534.31,-8308.125,-19957.5,-27922.545,-12075.48,-8913.06
1764764137.0793338,-8543.88,-16089.75,-2536.875,-8311.41,-19961.64,-27925.515,-12076.335,-8913.69
1764764137.0793338,-8542.664999999999,-16088.625,-2535.03,-8309.34,-19958.85,-27924.12,-12076.515,-8912.925
1764764137.0793338,-8543.61,-16090.155,-2536.245,-8311.59,-19960.11,-27924.12,-12076.605,-8913.06
1764764137.0793338,-8548.335,-16095.06,-2541.375,-8316.539999999999,-19965.15,-27929.16,-12080.52,-8917.65
1764764137.0793338,-8545.05,-16091.28,-2538.405,-8312.58,-19961.055,-27925.47,-12076.875,-8914.455
1764764137.0793338,-8544.555,-16090.605,-2537.46,-8311.904999999999,-19959.93,-27925.605,-12076.875,-8914.23
1764764137.0793338,-8547.255,-16092.765,-2540.295,-8314.515,-19963.215,-27929.385,-12080.16,-8917.065
1764764137.0793338,-8544.914999999999,-16091.415,-2539.08,-8311.32,-19960.92,-27925.965,-12076.335,-8913.06
1764764137.0793338,-8546.265,-16091.505,-2538.045,-8311.005,-19961.595,-27926.595,-12076.155,-8915.58
1764764137.0793338,-8538.57,-16084.215,-2531.97,-8306.145,-19956.06,-27921.51,-12069.855,-8908.965
1764764137.0793338,-8540.91,-16087.365,-2535.48,-8310.15,-19959.255,-27922.905,-12069.585,-8910.449999999999
1764764137.0793338,-8545.86,-16091.865,-2539.53,-8313.255,-19963.8,-27928.845,-12077.055,-8915.895
1764764137.0793338,-8541.404999999999,-16086.87,-2535.165,-8307.99,-19958.49,-27925.29,-12078.18,-8911.35
1764764137.0793338,-8542.574999999999,-16088.49,-2537.55,-8310.645,-19961.595,-27926.91,-12078.18,-8912.52
1764764137.0793338,-8538.255,-16085.52,-2534.355,-8306.369999999999,-19956.105,-27921.645,-12072.69,-8908.38
1764764137.0793338,-8538.615,-16085.43,-2533.86,-8306.145,-19956.42,-27922.005,-12073.905,-8909.01
1764764137.0793338,-8539.92,-16085.745,-2534.22,-8306.595,-19957.14,-27921.96,-12074.31,-8910.449999999999
1764764137.0793338,-8540.414999999999,-16085.7,-2534.4,-8307.18,-19957.365,-27921.645,-12074.49,-8910.09
1764764137.0793338,-8540.775,-16086.6,-2534.58,-8307.945,-19958.535,-27922.815,-12074.94,-8909.82
1764764137.0793338,-8542.485,-16089.795,-2537.325,-8311.095,-19962.045,-27927.495,-12075.93,-8911.215
1764764137.1260364,-8542.529999999999,-16089.66,-2536.92,-8311.095,-19961.19,-27926.595,-12075.975,-8911.305
1764764137.1260364,-8544.015,-16088.625,-2535.525,-8308.8,-19958.355,-27924.345,-12079.53,-8914.14
1764764137.1260364,-8547.39,-16093.395,-2542.095,-8314.289999999999,-19962.54,-27928.35,-12080.745,-8916.39
1764764137.1260364,-8542.529999999999,-16089.165,-2537.64,-8310.015,-19959.12,-27923.67,-12075.075,-8910.135
1764764137.1260364,-8541.449999999999,-16088.13,-2537.505,-8309.925,-19961.1,-27926.19,-12075.75,-8907.885
1764764137.1260364,-8543.699999999999,-16088.94,-2538.72,-8311.23,-19962.18,-27926.28,-12078.405,-8913.869999999999
1764764137.1260364,-8546.265,-16091.055,-2541.015,-8313.074999999999,-19963.755,-27927.405,-12079.17,-8915.13
1764764137.1260364,-8543.115,-16087.14,-2536.47,-8308.664999999999,-19959.345,-27923.895,-12075.345,-8910.72
1764764137.1260364,-8538.705,-16082.82,-2532.06,-8304.39,-19955.34,-27921.33,-12072.915,-8908.289999999999
1764764137.1260364,-8539.154999999999,-16084.755,-2532.78,-8305.244999999999,-19955.655,-27920.34,-12073.005,-8908.02
1764764137.1260364,-8539.965,-16086.195,-2533.905,-8306.235,-19956.735,-27921.015,-12073.68,-8907.93
1764764137.1260364,-8544.33,-16090.155,-2539.305,-8311.86,-19961.685,-27926.19,-12078.27,-8909.865
1764764137.1260364,-8544.24,-16088.265,-2536.965,-8309.475,-19960.11,-27924.885,-12076.695,-8911.71
1764764137.1260364,-8546.265,-16090.02,-2538.18,-8311.005,-19961.19,-27926.1,-12077.82,-8915.085
1764764137.1260364,-8542.89,-16087.365,-2535.84,-8308.574999999999,-19958.94,-27923.22,-12076.245,-8912.565
1764764137.1260364,-8545.545,-16089.885,-2538.27,-8310.869999999999,-19961.37,-27925.425,-12079.44,-8914.904999999999
1764764137.1260364,-8545.68,-16090.02,-2538.855,-8310.33,-19961.955,-27926.505,-12078.72,-8914.545
1764764137.1260364,-8543.34,-16088.04,-2536.83,-8308.71,-19960.02,-27924.84,-12076.335,-8912.699999999999
1764764137.1260364,-8541.539999999999,-16086.735,-2535.93,-8307.63,-19958.85,-27923.445,-12074.805,-8910.765
1764764137.1260364,-8536.994999999999,-16081.83,-2531.205,-8302.725,-19954.98,-27918.63,-12070.125,-8905.904999999999
1764764137.1260364,-8536.77,-16081.965,-2531.43,-8303.22,-19955.07,-27918.99,-12070.98,-8905.635
1764764137.1260364,-8542.17,-16087.005,-2536.695,-8308.619999999999,-19959.615,-27924.57,-12075.84,-8911.305
1764764137.1260364,-8543.205,-16087.995,-2537.595,-8309.97,-19961.28,-27924.66,-12074.175,-8912.205
1764764137.1260364,-8542.485,-16086.24,-2535.39,-8307.9,-19961.055,-27924.57,-12073.275,-8912.475
1764764137.173669,-8542.215,-16088.895,-2538.315,-8310.51,-19962.405,-27925.605,-12073.275,-8910.945
1764764137.173669,-8542.529999999999,-16088.67,-2537.955,-8310.42,-19960.56,-27923.67,-12072.465,-8910.99
1764764137.173669,-8538.885,-16085.205,-2534.265,-8307.135,-19957.995,-27924.705,-12076.65,-8908.38
1764764137.173669,-8536.455,-16083.135,-2533.14,-8304.66,-19955.34,-27921.555,-12072.78,-8905.59
1764764137.173669,-8538.57,-16085.385,-2535.615,-8306.324999999999,-19958.715,-27925.425,-12075.03,-8905.545
1764764137.173669,-8538.3,-16085.88,-2534.67,-8305.74,-19957.41,-27924.39,-12075.345,-8905.68
1764764137.173669,-8536.545,-16083.99,-2532.33,-8303.805,-19955.34,-27920.88,-12071.385,-8907.074999999999
1764764137.173669,-8541.315,-16088.58,-2537.955,-8310.465,-19962.36,-27927.72,-12074.355,-8910.765
1764764137.173669,-8545.904999999999,-16092.315,-2541.375,-8313.48,-19965.78,-27933.165,-12080.61,-8916.345
1764764137.173669,-8544.869999999999,-16091.865,-2540.655,-8311.275,-19961.64,-27927.855,-12079.845,-8914.545
1764764137.173669,-8542.664999999999,-16089.03,-2537.865,-8307.945,-19959.03,-27923.76,-12076.29,-8912.654999999999
1764764137.173669,-8542.664999999999,-16087.41,-2537.415,-8309.34,-19960.605,-27924.705,-12074.355,-8912.609999999999
1764764137.173669,-8539.83,-16084.35,-2533.86,-8306.955,-19958.715,-27923.49,-12072.465,-8910.404999999999
1764764137.173669,-8539.965,-16086.465,-2534.94,-8307.404999999999,-19957.905,-27923.22,-12071.88,-8909.1
1764764137.173669,-8541.9,-16088.895,-2538.18,-8311.005,-19962.495,-27927.81,-12074.985,-8910.99
1764764137.173669,-8534.97,-16080.48,-2530.035,-8301.51,-19954.035,-27919.845,-12066.615,-8905.68
1764764137.173669,-8534.475,-16081.155,-2531.115,-8302.365,-19954.44,-27919.89,-12065.94,-8904.69
1764764137.173669,-8536.68,-16083.81,-2533.05,-8305.515,-19957.005,-27922.14,-12068.955,-8906.445
1764764137.173669,-8537.67,-16084.71,-2533.365,-8306.324999999999,-19958.265,-27923.13,-12069.765,-8908.154999999999
1764764137.173669,-8541.404999999999,-16088.76,-2537.01,-8310.015,-19961.685,-27928.08,-12074.265,-8912.295
1764764137.173669,-8542.755,-16090.65,-2539.17,-8312.175,-19961.145,-27927.27,-12074.04,-8912.115
1764764137.173669,-8542.89,-16091.055,-2539.035,-8311.32,-19961.64,-27927.585,-12075.39,-8913.24
1764764137.220549,-8541.27,-16089.12,-2537.505,-8309.699999999999,-19960.2,-27926.595,-12074.895,-8911.619999999999
1764764137.220549,-8537.039999999999,-16084.89,-2533.815,-8305.199999999999,-19956.195,-27923.175,-12071.295,-8906.67
1764764137.220549,-8536.095,-16083.99,-2534.49,-8305.244999999999,-19956.33,-27923.04,-12070.215,-8906.265
1764764137.220549,-8536.455,-16083.63,-2534.085,-8306.19,-19956.915,-27923.265,-12070.125,-8907.255
1764764137.220549,-8537.715,-16085.475,-2534.805,-8307.045,-19958.355,-27924.39,-12070.485,-8907.975
1764764137.220549,-8542.574999999999,-16090.425,-2539.485,-8312.715,-19963.08,-27928.8,-12075.03,-8913.105
1764764137.220549,-8540.865,-16088.13,-2537.91,-8310.914999999999,-19961.235,-27927.27,-12074.355,-8911.755
1764764137.220549,-8540.595,-16087.95,-2537.145,-8309.744999999999,-19959.75,-27926.73,-12073.455,-8910.9
1764764137.220549,-8539.425,-16087.14,-2536.38,-8309.699999999999,-19958.67,-27925.965,-12073.095,-8910.494999999999
1764764137.220549,-8538.3,-16085.925,-2535.48,-8308.664999999999,-19958.04,-27924.795,-12071.925,-8908.965
1764764137.220549,-8542.755,-16089.93,-2538.18,-8310.645,-19961.595,-27927.945,-12075.525,-8913.195
1764764137.220549,-8540.01,-16087.995,-2537.64,-8309.97,-19960.245,-27928.8,-12075.66,-8911.08
1764764137.220549,-8541.539999999999,-16089.84,-2540.88,-8314.695,-19963.89,-27930.375,-12075.57,-8911.44
1764764137.220549,-8536.59,-16083.18,-2533.05,-8304.345,-19953.45,-27921.06,-12069.63,-8906.265
1764764137.220549,-8535.015,-16082.37,-2532.69,-8304.029999999999,-19953.72,-27921.42,-12068.73,-8905.005
1764764137.220549,-8541.315,-16089.39,-2539.305,-8310.914999999999,-19961.82,-27929.655,-12076.11,-8912.88
1764764137.220549,-8541.63,-16089.12,-2539.26,-8310.465,-19960.74,-27928.53,-12075.57,-8912.295
1764764137.220549,-8537.22,-16084.305,-2535.255,-8306.865,-19956.78,-27924.12,-12071.97,-8908.289999999999
1764764137.220549,-8539.695,-16087.095,-2536.965,-8308.98,-19959.075,-27926.325,-12074.445,-8910.63
1764764137.220549,-8537.13,-16084.35,-2534.355,-8305.74,-19955.385,-27922.77,-12071.655,-8907.39
1764764137.220549,-8538.66,-16086.375,-2536.74,-8308.305,-19957.545,-27925.47,-12072.06,-8908.695
1764764137.220549,-8538.39,-16085.565,-2535.705,-8307.81,-19957.14,-27924.345,-12070.665,-8909.64
1764764137.220549,-8539.244999999999,-16087.095,-2537.37,-8309.115,-19958.49,-27925.065,-12071.25,-8910.449999999999
1764764137.220549,-8533.305,-16081.155,-2531.88,-8303.265,-19953.09,-27919.62,-12066.525,-8904.24
1764764137.2667868,-8531.82,-16079.535,-2529.945,-8301.645,-19951.155,-27918.36,-12065.355,-8902.17
1764764137.2667868,-8532.539999999999,-16079.805,-2530.125,-8301.6,-19951.965,-27922.005,-12071.565,-8903.385
1764764137.2667868,-8534.295,-16081.29,-2532.195,-8302.994999999999,-19953.99,-27923.4,-12071.655,-8905.68
1764764137.2667868,-8538.119999999999,-16085.52,-2536.245,-8307.855,-19958.175,-27926.145,-12074.355,-8909.91
1764764137.2673082,-8533.395,-16081.065,-2531.745,-8303.715,-19953.54,-27921.78,-12070.035,-8905.545
1764764137.2673082,-8534.789999999999,-16082.505,-2532.87,-8304.57,-19954.89,-27922.77,-12071.565,-8906.715
1764764137.2673082,-8540.595,-16088.715,-2538.81,-8311.41,-19963.395,-27930.105,-12077.055,-8911.71
1764764137.2673082,-8540.369999999999,-16088.94,-2538.945,-8311.815,-19963.08,-27930.33,-12077.865,-8911.44
1764764137.2673082,-8533.89,-16081.065,-2530.44,-8302.275,-19952.415,-27920.385,-12072.915,-8906.625
1764764137.2673082,-8535.645,-16084.125,-2532.915,-8305.515,-19954.53,-27922.365,-12073.32,-8907.255
1764764137.2673082,-8534.475,-16082.01,-2531.745,-8305.38,-19955.385,-27923.445,-12072.06,-8906.85
1764764137.2673082,-8540.324999999999,-16087.77,-2537.415,-8311.05,-19961.505,-27929.295,-12077.82,-8912.925
1764764137.2673082,-8537.49,-16085.88,-2534.49,-8308.17,-19958.31,-27926.415,-12075.255,-8910.539999999999
1764764137.2673082,-8538.164999999999,-16086.375,-2535.57,-8308.98,-19958.58,-27926.37,-12076.155,-8910.855
1764764137.2673082,-8535.24,-16082.28,-2532.015,-8305.695,-19954.845,-27922.95,-12072.555,-8907.345
1764764137.2673082,-8539.065,-16086.15,-2535.615,-8308.98,-19958.355,-27926.325,-12075.255,-8910.494999999999
1764764137.2673082,-8540.055,-16087.59,-2536.92,-8310.015,-19959.345,-27927.495,-12074.895,-8911.125
1764764137.2673082,-8537.805,-16086.24,-2536.02,-8309.07,-19957.995,-27926.685,-12073.41,-8909.595
1764764137.2673082,-8537.265,-16085.295,-2535.705,-8308.755,-19957.77,-27926.37,-12073.32,-8909.145
1764764137.2673082,-8535.914999999999,-16083.81,-2533.545,-8307.63,-19956.42,-27924.975,-12072.375,-8907.885
1764764137.2673082,-8534.43,-16081.875,-2531.43,-8306.369999999999,-19957.905,-27925.38,-12070.98,-8906.535
1764764137.2673082,-8540.145,-16086.6,-2535.165,-8307.81,-19959.03,-27927.99,-12077.64,-8912.654999999999
1764764137.2673082,-8543.835,-16093.755,-2545.38,-8317.935,-19965.69,-27934.065,-12081.78,-8912.609999999999
1764764137.2673082,-8538.705,-16086.06,-2538.495,-8312.76,-19961.28,-27928.98,-12076.245,-8911.305
1764764137.314358,-8532.765,-16078.41,-2528.37,-8301.51,-19951.155,-27919.395,-12068.145,-8906.94
1764764137.314358,-8536.86,-16084.17,-2533.23,-8306.775,-19957.005,-27924.615,-12073.68,-8909.82
1764764137.314358,-8533.17,-16080.705,-2530.215,-8303.805,-19953.495,-27921.285,-12071.07,-8905.904999999999
1764764137.314358,-8534.16,-16081.965,-2532.105,-8305.065,-19954.53,-27922.635,-12072.015,-8907.345
1764764137.314358,-8539.38,-16087.14,-2537.055,-8310.24,-19960.47,-27928.125,-12076.605,-8913.24
1764764137.314358,-8538.119999999999,-16087.41,-2536.92,-8309.61,-19959.795,-27928.305,-12075.435,-8912.16
1764764137.314358,-8533.89,-16083.045,-2533.095,-8305.65,-19956.42,-27924.3,-12070.98,-8907.029999999999
1764764137.314358,-8532.99,-16080.39,-2531.43,-8304.705,-19955.655,-27923.13,-12070.8,-8907.119999999999
1764764137.314358,-8531.19,-16078.905,-2529.54,-8303.58,-19953.99,-27921.465,-12069.18,-8905.455
1764764137.3153708,-8532.72,-16081.065,-2532.24,-8305.244999999999,-19955.61,-27922.725,-12070.845,-8906.94
1764764137.3153708,-8536.05,-16083.855,-2535.525,-8307.72,-19958.49,-27925.74,-12073.41,-8910.0
1764764137.3153708,-8530.83,-16079.355,-2530.845,-8303.4,-19953.54,-27920.7,-12068.73,-8905.545
1764764137.3153708,-8531.19,-16079.49,-2530.935,-8304.119999999999,-19953.405,-27921.42,-12069.09,-8905.23
1764764137.3153708,-8536.23,-16084.53,-2535.885,-8309.07,-19957.68,-27926.415,-12074.265,-8910.539999999999
1764764137.3153708,-8533.44,-16081.38,-2532.105,-8305.335,-19954.305,-27922.815,-12070.71,-8906.58
1764764137.3153708,-8532.404999999999,-16079.22,-2530.215,-8304.255,-19953.54,-27921.195,-12069.765,-8905.275
1764764137.3153708,-8533.35,-16080.795,-2531.835,-8306.279999999999,-19955.295,-27923.49,-12072.105,-8906.4
1764764137.3153708,-8539.154999999999,-16086.87,-2538.09,-8311.815,-19961.055,-27930.105,-12077.01,-8912.295
1764764137.3153708,-8536.455,-16084.485,-2535.615,-8309.025,-19958.49,-27927.09,-12074.04,-8910.404999999999
1764764137.3153708,-8540.145,-16088.22,-2539.215,-8312.715,-19962.0,-27930.105,-12078.405,-8913.645
1764764137.3153708,-8541.09,-16089.255,-2540.07,-8314.965,-19964.34,-27931.59,-12079.89,-8914.77
1764764137.3153708,-8540.64,-16089.12,-2539.71,-8315.505,-19964.88,-27932.58,-12079.62,-8914.545
1764764137.3585775,-8535.195,-16083.045,-2533.59,-8308.619999999999,-19957.455,-27926.145,-12075.75,-8909.865
1764764137.3585775,-8537.895,-16086.105,-2537.01,-8311.095,-19959.03,-27927.45,-12076.695,-8912.205
1764764137.3585775,-8539.74,-16088.265,-2539.98,-8313.84,-19962.36,-27931.41,-12078.09,-8914.095
1764764137.3585775,-8539.515,-16088.58,-2540.25,-8314.65,-19963.755,-27933.48,-12077.055,-8913.015
1764764137.3585775,-8534.97,-16083.45,-2535.03,-8309.925,-19958.49,-27928.35,-12072.735,-8908.74
1764764137.3585775,-8535.24,-16082.73,-2533.185,-8307.81,-19954.845,-27924.615,-12074.985,-8910.765
1764764137.3585775,-8533.8,-16081.02,-2532.555,-8306.73,-19953.675,-27923.175,-12071.79,-8907.39
1764764137.3585775,-8533.98,-16080.615,-2531.88,-8308.215,-19957.23,-27926.28,-12071.925,-8908.605
1764764137.3585775,-8534.34,-16083.0,-2532.96,-8308.619999999999,-19956.735,-27925.29,-12070.665,-8908.47
1764764137.3585775,-8540.01,-16089.885,-2540.16,-8314.56,-19962.855,-27934.11,-12076.155,-8911.89
1764764137.3585775,-8533.26,-16081.47,-2531.745,-8306.73,-19955.88,-27924.885,-12071.565,-8907.525
1764764137.3585775,-8534.34,-16081.92,-2531.745,-8306.279999999999,-19954.665,-27922.68,-12070.845,-8909.775
1764764137.3603616,-8537.265,-16084.62,-2537.235,-8312.94,-19960.74,-27929.88,-12075.525,-8912.744999999999
1764764137.3603616,-8534.43,-16080.615,-2532.015,-8307.99,-19955.565,-27925.245,-12071.025,-8911.035
1764764137.3603616,-8532.135,-16078.545,-2529.495,-8305.74,-19953.855,-27924.84,-12069.36,-8908.605
1764764137.3603616,-8538.615,-16085.79,-2537.055,-8312.76,-19960.965,-27932.265,-12076.065,-8915.039999999999
1764764137.3603616,-8538.57,-16086.285,-2538.18,-8312.535,-19961.1,-27932.22,-12076.2,-8914.59
1764764137.3603616,-8534.475,-16082.28,-2534.265,-8308.44,-19956.51,-27927.945,-12071.43,-8908.515
1764764137.3603616,-8536.59,-16082.64,-2535.255,-8310.015,-19957.995,-27929.115,-12073.32,-8911.619999999999
1764764137.3603616,-8541.135,-16086.42,-2538.27,-8312.58,-19961.19,-27931.23,-12078.27,-8917.56
1764764137.3603616,-8535.555,-16081.56,-2534.22,-8309.61,-19957.32,-27927.99,-12073.545,-8911.574999999999
1764764137.3603616,-8536.77,-16083.585,-2535.885,-8311.455,-19958.445,-27927.99,-12073.59,-8911.935
1764764137.3603616,-8540.324999999999,-16086.555,-2539.08,-8314.02,-19961.685,-27932.13,-12078.0,-8915.535
1764764137.3603616,-8540.145,-16086.825,-2539.98,-8315.01,-19963.53,-27934.56,-12078.27,-8915.31
1764764137.406351,-8535.645,-16082.775,-2534.85,-8310.15,-19958.895,-27930.51,-12074.355,-8911.35
1764764137.406351,-8535.69,-16082.55,-2534.04,-8309.205,-19956.69,-27928.08,-12072.69,-8911.17
1764764137.406351,-8537.355,-16084.035,-2536.605,-8311.32,-19959.435,-27929.745,-12073.455,-8912.43
1764764137.406351,-8535.779999999999,-16082.37,-2534.715,-8309.565,-19958.265,-27928.98,-12073.545,-8910.945
1764764137.406351,-8536.904999999999,-16082.28,-2535.075,-8309.205,-19957.41,-27929.565,-12074.4,-8911.8
1764764137.406351,-8542.529999999999,-16088.805,-2541.465,-8315.865,-19962.54,-27933.615,-12079.17,-8916.66
1764764137.406351,-8539.289999999999,-16087.725,-2540.565,-8314.83,-19962.09,-27932.805,-12077.595,-8914.005
1764764137.406351,-8537.085,-16084.98,-2537.64,-8313.029999999999,-19960.695,-27931.455,-12075.48,-8912.789999999999
1764764137.406351,-8538.93,-16084.89,-2537.37,-8312.49,-19960.29,-27931.815,-12075.84,-8915.445
1764764137.406873,-8535.555,-16081.695,-2534.85,-8310.015,-19958.58,-27929.7,-12073.005,-8910.63
1764764137.406873,-8534.385,-16081.425,-2534.175,-8309.835,-19959.615,-27931.5,-12071.475,-8909.46
1764764137.406873,-8532.585,-16078.59,-2531.115,-8305.289999999999,-19952.775,-27924.93,-12070.485,-8909.234999999999
1764764137.406873,-8533.26,-16079.265,-2531.16,-8305.289999999999,-19953.18,-27924.39,-12069.585,-8909.145
1764764137.406873,-8539.244999999999,-16085.295,-2536.785,-8312.4,-19960.38,-27930.555,-12073.995,-8914.725
1764764137.406873,-8539.695,-16085.43,-2536.83,-8312.67,-19960.74,-27930.375,-12074.94,-8915.039999999999
1764764137.406873,-8538.39,-16084.35,-2535.255,-8311.725,-19959.3,-27929.295,-12073.905,-8913.645
1764764137.406873,-8535.105,-16081.155,-2532.42,-8308.845,-19956.195,-27926.145,-12070.98,-8909.91
1764764137.406873,-8538.57,-16083.405,-2536.065,-8311.545,-19959.345,-27929.205,-12073.455,-8913.24
1764764137.406873,-8535.24,-16080.525,-2532.915,-8308.935,-19956.555,-27925.965,-12071.7,-8910.27
1764764137.406873,-8534.97,-16081.02,-2532.69,-8308.935,-19955.385,-27925.47,-12071.97,-8909.955
1764764137.406873,-8536.32,-16081.65,-2533.095,-8309.565,-19955.745,-27926.055,-12071.565,-8910.404999999999
1764764137.406873,-8538.615,-16083.18,-2534.31,-8311.635,-19959.885,-27930.33,-12074.49,-8913.015
1764764137.406873,-8538.615,-16083.18,-2535.57,-8311.41,-19960.83,-27930.105,-12074.85,-8912.744999999999
1764764137.406873,-8538.3,-16083.09,-2534.94,-8310.869999999999,-19959.03,-27928.755,-12074.67,-8911.395
1764764137.4530473,-8540.1,-16084.755,-2535.795,-8311.365,-19960.47,-27929.07,-12074.805,-8912.88
1764764137.4535525,-8538.57,-16082.055,-2533.005,-8307.99,-19959.12,-27928.305,-12074.265,-8912.88
1764764137.4535525,-8536.994999999999,-16082.145,-2534.58,-8310.33,-19958.985,-27927.45,-12072.24,-8910.09
1764764137.4535525,-8538.21,-16082.19,-2534.94,-8309.789999999999,-19959.165,-27927.495,-12073.365,-8910.449999999999
1764764137.4535525,-8534.789999999999,-16078.905,-2531.025,-8305.47,-19953.81,-27923.265,-12070.53,-8907.255
1764764137.4535525,-8535.24,-16079.805,-2532.06,-8307.63,-19956.24,-27924.165,-12070.53,-8907.164999999999
1764764137.4535525,-8538.119999999999,-16082.37,-2533.905,-8310.24,-19958.67,-27927.315,-12073.5,-8909.82
1764764137.4535525,-8541.675,-16085.745,-2537.415,-8313.84,-19961.685,-27930.51,-12077.01,-8913.06
1764764137.4535525,-8537.895,-16081.83,-2533.815,-8309.654999999999,-19958.13,-27926.64,-12073.455,-8909.505
1764764137.4535525,-8539.244999999999,-16083.18,-2535.57,-8310.779999999999,-19959.615,-27927.27,-12073.905,-8911.619999999999
1764764137.4535525,-8543.43,-16086.33,-2539.71,-8314.289999999999,-19963.305,-27930.915,-12077.37,-8915.355
1764764137.4535525,-8539.38,-16081.965,-2535.615,-8309.654999999999,-19958.67,-27927.405,-12074.4,-8910.765
1764764137.4535525,-8541.0,-16083.72,-2537.46,-8312.039999999999,-19960.92,-27930.06,-12076.02,-8912.295
1764764137.4540713,-8540.19,-16083.18,-2535.3,-8311.365,-19960.245,-27929.34,-12075.84,-8912.025
1764764137.4540713,-8541.045,-16084.71,-2536.29,-8312.22,-19959.93,-27929.565,-12076.47,-8911.619999999999
1764764137.4540713,-8540.64,-16084.935,-2537.64,-8313.435,-19959.975,-27928.89,-12075.03,-8911.035
1764764137.4540713,-8536.545,-16080.345,-2533.815,-8310.015,-19957.635,-27928.08,-12073.365,-8907.345
1764764137.4540713,-8540.19,-16083.405,-2537.055,-8313.029999999999,-19962.27,-27931.95,-12075.93,-8911.574999999999
1764764137.4540713,-8539.11,-16080.93,-2534.4,-8309.744999999999,-19958.76,-27928.17,-12073.185,-8910.585
1764764137.4540713,-8540.505,-16082.55,-2535.48,-8310.96,-19959.435,-27929.79,-12074.76,-8910.0
1764764137.4540713,-8540.145,-16083.315,-2535.75,-8310.869999999999,-19959.615,-27929.88,-12075.12,-8909.01
1764764137.4540713,-8535.24,-16077.555,-2530.755,-8306.369999999999,-19953.9,-27923.535,-12071.79,-8906.625
1764764137.5006738,-8535.51,-16076.88,-2530.755,-8305.92,-19953.72,-27923.445,-12071.43,-8907.255
1764764137.5006738,-8538.885,-16080.93,-2535.03,-8310.195,-19958.175,-27927.495,-12075.165,-8910.765
1764764137.5006738,-8540.73,-16082.91,-2536.92,-8312.039999999999,-19959.345,-27929.88,-12076.515,-8912.744999999999
1764764137.5006738,-8538.255,-16081.47,-2534.58,-8310.42,-19957.86,-27928.17,-12074.31,-8910.675
1764764137.5006738,-8536.005,-16079.895,-2533.77,-8309.699999999999,-19958.58,-27928.395,-12071.34,-8907.615
1764764137.5006738,-8541.494999999999,-16083.945,-2537.325,-8313.615,-19962.045,-27931.68,-12077.01,-8912.789999999999
1764764137.5006738,-8538.3,-16079.985,-2532.915,-8308.35,-19956.195,-27925.425,-12074.805,-8910.494999999999
1764764137.5006738,-8537.67,-16080.975,-2533.86,-8309.97,-19957.815,-27927.18,-12074.22,-8909.64
1764764137.5006738,-8542.125,-16085.295,-2538.45,-8313.615,-19962.18,-27932.58,-12076.515,-8913.24
1764764137.5006738,-8535.105,-16077.105,-2530.395,-8304.66,-19952.865,-27924.165,-12069.765,-8905.904999999999
1764764137.5006738,-8538.48,-16081.785,-2535.525,-8310.015,-19958.445,-27928.98,-12074.625,-8909.64
1764764137.5006738,-8543.97,-16086.465,-2538.99,-8313.435,-19962.63,-27933.39,-12078.945,-8914.095
1764764137.5006738,-8535.015,-16076.745,-2530.845,-8306.279999999999,-19954.395,-27923.085,-12070.305,-8907.705
1764764137.5006738,-8538.795,-16081.335,-2535.525,-8311.86,-19958.895,-27927.585,-12072.465,-8911.89
1764764137.5006738,-8535.33,-16077.825,-2532.24,-8308.08,-19955.79,-27925.245,-12069.81,-8907.84
1764764137.5006738,-8535.06,-16077.87,-2531.97,-8308.08,-19956.15,-27925.965,-12070.575,-8907.615
1764764137.5006738,-8536.5,-16079.445,-2533.365,-8309.43,-19957.77,-27927.27,-12071.34,-8909.19
1764764137.5006738,-8539.965,-16083.675,-2536.965,-8313.345,-19960.875,-27930.375,-12074.895,-8912.654999999999
1764764137.5006738,-8538.435,-16081.335,-2535.075,-8311.365,-19958.49,-27927.585,-12072.735,-8911.035
1764764137.5006738,-8542.35,-16084.395,-2538.585,-8314.965,-19961.595,-27931.095,-12076.335,-8914.904999999999
1764764137.5006738,-8542.845,-16084.89,-2539.08,-8316.045,-19962.495,-27932.31,-12076.47,-8915.715
1764764137.5006738,-8541.494999999999,-16083.855,-2538.045,-8314.289999999999,-19961.955,-27931.77,-12075.165,-8915.13
1764764137.5006738,-8540.55,-16083.405,-2538.0,-8314.02,-19961.73,-27931.68,-12075.03,-8914.185
1764764137.5006738,-8535.824999999999,-16078.815,-2533.545,-8309.925,-19957.455,-27927.63,-12072.015,-8909.505
1764764137.546647,-8537.715,-16080.93,-2535.84,-8311.77,-19959.93,-27930.735,-12074.22,-8911.395
1764764137.546647,-8543.97,-16087.365,-2542.41,-8317.8,-19964.97,-27935.955,-12079.89,-8917.695
1764764137.546647,-8543.25,-16086.555,-2541.6,-8316.945,-19964.025,-27935.505,-12079.485,-8917.56
1764764137.546647,-8542.89,-16086.015,-2540.925,-8316.0,-19962.54,-27934.2,-12079.53,-8916.029999999999
1764764137.546647,-8540.685,-16084.665,-2539.395,-8314.695,-19959.66,-27932.04,-12077.595,-8912.835
1764764137.546647,-8541.494999999999,-16085.34,-2540.79,-8316.225,-19962.045,-27934.83,-12078.45,-8913.555
1764764137.546647,-8543.295,-16085.655,-2540.655,-8316.9,-19962.945,-27934.65,-12079.26,-8918.01
1764764137.546647,-8540.414999999999,-16082.82,-2537.46,-8313.66,-19960.02,-27931.095,-12076.83,-8915.445
1764764137.546647,-8535.779999999999,-16078.995,-2533.455,-8309.565,-19956.465,-27927.72,-12072.78,-8910.72
1764764137.546647,-8538.795,-16082.865,-2536.245,-8312.085,-19960.695,-27931.905,-12076.245,-8913.555
1764764137.5471716,-8537.94,-16083.36,-2537.415,-8313.029999999999,-19961.055,-27932.13,-12075.21,-8912.16
1764764137.5471716,-8541.0,-16086.6,-2540.565,-8315.82,-19962.405,-27933.3,-12078.0,-8914.32
1764764137.5471716,-8533.755,-16078.905,-2533.68,-8309.565,-19956.915,-27927.315,-12071.385,-8906.94
1764764137.5471716,-8533.755,-16078.545,-2532.915,-8309.654999999999,-19957.095,-27928.305,-12071.025,-8908.875
1764764137.5471716,-8536.904999999999,-16082.37,-2536.785,-8312.94,-19960.29,-27931.005,-12074.265,-8911.529999999999
1764764137.5471716,-8536.635,-16079.895,-2534.67,-8310.015,-19956.195,-27926.01,-12074.85,-8911.755
1764764137.5471716,-8534.744999999999,-16079.04,-2533.77,-8309.565,-19955.745,-27926.235,-12073.23,-8909.505
1764764137.5471716,-8538.164999999999,-16082.46,-2537.37,-8312.85,-19959.3,-27930.465,-12076.245,-8911.125
1764764137.5471716,-8538.57,-16082.145,-2536.92,-8312.265,-19959.39,-27931.14,-12076.47,-8912.34
1764764137.5481763,-8536.994999999999,-16080.255,-2535.21,-8311.32,-19958.085,-27929.97,-12076.29,-8912.565
1764764137.5481763,-8537.085,-16081.155,-2536.515,-8312.22,-19958.535,-27930.51,-12075.615,-8911.08
1764764137.5481763,-8540.279999999999,-16083.315,-2538.405,-8314.875,-19960.92,-27934.065,-12078.09,-8914.14
1764764137.5951438,-8538.795,-16082.82,-2537.505,-8313.255,-19957.995,-27930.195,-12075.435,-8912.205
1764764137.5951438,-8539.065,-16082.055,-2536.965,-8313.93,-19960.065,-27932.04,-12076.65,-8912.97
1764764137.5951438,-8542.8,-16083.45,-2538.765,-8315.369999999999,-19962.675,-27935.055,-12080.205,-8916.795
1764764137.5951438,-8540.324999999999,-16082.865,-2539.035,-8315.73,-19961.01,-27934.38,-12078.315,-8912.744999999999
1764764137.5951438,-8544.914999999999,-16087.68,-2544.39,-8320.23,-19964.835,-27938.115,-12081.69,-8916.93
1764764137.5951438,-8543.88,-16085.97,-2542.995,-8318.16,-19963.935,-27936.315,-12080.655,-8916.164999999999
1764764137.5951438,-8540.369999999999,-16082.865,-2538.45,-8313.84,-19960.335,-27933.795,-12077.01,-8912.925
1764764137.5951438,-8542.035,-16085.025,-2541.51,-8315.955,-19962.315,-27936.315,-12079.08,-8915.175
1764764137.5951438,-8537.355,-16081.155,-2537.325,-8312.67,-19958.265,-27931.41,-12074.13,-8910.855
1764764137.5951438,-8542.215,-16085.79,-2541.105,-8317.44,-19964.07,-27936.36,-12079.125,-8915.58
1764764137.5951438,-8543.025,-16085.79,-2541.87,-8317.305,-19962.945,-27936.54,-12080.205,-8915.895
1764764137.5951438,-8537.895,-16080.525,-2536.92,-8313.119999999999,-19958.4,-27931.635,-12075.885,-8911.44
1764764137.5951438,-8540.505,-16082.505,-2539.485,-8315.279999999999,-19960.47,-27933.165,-12077.505,-8914.41
1764764137.5951438,-8537.265,-16079.13,-2536.155,-8311.904999999999,-19957.005,-27929.79,-12074.535,-8910.494999999999
1764764137.5951438,-8536.949999999999,-16079.76,-2536.605,-8311.994999999999,-19957.545,-27930.195,-12074.445,-8910.765
1764764137.5951438,-8541.27,-16085.385,-2541.33,-8317.529999999999,-19964.115,-27936.405,-12079.035,-8915.039999999999
