Timestamp,Channel1,Channel2,Channel3,Channel4,Channel5,Channel6,Channel7,Channel8
1764764213.281035,548.235,-798.12,-28056.915,-5762.79,-19482.93,-27354.285,-6048.315,2529.45
1764764213.281035,551.5649999999999,-795.285,-28053.315,-5760.945,-19480.635,-27351.54,-6045.66,2533.005
1764764213.281035,553.9499999999999,-792.765,-28050.39,-5758.335,-19478.115,-27348.57,-6044.264999999999,2535.66
1764764213.281035,551.655,-795.06,-28053.99,-5761.304999999999,-19481.22,-27352.035,-6045.615,2533.455
1764764213.281035,554.22,-792.0,-28051.29,-5757.795,-19477.575,-27348.12,-6043.005,2536.38
1764764213.281035,552.6899999999999,-793.2149999999999,-28052.55,-5759.054999999999,-19478.07,-27348.975,-6043.32,2534.355
1764764213.281035,556.245,-790.11,-28049.175,-5756.445,-19475.865,-27346.095,-6041.474999999999,2537.955
1764764213.281035,553.365,-792.765,-28052.01,-5759.415,-19478.52,-27348.885,-6042.645,2535.345
1764764213.281035,554.265,-792.045,-28050.84,-5759.685,-19478.745,-27348.795,-6042.645,2536.065
1764764213.281035,556.8299999999999,-790.47,-28048.185,-5756.895,-19476.225,-27346.185,-6040.755,2538.405
1764764213.281035,552.015,-795.24,-28052.55,-5761.349999999999,-19479.555,-27351.0,-6044.085,2533.68
1764764213.281035,553.3199999999999,-793.845,-28051.245,-5760.27,-19477.98,-27350.19,-6043.23,2535.435
1764764213.281035,553.68,-792.18,-28049.67,-5759.145,-19477.395,-27348.12,-6043.005,2536.335
1764764213.281035,549.405,-796.5899999999999,-28054.125,-5763.915,-19482.885,-27352.89,-6046.83,2532.285
1764764213.281035,547.8299999999999,-797.355,-28055.43,-5764.905,-19484.19,-27353.88,-6047.639999999999,2530.665
1764764213.281035,547.155,-797.625,-28056.195,-5764.995,-19484.055,-27353.97,-6048.09,2530.125
1764764213.2823875,548.415,-797.13,-28054.98,-5763.78,-19482.885,-27353.07,-6047.054999999999,2531.61
1764764213.2823875,549.9449999999999,-795.6,-28054.395,-5761.844999999999,-19481.895,-27351.36,-6045.795,2532.51
1764764213.2823875,554.5799999999999,-790.515,-28049.4,-5757.12,-19476.765,-27345.87,-6041.969999999999,2537.82
1764764213.2823875,557.37,-787.8149999999999,-28047.015,-5755.41,-19474.29,-27343.98,-6038.955,2540.205
1764764213.2823875,554.13,-791.685,-28049.895,-5758.29,-19477.71,-27347.67,-6042.465,2536.515
1764764213.3291652,550.62,-795.42,-28053.54,-5761.665,-19481.715,-27351.45,-6044.625,2532.735
1764764213.3291652,551.745,-793.89,-28051.605,-5759.55,-19479.69,-27349.29,-6042.69,2534.715
1764764213.3291652,551.385,-793.665,-28050.795,-5758.695,-19477.89,-27347.67,-6041.79,2534.85
1764764213.3291652,550.035,-795.015,-28051.605,-5759.55,-19477.8,-27347.895,-6042.825,2533.635
1764764213.3291652,552.285,-793.0799999999999,-28050.705,-5758.11,-19476.99,-27346.5,-6041.745,2535.48
1764764213.3291652,551.115,-795.3299999999999,-28053.045,-5761.17,-19480.815,-27349.695,-6043.05,2533.32
1764764213.3291652,552.285,-793.62,-28051.56,-5759.82,-19479.69,-27349.155,-6042.78,2534.895
1764764213.3291652,550.62,-794.5649999999999,-28053.045,-5761.395,-19481.355,-27351.18,-6043.86,2533.77
1764764213.3291652,546.975,-797.7149999999999,-28057.005,-5766.389999999999,-19486.44,-27356.085,-6047.775,2529.63
1764764213.3291652,543.42,-800.64,-28060.2,-5768.73,-19489.545,-27359.145,-6051.285,2526.3
1764764213.3291652,543.105,-800.3249999999999,-28060.02,-5767.695,-19488.6,-27358.155,-6050.925,2525.85
1764764213.330172,544.14,-799.245,-28058.49,-5766.344999999999,-19486.71,-27356.085,-6049.844999999999,2527.11
1764764213.330172,544.14,-799.245,-28058.31,-5767.38,-19486.665,-27356.355,-6049.349999999999,2527.335
1764764213.330172,543.285,-800.055,-28058.22,-5768.145,-19487.295,-27357.12,-6049.53,2526.75
1764764213.330172,541.395,-801.63,-28060.245,-5770.44,-19489.14,-27359.145,-6050.07,2525.265
1764764213.330172,544.635,-799.875,-28058.805,-5768.639999999999,-19488.015,-27357.93,-6048.99,2527.155
1764764213.330172,542.835,-802.17,-28061.64,-5770.755,-19490.895,-27360.945,-6050.52,2524.905
1764764213.330172,545.9399999999999,-799.02,-28057.995,-5767.425,-19486.755,-27356.265,-6047.145,2529.0
1764764213.330172,551.43,-793.62,-28051.695,-5762.25,-19480.095,-27350.37,-6043.05,2534.895
1764764213.330172,549.405,-796.185,-28053.99,-5764.41,-19482.03,-27353.115,-6044.985,2532.87
1764764213.330172,547.11,-797.49,-28056.96,-5766.929999999999,-19485.09,-27355.365,-6045.435,2530.935
1764764213.330172,548.55,-796.185,-28055.565,-5764.59,-19483.155,-27352.98,-6044.58,2532.285
1764764213.330172,545.175,-799.29,-28057.455,-5766.3,-19484.865,-27354.6,-6046.38,2529.63
1764764213.330172,547.02,-797.31,-28055.295,-5764.005,-19482.48,-27352.53,-6044.355,2531.115
1764764213.3777852,550.755,-793.845,-28051.92,-5760.09,-19478.88,-27348.84,-6041.205,2534.805
1764764213.3777852,547.56,-797.22,-28055.88,-5764.32,-19482.84,-27352.89,-6044.085,2531.115
1764764213.3777852,547.0649999999999,-798.0749999999999,-28057.14,-5766.255,-19484.145,-27355.05,-6045.615,2530.44
1764764213.3777852,550.0799999999999,-795.24,-28053.99,-5763.42,-19481.13,-27351.63,-6042.78,2534.085
1764764213.3777852,553.995,-791.28,-28050.57,-5759.505,-19477.035,-27347.67,-6039.675,2538.135
1764764213.3777852,551.115,-793.845,-28053.495,-5762.52,-19480.68,-27351.855,-6041.52,2535.255
1764764213.3777852,551.835,-793.53,-28052.64,-5760.9,-19480.14,-27350.775,-6040.125,2536.11
1764764213.3777852,552.555,-792.3149999999999,-28051.38,-5759.235,-19478.16,-27348.48,-6038.775,2536.47
1764764213.3777852,556.245,-788.9399999999999,-28047.33,-5756.085,-19474.38,-27344.34,-6036.795,2539.8
1764764213.3777852,557.055,-787.8149999999999,-28046.925,-5755.905,-19474.245,-27344.115,-6035.985,2540.61
1764764213.3777852,556.785,-787.77,-28046.88,-5755.995,-19473.84,-27343.53,-6035.085,2540.43
1764764213.3777852,556.02,-789.0749999999999,-28047.555,-5756.264999999999,-19474.83,-27344.385,-6035.085,2540.205
1764764213.3777852,554.805,-790.47,-28049.49,-5757.57,-19476.81,-27346.995,-6036.389999999999,2539.26
1764764213.3777852,553.4549999999999,-791.64,-28050.525,-5759.415,-19477.98,-27348.345,-6036.974999999999,2537.73
1764764213.3777852,560.8349999999999,-784.62,-28042.92,-5752.53,-19470.69,-27340.605,-6031.08,2545.515
1764764213.3777852,558.9449999999999,-785.97,-28044.225,-5754.375,-19472.4,-27342.585,-6031.844999999999,2543.985
1764764213.3777852,554.76,-789.8399999999999,-28049.04,-5758.785,-19476.765,-27346.995,-6034.86,2539.8
1764764213.3777852,553.59,-791.595,-28049.805,-5759.28,-19477.53,-27347.895,-6036.165,2538.54
1764764213.378785,555.975,-789.435,-28047.33,-5756.895,-19474.29,-27345.195,-6034.5,2541.195
1764764213.378785,554.805,-790.65,-28049.04,-5758.65,-19476.72,-27346.455,-6035.895,2540.43
1764764213.378785,551.655,-793.17,-28051.83,-5761.215,-19479.78,-27349.605,-6038.28,2537.505
1764764213.378785,554.76,-789.93,-28049.13,-5757.66,-19476.09,-27346.32,-6035.4,2540.835
1764764213.378785,551.79,-792.495,-28051.83,-5759.91,-19478.07,-27348.165,-6036.255,2537.82
1764764213.378785,554.175,-790.3349999999999,-28049.85,-5757.525,-19475.37,-27345.87,-6033.554999999999,2539.08
1764764213.424888,558.27,-786.1949999999999,-28046.475,-5753.474999999999,-19471.275,-27341.82,-6030.9,2542.905
1764764213.424888,556.38,-788.76,-28048.275,-5754.915,-19472.94,-27343.98,-6032.745,2540.7
1764764213.424888,554.31,-790.9649999999999,-28050.39,-5757.255,-19475.82,-27346.275,-6033.915,2539.035
1764764213.424888,557.145,-788.4449999999999,-28047.375,-5754.78,-19472.76,-27343.53,-6032.429999999999,2542.005
1764764213.424888,553.9499999999999,-791.01,-28050.615,-5758.065,-19475.865,-27346.815,-6034.679999999999,2538.855
1764764213.424888,552.78,-792.765,-28052.1,-5760.315,-19479.42,-27349.785,-6036.3,2536.875
1764764213.424888,552.015,-792.9449999999999,-28052.37,-5761.395,-19480.545,-27350.055,-6037.29,2536.515
1764764213.424888,551.97,-792.765,-28052.595,-5760.224999999999,-19479.78,-27349.02,-6037.065,2537.01
1764764213.424888,551.52,-792.4499999999999,-28052.19,-5760.179999999999,-19479.15,-27348.885,-6036.974999999999,2537.235
1764764213.424888,554.535,-789.165,-28049.04,-5757.795,-19477.035,-27346.5,-6035.535,2540.115
1764764213.424888,555.255,-788.76,-28048.68,-5757.929999999999,-19476.54,-27346.815,-6033.69,2540.16
1764764213.424888,550.125,-794.295,-28054.305,-5763.195,-19481.085,-27351.99,-6038.19,2535.12
1764764213.424888,552.51,-791.595,-28052.325,-5761.26,-19480.005,-27350.595,-6036.75,2537.235
1764764213.424888,552.285,-791.595,-28052.64,-5761.889999999999,-19480.05,-27350.37,-6037.29,2536.56
1764764213.424888,550.53,-794.2049999999999,-28054.665,-5764.185,-19482.345,-27351.99,-6038.235,2533.995
1764764213.424888,554.4449999999999,-790.0649999999999,-28051.11,-5760.675,-19479.24,-27348.48,-6035.49,2538.135
1764764213.424888,553.095,-791.64,-28053.495,-5763.105,-19481.22,-27351.09,-6036.615,2536.92
1764764213.424888,555.66,-789.345,-28051.515,-5761.17,-19478.745,-27349.2,-6033.915,2540.025
1764764213.424888,558.36,-786.1949999999999,-28048.455,-5758.38,-19476.045,-27346.77,-6031.755,2542.725
1764764213.424888,554.85,-789.0749999999999,-28051.065,-5761.53,-19479.69,-27350.37,-6034.455,2539.935
1764764213.424888,557.145,-787.365,-28048.995,-5758.785,-19476.765,-27347.49,-6032.835,2542.005
1764764213.424888,551.6999999999999,-793.35,-28054.755,-5763.78,-19481.67,-27352.485,-6037.335,2536.38
1764764213.4713013,551.295,-793.62,-28054.305,-5763.465,-19481.67,-27351.945,-6037.92,2535.75
1764764213.4713013,553.095,-791.415,-28051.695,-5761.98,-19479.555,-27349.74,-6036.929999999999,2536.83
1764764213.4713013,554.85,-790.3349999999999,-28050.705,-5759.415,-19476.99,-27347.13,-6035.13,2538.9
1764764213.4713013,554.625,-789.795,-28050.075,-5758.425,-19475.595,-27346.005,-6034.545,2539.26
1764764213.4713013,554.715,-789.5699999999999,-28048.905,-5757.48,-19474.605,-27345.285,-6033.06,2540.205
1764764213.4713013,554.76,-789.5699999999999,-28048.77,-5757.66,-19474.56,-27345.24,-6032.474999999999,2539.17
1764764213.4713013,553.5,-790.9649999999999,-28049.265,-5757.57,-19473.615,-27345.42,-6032.429999999999,2538.27
1764764213.4713013,556.92,-787.005,-28045.575,-5753.835,-19469.61,-27341.28,-6029.46,2542.86
1764764213.4713013,558.63,-785.79,-28045.17,-5753.925,-19469.79,-27341.37,-6028.92,2543.535
1764764213.4713013,555.345,-789.39,-28048.995,-5757.57,-19474.02,-27345.285,-6031.755,2540.16
1764764213.4713013,554.805,-790.29,-28050.525,-5760.63,-19478.115,-27349.38,-6033.15,2539.26
1764764213.4713013,558.18,-787.545,-28048.14,-5758.74,-19477.62,-27347.985,-6032.16,2542.005
1764764213.4713013,556.11,-789.03,-28048.86,-5759.865,-19478.205,-27347.895,-6033.195,2540.205
1764764213.4713013,552.645,-792.405,-28053.135,-5763.554999999999,-19481.67,-27350.82,-6035.219999999999,2537.055
1764764213.4713013,552.42,-792.63,-28053.765,-5762.655,-19480.68,-27350.145,-6034.32,2537.37
1764764213.4713013,552.51,-791.595,-28052.595,-5761.215,-19479.105,-27349.605,-6033.78,2537.235
1764764213.4713013,555.84,-788.265,-28048.77,-5757.84,-19475.55,-27346.59,-6031.98,2540.43
1764764213.4713013,555.03,-789.48,-28049.985,-5759.28,-19476.405,-27347.355,-6032.429999999999,2539.665
1764764213.4713013,557.145,-786.105,-28047.69,-5756.49,-19473.48,-27344.565,-6030.224999999999,2542.32
1764764213.4713013,553.635,-788.9399999999999,-28049.76,-5758.83,-19476.09,-27347.58,-6032.115,2539.62
1764764213.4713013,556.155,-786.24,-28045.98,-5755.5,-19472.13,-27344.16,-6029.235,2542.455
1764764213.4713013,556.785,-786.735,-28047.285,-5756.67,-19472.715,-27344.52,-6029.37,2541.87
1764764213.4713013,553.095,-789.75,-28050.975,-5759.82,-19475.865,-27347.58,-6031.98,2538.585
1764764213.4713013,552.555,-789.8399999999999,-28049.58,-5759.55,-19475.325,-27347.085,-6032.429999999999,2538.27
1764764213.4713013,550.0799999999999,-792.045,-28052.37,-5762.25,-19478.34,-27349.83,-6034.275,2535.12
1764764213.4713013,552.285,-789.165,-28050.84,-5761.08,-19477.89,-27348.255,-6033.554999999999,2537.865
1764764213.518086,551.475,-790.47,-28052.28,-5763.42,-19479.96,-27350.865,-6035.085,2536.605
1764764213.518086,549.36,-793.2149999999999,-28054.035,-5765.4,-19482.075,-27352.665,-6035.895,2533.635
1764764213.518086,552.015,-789.795,-28050.255,-5761.889999999999,-19478.205,-27349.515,-6033.195,2537.235
1764764213.518086,546.975,-794.6999999999999,-28055.745,-5767.74,-19484.19,-27355.14,-6036.615,2532.69
1764764213.518086,548.055,-793.4399999999999,-28055.61,-5767.02,-19484.145,-27355.455,-6036.84,2534.13
1764764213.518086,552.96,-788.985,-28051.02,-5762.115,-19479.105,-27350.91,-6034.545,2538.63
1764764213.518086,554.67,-787.23,-28050.03,-5760.764999999999,-19478.34,-27348.84,-6032.429999999999,2539.845
1764764213.518086,554.67,-786.915,-28049.535,-5761.17,-19479.24,-27349.605,-6032.429999999999,2539.89
1764764213.518086,552.42,-789.2099999999999,-28051.605,-5763.915,-19480.95,-27351.54,-6032.88,2539.08
1764764213.518086,553.545,-787.3199999999999,-28049.58,-5762.025,-19478.7,-27350.01,-6032.565,2541.015
1764764213.518086,553.365,-787.725,-28049.58,-5761.53,-19478.565,-27350.325,-6032.655,2540.52
1764764213.518086,553.005,-788.5799999999999,-28050.435,-5762.025,-19478.52,-27350.415,-6031.485,2539.98
1764764213.518086,556.92,-783.765,-28046.565,-5757.615,-19474.965,-27346.23,-6028.65,2544.03
1764764213.518086,555.03,-785.61,-28048.005,-5758.875,-19476.63,-27348.21,-6030.54,2541.33
1764764213.5190923,554.5799999999999,-786.285,-28047.96,-5759.099999999999,-19475.325,-27348.39,-6029.91,2540.43
1764764213.5190923,553.5,-786.915,-28048.14,-5759.865,-19476.0,-27347.715,-6030.495,2539.665
1764764213.5190923,552.465,-787.23,-28049.445,-5761.035,-19477.17,-27348.12,-6031.395,2538.63
1764764213.5190923,549.405,-790.515,-28052.865,-5764.815,-19481.58,-27352.395,-6033.69,2535.615
1764764213.5190923,550.845,-789.12,-28051.02,-5763.735,-19480.815,-27351.225,-6034.23,2536.83
1764764213.5190923,548.505,-791.415,-28053.765,-5766.795,-19483.965,-27353.52,-6035.94,2535.03
1764764213.5190923,550.755,-790.38,-28051.83,-5765.4,-19482.435,-27351.945,-6034.455,2537.775
1764764213.5190923,552.1949999999999,-789.615,-28051.245,-5764.185,-19481.13,-27350.595,-6032.88,2538.675
1764764213.5612574,551.655,-789.8399999999999,-28051.965,-5763.915,-19481.895,-27351.045,-6032.429999999999,2537.46
1764764213.5612574,546.21,-794.52,-28057.545,-5769.54,-19486.395,-27355.95,-6036.66,2531.88
1764764213.5612574,548.01,-792.3149999999999,-28054.44,-5767.74,-19483.65,-27352.8,-6035.94,2534.535
1764764213.5612574,547.29,-794.0699999999999,-28055.565,-5768.594999999999,-19485.18,-27354.195,-6037.155,2533.455
1764764213.5612574,545.085,-796.095,-28058.49,-5770.889999999999,-19487.34,-27356.67,-6037.965,2530.755
1764764213.5612574,546.21,-794.745,-28057.005,-5769.855,-19486.17,-27355.14,-6037.065,2531.16
1764764213.5612574,547.245,-794.52,-28056.42,-5769.54,-19484.595,-27354.15,-6036.705,2533.14
1764764213.5612574,549.495,-792.72,-28054.305,-5767.83,-19482.345,-27352.125,-6035.13,2535.48
1764764213.5612574,549.81,-791.64,-28053.495,-5766.48,-19481.715,-27351.765,-6034.995,2535.345
1764764213.5612574,549.495,-791.235,-28053.18,-5765.31,-19481.49,-27351.27,-6034.41,2535.57
1764764213.5612574,549.135,-791.415,-28053.45,-5765.13,-19481.67,-27351.99,-6033.195,2535.57
1764764213.5612574,548.235,-792.18,-28054.485,-5767.02,-19483.38,-27354.195,-6034.32,2534.22
1764764213.5612574,549.4499999999999,-791.37,-28054.17,-5767.425,-19484.37,-27354.51,-6033.78,2534.805
1764764213.5612574,549.4499999999999,-791.415,-28053.945,-5767.605,-19484.145,-27354.33,-6033.465,2535.03
1764764213.5612574,547.02,-793.89,-28056.24,-5769.855,-19485.54,-27355.77,-6034.905,2532.555
1764764213.5612574,549.045,-791.9549999999999,-28054.575,-5767.695,-19483.74,-27354.06,-6033.87,2534.4
1764764213.5622847,548.055,-793.0799999999999,-28056.42,-5768.55,-19484.685,-27354.825,-6034.455,2532.96
1764764213.5633929,550.395,-789.48,-28053.225,-5766.03,-19481.31,-27352.44,-6032.655,2536.245
1764764213.5633929,549.855,-789.48,-28053.405,-5765.715,-19481.67,-27352.395,-6032.205,2536.245
1764764213.5633929,547.38,-792.4499999999999,-28056.015,-5768.19,-19483.83,-27354.645,-6033.33,2533.545
1764764213.5633929,551.385,-788.49,-28053.045,-5765.445,-19480.365,-27351.855,-6030.855,2537.28
1764764213.5633929,548.73,-791.415,-28055.925,-5769.224999999999,-19483.965,-27354.69,-6033.15,2533.95
1764764213.5633929,550.8,-788.31,-28052.865,-5766.255,-19480.545,-27350.595,-6030.719999999999,2537.325
1764764213.5633929,549.18,-790.02,-28053.99,-5767.514999999999,-19481.265,-27351.405,-6031.755,2535.705
1764764213.6097782,544.4549999999999,-794.745,-28058.445,-5772.33,-19487.07,-27357.03,-6034.905,2531.385
1764764213.6097782,543.105,-796.185,-28060.065,-5774.04,-19488.78,-27358.875,-6036.66,2528.865
1764764213.6097782,543.6899999999999,-795.6899999999999,-28060.155,-5773.32,-19488.15,-27358.245,-6036.615,2529.0
1764764213.6097782,544.86,-794.115,-28059.12,-5772.24,-19487.295,-27356.58,-6036.03,2530.845
1764764213.6097782,547.155,-791.055,-28056.69,-5770.304999999999,-19486.035,-27355.455,-6034.905,2533.23
1764764213.6097782,544.545,-794.0699999999999,-28058.85,-5772.825,-19488.735,-27358.965,-6036.435,2531.25
1764764213.6097782,548.1,-790.92,-28054.845,-5768.639999999999,-19484.64,-27354.735,-6033.96,2534.445
1764764213.6097782,546.795,-792.855,-28056.015,-5769.09,-19484.91,-27355.32,-6035.085,2533.14
1764764213.6097782,544.545,-795.285,-28057.59,-5771.115,-19486.17,-27357.12,-6036.12,2531.07
1764764213.6097782,547.8299999999999,-791.595,-28053.63,-5767.92,-19482.39,-27353.565,-6033.96,2534.715
1764764213.6097782,547.245,-791.4599999999999,-28055.16,-5769.27,-19483.875,-27355.05,-6034.724999999999,2533.635
1764764213.6097782,542.2049999999999,-796.14,-28060.65,-5773.77,-19489.005,-27360.045,-6037.514999999999,2528.1
1764764213.6097782,543.96,-795.42,-28059.57,-5773.455,-19489.23,-27359.865,-6038.37,2530.17
1764764213.6097782,548.28,-790.515,-28054.935,-5768.37,-19485.045,-27355.995,-6034.815,2535.165
1764764213.6097782,548.505,-790.29,-28054.62,-5768.639999999999,-19484.28,-27355.275,-6033.87,2534.355
1764764213.6097782,547.6949999999999,-791.73,-28056.195,-5771.205,-19486.665,-27358.02,-6034.32,2533.32
1764764213.6097782,551.745,-787.77,-28051.515,-5766.57,-19482.48,-27353.97,-6030.315,2538.405
1764764213.6097782,550.035,-789.12,-28052.82,-5767.875,-19484.55,-27356.085,-6032.655,2536.38
1764764213.6097782,547.335,-791.8199999999999,-28055.835,-5770.17,-19487.115,-27358.56,-6034.05,2533.635
1764764213.6097782,548.9549999999999,-789.8399999999999,-28053.81,-5767.965,-19484.82,-27355.59,-6031.844999999999,2535.57
1764764213.6097782,546.48,-792.135,-28055.7,-5770.304999999999,-19486.89,-27357.165,-6033.33,2533.32
1764764213.6097782,548.46,-789.165,-28052.64,-5767.02,-19483.92,-27354.42,-6032.429999999999,2535.795
1764764213.6534047,548.055,-789.3,-28053.45,-5768.28,-19484.865,-27355.365,-6032.88,2534.895
1764764213.6539135,545.535,-791.865,-28056.42,-5771.565,-19487.97,-27358.695,-6034.545,2532.555
1764764213.6539135,544.545,-792.27,-28057.185,-5771.07,-19487.295,-27359.055,-6034.365,2531.88
1764764213.6539135,546.885,-791.01,-28054.98,-5769.495,-19485.63,-27357.075,-6033.195,2533.05
1764764213.6539135,550.485,-787.905,-28051.38,-5766.75,-19482.75,-27354.015,-6030.855,2536.74
1764764213.6539135,546.975,-790.65,-28054.035,-5770.215,-19485.9,-27357.705,-6034.23,2533.95
1764764213.6539135,545.535,-791.505,-28055.61,-5770.575,-19487.655,-27358.29,-6034.455,2532.96
1764764213.6539135,546.12,-791.73,-28054.755,-5769.27,-19486.98,-27357.57,-6033.554999999999,2533.41
1764764213.6539135,545.895,-792.135,-28055.565,-5769.764999999999,-19486.98,-27357.795,-6033.645,2533.275
1764764213.6539135,543.78,-793.89,-28058.49,-5772.78,-19489.95,-27359.955,-6035.4,2531.34
1764764213.6539135,541.8,-795.735,-28060.2,-5774.67,-19491.57,-27361.845,-6036.3,2529.495
1764764213.6539135,545.805,-791.9549999999999,-28056.15,-5770.665,-19487.07,-27358.065,-6033.69,2532.96
1764764213.6539135,545.805,-793.035,-28056.195,-5771.205,-19487.34,-27357.93,-6032.969999999999,2532.735
1764764213.6539135,549.09,-789.12,-28052.325,-5767.875,-19484.145,-27354.195,-6030.045,2536.695
1764764213.6539135,548.1899999999999,-790.0649999999999,-28053.99,-5768.775,-19485.63,-27355.275,-6030.99,2535.93
1764764213.6539135,543.645,-793.62,-28057.905,-5773.275,-19490.355,-27359.82,-6034.59,2532.51
1764764213.6539135,548.595,-788.4449999999999,-28052.91,-5768.73,-19485.585,-27355.185,-6030.719999999999,2536.74
1764764213.6539135,550.62,-787.77,-28051.74,-5767.2,-19484.415,-27353.79,-6029.505,2537.37
1764764213.6539135,551.34,-787.5,-28050.84,-5765.94,-19482.39,-27352.8,-6028.695,2538.36
1764764213.6539135,551.2049999999999,-787.23,-28050.84,-5765.219999999999,-19480.815,-27351.99,-6028.514999999999,2538.54
1764764213.6549284,551.52,-786.555,-28051.245,-5765.76,-19481.265,-27352.53,-6028.38,2537.505
1764764213.6549284,549.585,-788.265,-28053.045,-5768.685,-19484.64,-27355.23,-6030.315,2535.39
1764764213.6549284,545.22,-792.18,-28055.88,-5772.42,-19488.015,-27358.965,-6033.42,2532.24
1764764213.6549284,548.145,-788.5799999999999,-28052.055,-5768.099999999999,-19483.38,-27354.915,-6031.395,2535.12
1764764213.7018957,548.46,-787.68,-28051.38,-5766.66,-19482.03,-27353.79,-6029.73,2536.245
1764764213.7018957,544.545,-791.55,-28056.15,-5770.485,-19485.405,-27357.075,-6033.33,2532.51
1764764213.7018957,541.98,-793.98,-28058.265,-5772.87,-19487.565,-27359.235,-6034.995,2529.36
1764764213.7018957,546.345,-790.38,-28053.945,-5769.63,-19484.595,-27355.545,-6032.07,2533.095
1764764213.7018957,547.785,-789.255,-28053.99,-5770.889999999999,-19485.945,-27357.435,-6031.755,2533.86
1764764213.7018957,546.795,-790.29,-28055.295,-5772.24,-19487.34,-27359.145,-6031.44,2533.5
1764764213.7018957,550.845,-785.925,-28050.615,-5766.795,-19482.165,-27353.565,-6028.514999999999,2538.135
1764764213.7018957,551.2049999999999,-786.285,-28050.795,-5765.31,-19481.265,-27352.665,-6027.705,2538.585
1764764213.7018957,547.47,-789.5699999999999,-28053.495,-5768.865,-19484.595,-27356.265,-6029.19,2534.265
1764764213.7018957,548.055,-788.04,-28052.46,-5767.965,-19483.965,-27355.005,-6028.469999999999,2535.705
1764764213.7018957,553.9499999999999,-782.865,-28047.825,-5763.96,-19479.915,-27351.09,-6025.32,2540.97
1764764213.7018957,552.375,-784.98,-28049.985,-5765.219999999999,-19481.355,-27352.395,-6026.13,2538.855
1764764213.7018957,553.86,-783.405,-28049.31,-5763.014999999999,-19479.645,-27350.37,-6024.915,2540.16
1764764213.7018957,551.0699999999999,-785.6999999999999,-28052.37,-5765.94,-19482.255,-27353.34,-6026.94,2537.775
1764764213.7018957,552.375,-784.26,-28049.985,-5764.455,-19480.14,-27350.865,-6025.86,2538.81
1764764213.7018957,549.9449999999999,-786.4649999999999,-28051.875,-5767.38,-19482.615,-27353.25,-6027.974999999999,2535.93
1764764213.7018957,551.295,-784.845,-28050.435,-5766.03,-19481.49,-27352.215,-6027.705,2538.585
1764764213.7018957,550.17,-787.365,-28052.19,-5767.65,-19483.875,-27354.96,-6029.594999999999,2535.12
1764764213.7018957,547.56,-790.0649999999999,-28054.665,-5769.855,-19486.125,-27357.165,-6030.36,2532.42
1764764213.7018957,550.17,-786.42,-28052.1,-5767.29,-19483.875,-27354.69,-6028.38,2536.83
1764764213.7018957,550.17,-787.095,-28052.865,-5767.965,-19484.145,-27355.635,-6027.84,2537.145
1764764213.7018957,546.3,-790.65,-28056.105,-5771.655,-19487.745,-27358.65,-6030.81,2533.41
1764764213.7018957,543.06,-791.9549999999999,-28057.59,-5773.635,-19490.265,-27361.44,-6032.25,2530.665
1764764213.7018957,545.5799999999999,-789.93,-28055.88,-5771.34,-19487.745,-27359.055,-6030.719999999999,2532.375
1764764213.748557,543.1949999999999,-793.2149999999999,-28058.76,-5773.95,-19490.265,-27361.305,-6032.61,2530.035
1764764213.7490602,543.1949999999999,-792.405,-28058.715,-5773.59,-19489.995,-27360.81,-6033.42,2530.26
1764764213.7490602,545.5799999999999,-790.425,-28057.32,-5770.889999999999,-19487.115,-27358.11,-6031.889999999999,2531.745
1764764213.7490602,548.73,-787.365,-28054.08,-5767.92,-19483.38,-27355.23,-6029.505,2535.84
1764764213.7490602,548.145,-788.04,-28055.115,-5769.179999999999,-19485.27,-27357.12,-6029.955,2534.625
1764764213.7490602,552.645,-782.9549999999999,-28050.57,-5764.455,-19480.995,-27352.62,-6026.355,2539.935
1764764213.7490602,553.365,-783.0899999999999,-28050.345,-5764.545,-19481.355,-27353.115,-6025.139999999999,2540.385
1764764213.7490602,549.405,-787.365,-28054.53,-5768.505,-19485.315,-27356.895,-6027.705,2536.2
1764764213.7490602,550.035,-786.285,-28053.945,-5767.469999999999,-19484.28,-27355.815,-6026.67,2536.245
1764764213.7490602,552.735,-784.0799999999999,-28050.84,-5765.219999999999,-19482.03,-27353.745,-6025.679999999999,2538.045
1764764213.7490602,549.4499999999999,-787.23,-28054.89,-5769.179999999999,-19485.45,-27357.21,-6027.885,2535.03
1764764213.7490602,549.3149999999999,-787.905,-28055.295,-5769.764999999999,-19485.63,-27357.12,-6028.38,2534.985
1764764213.7490602,550.62,-785.5649999999999,-28053.09,-5768.46,-19483.065,-27355.545,-6027.255,2537.28
1764764213.7490602,548.145,-788.67,-28056.105,-5771.34,-19486.665,-27358.2,-6028.92,2534.22
1764764213.7490602,551.5649999999999,-785.745,-28052.865,-5768.415,-19483.83,-27355.995,-6027.389999999999,2536.695
1764764213.7490602,551.0699999999999,-785.475,-28052.685,-5768.955,-19483.74,-27355.905,-6027.255,2537.01
1764764213.7490602,550.71,-785.745,-28052.55,-5768.73,-19483.965,-27355.455,-6026.804999999999,2537.325
1764764213.7490602,547.245,-787.9499999999999,-28055.655,-5770.215,-19485.495,-27357.885,-6028.245,2535.12
1764764213.7490602,545.355,-789.5699999999999,-28056.96,-5771.07,-19486.035,-27358.83,-6029.955,2533.005
1764764213.7490602,549.225,-786.105,-28053.63,-5767.875,-19482.165,-27355.68,-6027.48,2535.615
1764764213.7490602,545.895,-788.76,-28056.33,-5770.98,-19484.505,-27357.48,-6028.74,2532.825
1764764213.7490602,544.185,-791.01,-28058.13,-5773.275,-19486.35,-27359.28,-6030.675,2531.16
1764764213.795899,545.67,-790.605,-28057.23,-5773.679999999999,-19487.205,-27359.73,-6030.045,2532.06
1764764213.795899,549.36,-787.365,-28055.295,-5771.52,-19485.495,-27356.805,-6028.695,2535.615
1764764213.795899,548.145,-787.365,-28055.88,-5772.825,-19486.8,-27358.605,-6029.505,2534.76
1764764213.795899,545.85,-789.165,-28057.635,-5774.445,-19488.15,-27360.99,-6030.855,2531.835
1764764213.795899,548.46,-786.3299999999999,-28054.935,-5771.429999999999,-19484.505,-27357.48,-6027.974999999999,2535.39
1764764213.795899,543.96,-790.155,-28059.525,-5775.885,-19488.645,-27361.44,-6030.9,2531.835
1764764213.795899,547.02,-787.14,-28056.465,-5772.465,-19484.775,-27357.93,-6028.245,2534.625
1764764213.795899,546.12,-788.355,-28057.32,-5772.105,-19484.955,-27358.38,-6028.245,2533.455
1764764213.795899,548.01,-786.78,-28055.7,-5769.99,-19482.795,-27355.14,-6026.13,2534.445
1764764213.7964098,549.495,-785.97,-28054.17,-5768.28,-19480.815,-27352.665,-6024.42,2536.11
1764764213.7964098,550.845,-785.295,-28053.09,-5767.29,-19479.69,-27351.36,-6023.79,2537.73
1764764213.7964098,553.5,-781.515,-28049.445,-5763.915,-19476.315,-27348.21,-6021.405,2541.735
1764764213.7964098,552.105,-781.74,-28050.93,-5765.445,-19478.295,-27350.37,-6022.08,2540.79
1764764213.7964098,548.91,-784.89,-28054.215,-5770.755,-19483.605,-27355.59,-6024.42,2537.01
1764764213.7964098,553.275,-781.38,-28050.21,-5767.02,-19480.455,-27352.665,-6021.855,2541.06
1764764213.7964098,551.88,-784.0799999999999,-28052.955,-5769.315,-19483.02,-27354.645,-6023.925,2539.395
1764764213.7964098,550.125,-785.655,-28055.97,-5771.565,-19485.405,-27357.255,-6025.86,2536.335
1764764213.7964098,544.365,-790.47,-28061.055,-5776.065,-19490.355,-27361.89,-6029.639999999999,2531.205
1764764213.7964098,543.555,-790.6949999999999,-28060.335,-5775.66,-19489.365,-27361.53,-6029.955,2530.665
1764764213.7964098,544.4549999999999,-790.425,-28059.48,-5774.445,-19488.42,-27360.09,-6028.92,2531.565
1764764213.7964098,545.085,-789.795,-28059.12,-5773.59,-19487.205,-27358.83,-6028.065,2532.195
1764764213.7964098,545.535,-788.7149999999999,-28057.995,-5772.69,-19486.395,-27357.885,-6027.48,2532.465
1764764213.8422751,545.67,-787.77,-28057.545,-5772.105,-19485.63,-27357.75,-6027.21,2532.15
1764764213.8422751,546.93,-785.97,-28056.105,-5771.205,-19484.1,-27356.94,-6025.5,2534.31
1764764213.8422751,551.52,-782.055,-28051.875,-5767.695,-19480.23,-27353.34,-6022.304999999999,2538.9
1764764213.8422751,550.53,-783.765,-28053.18,-5769.585,-19482.12,-27355.455,-6024.78,2537.055
1764764213.8422751,550.0799999999999,-784.755,-28053.27,-5769.675,-19482.48,-27355.005,-6024.645,2536.47
1764764213.8422751,547.335,-787.5899999999999,-28056.33,-5771.34,-19484.73,-27357.03,-6025.32,2533.68
1764764213.8422751,550.17,-785.115,-28054.26,-5769.27,-19482.66,-27354.06,-6024.42,2536.245
1764764213.8422751,549.36,-786.1949999999999,-28056.105,-5771.61,-19484.82,-27355.86,-6025.77,2535.57
1764764213.8422751,546.255,-789.12,-28059.48,-5775.344999999999,-19488.69,-27359.685,-6028.29,2532.24
1764764213.8422751,548.01,-787.275,-28056.915,-5773.139999999999,-19486.215,-27358.245,-6027.525,2534.4
1764764213.8422751,548.595,-786.78,-28056.735,-5774.355,-19486.8,-27358.47,-6027.165,2535.12
1764764213.843897,548.1899999999999,-787.095,-28056.96,-5774.4,-19486.98,-27358.875,-6027.525,2534.22
1764764213.843897,547.785,-787.68,-28057.41,-5773.905,-19486.665,-27358.965,-6027.12,2533.185
1764764213.843897,544.185,-791.28,-28061.28,-5778.45,-19490.85,-27363.51,-6030.81,2529.405
1764764213.843897,541.0799999999999,-793.665,-28064.295,-5780.969999999999,-19493.64,-27366.03,-6032.655,2525.985
1764764213.843897,541.98,-792.54,-28063.17,-5779.62,-19492.56,-27364.725,-6031.44,2526.885
1764764213.843897,543.6,-791.3249999999999,-28062.09,-5778.764999999999,-19491.075,-27363.825,-6030.27,2528.955
1764764213.843897,544.365,-790.245,-28060.56,-5778.63,-19490.49,-27363.375,-6028.83,2530.44
1764764213.843897,545.985,-788.4449999999999,-28059.39,-5777.415,-19489.365,-27361.71,-6027.795,2532.375
1764764213.8449037,548.8199999999999,-784.665,-28056.24,-5773.905,-19485.855,-27358.47,-6024.78,2535.39
1764764213.8449037,547.245,-785.61,-28057.095,-5774.804999999999,-19486.575,-27359.28,-6024.645,2534.445
1764764213.8449037,550.71,-782.505,-28053.72,-5771.34,-19483.245,-27355.59,-6022.395,2537.37
1764764213.8449037,551.88,-782.055,-28053.225,-5770.215,-19482.255,-27354.87,-6021.45,2537.91
1764764213.8449037,549.99,-784.0799999999999,-28054.935,-5771.79,-19483.56,-27357.12,-6022.53,2536.02
1764764213.8883638,549.225,-785.2049999999999,-28055.97,-5772.15,-19483.695,-27357.255,-6022.844999999999,2535.435
1764764213.8883638,547.155,-787.725,-28058.085,-5774.804999999999,-19486.215,-27359.505,-6024.69,2532.69
1764764213.8883638,544.905,-789.885,-28060.605,-5777.865,-19489.185,-27361.62,-6026.49,2530.44
1764764213.8883638,547.92,-786.42,-28057.005,-5774.4,-19486.305,-27359.145,-6025.455,2533.725
1764764213.8883638,547.47,-787.5,-28058.04,-5776.065,-19486.665,-27360.135,-6026.445,2533.23
1764764213.8883638,544.095,-790.0649999999999,-28060.56,-5778.315,-19488.465,-27362.61,-6027.615,2530.395
1764764213.8883638,546.84,-786.3299999999999,-28056.96,-5774.58,-19484.37,-27358.785,-6025.679999999999,2533.14
1764764213.8883638,546.93,-786.87,-28057.77,-5774.625,-19485.36,-27359.28,-6024.78,2532.645
1764764213.8883638,549.18,-785.97,-28056.33,-5773.679999999999,-19484.505,-27358.83,-6023.34,2534.265
1764764213.8883638,543.24,-791.1899999999999,-28061.37,-5780.115,-19490.94,-27364.545,-6027.75,2528.91
1764764213.8883638,543.1949999999999,-789.93,-28061.64,-5779.935,-19492.29,-27365.22,-6028.695,2528.46
1764764213.8883638,544.185,-788.805,-28060.38,-5779.125,-19491.39,-27365.04,-6029.01,2529.63
1764764213.8883638,543.105,-790.1999999999999,-28060.695,-5779.98,-19491.93,-27365.04,-6029.82,2529.495
1764764213.8883638,541.53,-791.64,-28062.54,-5781.645,-19493.37,-27365.22,-6030.045,2528.415
1764764213.8883638,537.615,-795.87,-28067.085,-5785.2,-19496.34,-27368.37,-6032.07,2525.13
1764764213.8883638,536.985,-796.3199999999999,-28067.355,-5785.38,-19497.42,-27369.765,-6033.105,2523.51
1764764213.8883638,541.8,-791.9549999999999,-28062.45,-5780.565,-19492.56,-27365.895,-6029.505,2528.28
1764764213.8883638,543.645,-790.245,-28060.515,-5778.945,-19490.715,-27364.095,-6026.849999999999,2530.26
1764764213.8883638,544.095,-789.12,-28059.885,-5777.865,-19489.77,-27362.88,-6025.545,2531.61
1764764213.8883638,543.645,-789.7049999999999,-28060.47,-5778.495,-19490.13,-27363.69,-6026.219999999999,2530.71
1764764213.8883638,543.735,-789.12,-28060.65,-5778.045,-19489.365,-27363.195,-6026.58,2530.17
1764764213.8883638,542.655,-789.7049999999999,-28061.19,-5778.63,-19489.95,-27363.285,-6027.389999999999,2529.495
1764764213.8883638,541.4399999999999,-790.8299999999999,-28062.945,-5779.844999999999,-19491.435,-27364.23,-6028.38,2528.28
1764764213.8883638,537.795,-794.115,-28066.455,-5783.715,-19494.945,-27366.84,-6030.54,2525.22
1764764213.935223,542.2049999999999,-789.525,-28062.495,-5779.935,-19491.3,-27363.105,-6028.514999999999,2529.405
1764764213.935223,542.88,-789.345,-28062.315,-5780.205,-19491.615,-27363.645,-6028.38,2530.08
1764764213.935223,540.405,-791.9549999999999,-28064.565,-5782.59,-19494.18,-27367.02,-6029.82,2528.28
1764764213.935223,542.52,-789.5699999999999,-28061.1,-5778.9,-19491.885,-27364.995,-6027.705,2530.665
1764764213.935223,539.685,-792.9,-28063.53,-5782.005,-19494.495,-27368.19,-6030.09,2527.11
1764764213.935223,534.015,-797.7149999999999,-28069.83,-5787.63,-19499.13,-27373.32,-6034.545,2522.115
1764764213.935223,536.355,-795.51,-28067.67,-5784.525,-19496.295,-27370.53,-6033.15,2524.995
1764764213.935223,533.925,-797.5799999999999,-28070.37,-5786.73,-19497.69,-27371.565,-6034.545,2522.61
1764764213.935223,534.51,-796.5899999999999,-28068.795,-5784.84,-19495.215,-27368.82,-6032.925,2523.33
1764764213.935223,537.39,-793.755,-28064.655,-5781.285,-19491.03,-27365.265,-6030.179999999999,2526.435
1764764213.935223,536.895,-794.0699999999999,-28064.88,-5783.085,-19491.93,-27366.165,-6030.27,2526.12
1764764213.935223,534.015,-797.355,-28070.28,-5788.8,-19498.455,-27372.69,-6033.06,2522.835
1764764213.935223,538.38,-793.665,-28067.22,-5786.865,-19498.185,-27372.195,-6032.07,2526.3
1764764213.935223,540.27,-792.765,-28065.915,-5786.594999999999,-19498.545,-27371.115,-6030.81,2527.38
1764764213.935223,545.535,-788.22,-28061.595,-5780.969999999999,-19492.965,-27365.22,-6026.715,2532.285
1764764213.935223,544.275,-789.525,-28062.765,-5780.745,-19493.055,-27365.76,-6026.849999999999,2530.665
1764764213.935223,542.43,-790.425,-28063.665,-5781.105,-19493.235,-27366.345,-6027.03,2529.405
1764764213.935223,543.96,-788.7149999999999,-28062.27,-5779.71,-19491.57,-27363.915,-6025.77,2530.8
1764764213.935223,544.635,-788.175,-28061.505,-5778.99,-19490.715,-27363.06,-6023.835,2531.34
1764764213.935223,546.03,-785.5649999999999,-28058.895,-5776.425,-19487.475,-27360.18,-6022.665,2533.365
1764764213.935223,543.6,-786.915,-28061.19,-5778.675,-19489.275,-27361.89,-6023.52,2531.835
1764764213.935223,538.785,-792.72,-28066.635,-5784.48,-19496.655,-27368.235,-6028.469999999999,2526.66
1764764213.935223,538.605,-793.17,-28065.96,-5784.929999999999,-19497.285,-27370.17,-6029.594999999999,2526.21
1764764213.935223,541.98,-789.795,-28061.595,-5781.78,-19493.37,-27366.48,-6026.985,2530.26
1764764213.9818077,541.5749999999999,-789.885,-28062.495,-5783.219999999999,-19494.945,-27367.515,-6026.67,2529.45
1764764213.9818077,539.865,-791.4599999999999,-28064.475,-5784.84,-19496.475,-27369.315,-6028.65,2527.515
1764764213.9818077,539.055,-791.8199999999999,-28065.06,-5784.12,-19495.845,-27368.19,-6027.974999999999,2527.38
1764764213.9818077,536.895,-793.845,-28067.265,-5786.054999999999,-19498.095,-27370.44,-6029.594999999999,2524.77
1764764213.9818077,541.035,-790.245,-28064.025,-5782.724999999999,-19495.17,-27367.605,-6027.389999999999,2528.19
1764764213.9818077,541.035,-789.5699999999999,-28064.205,-5783.355,-19494.765,-27367.875,-6027.12,2529.0
1764764213.9818077,542.0699999999999,-788.895,-28062.495,-5782.05,-19493.055,-27366.975,-6025.995,2529.945
1764764213.9818077,541.98,-788.805,-28062.18,-5781.915,-19493.055,-27366.48,-6026.085,2528.955
1764764213.9818077,538.8299999999999,-791.505,-28065.51,-5784.525,-19495.935,-27369.18,-6027.615,2526.03
1764764213.9818077,540.27,-790.47,-28063.485,-5782.139999999999,-19493.82,-27367.425,-6025.275,2528.055
1764764213.9818077,544.095,-786.105,-28060.11,-5777.91,-19490.175,-27363.645,-6022.08,2531.835
1764764213.9818077,541.485,-788.895,-28063.71,-5781.375,-19493.685,-27367.11,-6024.33,2528.91
1764764213.9818077,543.15,-787.41,-28062.315,-5780.34,-19493.19,-27366.165,-6023.385,2531.34
1764764213.9818077,547.245,-783.5849999999999,-28058.22,-5776.514999999999,-19489.185,-27362.34,-6021.135,2535.435
1764764213.9828372,547.02,-783.855,-28058.175,-5776.56,-19489.005,-27361.305,-6021.179999999999,2535.03
1764764213.9828372,544.5,-785.79,-28060.155,-5778.63,-19491.12,-27363.015,-6022.304999999999,2532.6
1764764213.9828372,547.155,-783.63,-28057.77,-5776.38,-19489.14,-27360.54,-6020.28,2535.255
1764764213.9828372,546.255,-784.4399999999999,-28059.93,-5778.495,-19491.165,-27362.88,-6022.17,2533.86
1764764213.9828372,543.735,-786.6899999999999,-28062.72,-5782.05,-19494.135,-27366.57,-6023.474999999999,2531.88
1764764213.9828372,546.5699999999999,-783.9449999999999,-28059.57,-5780.52,-19491.66,-27363.78,-6020.639999999999,2534.85
1764764213.9828372,548.1,-783.045,-28058.58,-5779.44,-19491.255,-27363.285,-6019.605,2536.11
1764764213.9828372,545.5799999999999,-784.665,-28061.37,-5781.599999999999,-19493.415,-27364.905,-6022.349999999999,2533.455
1764764214.028818,544.9499999999999,-785.79,-28062.315,-5782.5,-19494.675,-27365.58,-6023.025,2532.645
1764764214.0299785,542.655,-788.4449999999999,-28064.385,-5784.165,-19496.745,-27367.83,-6023.565,2530.44
1764764214.0299785,543.96,-786.6899999999999,-28061.235,-5780.655,-19492.83,-27364.05,-6020.865,2533.095
1764764214.0299785,547.515,-782.64,-28057.905,-5776.29,-19487.61,-27358.92,-6018.165,2536.965
1764764214.0299785,544.545,-785.295,-28060.56,-5778.27,-19489.5,-27360.315,-6019.29,2534.355
1764764214.0299785,544.185,-785.52,-28060.83,-5779.215,-19490.49,-27360.72,-6019.785,2534.13
1764764214.0299785,546.03,-784.2149999999999,-28059.93,-5778.495,-19489.95,-27361.035,-6019.02,2535.03
1764764214.0299785,548.8199999999999,-781.47,-28057.905,-5775.705,-19487.835,-27358.965,-6017.264999999999,2537.955
1764764214.0299785,548.01,-783.045,-28057.635,-5776.11,-19488.24,-27359.37,-6017.804999999999,2537.325
1764764214.0299785,541.935,-788.895,-28063.485,-5782.815,-19494.09,-27365.22,-6023.07,2530.53
1764764214.0299785,541.53,-788.355,-28063.53,-5782.679999999999,-19493.73,-27365.4,-6024.195,2530.17
1764764214.0299785,545.535,-785.0699999999999,-28059.75,-5778.36,-19489.14,-27361.44,-6021.27,2534.22
1764764214.0299785,545.175,-785.385,-28060.29,-5778.945,-19490.085,-27362.115,-6021.405,2533.455
1764764214.0299785,543.51,-787.41,-28061.28,-5782.05,-19492.47,-27364.095,-6022.665,2531.52
1764764214.0299785,541.125,-789.8399999999999,-28064.34,-5784.48,-19495.35,-27367.02,-6023.835,2529.36
1764764214.0299785,542.745,-787.77,-28062.54,-5781.465,-19493.01,-27365.22,-6022.889999999999,2531.7
1764764214.0299785,541.935,-788.22,-28062.945,-5781.915,-19493.145,-27365.67,-6022.98,2531.43
1764764214.0299785,541.98,-787.77,-28062.765,-5782.23,-19492.335,-27365.85,-6023.16,2531.97
1764764214.0299785,544.005,-786.51,-28060.155,-5780.79,-19491.03,-27364.59,-6021.0,2533.59
1764764214.0299785,544.095,-786.24,-28060.56,-5780.925,-19491.39,-27364.905,-6021.405,2533.725
1764764214.031006,544.635,-785.52,-28060.2,-5779.844999999999,-19490.85,-27364.23,-6019.965,2533.23
1764764214.031006,541.125,-788.76,-28063.17,-5782.815,-19493.19,-27366.345,-6022.035,2530.62
1764764214.031006,543.51,-785.655,-28059.93,-5779.889999999999,-19489.68,-27362.925,-6020.82,2533.455
1764764214.031006,542.2049999999999,-786.78,-28061.28,-5781.915,-19491.255,-27364.185,-6022.215,2532.105
1764764214.076611,538.11,-791.145,-28065.015,-5785.469999999999,-19495.035,-27368.19,-6024.42,2527.695
1764764214.076611,536.85,-792.9,-28066.185,-5786.28,-19496.07,-27369.765,-6025.77,2525.805
1764764214.076611,535.635,-793.665,-28067.085,-5787.315,-19496.79,-27371.205,-6026.219999999999,2525.31
1764764214.076611,538.6949999999999,-790.155,-28064.475,-5785.29,-19494.45,-27368.28,-6023.88,2528.73
1764764214.076611,543.06,-785.52,-28060.425,-5780.745,-19489.995,-27364.41,-6020.73,2533.455
1764764214.076611,541.125,-787.365,-28062.63,-5782.905,-19492.29,-27367.29,-6022.035,2531.745
1764764214.076611,536.49,-792.225,-28067.265,-5789.295,-19498.635,-27373.05,-6025.275,2526.255
1764764214.076611,535.14,-794.115,-28068.93,-5791.679999999999,-19500.12,-27373.905,-6027.075,2525.445
1764764214.076611,536.5799999999999,-791.64,-28067.94,-5789.79,-19499.04,-27372.24,-6027.03,2526.93
1764764214.076611,538.155,-789.795,-28065.69,-5787.764999999999,-19496.655,-27369.72,-6024.78,2528.775
1764764214.076611,540.9449999999999,-786.9599999999999,-28062.54,-5784.389999999999,-19493.82,-27366.12,-6021.405,2532.51
1764764214.0780025,540.27,-787.14,-28063.395,-5784.929999999999,-19493.82,-27367.425,-6020.82,2530.98
1764764214.0780025,543.3299999999999,-784.4399999999999,-28060.38,-5782.275,-19490.67,-27364.815,-6018.705,2533.68
1764764214.0780025,543.96,-783.9449999999999,-28059.165,-5781.554999999999,-19490.445,-27364.905,-6017.625,2534.715
1764764214.0780025,542.88,-785.385,-28060.605,-5782.679999999999,-19492.605,-27366.3,-6018.615,2533.275
1764764214.0780025,538.245,-790.425,-28065.645,-5788.215,-19497.69,-27370.98,-6022.8,2527.605
1764764214.0780025,538.245,-790.02,-28065.735,-5788.08,-19497.96,-27371.07,-6022.844999999999,2527.875
1764764214.0780025,539.145,-789.0749999999999,-28065.69,-5787.045,-19497.78,-27370.89,-6022.44,2528.595
1764764214.0780025,538.335,-789.615,-28066.455,-5788.08,-19498.32,-27371.295,-6022.889999999999,2527.65
1764764214.0780025,538.56,-789.03,-28065.645,-5787.315,-19497.24,-27370.26,-6022.485,2527.92
1764764214.0780025,542.16,-785.385,-28062.45,-5783.67,-19493.865,-27366.435,-6019.965,2531.07
1764764214.0780025,540.855,-786.78,-28062.945,-5784.12,-19493.955,-27367.335,-6020.054999999999,2530.845
1764764214.1245952,539.37,-788.67,-28064.79,-5786.145,-19495.755,-27369.09,-6021.45,2529.405
1764764214.1245952,536.895,-791.64,-28067.4,-5789.205,-19498.815,-27372.015,-6023.295,2526.345
1764764214.125601,538.605,-789.03,-28064.97,-5786.415,-19495.395,-27369.63,-6021.63,2528.19
1764764214.125601,535.095,-792.495,-28068.12,-5789.07,-19497.51,-27372.33,-6023.7,2524.995
1764764214.125601,538.74,-788.49,-28063.845,-5784.705,-19493.145,-27367.56,-6020.415,2529.54
1764764214.125601,538.785,-787.86,-28063.62,-5784.03,-19493.28,-27367.245,-6018.57,2529.63
1764764214.125601,542.2049999999999,-784.0799999999999,-28059.75,-5780.429999999999,-19489.545,-27363.69,-6015.96,2532.735
1764764214.125601,542.97,-784.4399999999999,-28060.2,-5781.195,-19489.185,-27363.78,-6016.23,2533.32
1764764214.125601,541.035,-787.14,-28063.17,-5783.94,-19492.74,-27366.795,-6018.389999999999,2531.07
1764764214.125601,544.86,-784.0799999999999,-28060.155,-5780.429999999999,-19490.265,-27363.915,-6016.005,2535.03
1764764214.125601,544.185,-784.4399999999999,-28060.245,-5780.88,-19490.67,-27363.42,-6015.465,2535.345
1764764214.125601,544.095,-784.17,-28059.84,-5781.69,-19491.255,-27364.095,-6014.925,2535.66
1764764214.125601,543.645,-783.81,-28059.84,-5781.87,-19492.605,-27364.995,-6015.69,2534.895
1764764214.125601,539.055,-788.04,-28065.105,-5786.28,-19496.745,-27368.865,-6020.594999999999,2529.855
1764764214.125601,535.8149999999999,-791.01,-28068.345,-5788.98,-19499.04,-27372.375,-6022.53,2526.075
1764764214.1266007,537.7049999999999,-789.255,-28066.995,-5787.63,-19497.87,-27370.485,-6020.19,2527.515
1764764214.1266007,537.525,-788.76,-28066.905,-5787.09,-19497.87,-27369.855,-6019.514999999999,2527.965
1764764214.1266007,537.03,-789.345,-28066.545,-5787.495,-19496.925,-27369.54,-6020.37,2527.83
1764764214.1266007,538.02,-788.4,-28065.645,-5786.775,-19495.8,-27367.92,-6020.145,2529.09
1764764214.1266007,541.845,-785.385,-28062.225,-5783.04,-19492.02,-27364.59,-6017.804999999999,2532.15
1764764214.1266007,542.43,-784.0799999999999,-28062.225,-5783.31,-19491.84,-27364.455,-6016.95,2532.33
1764764214.1266007,543.1949999999999,-783.27,-28061.19,-5783.445,-19491.705,-27364.32,-6014.88,2533.77
1764764214.1266007,544.9499999999999,-782.37,-28059.615,-5781.78,-19491.165,-27364.32,-6014.205,2535.615
1764764214.1266007,544.545,-783.495,-28060.245,-5782.545,-19490.895,-27364.5,-6014.745,2534.895
1764764214.169621,542.0699999999999,-787.545,-28063.935,-5785.83,-19493.415,-27367.065,-6016.094999999999,2531.025
1764764214.169621,540.9449999999999,-788.49,-28064.205,-5786.19,-19493.82,-27367.92,-6016.365,2529.54
1764764214.1703734,542.88,-786.3299999999999,-28061.955,-5783.4,-19491.345,-27365.49,-6014.565,2531.475
1764764214.1703734,546.21,-782.55,-28058.94,-5780.115,-19486.755,-27361.17,-6011.73,2535.075
1764764214.1703734,542.745,-785.745,-28061.64,-5783.31,-19490.715,-27364.23,-6013.71,2532.87
1764764214.1703734,542.79,-785.97,-28062.72,-5784.48,-19492.785,-27367.065,-6015.014999999999,2532.69
1764764214.1703734,546.21,-782.4599999999999,-28060.155,-5782.275,-19490.445,-27364.545,-6013.8,2535.21
1764764214.1703734,546.795,-781.245,-28059.255,-5781.554999999999,-19490.085,-27363.33,-6012.495,2537.235
1764764214.1703734,544.995,-782.73,-28061.28,-5784.12,-19492.785,-27366.255,-6014.205,2535.885
1764764214.1703734,538.6949999999999,-789.345,-28067.715,-5790.195,-19498.68,-27372.06,-6019.2,2529.405
1764764214.1703734,539.37,-788.355,-28066.905,-5789.16,-19497.555,-27371.43,-6018.075,2529.765
1764764214.1703734,541.0799999999999,-787.005,-28065.195,-5787.54,-19495.755,-27369.765,-6016.815,2530.53
1764764214.1703734,541.53,-786.1949999999999,-28063.485,-5785.514999999999,-19493.685,-27367.38,-6015.69,2531.745
1764764214.1703734,543.78,-784.4399999999999,-28060.695,-5783.264999999999,-19490.985,-27364.59,-6013.53,2533.545
1764764214.1703734,540.81,-787.68,-28064.07,-5786.639999999999,-19493.64,-27367.695,-6014.925,2530.17
1764764214.1703734,541.17,-786.8249999999999,-28063.35,-5785.92,-19492.47,-27366.93,-6014.295,2531.7
1764764214.1703734,545.04,-781.9649999999999,-28059.705,-5782.815,-19490.13,-27363.465,-6011.82,2536.245
1764764214.1703734,546.0749999999999,-781.02,-28059.345,-5782.275,-19490.535,-27363.015,-6010.785,2536.965
1764764214.1703734,546.39,-780.885,-28059.12,-5781.96,-19489.77,-27363.15,-6010.065,2536.785
1764764214.1703734,540.585,-786.285,-28064.745,-5787.179999999999,-19495.305,-27368.91,-6014.745,2531.07
1764764214.1703734,539.505,-787.275,-28065.15,-5787.54,-19495.44,-27370.17,-6015.825,2530.71
1764764214.1703734,542.16,-784.755,-28062.72,-5785.02,-19493.415,-27367.65,-6013.98,2533.32
1764764214.1703734,541.62,-785.43,-28064.07,-5786.28,-19494.45,-27368.19,-6014.745,2532.33
1764764214.1703734,541.035,-786.4649999999999,-28064.52,-5786.955,-19494.585,-27369.27,-6015.87,2531.61
1764764214.2156894,540.585,-786.1949999999999,-28065.555,-5787.99,-19495.89,-27370.125,-6016.995,2531.655
1764764214.2156894,538.47,-787.4549999999999,-28066.5,-5789.34,-19497.33,-27371.07,-6017.715,2529.9
1764764214.2156894,537.03,-789.39,-28068.075,-5790.42,-19497.87,-27372.33,-6018.075,2527.38
1764764214.2156894,542.2049999999999,-784.2149999999999,-28062.45,-5784.795,-19492.785,-27367.155,-6013.485,2533.23
1764764214.2156894,542.61,-783.045,-28060.74,-5784.12,-19492.02,-27366.3,-6012.54,2533.86
1764764214.2156894,544.41,-781.92,-28059.93,-5783.58,-19491.03,-27365.58,-6011.46,2534.895
1764764214.2156894,546.48,-780.435,-28058.04,-5781.645,-19489.815,-27364.815,-6009.615,2536.335
1764764214.2156894,542.655,-784.0799999999999,-28061.865,-5784.705,-19493.28,-27367.155,-6011.505,2533.23
1764764214.2156894,543.06,-784.0799999999999,-28061.505,-5784.165,-19491.525,-27365.67,-6011.325,2533.5
1764764214.2156894,546.03,-780.8399999999999,-28057.86,-5780.61,-19487.385,-27362.25,-6009.165,2536.425
1764764214.2156894,545.535,-781.605,-28057.995,-5781.014999999999,-19487.61,-27362.295,-6009.12,2536.83
1764764214.2156894,543.465,-783.855,-28060.425,-5783.67,-19491.075,-27364.995,-6010.605,2533.635
1764764214.2156894,546.3,-780.435,-28058.175,-5781.735,-19489.545,-27363.78,-6009.075,2536.425
1764764214.2156894,545.085,-781.47,-28059.255,-5783.625,-19491.795,-27366.255,-6010.335,2535.075
1764764214.2156894,547.425,-778.905,-28057.59,-5781.599999999999,-19488.69,-27363.195,-6008.445,2536.74
1764764214.2156894,543.6899999999999,-783.3149999999999,-28061.595,-5785.38,-19492.515,-27367.02,-6011.639999999999,2532.42
1764764214.2156894,547.0649999999999,-780.795,-28058.895,-5781.42,-19488.78,-27363.465,-6009.705,2535.39
1764764214.2156894,545.22,-782.01,-28060.605,-5783.67,-19490.715,-27364.32,-6010.785,2534.58
1764764214.2156894,543.78,-782.685,-28061.055,-5784.165,-19490.94,-27365.13,-6010.92,2534.13
1764764214.2156894,543.42,-783.27,-28061.64,-5784.615,-19491.3,-27365.355,-6011.235,2533.095
1764764214.2156894,543.555,-783.99,-28061.685,-5784.705,-19491.345,-27365.22,-6010.83,2532.645
1764764214.2156894,540.36,-786.6,-28064.295,-5787.09,-19493.955,-27367.83,-6012.945,2529.72
1764764214.2156894,540.135,-786.15,-28064.115,-5786.099999999999,-19492.425,-27367.605,-6012.81,2529.765
1764764214.2156894,545.715,-780.975,-28057.905,-5780.25,-19486.53,-27361.44,-6008.04,2535.255
1764764214.262465,545.76,-781.3349999999999,-28058.4,-5780.34,-19487.115,-27361.8,-6007.139999999999,2535.885
1764764214.262465,540.855,-786.24,-28063.62,-5786.099999999999,-19492.56,-27367.38,-6011.415,2530.53
1764764214.262465,541.8,-785.43,-28063.485,-5787.0,-19493.91,-27368.19,-6011.37,2530.935
1764764214.262465,543.87,-783.045,-28061.505,-5786.73,-19493.595,-27367.965,-6010.83,2533.185
1764764214.262465,539.9549999999999,-787.14,-28065.33,-5788.98,-19496.115,-27370.755,-6013.53,2528.775
1764764214.262465,538.47,-788.85,-28066.68,-5790.33,-19496.52,-27371.34,-6014.79,2526.705
1764764214.262465,539.685,-787.8149999999999,-28065.33,-5788.98,-19495.395,-27370.71,-6014.205,2527.47
1764764214.262971,538.56,-787.545,-28065.645,-5788.98,-19495.71,-27370.62,-6014.429999999999,2527.38
1764764214.262971,540.72,-786.06,-28063.08,-5786.415,-19492.965,-27368.325,-6012.764999999999,2529.81
1764764214.262971,542.0699999999999,-784.935,-28062.9,-5786.505,-19492.83,-27367.605,-6011.73,2531.295
1764764214.262971,540.99,-785.52,-28064.475,-5788.485,-19494.63,-27368.91,-6013.485,2529.945
1764764214.262971,535.23,-791.145,-28069.65,-5793.03,-19499.94,-27374.355,-6017.264999999999,2524.365
1764764214.262971,537.48,-789.615,-28068.165,-5790.78,-19497.825,-27372.33,-6014.429999999999,2527.335
1764764214.262971,538.245,-789.03,-28068.075,-5790.645,-19497.51,-27371.97,-6013.395,2527.92
1764764214.262971,537.48,-789.255,-28068.705,-5791.77,-19497.06,-27372.06,-6014.7,2526.93
1764764214.262971,540.36,-786.105,-28065.51,-5788.62,-19493.685,-27368.865,-6013.53,2529.9
1764764214.262971,541.71,-784.0799999999999,-28064.115,-5786.505,-19492.74,-27367.02,-6012.179999999999,2531.565
1764764214.262971,541.5749999999999,-784.35,-28064.07,-5786.46,-19492.695,-27367.65,-6010.965,2531.52
1764764214.262971,539.1,-787.5,-28066.23,-5789.7,-19494.81,-27369.675,-6011.55,2528.91
1764764214.262971,543.645,-783.0899999999999,-28063.08,-5786.505,-19492.515,-27366.84,-6009.03,2533.14
1764764214.262971,544.545,-781.74,-28061.415,-5785.2,-19492.11,-27366.345,-6008.49,2534.4
1764764214.262971,542.97,-784.4399999999999,-28063.755,-5787.495,-19493.505,-27367.695,-6010.695,2532.645
1764764214.262971,541.485,-785.385,-28065.915,-5789.88,-19495.755,-27370.305,-6011.82,2530.935
1764764214.262971,539.01,-787.4549999999999,-28068.255,-5791.95,-19498.455,-27372.87,-6012.54,2528.55
1764764214.3097365,540.18,-785.745,-28066.545,-5790.285,-19496.88,-27371.205,-6011.415,2530.035
1764764214.3097365,542.16,-782.8199999999999,-28063.935,-5786.865,-19493.64,-27368.505,-6009.344999999999,2532.06
1764764214.3107429,539.415,-785.385,-28066.68,-5789.52,-19495.8,-27370.62,-6011.145,2528.505
1764764214.3107429,540.0,-784.98,-28065.645,-5788.755,-19494.495,-27369.495,-6011.054999999999,2529.135
1764764214.3107429,537.3,-787.725,-28068.48,-5791.05,-19496.7,-27371.925,-6012.855,2526.66
1764764214.3107429,540.4499999999999,-784.845,-28065.6,-5787.719999999999,-19493.37,-27368.595,-6009.885,2529.72
1764764214.3107429,544.86,-780.525,-28061.28,-5784.12,-19489.905,-27364.32,-6006.645,2534.085
1764764214.3107429,540.99,-783.27,-28064.79,-5787.945,-19493.64,-27369.18,-6009.929999999999,2531.25
1764764214.3107429,537.03,-787.3199999999999,-28068.93,-5792.804999999999,-19499.31,-27374.265,-6013.304999999999,2527.785
1764764214.3107429,540.495,-784.305,-28065.645,-5789.969999999999,-19497.24,-27371.97,-6011.91,2530.71
1764764214.3107429,538.47,-785.8349999999999,-28066.995,-5790.915,-19498.275,-27372.96,-6012.179999999999,2529.09
1764764214.3107429,541.845,-782.055,-28062.315,-5786.73,-19492.92,-27367.515,-6009.165,2532.6
1764764214.3107429,542.5649999999999,-781.245,-28062.855,-5786.639999999999,-19492.695,-27367.29,-6008.31,2532.735
1764764214.3107429,541.0799999999999,-782.28,-28065.24,-5788.125,-19493.955,-27369.09,-6009.255,2530.44
1764764214.3107429,539.1,-784.53,-28066.635,-5790.195,-19496.115,-27371.205,-6010.155,2528.37
1764764214.3107429,542.43,-781.29,-28063.17,-5787.45,-19493.415,-27367.92,-6007.815,2531.925
1764764214.3107429,542.16,-781.875,-28064.115,-5788.44,-19494.54,-27369.09,-6008.67,2531.745
1764764214.3107429,536.31,-787.635,-28069.785,-5793.255,-19500.165,-27375.345,-6012.99,2526.39
1764764214.3107429,536.985,-786.3299999999999,-28068.57,-5792.04,-19498.905,-27373.68,-6012.224999999999,2527.11
1764764214.3107429,539.37,-783.0899999999999,-28065.105,-5789.565,-19495.44,-27370.845,-6010.83,2529.72
1764764214.311741,539.91,-784.2149999999999,-28065.69,-5790.15,-19495.755,-27370.98,-6011.415,2529.855
1764764214.311741,539.505,-784.89,-28065.555,-5790.554999999999,-19495.845,-27370.44,-6011.235,2529.315
1764764214.3564932,536.31,-788.13,-28068.525,-5792.804999999999,-19497.69,-27372.87,-6011.865,2526.03
1764764214.3564932,539.01,-785.295,-28066.68,-5790.554999999999,-19495.53,-27370.305,-6010.155,2528.955
1764764214.3564932,541.665,-782.145,-28063.53,-5786.955,-19492.47,-27367.245,-6008.445,2532.195
1764764214.3564932,540.585,-783.405,-28064.52,-5787.945,-19493.1,-27368.595,-6008.445,2530.62
1764764214.3564932,543.6899999999999,-780.12,-28061.415,-5785.514999999999,-19490.22,-27366.525,-6006.69,2533.68
1764764214.3564932,542.61,-780.12,-28061.415,-5785.74,-19490.535,-27367.29,-6006.735,2532.96
1764764214.3564932,542.385,-780.75,-28061.955,-5785.514999999999,-19490.49,-27366.75,-6007.005,2532.33
1764764214.357012,541.755,-781.6949999999999,-28062.675,-5786.73,-19490.985,-27366.885,-6007.59,2532.105
1764764214.357012,541.035,-782.145,-28063.215,-5787.719999999999,-19491.03,-27367.74,-6007.139999999999,2531.7
1764764214.357012,537.435,-785.655,-28068.12,-5791.815,-19496.295,-27371.475,-6010.605,2527.56
1764764214.357012,539.46,-782.685,-28065.195,-5789.25,-19493.505,-27368.865,-6009.389999999999,2530.17
1764764214.357012,540.54,-780.885,-28063.395,-5786.73,-19491.255,-27366.795,-6006.915,2531.79
1764764214.357012,540.63,-780.975,-28063.89,-5787.09,-19491.885,-27367.02,-6006.96,2531.88
1764764214.357012,541.845,-780.975,-28063.89,-5786.415,-19491.435,-27366.975,-6005.88,2533.005
1764764214.357012,542.5649999999999,-780.615,-28063.485,-5785.695,-19490.715,-27367.02,-6004.844999999999,2532.825
1764764214.357012,537.0749999999999,-786.555,-28069.155,-5792.67,-19497.78,-27373.95,-6010.38,2526.66
1764764214.357012,536.715,-787.365,-28070.865,-5794.605,-19499.445,-27375.165,-6012.045,2526.12
1764764214.357012,540.72,-783.765,-28066.815,-5790.105,-19494.18,-27369.945,-6009.12,2529.54
1764764214.357012,540.405,-783.99,-28066.32,-5788.98,-19492.605,-27368.865,-6008.13,2529.585
1764764214.357012,538.11,-786.24,-28067.67,-5790.735,-19494.045,-27369.63,-6009.344999999999,2527.02
1764764214.357012,535.5,-790.155,-28072.17,-5795.46,-19498.23,-27373.545,-6011.639999999999,2524.41
1764764214.357012,538.6949999999999,-785.97,-28069.335,-5793.705,-19497.69,-27372.645,-6010.605,2527.515
1764764214.357012,538.0649999999999,-784.98,-28070.19,-5795.054999999999,-19499.94,-27375.165,-6011.28,2527.74
1764764214.357012,535.725,-787.14,-28072.755,-5797.215,-19503.315,-27377.64,-6012.63,2525.445
1764764214.4044394,538.47,-783.855,-28069.065,-5793.344999999999,-19498.59,-27373.185,-6009.389999999999,2527.74
1764764214.4044394,535.4549999999999,-786.78,-28072.395,-5796.09,-19500.66,-27375.84,-6011.775,2524.185
1764764214.4044394,537.12,-785.475,-28070.64,-5794.155,-19499.04,-27373.635,-6011.594999999999,2526.66
1764764214.4044394,534.555,-787.77,-28073.385,-5797.125,-19501.83,-27376.29,-6012.855,2523.87
1764764214.4044394,538.155,-784.8,-28070.145,-5793.3,-19497.69,-27372.78,-6009.795,2527.335
1764764214.4044394,538.515,-784.62,-28070.28,-5792.355,-19496.88,-27371.745,-6008.445,2527.47
1764764214.4044394,536.355,-786.105,-28071.72,-5793.929999999999,-19498.905,-27373.365,-6009.615,2526.39
1764764214.4044394,541.4399999999999,-782.28,-28067.13,-5789.835,-19495.035,-27369.27,-6006.554999999999,2530.755
1764764214.4044394,541.0799999999999,-782.595,-28067.4,-5790.554999999999,-19495.215,-27370.125,-6006.33,2530.035
1764764214.4044394,537.795,-784.98,-28070.28,-5792.535,-19497.195,-27372.33,-6007.545,2527.335
1764764214.4044394,540.135,-782.775,-28068.255,-5790.69,-19495.62,-27371.025,-6006.69,2529.855
1764764214.4044394,534.96,-787.68,-28073.34,-5796.81,-19501.155,-27377.01,-6010.875,2524.275
1764764214.4044394,534.555,-787.995,-28073.97,-5796.764999999999,-19502.415,-27378.045,-6012.0,2523.555
1764764214.4044394,534.735,-787.23,-28073.655,-5796.405,-19501.515,-27377.64,-6012.045,2524.095
1764764214.4044394,534.8249999999999,-787.5,-28073.115,-5796.315,-19500.615,-27376.335,-6012.045,2523.96
1764764214.4049444,535.005,-787.77,-28072.755,-5795.594999999999,-19499.49,-27375.57,-6011.415,2523.87
1764764214.4049444,537.21,-785.2049999999999,-28070.64,-5793.795,-19497.87,-27373.815,-6010.245,2525.985
1764764214.4049444,535.005,-787.005,-28073.205,-5796.27,-19500.57,-27376.875,-6012.135,2523.33
1764764214.4049444,533.025,-788.805,-28074.285,-5797.665,-19502.28,-27378.675,-6012.855,2521.26
1764764214.4049444,537.48,-785.025,-28070.595,-5793.705,-19497.33,-27374.58,-6010.38,2525.175
1764764214.4049444,534.105,-787.14,-28073.565,-5795.82,-19499.625,-27376.965,-6012.585,2523.105
1764764214.4049444,527.535,-794.2049999999999,-28079.64,-5801.94,-19506.015,-27382.365,-6017.849999999999,2517.03
1764764214.451177,529.11,-793.0799999999999,-28078.38,-5800.77,-19505.115,-27380.97,-6017.355,2517.885
1764764214.451177,533.925,-788.31,-28074.105,-5796.27,-19500.39,-27376.245,-6013.844999999999,2522.565
1764764214.451177,532.215,-790.1999999999999,-28076.49,-5799.105,-19501.92,-27377.955,-6013.98,2521.17
1764764214.451177,532.755,-788.895,-28075.995,-5799.105,-19501.785,-27377.505,-6012.945,2521.8
1764764214.451177,536.625,-785.655,-28072.26,-5795.639999999999,-19499.445,-27375.075,-6011.054999999999,2525.355
1764764214.451177,535.59,-786.915,-28073.565,-5797.035,-19501.02,-27376.29,-6012.135,2524.005
1764764214.451177,532.035,-790.56,-28076.715,-5799.465,-19504.215,-27379.305,-6013.889999999999,2520.495
1764764214.451177,532.395,-789.615,-28074.825,-5797.71,-19502.19,-27377.415,-6012.495,2521.035
1764764214.451177,534.42,-788.22,-28073.655,-5795.82,-19499.265,-27375.3,-6011.145,2523.06
1764764214.451177,531.72,-790.515,-28076.805,-5799.06,-19502.415,-27378.54,-6013.71,2519.955
1764764214.451177,534.915,-786.78,-28073.25,-5796.405,-19500.075,-27375.615,-6011.505,2523.06
1764764214.451177,533.25,-788.625,-28073.88,-5797.935,-19501.605,-27376.83,-6011.91,2521.575
1764764214.4516828,536.31,-786.42,-28071.495,-5795.099999999999,-19498.275,-27372.555,-6010.065,2524.545
1764764214.4516828,534.465,-787.995,-28073.475,-5796.315,-19499.265,-27374.265,-6010.02,2522.34
1764764214.4516828,534.285,-788.0849999999999,-28074.465,-5796.764999999999,-19498.995,-27375.255,-6009.525,2522.52
1764764214.4516828,537.7049999999999,-784.665,-28071.045,-5793.165,-19495.53,-27371.745,-6006.87,2526.345
1764764214.4516828,537.66,-785.115,-28070.73,-5793.66,-19496.745,-27372.015,-6007.094999999999,2525.76
1764764214.4516828,537.12,-786.105,-28072.845,-5796.719999999999,-19500.345,-27375.255,-6008.445,2524.95
1764764214.4516828,539.415,-783.045,-28071.135,-5794.11,-19498.32,-27372.78,-6007.365,2527.875
1764764214.4516828,537.255,-785.8349999999999,-28073.205,-5796.045,-19498.905,-27374.22,-6009.21,2525.175
1764764214.4516828,533.745,-789.3,-28076.715,-5799.33,-19502.055,-27377.415,-6010.29,2521.035
1764764214.4516828,535.275,-788.265,-28075.995,-5798.385,-19502.415,-27376.74,-6010.065,2522.565
1764764214.4516828,536.895,-787.005,-28074.42,-5797.8,-19502.19,-27375.84,-6008.94,2523.735
1764764214.4516828,536.625,-786.8249999999999,-28074.51,-5797.44,-19502.325,-27375.345,-6008.895,2524.455
1764764214.4968312,536.13,-787.14,-28074.42,-5797.71,-19501.605,-27375.48,-6008.94,2524.05
1764764214.4968312,537.12,-786.555,-28073.88,-5797.44,-19500.75,-27374.49,-6008.76,2524.095
1764764214.4968312,539.01,-783.855,-28071.315,-5794.514999999999,-19498.635,-27372.33,-6006.42,2526.435
1764764214.4968312,534.51,-787.23,-28075.005,-5797.665,-19501.47,-27375.75,-6008.355,2523.285
1764764214.4968312,534.06,-787.68,-28075.59,-5798.7,-19501.83,-27375.795,-6009.344999999999,2523.51
1764764214.4968312,530.73,-792.27,-28080.36,-5803.2,-19507.05,-27380.79,-6013.08,2519.505
1764764214.4968312,532.395,-789.3,-28078.02,-5801.13,-19505.52,-27379.395,-6012.27,2521.845
1764764214.4968312,528.21,-792.9449999999999,-28080.27,-5804.235,-19507.77,-27382.545,-6014.205,2518.02
1764764214.4968312,529.605,-792.27,-28079.775,-5803.605,-19506.555,-27381.285,-6012.855,2518.695
1764764214.4968312,532.5749999999999,-790.11,-28077.525,-5800.23,-19503.54,-27377.865,-6011.37,2521.035
1764764214.4968312,531.045,-791.865,-28079.37,-5801.94,-19505.07,-27379.08,-6012.315,2518.92
1764764214.4968312,533.79,-789.795,-28076.76,-5799.87,-19503.405,-27377.325,-6009.615,2521.395
1764764214.4968312,536.4,-786.915,-28073.88,-5797.349999999999,-19501.695,-27375.345,-6007.41,2523.96
1764764214.4968312,534.06,-787.77,-28075.905,-5798.205,-19503.18,-27376.83,-6008.219999999999,2522.52
1764764214.4968312,538.0649999999999,-783.855,-28071.495,-5794.56,-19499.355,-27373.14,-6005.52,2526.795
1764764214.4968312,535.005,-787.68,-28074.42,-5798.295,-19502.865,-27377.055,-6008.445,2523.645
1764764214.4968312,531.135,-791.865,-28078.74,-5801.849999999999,-19506.42,-27380.43,-6011.19,2519.685
1764764214.4968312,531.405,-790.515,-28078.38,-5801.13,-19505.97,-27379.395,-6010.514999999999,2520.45
1764764214.4968312,531.18,-789.48,-28077.795,-5800.59,-19505.43,-27378.0,-6009.929999999999,2521.485
1764764214.4968312,533.385,-787.725,-28075.275,-5798.205,-19503.315,-27375.75,-6008.264999999999,2523.735
1764764214.4968312,530.01,-791.8199999999999,-28079.64,-5802.705,-19507.095,-27379.89,-6010.65,2519.145
1764764214.4968312,529.515,-792.0,-28079.73,-5803.065,-19507.995,-27380.295,-6011.19,2518.92
1764764214.4968312,530.91,-790.6949999999999,-28078.83,-5802.255,-19507.95,-27379.98,-6010.38,2520.72
1764764214.4968312,534.6,-786.78,-28074.15,-5797.349999999999,-19503.81,-27375.615,-6007.679999999999,2524.635
1764764214.540231,536.805,-784.665,-28072.575,-5795.82,-19502.055,-27373.995,-6005.52,2526.48
1764764214.540231,533.5649999999999,-787.4549999999999,-28075.995,-5799.645,-19505.475,-27377.19,-6007.41,2522.97
1764764214.5412471,536.805,-784.845,-28073.115,-5795.955,-19502.28,-27373.905,-6005.565,2525.85
1764764214.5412471,537.3,-784.7099999999999,-28072.17,-5794.335,-19500.84,-27372.78,-6004.98,2526.03
1764764214.5412471,535.905,-785.43,-28072.755,-5795.594999999999,-19500.885,-27373.545,-6005.16,2524.59
1764764214.5412471,536.265,-784.17,-28072.44,-5794.605,-19499.67,-27372.645,-6003.764999999999,2525.625
1764764214.5412471,536.4449999999999,-784.62,-28073.43,-5794.965,-19500.615,-27373.095,-6003.764999999999,2524.815
1764764214.5412471,533.295,-787.77,-28076.49,-5798.25,-19503.855,-27376.74,-6005.565,2522.115
1764764214.5412471,533.16,-787.77,-28075.905,-5798.474999999999,-19503.63,-27376.335,-6005.565,2522.655
1764764214.5422423,534.42,-786.555,-28074.6,-5797.125,-19502.28,-27376.11,-6004.889999999999,2523.87
1764764214.5422423,536.76,-783.9449999999999,-28072.485,-5794.11,-19499.22,-27372.87,-6002.955,2526.84
1764764214.5422423,535.23,-785.475,-28073.97,-5795.82,-19500.66,-27373.995,-6004.53,2524.995
1764764214.5422423,533.43,-787.77,-28075.14,-5798.88,-19503.18,-27376.38,-6005.655,2522.745
1764764214.5422423,529.335,-791.28,-28079.415,-5804.28,-19508.04,-27380.655,-6008.58,2518.74
1764764214.5432427,529.02,-791.865,-28080.315,-5805.719999999999,-19509.48,-27382.545,-6010.425,2518.155
1764764214.5432427,530.01,-791.1899999999999,-28079.82,-5805.09,-19509.075,-27382.545,-6010.785,2519.235
1764764214.5432427,525.87,-795.105,-28083.825,-5809.05,-19513.44,-27386.46,-6012.764999999999,2514.96
1764764214.5432427,527.31,-793.755,-28083.195,-5808.915,-19512.63,-27385.785,-6012.179999999999,2516.49
1764764214.5432427,530.01,-790.9649999999999,-28079.955,-5806.26,-19509.885,-27382.995,-6010.695,2519.64
1764764214.5432427,532.035,-788.85,-28077.975,-5803.875,-19507.635,-27380.16,-6008.13,2521.305
1764764214.5432427,532.485,-787.995,-28077.075,-5803.335,-19507.41,-27379.62,-6007.23,2522.025
1764764214.5432427,528.0749999999999,-792.405,-28082.52,-5808.465,-19513.125,-27384.84,-6011.55,2517.435
1764764214.590311,528.3,-792.36,-28082.655,-5808.42,-19514.16,-27385.245,-6011.865,2517.255
1764764214.590311,531.135,-790.605,-28080.765,-5807.34,-19512.99,-27383.76,-6009.255,2520.135
1764764214.590311,531.9449999999999,-790.11,-28080.54,-5806.755,-19512.54,-27383.445,-6009.03,2519.955
1764764214.590311,530.235,-790.515,-28080.855,-5806.98,-19511.91,-27383.715,-6010.065,2518.92
1764764214.590311,529.425,-790.605,-28080.81,-5806.62,-19510.38,-27382.905,-6010.469999999999,2519.01
1764764214.590311,531.27,-788.22,-28078.29,-5803.38,-19507.59,-27380.205,-6008.715,2520.675
1764764214.5912814,529.47,-789.75,-28079.64,-5804.415,-19508.175,-27380.205,-6009.3,2520.0
1764764214.5912814,527.5799999999999,-791.3249999999999,-28081.08,-5805.945,-19508.94,-27381.06,-6009.03,2519.145
1764764214.5912814,530.28,-788.7149999999999,-28077.66,-5802.974999999999,-19505.34,-27378.18,-6007.139999999999,2522.07
1764764214.5912814,528.165,-791.91,-28080.27,-5805.0,-19507.32,-27380.745,-6009.075,2519.1
1764764214.5912814,531.045,-787.995,-28077.57,-5800.635,-19503.99,-27377.055,-6006.465,2521.98
1764764214.5912814,532.395,-787.005,-28076.58,-5800.05,-19503.81,-27376.47,-6005.429999999999,2522.97
1764764214.5912814,532.755,-787.23,-28076.805,-5801.445,-19505.43,-27377.865,-6006.33,2523.285
1764764214.5912814,532.395,-788.265,-28076.31,-5802.57,-19505.745,-27378.18,-6006.42,2522.205
1764764214.5912814,529.875,-790.245,-28078.11,-5803.74,-19507.14,-27379.845,-6007.679999999999,2520.18
1764764214.5912814,531.4499999999999,-788.04,-28076.535,-5801.94,-19505.205,-27376.965,-6006.195,2521.8
1764764214.5912814,535.995,-783.54,-28072.485,-5797.44,-19500.615,-27372.33,-6002.235,2525.94
1764764214.5912814,536.895,-782.64,-28071.81,-5796.945,-19499.58,-27371.385,-6001.065,2526.705
1764764214.5912814,536.9399999999999,-782.505,-28071.495,-5797.349999999999,-19499.85,-27371.16,-5999.94,2527.245
1764764214.5912814,533.16,-786.645,-28076.67,-5801.49,-19504.53,-27375.615,-6002.73,2522.745
1764764214.5912814,531.495,-788.22,-28079.28,-5803.695,-19507.095,-27378.405,-6005.205,2520.54
1764764214.5912814,531.63,-788.04,-28078.515,-5803.83,-19506.42,-27377.955,-6005.52,2520.72
1764764214.6375434,534.42,-784.485,-28074.96,-5800.005,-19503.27,-27373.86,-6003.315,2524.23
1764764214.6375434,535.545,-783.405,-28073.295,-5797.844999999999,-19501.155,-27372.195,-6001.65,2525.76
1764764214.6375434,535.995,-783.045,-28072.215,-5796.719999999999,-19499.58,-27370.89,-6000.344999999999,2526.03
1764764214.6375434,535.23,-783.855,-28072.845,-5797.26,-19500.57,-27371.79,-6001.065,2525.22
1764764214.6375434,535.05,-783.99,-28073.79,-5798.88,-19502.055,-27372.87,-6001.65,2524.905
1764764214.6375434,534.96,-784.2149999999999,-28074.24,-5799.42,-19503.675,-27373.995,-6001.695,2525.22
1764764214.6375434,534.6899999999999,-784.35,-28074.015,-5799.465,-19503.495,-27373.995,-6001.92,2524.59
1764764214.6375434,534.8249999999999,-784.4399999999999,-28073.7,-5798.88,-19502.28,-27373.905,-6001.92,2524.59
1764764214.6375434,536.85,-782.91,-28071.45,-5796.315,-19498.23,-27371.115,-5999.4,2526.93
1764764214.6375434,537.93,-782.1,-28070.595,-5795.685,-19497.42,-27370.62,-5999.13,2528.235
1764764214.6375434,537.435,-782.595,-28072.62,-5798.115,-19501.38,-27373.185,-5999.625,2527.785
1764764214.6375434,533.34,-786.1949999999999,-28076.67,-5802.974999999999,-19507.005,-27378.09,-6002.415,2523.105
1764764214.6375434,533.745,-785.6999999999999,-28076.265,-5802.885,-19506.645,-27377.505,-6002.37,2523.555
1764764214.6375434,533.52,-786.1949999999999,-28077.03,-5803.469999999999,-19507.32,-27378.585,-6003.63,2523.105
1764764214.6375434,531.54,-787.8149999999999,-28078.02,-5803.469999999999,-19508.175,-27379.125,-6004.575,2521.755
1764764214.6375434,533.61,-785.79,-28075.005,-5800.59,-19505.115,-27375.48,-6001.695,2524.5
1764764214.6375434,539.73,-779.9399999999999,-28069.2,-5795.054999999999,-19498.86,-27370.62,-5996.7,2530.08
1764764214.6375434,538.38,-781.29,-28070.19,-5795.775,-19499.58,-27371.52,-5997.78,2529.27
1764764214.6375434,537.48,-782.235,-28071.27,-5796.27,-19501.425,-27372.42,-5998.679999999999,2527.92
1764764214.6375434,539.505,-779.9399999999999,-28070.28,-5795.505,-19501.02,-27371.655,-5997.195,2529.72
1764764214.6375434,541.035,-777.4649999999999,-28068.345,-5794.29,-19499.58,-27370.665,-5995.755,2531.835
1764764214.6375434,539.595,-778.77,-28069.29,-5795.415,-19500.615,-27371.97,-5995.755,2531.025
1764764214.6375434,536.04,-783.045,-28073.025,-5799.014999999999,-19504.62,-27375.975,-5998.59,2526.525
1764764214.6375434,535.185,-782.865,-28072.755,-5799.465,-19503.81,-27375.435,-5998.995,2526.48
1764764214.680751,536.31,-780.885,-28070.82,-5797.08,-19501.245,-27372.51,-5997.96,2527.695
1764764214.680751,539.46,-777.105,-28067.22,-5793.12,-19497.69,-27368.865,-5994.855,2531.07
1764764214.680751,541.62,-775.0799999999999,-28065.33,-5791.59,-19496.34,-27366.84,-5992.2,2533.32
1764764214.680751,540.72,-775.89,-28066.05,-5792.49,-19497.6,-27367.83,-5993.145,2533.275
1764764214.680751,538.92,-777.87,-28068.48,-5795.415,-19500.615,-27370.845,-5994.54,2531.07
1764764214.680751,537.5699999999999,-779.5799999999999,-28070.82,-5798.385,-19502.64,-27373.23,-5996.79,2528.37
1764764214.680751,541.89,-775.89,-28066.635,-5793.389999999999,-19497.825,-27368.235,-5993.73,2532.78
1764764214.680751,541.4399999999999,-776.3399999999999,-28066.815,-5792.67,-19496.925,-27367.38,-5993.145,2533.59
1764764214.680751,541.53,-777.15,-28068.12,-5793.84,-19497.06,-27368.055,-5993.46,2532.96
1764764214.680751,541.62,-776.5649999999999,-28067.625,-5793.255,-19495.44,-27367.065,-5992.155,2533.455
1764764214.680751,541.17,-777.645,-28067.67,-5793.84,-19496.88,-27367.785,-5991.75,2532.195
1764764214.680751,539.775,-779.265,-28068.39,-5795.054999999999,-19498.5,-27369.045,-5991.885,2530.71
1764764214.6817603,543.915,-774.495,-28064.385,-5791.32,-19494.315,-27364.905,-5989.23,2534.805
1764764214.6817603,541.26,-777.1949999999999,-28066.59,-5793.84,-19497.105,-27367.425,-5991.389999999999,2532.96
1764764214.6817603,538.11,-779.49,-28069.56,-5795.73,-19499.265,-27370.215,-5993.325,2529.81
1764764214.6817603,540.72,-776.5649999999999,-28067.355,-5792.985,-19496.025,-27367.47,-5991.929999999999,2531.745
1764764214.6817603,541.215,-776.5649999999999,-28067.4,-5792.715,-19495.98,-27366.795,-5991.389999999999,2531.835
1764764214.6817603,538.56,-779.355,-28069.785,-5795.325,-19498.455,-27369.045,-5993.235,2529.315
1764764214.6817603,538.8299999999999,-779.895,-28069.065,-5795.594999999999,-19498.095,-27368.595,-5992.785,2529.63
1764764214.6827624,540.72,-779.22,-28067.94,-5794.38,-19496.97,-27367.29,-5991.12,2531.25
1764764214.6827624,544.185,-775.17,-28064.835,-5791.185,-19494.09,-27365.04,-5988.69,2535.255
1764764214.6827624,543.78,-774.9449999999999,-28065.645,-5792.804999999999,-19495.755,-27365.76,-5989.23,2535.255
1764764214.6827624,542.16,-776.2049999999999,-28067.49,-5795.19,-19498.005,-27367.92,-5990.715,2532.825
1764764214.6827624,537.3,-781.11,-28072.17,-5799.51,-19502.1,-27372.96,-5994.405,2527.92
1764764214.7292998,538.56,-779.31,-28070.235,-5797.26,-19500.03,-27371.7,-5993.415,2529.18
1764764214.7292998,543.645,-774.4499999999999,-28064.385,-5791.23,-19493.64,-27365.13,-5989.905,2534.13
1764764214.7292998,543.42,-774.3149999999999,-28065.105,-5791.41,-19493.055,-27364.68,-5989.545,2534.535
1764764214.7298276,542.25,-776.0699999999999,-28066.77,-5793.165,-19494.855,-27365.805,-5990.264999999999,2533.41
1764764214.7298276,538.6949999999999,-779.265,-28070.865,-5798.115,-19499.715,-27369.855,-5992.605,2530.395
1764764214.7298276,540.18,-777.735,-28069.74,-5797.035,-19500.165,-27370.17,-5991.57,2531.7
1764764214.7298276,538.155,-779.895,-28072.305,-5799.465,-19502.82,-27373.455,-5993.73,2529.81
1764764214.7298276,540.72,-777.105,-28067.895,-5796.09,-19499.13,-27370.035,-5990.895,2532.645
1764764214.7298276,539.145,-778.995,-28069.695,-5797.035,-19500.525,-27371.295,-5991.66,2530.62
1764764214.7298276,536.805,-781.92,-28073.16,-5800.365,-19503.225,-27374.355,-5994.179999999999,2527.92
1764764214.7298276,539.46,-778.995,-28070.91,-5797.44,-19499.625,-27371.295,-5992.29,2531.52
1764764214.7298276,537.5699999999999,-780.8399999999999,-28072.305,-5799.42,-19501.56,-27372.69,-5993.639999999999,2529.54
1764764214.7298276,537.21,-781.425,-28072.62,-5799.42,-19502.82,-27373.185,-5994.09,2528.235
1764764214.7298276,537.165,-781.65,-28072.125,-5798.969999999999,-19501.965,-27372.06,-5993.235,2529.0
1764764214.7298276,534.42,-783.765,-28074.105,-5801.04,-19504.215,-27374.265,-5994.81,2526.885
1764764214.7298276,537.12,-780.03,-28070.325,-5797.304999999999,-19500.39,-27370.305,-5992.514999999999,2529.855
1764764214.7298276,535.9499999999999,-781.425,-28071.63,-5798.565,-19501.74,-27371.25,-5991.929999999999,2528.82
1764764214.7298276,538.29,-779.67,-28070.415,-5797.349999999999,-19501.47,-27370.8,-5990.67,2529.99
1764764214.7298276,541.17,-777.24,-28068.93,-5796.0,-19499.67,-27368.73,-5989.545,2533.545
1764764214.7298276,538.335,-778.86,-28071.18,-5798.205,-19502.82,-27372.24,-5992.245,2531.52
1764764214.7298276,536.805,-780.5699999999999,-28072.575,-5800.139999999999,-19505.115,-27374.895,-5993.054999999999,2529.9
1764764214.7298276,539.685,-777.3299999999999,-28069.065,-5796.495,-19500.705,-27370.8,-5991.03,2532.78
1764764214.7298276,540.18,-776.25,-28068.075,-5794.785,-19499.625,-27369.54,-5990.219999999999,2533.68
1764764214.7298276,540.18,-776.115,-28066.815,-5794.155,-19498.32,-27368.19,-5988.78,2533.005
1764764214.7771325,539.055,-777.1949999999999,-28068.075,-5794.605,-19497.96,-27367.74,-5989.77,2531.385
1764764214.7771325,534.915,-781.29,-28073.115,-5799.645,-19502.64,-27372.105,-5993.054999999999,2527.965
1764764214.7771325,534.645,-782.505,-28073.205,-5799.915,-19502.91,-27372.96,-5993.325,2527.335
1764764214.7771325,536.715,-780.39,-28070.955,-5798.52,-19501.785,-27372.105,-5991.929999999999,2529.45
1764764214.7771325,539.64,-777.4649999999999,-28068.66,-5797.844999999999,-19502.37,-27371.7,-5991.48,2532.33
1764764214.7771325,538.02,-778.635,-28069.605,-5799.735,-19504.26,-27373.095,-5992.469999999999,2530.845
1764764214.7771325,535.905,-781.02,-28071.945,-5801.625,-19505.97,-27375.615,-5994.36,2528.415
1764764214.7771325,532.755,-784.53,-28074.96,-5805.09,-19509.57,-27378.045,-5996.7,2525.445
1764764214.7771325,533.475,-783.135,-28074.33,-5803.469999999999,-19508.04,-27376.965,-5996.295,2526.21
1764764214.7771325,535.23,-780.795,-28072.53,-5800.455,-19504.62,-27373.815,-5993.865,2528.505
1764764214.7771325,538.6949999999999,-777.8249999999999,-28069.2,-5797.215,-19501.065,-27370.215,-5990.76,2531.16
1764764214.7771325,538.965,-777.6899999999999,-28069.47,-5796.405,-19500.84,-27370.44,-5990.445,2531.34
1764764214.7771325,544.5,-772.8299999999999,-28064.655,-5791.41,-19495.665,-27364.545,-5986.575,2537.1
1764764214.7771325,544.545,-772.425,-28063.89,-5790.87,-19494.99,-27364.5,-5985.45,2537.235
1764764214.7771325,542.16,-774.495,-28066.365,-5793.12,-19497.195,-27366.57,-5987.474999999999,2534.535
1764764214.7771325,537.12,-779.0849999999999,-28070.775,-5798.429999999999,-19502.19,-27370.98,-5991.705,2530.26
1764764214.7771325,537.93,-778.545,-28069.38,-5796.945,-19501.11,-27370.08,-5990.355,2531.385
1764764214.7771325,541.485,-774.72,-28065.015,-5792.49,-19497.105,-27365.31,-5987.34,2534.805
1764764214.7776568,539.235,-778.005,-28068.255,-5796.09,-19500.345,-27368.595,-5989.139999999999,2532.015
1764764214.7776568,539.37,-778.8149999999999,-28069.83,-5797.53,-19501.515,-27370.44,-5990.04,2531.7
1764764214.7776568,539.685,-778.23,-28070.01,-5796.224999999999,-19500.705,-27369.765,-5989.995,2531.88
1764764214.7776568,541.35,-776.475,-28068.615,-5794.74,-19499.13,-27367.965,-5989.995,2533.5
1764764214.823953,540.495,-776.43,-28068.39,-5795.505,-19500.03,-27368.685,-5989.32,2532.78
1764764214.823953,542.385,-775.5749999999999,-28067.265,-5794.785,-19499.445,-27367.965,-5987.655,2534.355
1764764214.823953,541.71,-776.2049999999999,-28067.94,-5795.325,-19500.885,-27369.225,-5988.33,2534.085
1764764214.823953,534.96,-782.37,-28073.88,-5800.59,-19506.42,-27374.58,-5992.695,2528.28
1764764214.823953,535.68,-781.6949999999999,-28073.43,-5800.094999999999,-19506.465,-27374.715,-5992.965,2528.37
1764764214.823953,538.155,-778.8149999999999,-28070.145,-5797.349999999999,-19503.36,-27371.295,-5991.255,2530.71
1764764214.823953,536.895,-779.85,-28071.135,-5797.98,-19503.315,-27371.655,-5991.344999999999,2530.035
1764764214.823953,535.23,-782.055,-28073.43,-5799.42,-19504.17,-27373.14,-5993.639999999999,2528.46
1764764214.823953,532.845,-784.395,-28076.04,-5801.58,-19506.645,-27375.48,-5994.81,2526.705
1764764214.823953,535.9499999999999,-780.345,-28072.665,-5799.014999999999,-19502.64,-27371.61,-5992.469999999999,2529.18
1764764214.823953,535.59,-781.02,-28073.25,-5800.5,-19503.99,-27372.915,-5992.29,2527.92
1764764214.823953,541.395,-775.845,-28067.895,-5795.28,-19499.22,-27367.92,-5988.33,2533.05
1764764214.87374,541.62,-775.2149999999999,-28067.085,-5794.29,-19498.095,-27367.065,-5987.07,2534.22
1764764214.87374,537.7049999999999,-778.725,-28069.92,-5797.304999999999,-19501.065,-27369.855,-5990.04,2531.205
1764764214.87374,535.41,-780.75,-28072.395,-5799.825,-19503.585,-27371.745,-5991.615,2528.505
1764764214.87374,531.405,-784.4399999999999,-28076.265,-5803.74,-19507.455,-27375.03,-5994.495,2524.635
1764764214.87374,531.585,-784.53,-28075.95,-5803.92,-19507.23,-27375.48,-5994.764999999999,2524.77
1764764214.87374,534.015,-782.415,-28073.88,-5802.12,-19506.015,-27373.41,-5993.594999999999,2526.12
1764764214.87374,536.715,-779.805,-28071.315,-5799.69,-19503.72,-27371.205,-5991.615,2529.63
1764764214.87374,536.5799999999999,-779.5799999999999,-28071.99,-5799.554999999999,-19503.585,-27371.43,-5991.525,2529.405
1764764214.87374,534.6899999999999,-781.155,-28074.51,-5801.895,-19506.105,-27374.22,-5993.01,2527.74
1764764214.87374,531.36,-784.845,-28077.345,-5805.0,-19509.345,-27377.505,-5995.44,2524.455
1764764214.87374,532.98,-782.64,-28075.005,-5801.94,-19507.005,-27375.48,-5993.325,2526.705
1764764214.87374,529.38,-786.06,-28079.37,-5805.719999999999,-19510.155,-27379.215,-5995.8,2522.745
1764764214.87374,530.01,-784.98,-28078.74,-5804.955,-19509.165,-27377.415,-5994.675,2523.69
1764764214.87374,531.72,-784.0799999999999,-28077.12,-5803.785,-19507.23,-27376.155,-5993.639999999999,2524.86
1764764214.87374,535.05,-780.93,-28074.33,-5801.04,-19504.08,-27373.095,-5991.929999999999,2527.605
1764764214.87374,534.6,-781.515,-28075.185,-5801.445,-19504.35,-27374.265,-5992.065,2527.38
1764764214.87374,532.305,-784.395,-28077.885,-5804.28,-19508.04,-27377.37,-5993.91,2524.905
1764764214.87374,533.0699999999999,-783.72,-28077.075,-5803.83,-19507.545,-27376.38,-5994.224999999999,2525.175
1764764214.87374,529.605,-786.24,-28080.18,-5806.98,-19511.145,-27380.295,-5995.98,2522.07
1764764214.87374,530.145,-785.655,-28079.73,-5805.99,-19510.785,-27379.755,-5995.17,2522.745
1764764214.87374,532.62,-783.3149999999999,-28077.39,-5803.965,-19508.31,-27377.145,-5993.594999999999,2525.445
1764764214.87374,527.355,-788.895,-28082.925,-5810.175,-19514.07,-27382.77,-5997.915,2519.73
1764764214.87374,528.5699999999999,-787.77,-28082.295,-5809.5,-19513.665,-27382.005,-5997.599999999999,2520.855
1764764214.8742514,530.37,-785.6999999999999,-28080.27,-5808.195,-19511.955,-27379.845,-5996.34,2522.745
1764764214.8742514,525.735,-790.0649999999999,-28084.815,-5813.145,-19516.005,-27384.525,-5999.804999999999,2518.2
1764764214.8742514,525.96,-790.38,-28084.59,-5812.514999999999,-19515.33,-27383.985,-5999.715,2517.57
1764764214.8742514,529.56,-786.735,-28080.945,-5808.105,-19511.28,-27379.62,-5997.195,2521.935
1764764214.8742514,530.235,-785.43,-28078.965,-5806.485,-19509.615,-27377.415,-5995.08,2523.06
1764764214.8742514,528.93,-786.015,-28081.305,-5807.79,-19510.83,-27378.99,-5995.844999999999,2521.575
1764764214.8742514,533.97,-781.9649999999999,-28076.76,-5803.02,-19507.095,-27374.67,-5992.83,2526.93
1764764214.8742514,536.31,-779.49,-28073.43,-5801.31,-19505.295,-27371.34,-5990.219999999999,2529.225
1764764214.8742514,532.5749999999999,-783.0899999999999,-28076.4,-5804.73,-19508.445,-27374.76,-5993.505,2525.58
1764764214.8742514,528.615,-786.3299999999999,-28079.775,-5807.7,-19511.055,-27378.135,-5995.98,2521.755
1764764214.8742514,531.0,-783.3149999999999,-28077.795,-5804.639999999999,-19507.815,-27375.795,-5993.82,2523.87
1764764214.8742514,528.165,-785.745,-28080.135,-5807.295,-19509.93,-27378.135,-5995.035,2521.755
1764764214.8742514,528.03,-785.43,-28080.18,-5807.925,-19509.84,-27377.505,-5995.755,2521.44
1764764214.9160411,526.545,-787.14,-28081.665,-5809.815,-19511.865,-27379.305,-5997.105,2519.46
1764764214.9160411,529.56,-784.62,-28079.28,-5806.98,-19509.525,-27376.47,-5995.44,2522.7
1764764214.9160411,530.1899999999999,-783.855,-28077.795,-5805.764999999999,-19509.075,-27375.705,-5994.045,2523.6
1764764214.9160411,531.0,-783.045,-28076.805,-5804.639999999999,-19508.625,-27374.85,-5992.965,2524.32
1764764214.9160411,531.855,-781.74,-28075.95,-5803.155,-19507.095,-27373.5,-5991.885,2524.995
1764764214.9160411,530.9549999999999,-782.28,-28075.77,-5803.065,-19507.14,-27373.905,-5991.435,2524.545
1764764214.9160411,528.795,-783.81,-28078.47,-5804.865,-19508.94,-27375.975,-5991.389999999999,2522.16
1764764214.9160411,528.885,-784.125,-28079.1,-5804.865,-19509.705,-27376.02,-5992.02,2521.305
1764764214.9160411,532.215,-781.0649999999999,-28074.51,-5801.804999999999,-19505.565,-27372.735,-5989.32,2525.175
1764764214.9160411,530.3249999999999,-783.18,-28076.76,-5803.65,-19507.59,-27374.805,-5990.58,2523.42
1764764214.9160411,530.28,-782.235,-28075.185,-5802.615,-19507.41,-27374.58,-5990.49,2523.69
1764764214.9160411,532.71,-779.85,-28073.52,-5800.455,-19505.16,-27372.375,-5989.5,2526.39
1764764214.9160411,532.89,-779.895,-28073.79,-5801.085,-19506.105,-27372.915,-5989.77,2526.705
1764764214.9160411,532.305,-781.605,-28075.77,-5802.705,-19507.23,-27373.59,-5990.31,2525.805
1764764214.9160411,530.46,-784.935,-28078.605,-5804.73,-19508.94,-27375.57,-5991.3,2524.23
1764764214.9160411,525.87,-788.7149999999999,-28083.15,-5809.32,-19512.765,-27379.26,-5994.855,2519.46
1764764214.917935,529.02,-785.745,-28079.73,-5805.63,-19508.67,-27375.705,-5992.245,2522.745
1764764214.917935,528.48,-786.4649999999999,-28079.595,-5805.495,-19508.985,-27375.615,-5992.695,2522.655
1764764214.917935,525.105,-789.39,-28082.385,-5809.23,-19512.495,-27378.54,-5994.585,2518.875
1764764214.917935,524.5649999999999,-789.12,-28082.025,-5809.41,-19512.45,-27378.27,-5994.719999999999,2518.92
1764764214.917935,526.23,-786.555,-28079.19,-5806.8,-19510.695,-27376.965,-5992.74,2521.035
1764764214.917935,530.055,-783.36,-28075.905,-5803.514999999999,-19507.905,-27373.905,-5990.625,2524.095
1764764214.917935,527.22,-786.9599999999999,-28080.54,-5808.195,-19512.18,-27378.225,-5992.965,2520.72
1764764214.917935,528.7049999999999,-785.16,-28079.955,-5807.52,-19512.27,-27378.225,-5991.795,2522.43
1764764214.963098,534.465,-779.265,-28074.375,-5801.804999999999,-19507.23,-27372.555,-5987.79,2528.19
1764764214.963098,532.395,-781.6949999999999,-28076.445,-5804.28,-19510.47,-27374.67,-5990.264999999999,2525.31
1764764214.963098,531.18,-782.775,-28076.985,-5804.865,-19510.335,-27375.705,-5991.57,2524.86
1764764214.963098,529.56,-784.7099999999999,-28079.055,-5805.224999999999,-19510.11,-27376.38,-5991.435,2523.78
1764764214.963098,529.65,-785.0699999999999,-28079.55,-5806.17,-19510.92,-27376.83,-5991.615,2522.88
1764764214.963098,529.11,-785.88,-28079.865,-5806.935,-19511.145,-27377.28,-5992.335,2521.53
1764764214.963098,528.165,-786.555,-28080.99,-5807.61,-19511.505,-27377.595,-5993.235,2520.54
1764764214.963098,527.085,-787.5899999999999,-28082.025,-5808.915,-19513.215,-27378.81,-5994.764999999999,2519.955
1764764214.9636278,525.375,-789.795,-28084.68,-5812.56,-19517.58,-27382.905,-5997.33,2518.695
1764764214.9636278,523.8,-790.74,-28085.715,-5813.955,-19520.055,-27385.245,-5997.69,2516.58
1764764214.9636278,529.0649999999999,-783.765,-28079.64,-5807.655,-19513.62,-27379.26,-5993.505,2522.07
1764764214.9636278,528.84,-783.99,-28079.82,-5807.34,-19513.08,-27378.63,-5993.099999999999,2521.485
1764764214.9636278,526.4549999999999,-786.375,-28081.845,-5809.365,-19514.88,-27380.205,-5993.73,2520.045
1764764214.9636278,523.305,-790.155,-28085.31,-5814.135,-19519.245,-27384.075,-5995.8,2516.175
1764764214.9636278,523.35,-790.47,-28085.535,-5814.54,-19519.29,-27384.615,-5996.295,2516.535
1764764214.9636278,524.385,-790.11,-28085.31,-5814.27,-19520.01,-27384.57,-5996.34,2516.58
1764764214.9636278,525.6,-789.3,-28085.13,-5812.875,-19519.2,-27383.85,-5995.844999999999,2518.02
1764764214.9636278,529.425,-785.5649999999999,-28080.315,-5808.15,-19512.675,-27379.08,-5992.38,2522.385
1764764214.9636278,528.975,-786.4649999999999,-28079.955,-5809.139999999999,-19512.315,-27378.9,-5992.695,2521.62
1764764214.9636278,525.87,-789.48,-28083.24,-5813.054999999999,-19515.78,-27382.68,-5994.764999999999,2517.885
1764764214.9636278,527.4449999999999,-787.3199999999999,-28081.8,-5810.219999999999,-19513.44,-27380.745,-5993.55,2520.315
1764764214.9636278,523.215,-791.415,-28086.21,-5814.224999999999,-19517.355,-27384.57,-5996.565,2515.995
1764764215.0100603,523.71,-791.01,-28086.615,-5814.585,-19517.535,-27384.345,-5996.115,2515.68
1764764215.0105803,524.43,-790.425,-28085.355,-5813.19,-19516.77,-27382.725,-5995.62,2517.57
1764764215.0105803,528.48,-786.105,-28080.54,-5809.455,-19512.315,-27378.63,-5992.514999999999,2521.755
1764764215.0105803,527.805,-786.6899999999999,-28082.25,-5810.264999999999,-19513.305,-27379.89,-5993.37,2520.585
1764764215.0105803,523.305,-790.8299999999999,-28087.155,-5814.045,-19518.03,-27384.3,-5996.655,2515.905
1764764215.0105803,522.585,-791.55,-28087.425,-5814.179999999999,-19518.84,-27385.695,-5997.375,2515.86
1764764215.0105803,525.15,-789.93,-28084.5,-5811.929999999999,-19516.32,-27383.265,-5994.9,2518.11
1764764215.0105803,530.685,-783.9,-28078.56,-5806.08,-19509.48,-27377.01,-5990.49,2524.05
1764764215.0105803,532.89,-781.29,-28076.67,-5803.965,-19507.68,-27375.255,-5988.33,2525.85
1764764215.0105803,531.18,-783.675,-28078.74,-5805.99,-19510.38,-27377.145,-5989.455,2524.455
1764764215.0105803,530.235,-784.89,-28080.63,-5807.88,-19512.855,-27379.17,-5990.849999999999,2523.465
1764764215.0105803,526.185,-788.22,-28083.645,-5811.795,-19516.95,-27382.86,-5992.65,2519.145
1764764215.0105803,524.88,-789.8399999999999,-28084.545,-5813.235,-19517.04,-27383.4,-5993.37,2518.29
1764764215.0105803,523.89,-790.425,-28085.175,-5814.36,-19518.255,-27384.795,-5995.304999999999,2517.615
1764764215.0105803,525.51,-788.0849999999999,-28082.385,-5812.245,-19516.59,-27382.365,-5993.955,2519.055
1764764215.0105803,523.845,-790.29,-28085.22,-5814.315,-19518.93,-27384.705,-5994.405,2517.435
1764764215.0105803,523.665,-791.37,-28086.525,-5815.755,-19520.28,-27386.415,-5995.215,2516.76
1764764215.0105803,523.935,-790.6949999999999,-28086.255,-5815.485,-19519.2,-27385.29,-5995.485,2516.985
1764764215.0105803,527.04,-786.915,-28082.655,-5812.065,-19516.23,-27381.96,-5992.514999999999,2521.17
1764764215.0105803,523.395,-791.055,-28085.715,-5815.304999999999,-19519.92,-27384.795,-5995.98,2517.57
1764764215.0105803,526.005,-787.77,-28082.07,-5812.245,-19516.455,-27381.465,-5993.054999999999,2520.855
1764764215.0105803,527.13,-786.645,-28081.305,-5811.615,-19515.87,-27381.375,-5991.57,2522.025
1764764215.0105803,524.835,-789.7049999999999,-28084.455,-5814.315,-19517.94,-27382.86,-5992.74,2519.145
1764764215.0105803,525.42,-789.255,-28083.69,-5814.0,-19517.04,-27381.645,-5992.155,2519.28
1764764215.0564814,526.185,-787.4549999999999,-28082.385,-5812.2,-19515.915,-27380.97,-5991.615,2520.585
1764764215.0564814,526.4549999999999,-786.6899999999999,-28082.295,-5811.795,-19515.87,-27380.88,-5991.525,2521.215
1764764215.0564814,523.0799999999999,-790.605,-28087.29,-5816.565,-19520.145,-27385.29,-5994.45,2516.895
1764764215.056996,524.295,-789.8399999999999,-28086.615,-5817.014999999999,-19520.28,-27385.695,-5994.224999999999,2517.75
1764764215.056996,528.5699999999999,-786.105,-28083.24,-5813.099999999999,-19516.905,-27382.32,-5991.929999999999,2521.8
1764764215.056996,527.13,-787.68,-28085.175,-5814.36,-19518.75,-27384.345,-5994.045,2520.45
1764764215.056996,526.59,-787.5899999999999,-28084.095,-5813.955,-19518.345,-27383.355,-5993.054999999999,2520.36
1764764215.056996,527.4449999999999,-786.105,-28082.88,-5812.469999999999,-19516.815,-27380.88,-5991.389999999999,2521.62
1764764215.056996,528.795,-784.35,-28081.395,-5810.76,-19515.465,-27379.44,-5989.905,2523.195
1764764215.056996,528.7049999999999,-784.89,-28081.755,-5811.165,-19516.095,-27379.89,-5989.86,2522.295
1764764215.056996,525.96,-787.545,-28084.905,-5813.415,-19518.3,-27382.14,-5990.94,2519.1
1764764215.056996,526.095,-787.5899999999999,-28084.365,-5813.28,-19517.805,-27382.14,-5990.895,2519.91
1764764215.056996,528.975,-783.99,-28080.675,-5809.59,-19514.43,-27378.855,-5988.24,2523.645
1764764215.056996,529.56,-783.63,-28080.225,-5809.23,-19514.52,-27379.035,-5988.554999999999,2523.78
1764764215.056996,530.37,-783.18,-28079.955,-5809.005,-19514.07,-27378.765,-5988.195,2524.005
1764764215.056996,528.03,-784.935,-28082.7,-5810.355,-19515.645,-27380.7,-5989.005,2522.205
1764764215.056996,523.8,-789.165,-28086.255,-5814.764999999999,-19519.38,-27385.155,-5991.525,2518.47
1764764215.056996,523.665,-789.615,-28086.165,-5815.71,-19519.965,-27385.875,-5992.56,2518.245
1764764215.056996,526.41,-787.365,-28084.005,-5813.955,-19518.795,-27383.715,-5991.165,2520.81
1764764215.056996,524.115,-789.66,-28086.75,-5816.745,-19522.89,-27386.82,-5992.92,2519.235
1764764215.056996,526.185,-787.3199999999999,-28085.58,-5814.764999999999,-19521.045,-27385.695,-5991.255,2521.17
1764764215.056996,523.4399999999999,-790.11,-28087.47,-5816.835,-19522.665,-27388.035,-5992.83,2518.695
1764764215.056996,525.87,-788.4449999999999,-28085.22,-5815.26,-19521.27,-27385.515,-5992.02,2520.72
1764764215.056996,525.285,-789.3,-28085.94,-5816.61,-19522.575,-27386.325,-5992.065,2519.865
1764764215.1031425,528.7049999999999,-785.115,-28082.655,-5812.92,-19519.065,-27383.265,-5989.41,2523.51
1764764215.1031425,525.015,-787.635,-28085.805,-5815.349999999999,-19521.765,-27385.56,-5991.48,2520.135
1764764215.1031425,528.7049999999999,-783.54,-28081.395,-5810.94,-19516.815,-27381.015,-5988.465,2523.24
1764764215.1031425,527.49,-785.0699999999999,-28081.98,-5810.94,-19516.995,-27380.79,-5988.465,2522.295
1764764215.1031425,530.1899999999999,-782.37,-28079.055,-5808.15,-19513.665,-27377.235,-5985.315,2525.085
1764764215.1031425,528.7049999999999,-784.2149999999999,-28080.09,-5808.599999999999,-19514.34,-27378.18,-5984.91,2523.96
1764764215.1031425,529.605,-783.9449999999999,-28079.28,-5807.205,-19513.35,-27376.83,-5984.145,2524.5
1764764215.1031425,532.215,-781.47,-28076.58,-5804.325,-19510.38,-27374.4,-5982.974999999999,2526.795
1764764215.1031425,531.765,-781.74,-28076.67,-5804.685,-19510.65,-27375.345,-5982.525,2526.255
1764764215.1031425,530.505,-782.37,-28078.2,-5805.9,-19511.955,-27376.335,-5982.389999999999,2524.635
1764764215.1031425,533.025,-780.48,-28075.725,-5803.335,-19508.895,-27372.87,-5980.545,2527.56
1764764215.1031425,530.235,-783.675,-28078.965,-5807.295,-19512.18,-27376.515,-5982.929999999999,2523.96
1764764215.1046658,533.34,-780.165,-28076.67,-5804.099999999999,-19509.3,-27373.23,-5981.58,2527.065
1764764215.1046658,531.405,-780.975,-28077.84,-5805.405,-19510.47,-27374.355,-5982.66,2525.355
1764764215.1046658,528.345,-784.89,-28080.495,-5809.139999999999,-19513.98,-27377.685,-5984.865,2522.115
1764764215.1046658,528.5699999999999,-784.5749999999999,-28080.855,-5809.815,-19515.735,-27377.82,-5985.179999999999,2522.43
1764764215.1046658,529.47,-783.54,-28080.225,-5809.724999999999,-19515.96,-27378.585,-5985.09,2523.6
1764764215.1046658,530.865,-781.605,-28078.065,-5808.014999999999,-19513.215,-27375.84,-5984.099999999999,2526.12
1764764215.1046658,530.865,-781.515,-28077.705,-5807.07,-19512.225,-27375.615,-5983.38,2525.985
1764764215.1046658,530.685,-781.9649999999999,-28078.38,-5808.014999999999,-19513.305,-27376.245,-5983.74,2525.13
1764764215.1046658,529.65,-783.495,-28080.405,-5809.995,-19515.33,-27378.72,-5984.685,2524.455
1764764215.1046658,527.895,-785.475,-28082.385,-5812.2,-19516.995,-27381.87,-5986.17,2522.88
1764764215.1474814,525.87,-787.635,-28084.995,-5814.63,-19519.515,-27383.715,-5987.61,2520.945
1764764215.1474814,527.895,-785.0699999999999,-28083.42,-5813.46,-19518.03,-27381.645,-5986.844999999999,2523.555
1764764215.1474814,526.3199999999999,-785.97,-28085.265,-5815.304999999999,-19520.145,-27383.445,-5987.565,2521.44
1764764215.1474814,529.29,-783.3149999999999,-28082.295,-5812.02,-19517.445,-27380.475,-5984.865,2523.735
1764764215.148494,533.16,-780.12,-28078.245,-5808.69,-19513.53,-27376.875,-5982.344999999999,2528.37
1764764215.148494,531.405,-782.1899999999999,-28080.18,-5811.03,-19515.105,-27378.405,-5982.84,2527.47
1764764215.148494,534.915,-779.355,-28076.85,-5807.745,-19512.18,-27375.435,-5980.95,2529.72
1764764215.148494,534.87,-778.545,-28076.67,-5806.755,-19510.785,-27374.58,-5979.78,2529.27
1764764215.148494,533.655,-778.635,-28075.995,-5805.27,-19508.94,-27373.14,-5978.79,2529.36
1764764215.148494,530.46,-781.92,-28077.435,-5806.125,-19509.165,-27373.545,-5980.995,2526.57
1764764215.148494,528.75,-782.865,-28079.28,-5806.71,-19510.155,-27374.31,-5981.625,2524.68
1764764215.148494,527.535,-784.35,-28080.945,-5808.33,-19511.28,-27376.47,-5981.94,2523.735
1764764215.148494,525.87,-786.15,-28083.105,-5811.885,-19515.42,-27379.395,-5983.83,2521.935
1764764215.148494,521.505,-790.65,-28089.045,-5817.69,-19521.9,-27385.245,-5988.33,2517.12
1764764215.148494,522.63,-789.255,-28088.28,-5816.34,-19521.405,-27384.255,-5988.014999999999,2518.02
1764764215.148494,525.915,-785.0699999999999,-28084.545,-5813.28,-19518.885,-27381.96,-5986.62,2522.115
1764764215.148494,525.285,-786.015,-28085.58,-5815.26,-19520.46,-27384.12,-5986.62,2521.89
1764764215.148494,523.485,-787.41,-28085.67,-5815.395,-19519.92,-27383.94,-5986.44,2520.045
1764764215.148494,527.715,-782.775,-28081.53,-5810.355,-19513.845,-27378.63,-5982.84,2523.87
1764764215.148494,524.97,-785.385,-28083.825,-5812.29,-19514.925,-27380.475,-5984.594999999999,2521.755
1764764215.148494,526.3199999999999,-784.4399999999999,-28081.98,-5809.545,-19511.955,-27377.055,-5983.065,2523.78
1764764215.148494,523.62,-786.78,-28084.455,-5811.885,-19513.98,-27379.08,-5984.37,2521.53
1764764215.1954567,526.86,-783.9,-28081.575,-5809.77,-19512.0,-27376.785,-5982.57,2524.68
1764764215.1954567,526.905,-784.4399999999999,-28082.205,-5810.58,-19514.205,-27377.91,-5982.795,2524.005
1764764215.1954567,524.835,-786.015,-28084.14,-5813.28,-19517.625,-27380.7,-5984.505,2522.07
1764764215.1954567,521.73,-789.345,-28087.74,-5816.25,-19521.09,-27383.895,-5987.25,2518.83
1764764215.1954567,525.87,-785.61,-28084.23,-5813.145,-19518.345,-27381.015,-5984.19,2523.465
1764764215.1954567,525.51,-786.105,-28084.32,-5813.955,-19519.245,-27381.96,-5984.955,2523.105
1764764215.1954567,523.935,-787.365,-28085.67,-5815.395,-19520.415,-27384.03,-5986.215,2521.98
1764764215.1954567,519.975,-791.415,-28089.63,-5819.13,-19524.465,-27388.17,-5989.5,2517.435
1764764215.1954567,521.685,-789.525,-28087.56,-5816.61,-19521.27,-27385.515,-5987.565,2519.55
1764764215.1954567,518.85,-791.415,-28090.53,-5819.715,-19523.7,-27387.855,-5989.455,2516.535
1764764215.1954567,520.8299999999999,-789.39,-28088.955,-5817.51,-19522.17,-27385.695,-5989.139999999999,2518.2
1764764215.1966913,519.0749999999999,-791.505,-28090.395,-5818.635,-19523.61,-27387.225,-5989.86,2516.625
1764764215.1966913,521.55,-789.39,-28088.595,-5816.7,-19521.63,-27385.695,-5988.554999999999,2518.335
1764764215.1966913,518.85,-791.9549999999999,-28091.43,-5819.535,-19524.78,-27388.8,-5990.355,2515.68
1764764215.1966913,519.66,-791.28,-28090.215,-5818.77,-19525.275,-27388.035,-5989.905,2516.805
1764764215.1966913,524.34,-786.555,-28085.67,-5813.91,-19520.145,-27383.22,-5985.63,2522.34
1764764215.1966913,526.4549999999999,-783.63,-28082.34,-5810.264999999999,-19516.23,-27380.43,-5982.03,2524.32
1764764215.1966913,525.96,-784.35,-28081.98,-5810.4,-19516.095,-27380.835,-5982.929999999999,2523.645
1764764215.1977222,524.745,-786.24,-28082.88,-5811.3,-19517.13,-27381.465,-5983.83,2522.205
1764764215.1977222,522.135,-789.03,-28086.255,-5814.719999999999,-19519.65,-27383.895,-5985.224999999999,2519.19
1764764215.1977222,522.855,-788.49,-28086.39,-5814.495,-19520.505,-27383.445,-5985.179999999999,2520.135
1764764215.1977222,524.52,-786.735,-28085.58,-5814.09,-19521.36,-27384.84,-5985.09,2521.08
1764764215.1977222,521.01,-789.39,-28088.775,-5818.23,-19524.375,-27388.26,-5987.07,2517.345
1764764215.1977222,521.685,-788.7149999999999,-28088.46,-5817.42,-19523.43,-27387.405,-5987.79,2518.83
1764764215.1977222,518.76,-790.74,-28091.385,-5819.31,-19526.355,-27390.015,-5989.139999999999,2515.995
1764764215.1977222,521.8199999999999,-787.545,-28087.875,-5815.889999999999,-19522.935,-27386.19,-5986.755,2519.28
1764764215.2443745,524.2049999999999,-785.745,-28085.94,-5814.585,-19521.72,-27383.985,-5984.73,2521.125
1764764215.2448792,523.62,-786.645,-28086.39,-5815.62,-19522.53,-27384.975,-5985.36,2520.585
1764764215.2448792,520.425,-789.93,-28089.855,-5819.13,-19525.59,-27388.98,-5987.52,2516.985
1764764215.2448792,521.145,-788.49,-28088.82,-5817.285,-19523.61,-27386.865,-5986.575,2519.235
1764764215.2448792,522.99,-787.14,-28086.84,-5815.755,-19522.08,-27385.065,-5985.27,2520.72
1764764215.2448792,523.89,-786.4649999999999,-28084.995,-5813.865,-19520.82,-27383.22,-5983.965,2521.395
1764764215.2448792,526.23,-784.2149999999999,-28083.33,-5811.795,-19517.805,-27380.925,-5981.849999999999,2523.645
1764764215.2448792,522.54,-787.635,-28086.84,-5814.855,-19520.91,-27384.705,-5984.19,2520.135
1764764215.2448792,521.8199999999999,-788.535,-28087.83,-5815.44,-19521.855,-27385.155,-5984.865,2519.37
1764764215.2448792,524.25,-787.23,-28086.48,-5814.45,-19520.865,-27384.03,-5983.65,2520.99
1764764215.2448792,527.22,-784.62,-28083.24,-5811.66,-19518.255,-27381.24,-5981.49,2524.275
1764764215.2448792,524.295,-786.42,-28085.805,-5814.36,-19520.595,-27383.85,-5983.29,2521.845
1764764215.2448792,520.605,-789.975,-28089.54,-5818.455,-19525.05,-27387.315,-5986.349999999999,2517.57
1764764215.2448792,521.685,-789.795,-28090.215,-5817.915,-19524.87,-27387.27,-5986.53,2518.2
1764764215.2448792,524.385,-787.005,-28087.515,-5814.945,-19521.54,-27383.265,-5984.505,2521.17
1764764215.2448792,524.16,-786.15,-28086.93,-5814.54,-19520.82,-27382.905,-5984.82,2521.08
1764764215.2448792,523.5749999999999,-786.51,-28087.155,-5814.9,-19521.18,-27382.995,-5984.37,2520.72
1764764215.2448792,524.52,-785.925,-28086.525,-5814.045,-19520.64,-27382.23,-5983.38,2521.08
1764764215.2448792,523.935,-785.925,-28086.39,-5814.179999999999,-19521.045,-27382.815,-5983.92,2521.845
1764764215.2448792,524.385,-785.925,-28085.49,-5814.495,-19520.505,-27382.77,-5983.92,2522.25
1764764215.2448792,524.5649999999999,-785.745,-28085.445,-5815.665,-19520.64,-27383.13,-5983.29,2522.07
1764764215.2448792,524.0699999999999,-786.6899999999999,-28087.47,-5817.42,-19521.945,-27384.435,-5984.37,2520.315
1764764215.2877562,522.135,-788.805,-28089.72,-5818.815,-19523.34,-27385.965,-5984.639999999999,2518.695
1764764215.2877562,517.68,-793.125,-28093.905,-5822.73,-19527.3,-27389.34,-5987.745,2514.555
1764764215.2877562,517.86,-792.9449999999999,-28093.68,-5823.179999999999,-19528.155,-27389.655,-5988.375,2514.555
1764764215.2877562,517.725,-793.35,-28093.905,-5823.224999999999,-19528.335,-27390.06,-5988.96,2513.835
1764764215.2877562,517.545,-793.395,-28095.075,-5823.09,-19528.155,-27389.745,-5989.05,2513.79
1764764215.2877562,517.8149999999999,-793.4399999999999,-28095.03,-5822.325,-19528.2,-27389.565,-5989.545,2513.97
1764764215.2877562,521.685,-789.255,-28091.43,-5818.59,-19524.06,-27385.83,-5986.844999999999,2517.705
1764764215.2877562,521.415,-788.7149999999999,-28090.845,-5818.365,-19524.015,-27385.83,-5987.115,2518.56
1764764215.2882674,522.63,-787.68,-28090.08,-5817.465,-19523.97,-27385.515,-5985.675,2518.785
1764764215.2882674,522.54,-788.04,-28090.98,-5818.86,-19525.545,-27387.225,-5985.81,2518.245
1764764215.2882674,519.93,-790.02,-28093.32,-5821.83,-19529.145,-27390.06,-5987.52,2516.175
1764764215.2882674,520.605,-789.345,-28091.34,-5819.94,-19527.705,-27388.215,-5985.945,2517.255
1764764215.2882674,520.8299999999999,-788.7149999999999,-28090.89,-5818.995,-19526.355,-27386.955,-5984.955,2517.885
1764764215.2882674,521.55,-787.68,-28090.44,-5818.005,-19525.005,-27385.695,-5983.605,2518.785
1764764215.2882674,523.26,-786.1949999999999,-28088.775,-5816.52,-19522.215,-27383.175,-5981.13,2520.63
1764764215.2882674,526.545,-783.54,-28085.625,-5812.875,-19518.75,-27379.71,-5978.205,2523.87
1764764215.2882674,529.47,-780.7049999999999,-28083.015,-5810.445,-19516.365,-27377.055,-5977.215,2526.39
1764764215.2882674,531.045,-779.0849999999999,-28082.205,-5809.455,-19516.14,-27376.83,-5975.594999999999,2528.145
1764764215.2882674,530.37,-778.995,-28083.195,-5810.31,-19517.805,-27379.305,-5975.82,2528.01
1764764215.2882674,528.255,-781.0649999999999,-28085.58,-5813.19,-19520.46,-27382.86,-5977.8,2525.49
1764764215.2882674,531.405,-778.365,-28081.53,-5809.77,-19516.905,-27378.855,-5975.639999999999,2529.27
1764764215.2882674,528.75,-780.48,-28083.645,-5811.389999999999,-19518.885,-27380.79,-5977.485,2527.29
1764764215.2882674,528.03,-780.975,-28083.915,-5812.245,-19519.245,-27380.88,-5978.295,2526.435
1764764215.2882674,525.87,-781.6949999999999,-28085.85,-5813.955,-19520.37,-27381.69,-5979.014999999999,2524.995
1764764215.334442,522.36,-785.16,-28089.675,-5817.51,-19525.14,-27385.695,-5982.344999999999,2520.495
1764764215.334442,523.215,-784.62,-28088.505,-5816.745,-19524.6,-27385.38,-5981.804999999999,2521.17
1764764215.334442,524.88,-783.765,-28086.66,-5815.17,-19522.98,-27383.04,-5979.87,2522.745
1764764215.334442,527.535,-780.5699999999999,-28084.14,-5812.065,-19519.875,-27379.98,-5977.755,2525.085
1764764215.334442,526.725,-780.8399999999999,-28085.22,-5813.235,-19520.19,-27381.555,-5978.34,2524.815
1764764215.3349562,521.73,-786.4649999999999,-28090.17,-5818.23,-19525.095,-27386.91,-5982.255,2519.685
1764764215.3349562,522.045,-787.005,-28090.035,-5818.365,-19524.96,-27387.09,-5982.84,2519.685
1764764215.3349562,522.045,-786.375,-28089.225,-5818.455,-19525.545,-27386.28,-5982.615,2520.135
1764764215.3349562,522.9449999999999,-785.61,-28087.875,-5816.565,-19524.15,-27383.67,-5980.995,2521.305
1764764215.3349562,524.835,-784.17,-28086.345,-5814.54,-19521.585,-27382.005,-5978.52,2523.555
1764764215.3349562,525.105,-784.4399999999999,-28086.84,-5814.179999999999,-19520.865,-27382.5,-5977.889999999999,2523.42
1764764215.3349562,526.41,-783.045,-28086.03,-5813.19,-19520.955,-27381.42,-5977.08,2525.445
1764764215.3349562,528.255,-781.155,-28083.78,-5812.155,-19520.055,-27380.565,-5976.719999999999,2528.01
1764764215.3349562,526.14,-783.4499999999999,-28086.12,-5814.764999999999,-19522.17,-27383.445,-5978.205,2525.76
1764764215.3349562,529.785,-780.12,-28082.205,-5810.715,-19517.58,-27378.81,-5975.91,2529.135
1764764215.3349562,527.175,-782.1899999999999,-28084.275,-5813.865,-19520.55,-27381.42,-5977.889999999999,2526.525
1764764215.3349562,522.045,-786.285,-28089.18,-5818.41,-19525.545,-27385.65,-5980.995,2521.755
1764764215.3349562,520.47,-787.77,-28091.43,-5819.804999999999,-19527.12,-27387.495,-5983.469999999999,2519.73
1764764215.3349562,521.91,-786.78,-28089.765,-5818.59,-19525.365,-27386.73,-5982.48,2520.63
1764764215.3349562,525.645,-782.73,-28085.625,-5814.63,-19521.27,-27381.555,-5979.465,2524.815
1764764215.3349562,524.655,-783.4499999999999,-28086.66,-5814.99,-19521.54,-27382.635,-5979.375,2523.915
1764764215.3349562,520.02,-787.635,-28091.34,-5819.085,-19525.635,-27387.18,-5982.705,2519.055
1764764215.3349562,519.435,-788.04,-28091.97,-5819.264999999999,-19525.905,-27387.945,-5983.605,2518.515
1764764215.3349562,522.36,-786.105,-28089.315,-5815.17,-19522.08,-27384.39,-5981.13,2520.945
1764764215.3824542,526.41,-782.1,-28085.04,-5811.344999999999,-19518.435,-27381.105,-5977.349999999999,2524.77
1764764215.3824542,522.045,-786.78,-28090.125,-5816.61,-19523.61,-27385.965,-5980.95,2520.135
1764764215.3824542,524.16,-786.015,-28088.64,-5815.889999999999,-19522.62,-27384.84,-5981.264999999999,2521.665
1764764215.3824542,520.8299999999999,-789.345,-28093.32,-5820.48,-19528.02,-27388.89,-5984.46,2518.38
1764764215.3824542,519.435,-790.1999999999999,-28095.12,-5822.235,-19530.495,-27391.32,-5985.36,2517.3
1764764215.3824542,520.92,-787.8149999999999,-28092.555,-5820.615,-19528.74,-27390.33,-5984.82,2518.515
1764764215.3824542,519.345,-789.7049999999999,-28093.635,-5821.92,-19529.145,-27390.33,-5985.81,2517.12
1764764215.3824542,517.005,-792.045,-28096.695,-5824.349999999999,-19531.62,-27392.445,-5987.115,2514.105
1764764215.3824542,519.795,-788.805,-28094.445,-5821.695,-19528.515,-27389.205,-5985.045,2517.12
1764764215.3824542,521.1,-787.41,-28093.095,-5819.49,-19527.165,-27387.9,-5982.255,2518.785
1764764215.3824542,524.0699999999999,-784.665,-28089.495,-5815.755,-19523.745,-27384.435,-5979.285,2522.295
1764764215.3824542,519.165,-788.7149999999999,-28093.545,-5820.57,-19528.83,-27388.575,-5982.84,2518.02
1764764215.3824542,520.65,-786.6,-28092.42,-5818.455,-19526.94,-27386.685,-5982.03,2519.685
1764764215.3824542,523.845,-784.0799999999999,-28089.54,-5815.53,-19523.43,-27384.3,-5980.23,2522.07
1764764215.3824542,520.8299999999999,-787.05,-28091.925,-5818.59,-19526.58,-27387.405,-5982.12,2518.92
1764764215.3824542,523.26,-784.845,-28089.315,-5816.205,-19523.565,-27384.03,-5980.77,2521.26
1764764215.3824542,523.935,-784.53,-28089.405,-5815.62,-19522.89,-27383.265,-5980.455,2521.575
1764764215.3824542,522.495,-785.5649999999999,-28090.89,-5817.825,-19525.455,-27385.38,-5980.995,2521.215
1764764215.3824542,519.7049999999999,-788.5799999999999,-28094.175,-5821.514999999999,-19529.37,-27390.33,-5983.469999999999,2518.605
1764764215.3824542,521.685,-786.3299999999999,-28091.97,-5819.04,-19526.805,-27388.17,-5981.58,2520.855
1764764215.3824542,525.51,-782.595,-28088.37,-5815.26,-19522.935,-27383.94,-5978.925,2524.365
1764764215.3824542,519.345,-789.0749999999999,-28094.67,-5821.065,-19528.605,-27390.195,-5984.099999999999,2517.39
1764764215.429742,518.985,-788.22,-28094.445,-5820.389999999999,-19527.885,-27390.285,-5983.695,2517.75
1764764215.429742,523.4399999999999,-784.305,-28089.945,-5817.24,-19524.195,-27385.605,-5980.365,2522.295
1764764215.429742,523.0799999999999,-784.62,-28090.665,-5817.87,-19525.005,-27386.19,-5980.995,2521.665
1764764215.429742,519.7049999999999,-787.995,-28093.77,-5820.974999999999,-19528.56,-27389.565,-5982.48,2518.245
1764764215.429742,519.435,-788.04,-28093.545,-5820.615,-19528.38,-27389.385,-5981.94,2518.245
1764764215.429742,519.93,-787.23,-28093.14,-5820.03,-19527.165,-27388.89,-5981.715,2518.47
1764764215.429742,520.92,-786.645,-28092.465,-5819.58,-19527.345,-27388.98,-5981.13,2519.595
1764764215.429742,525.3299999999999,-782.055,-28088.55,-5814.405,-19522.845,-27384.165,-5978.429999999999,2524.77
1764764215.429742,524.52,-782.775,-28088.64,-5815.035,-19522.845,-27384.21,-5978.52,2524.5
1764764215.429742,522.045,-785.97,-28090.44,-5817.915,-19525.05,-27386.595,-5979.735,2521.71
1764764215.429742,521.055,-786.87,-28090.89,-5818.724999999999,-19526.13,-27387.72,-5980.094999999999,2521.26
1764764215.429742,521.01,-787.545,-28091.52,-5818.545,-19526.04,-27387.585,-5980.05,2520.63
1764764215.429742,520.875,-787.095,-28091.34,-5817.599999999999,-19525.59,-27386.73,-5979.51,2520.855
1764764215.429742,518.76,-788.895,-28094.13,-5819.985,-19528.11,-27388.935,-5981.849999999999,2518.65
1764764215.429742,516.51,-790.785,-28095.705,-5822.82,-19531.26,-27392.265,-5983.605,2516.04
1764764215.429742,519.795,-787.8149999999999,-28092.33,-5819.175,-19527.705,-27389.52,-5981.535,2518.695
1764764215.429742,521.1899999999999,-786.555,-28091.07,-5817.825,-19526.445,-27387.72,-5980.23,2520.63
1764764215.429742,520.92,-786.6899999999999,-28091.97,-5818.995,-19527.03,-27388.305,-5979.42,2520.675
1764764215.429742,524.0699999999999,-783.54,-28087.83,-5814.63,-19522.89,-27385.11,-5976.99,2523.06
1764764215.429742,520.875,-786.78,-28090.62,-5817.69,-19526.895,-27387.765,-5979.24,2520.0
1764764215.429742,525.06,-782.415,-28087.65,-5815.935,-19525.455,-27385.065,-5977.304999999999,2524.68
1764764215.429742,527.13,-780.12,-28086.12,-5814.315,-19523.475,-27383.895,-5976.315,2526.255
1764764215.477112,526.905,-780.03,-28086.615,-5813.594999999999,-19521.495,-27382.05,-5975.099999999999,2525.85
1764764215.477112,524.0699999999999,-782.91,-28089.54,-5815.44,-19523.925,-27384.03,-5976.27,2523.015
1764764215.477112,525.87,-781.47,-28087.245,-5813.37,-19522.125,-27382.05,-5974.56,2525.445
1764764215.477112,523.845,-784.2149999999999,-28089.36,-5815.889999999999,-19524.15,-27384.345,-5976.27,2523.285
1764764215.477112,524.115,-783.63,-28089.27,-5815.755,-19524.735,-27384.615,-5976.81,2523.06
1764764215.477112,524.79,-782.775,-28088.415,-5815.035,-19525.05,-27385.29,-5975.505,2523.915
1764764215.477112,527.805,-780.66,-28086.255,-5813.46,-19523.655,-27383.67,-5973.75,2526.255
1764764215.477112,523.26,-784.845,-28090.125,-5817.465,-19527.165,-27386.865,-5976.81,2521.98
1764764215.477112,524.43,-783.045,-28088.01,-5815.575,-19524.69,-27383.805,-5975.639999999999,2524.32
1764764215.477112,526.725,-779.985,-28085.445,-5812.875,-19521.54,-27381.645,-5974.695,2526.48
1764764215.477112,526.86,-780.165,-28085.895,-5813.28,-19521.945,-27381.96,-5974.605,2526.075
1764764215.477112,526.185,-781.47,-28086.48,-5814.09,-19522.89,-27382.545,-5974.92,2525.355
1764764215.477112,522.9449999999999,-783.99,-28089.27,-5815.935,-19525.185,-27384.48,-5975.55,2523.285
1764764215.477112,522.9449999999999,-783.855,-28089.54,-5815.755,-19525.32,-27384.75,-5975.505,2523.285
1764764215.477112,524.43,-782.865,-28088.37,-5814.855,-19524.285,-27383.265,-5974.605,2524.32
1764764215.477112,525.78,-781.155,-28085.805,-5812.695,-19522.17,-27380.79,-5972.804999999999,2526.705
1764764215.477112,527.985,-778.545,-28083.465,-5810.31,-19518.795,-27378.945,-5971.05,2528.955
1764764215.478124,522.4499999999999,-783.405,-28089.63,-5815.755,-19524.51,-27385.38,-5975.054999999999,2523.285
1764764215.478124,521.1899999999999,-784.845,-28090.845,-5816.52,-19525.32,-27386.1,-5975.55,2522.61
1764764215.478124,521.91,-784.26,-28090.44,-5815.889999999999,-19524.825,-27384.255,-5974.74,2522.565
1764764215.478124,524.2049999999999,-782.01,-28088.055,-5813.955,-19522.53,-27382.275,-5973.48,2524.185
1764764215.478124,521.505,-784.98,-28090.845,-5816.565,-19525.365,-27384.84,-5975.865,2520.63
1764764215.478124,521.28,-784.935,-28092.375,-5816.88,-19525.32,-27384.705,-5977.44,2520.225
1764764215.478124,523.755,-782.4599999999999,-28089.63,-5814.855,-19522.53,-27381.78,-5975.865,2523.33
1764764215.5235124,522.495,-784.0799999999999,-28090.89,-5816.969999999999,-19525.005,-27383.85,-5975.955,2523.06
1764764215.5235124,524.745,-780.795,-28089.0,-5814.54,-19523.34,-27381.915,-5973.615,2525.445
1764764215.5235124,522.405,-782.64,-28091.295,-5815.98,-19524.87,-27383.445,-5974.245,2523.735
1764764215.5235124,517.545,-788.9399999999999,-28097.28,-5821.155,-19529.415,-27388.125,-5978.745,2518.11
1764764215.5235124,519.12,-788.0849999999999,-28095.795,-5820.48,-19528.515,-27388.17,-5978.79,2519.19
1764764215.5235124,522.9,-783.72,-28091.205,-5815.755,-19524.555,-27384.795,-5976.45,2522.97
1764764215.5240228,523.485,-783.0899999999999,-28090.755,-5814.63,-19523.295,-27383.13,-5975.415,2523.195
1764764215.5240228,521.505,-784.665,-28092.285,-5816.07,-19523.97,-27383.715,-5976.405,2521.8
1764764215.5240228,519.0749999999999,-787.5899999999999,-28094.355,-5818.05,-19527.12,-27385.92,-5977.304999999999,2519.73
1764764215.5240228,522.27,-785.2049999999999,-28091.52,-5816.565,-19526.715,-27385.29,-5976.09,2522.43
1764764215.5240228,522.36,-784.89,-28091.61,-5816.835,-19526.58,-27386.19,-5976.495,2521.8
1764764215.5240228,523.53,-783.495,-28090.89,-5816.25,-19526.4,-27386.415,-5975.415,2523.015
1764764215.5240228,522.135,-784.125,-28092.105,-5817.645,-19527.525,-27387.135,-5976.315,2522.16
1764764215.5240228,518.76,-787.995,-28095.75,-5820.929999999999,-19529.865,-27389.295,-5979.87,2519.145
1764764215.5240228,522.81,-784.0799999999999,-28091.7,-5816.25,-19525.635,-27385.155,-5976.54,2522.79
1764764215.5240228,522.36,-784.4399999999999,-28091.79,-5816.565,-19525.95,-27385.695,-5975.19,2521.98
1764764215.5240228,524.88,-782.28,-28089.09,-5813.685,-19522.89,-27382.905,-5973.344999999999,2525.265
1764764215.5240228,522.63,-783.81,-28091.34,-5815.17,-19524.645,-27384.975,-5974.605,2523.96
1764764215.5240228,519.93,-786.105,-28094.58,-5818.365,-19528.38,-27389.07,-5976.81,2520.99
1764764215.5240228,523.035,-781.785,-28090.98,-5814.675,-19524.33,-27384.84,-5974.695,2523.735
1764764215.5240228,522.9,-781.92,-28090.53,-5814.81,-19523.655,-27385.29,-5973.84,2524.095
1764764215.5240228,522.405,-784.305,-28092.33,-5816.655,-19524.915,-27387.225,-5974.605,2523.06
1764764215.5240228,525.78,-780.885,-28087.92,-5812.335,-19520.64,-27382.455,-5971.5,2527.2
1764764215.5240228,521.775,-783.3149999999999,-28092.105,-5815.844999999999,-19524.285,-27385.605,-5974.56,2523.96
1764764215.5693636,520.515,-784.5749999999999,-28092.6,-5817.014999999999,-19526.13,-27387.045,-5975.865,2522.745
1764764215.5693636,520.785,-784.665,-28092.78,-5817.96,-19526.805,-27387.99,-5976.81,2522.115
1764764215.5693636,517.8149999999999,-787.275,-28096.02,-5820.66,-19530.045,-27391.365,-5978.79,2519.505
1764764215.5693636,517.725,-787.545,-28095.57,-5820.57,-19529.37,-27391.005,-5978.295,2519.91
1764764215.5693636,518.85,-786.42,-28095.39,-5819.715,-19528.38,-27389.61,-5977.935,2520.585
1764764215.5693636,521.415,-784.4399999999999,-28093.5,-5817.33,-19527.03,-27387.54,-5977.035,2523.195
1764764215.5693636,519.165,-786.915,-28095.345,-5820.255,-19529.82,-27390.645,-5978.385,2520.27
1764764215.5693636,521.01,-785.025,-28093.455,-5818.005,-19528.515,-27389.205,-5976.27,2521.845
1764764215.5693636,523.485,-782.73,-28090.755,-5815.8,-19525.68,-27386.235,-5973.48,2525.265
1764764215.5693636,517.86,-787.905,-28095.705,-5821.29,-19530.99,-27391.815,-5977.62,2519.46
1764764215.5698686,517.635,-787.995,-28095.48,-5821.29,-19530.585,-27391.59,-5977.62,2519.595
1764764215.5698686,520.92,-784.845,-28092.015,-5818.59,-19526.715,-27388.395,-5975.145,2522.79
1764764215.5698686,518.31,-786.6899999999999,-28094.49,-5821.02,-19528.335,-27390.24,-5976.54,2520.135
1764764215.5698686,519.0749999999999,-786.015,-28093.59,-5819.535,-19527.3,-27388.395,-5976.09,2520.81
1764764215.5698686,516.51,-788.4,-28096.74,-5821.965,-19530.405,-27391.32,-5978.34,2517.93
1764764215.5698686,520.47,-784.2149999999999,-28092.465,-5818.545,-19526.13,-27386.865,-5975.639999999999,2522.205
1764764215.5698686,519.21,-784.98,-28093.05,-5818.679999999999,-19526.94,-27387.9,-5975.775,2521.35
1764764215.5698686,517.005,-787.995,-28096.515,-5821.965,-19530.63,-27390.78,-5977.215,2518.83
1764764215.5698686,521.235,-784.665,-28093.725,-5819.67,-19528.155,-27388.395,-5975.415,2522.295
1764764215.5698686,520.0649999999999,-785.5649999999999,-28094.805,-5819.849999999999,-19529.505,-27390.015,-5976.315,2520.45
1764764215.5698686,517.86,-786.78,-28096.38,-5821.514999999999,-19530.72,-27391.455,-5977.17,2518.965
1764764215.5698686,519.93,-785.43,-28094.49,-5819.535,-19528.74,-27389.07,-5976.405,2521.62
1764764215.6172166,518.13,-787.05,-28096.425,-5821.38,-19530.81,-27390.96,-5978.115,2519.46
1764764215.6172166,521.37,-783.045,-28092.06,-5818.545,-19527.84,-27387.495,-5976.045,2522.79
1764764215.6172166,521.235,-782.775,-28091.565,-5818.41,-19527.975,-27387.675,-5976.179999999999,2523.555
1764764215.6172166,518.4,-785.16,-28093.545,-5819.67,-19529.64,-27389.475,-5977.575,2520.765
1764764215.6172166,516.06,-788.265,-28096.155,-5821.245,-19531.575,-27391.545,-5978.429999999999,2517.975
1764764215.6172166,517.545,-786.87,-28094.13,-5819.445,-19529.82,-27389.925,-5976.855,2519.28
1764764215.6172166,520.605,-783.99,-28091.7,-5816.88,-19527.39,-27387.045,-5975.28,2522.52
1764764215.6172166,519.165,-784.62,-28092.645,-5818.455,-19529.37,-27388.44,-5975.73,2522.205
1764764215.6172166,518.625,-784.485,-28094.13,-5819.804999999999,-19530.495,-27389.475,-5976.315,2521.08
1764764215.6172166,515.835,-787.8149999999999,-28097.595,-5822.28,-19532.61,-27391.68,-5978.52,2518.29
1764764215.6172166,517.4549999999999,-785.79,-28095.795,-5819.67,-19529.955,-27389.79,-5977.665,2520.72
1764764215.6172166,516.8249999999999,-786.06,-28096.29,-5820.12,-19530.09,-27389.79,-5977.485,2520.36
1764764215.6172166,517.3199999999999,-786.285,-28096.155,-5819.49,-19530.045,-27389.565,-5976.764999999999,2520.18
1764764215.6172166,517.4549999999999,-786.6,-28096.245,-5819.445,-19529.865,-27389.88,-5977.125,2519.55
1764764215.6172166,517.41,-786.3299999999999,-28095.48,-5819.67,-19529.865,-27390.33,-5977.035,2520.0
1764764215.6172166,519.525,-783.9449999999999,-28092.96,-5816.79,-19526.58,-27386.145,-5974.155,2522.07
1764764215.6182132,521.865,-781.155,-28090.215,-5813.82,-19522.8,-27382.545,-5971.679999999999,2524.905
1764764215.6182132,518.5799999999999,-784.89,-28093.545,-5816.7,-19526.04,-27385.2,-5974.065,2521.8
1764764215.6182132,516.015,-788.5799999999999,-28096.425,-5819.175,-19528.38,-27387.27,-5975.685,2518.785
1764764215.6182132,517.41,-786.645,-28094.895,-5817.51,-19526.31,-27385.47,-5975.415,2520.27
1764764215.6182132,515.295,-788.22,-28097.415,-5820.344999999999,-19530.09,-27388.665,-5977.215,2518.605
1764764215.6182132,518.5799999999999,-785.025,-28094.445,-5817.645,-19528.155,-27387.72,-5975.639999999999,2522.07
1764764215.6182132,517.635,-786.3299999999999,-28095.705,-5819.895,-19530.495,-27390.15,-5976.45,2521.08
1764764215.6182132,519.48,-784.5749999999999,-28094.535,-5818.545,-19529.235,-27388.215,-5976.315,2523.555
1764764215.6618686,518.22,-785.8349999999999,-28095.435,-5820.12,-19530.63,-27389.385,-5977.304999999999,2522.205
1764764215.6618686,515.43,-788.22,-28097.82,-5823.27,-19533.69,-27392.85,-5978.7,2519.055
