Timestamp,Channel1,Channel2,Channel3,Channel4,Channel5,Channel6,Channel7,Channel8
1764763433.5645683,-243.45,-1608.255,-26801.505,-7276.455,-18059.265,-25939.35,-5807.295,775.125
1764763433.5645683,-240.39,-1605.5549999999998,-26799.255,-7273.215,-18056.34,-25936.47,-5805.719999999999,777.15
1764763433.5645683,-242.325,-1607.895,-26801.055,-7275.465,-18058.14,-25938.72,-5806.62,775.26
1764763433.5645683,-239.67,-1605.105,-26798.04,-7272.63,-18055.755,-25935.705,-5805.135,778.4549999999999
1764763433.5645683,-241.11,-1606.59,-26799.165,-7273.98,-18056.88,-25936.38,-5805.63,777.375
1764763433.5645683,-245.295,-1610.235,-26802.99,-7277.49,-18060.885,-25939.98,-5808.24,772.875
1764763433.5645683,-246.69,-1610.73,-26803.53,-7278.705,-18061.785,-25941.015,-5809.05,771.66
1764763433.5645683,-245.115,-1609.74,-26801.595,-7277.355,-18060.21,-25939.44,-5808.105,772.875
1764763433.5645683,-239.355,-1604.52,-26796.465,-7271.82,-18054.495,-25933.815,-5804.054999999999,778.185
1764763433.5645683,-239.715,-1604.5649999999998,-26797.14,-7271.684999999999,-18054.54,-25934.13,-5803.605,778.23
1764763433.5645683,-245.745,-1610.145,-26802.765,-7277.715,-18060.3,-25940.205,-5808.24,772.38
1764763433.5645683,-241.965,-1606.59,-26798.76,-7273.8,-18057.015,-25937.055,-5805.719999999999,775.845
1764763433.5645683,-242.505,-1606.6799999999998,-26799.39,-7273.98,-18057.69,-25937.64,-5805.405,776.115
1764763433.5645683,-246.195,-1609.47,-26802.63,-7277.67,-18060.795,-25940.88,-5807.34,772.65
1764763433.5645683,-244.62,-1608.9299999999998,-26801.55,-7275.915,-18059.085,-25939.755,-5806.26,773.145
1764763433.5645683,-242.82,-1607.13,-26799.615,-7273.665,-18056.07,-25937.19,-5804.91,774.765
1764763433.5645683,-246.105,-1609.9199999999998,-26802.045,-7275.96,-18057.33,-25938.63,-5806.08,772.29
1764763433.5645683,-245.88,-1609.74,-26801.415,-7275.014999999999,-18056.07,-25936.875,-5805.54,772.8299999999999
1764763433.5645683,-241.74,-1605.78,-26797.32,-7270.559999999999,-18051.93,-25932.78,-5802.75,777.06
1764763433.5645683,-240.795,-1604.655,-26795.52,-7270.155,-18051.615,-25932.33,-5802.03,777.6899999999999
1764763433.5645683,-242.82,-1606.365,-26797.68,-7272.0,-18054.585,-25935.345,-5805.179999999999,775.305
1764763433.5645683,-243.045,-1606.5449999999998,-26798.265,-7273.035,-18057.06,-25937.145,-5806.62,774.18
1764763433.5645683,-245.07,-1606.905,-26800.02,-7276.365,-18062.28,-25941.15,-5808.375,772.245
1764763433.6131046,-242.865,-1604.5649999999998,-26797.23,-7275.285,-18061.38,-25939.35,-5807.34,774.495
1764763433.6131046,-245.07,-1606.275,-26798.58,-7276.139999999999,-18062.865,-25941.735,-5808.87,772.155
1764763433.6131046,-243.54,-1604.385,-26795.16,-7271.955,-18059.445,-25938.765,-5808.014999999999,773.145
1764763433.6131046,-240.255,-1599.615,-26789.58,-7266.644999999999,-18055.8,-25936.515,-5805.719999999999,774.9
1764763433.6131046,-236.16,-1594.26,-26784.18,-7261.74,-18052.74,-25933.815,-5803.02,777.42
1764763433.6131046,-230.895,-1589.13,-26777.52,-7254.719999999999,-18045.495,-25927.785,-5799.465,782.37
1764763433.6141095,-233.55,-1593.495,-26781.435,-7257.33,-18045.495,-25927.515,-5799.105,781.38
1764763433.6141095,-242.865,-1606.275,-26798.265,-7272.9,-18056.925,-25935.165,-5804.054999999999,775.53
1764763433.6141095,-249.075,-1617.975,-26814.15,-7288.29,-18065.205,-25939.62,-5806.98,772.65
1764763433.6141095,-249.75,-1617.57,-26812.215,-7287.03,-18064.8,-25940.565,-5808.554999999999,771.435
1764763433.6141095,-246.105,-1608.255,-26800.47,-7276.32,-18059.265,-25938.36,-5806.98,772.8299999999999
1764763433.615127,-244.665,-1605.51,-26796.69,-7271.639999999999,-18056.565,-25936.74,-5806.08,772.0649999999999
1764763433.6154432,-244.395,-1607.715,-26798.715,-7272.63,-18055.98,-25932.78,-5804.37,773.8199999999999
1764763433.6154432,-249.12,-1614.645,-26806.275,-7280.594999999999,-18060.66,-25936.11,-5806.125,770.985
1764763433.6154432,-248.085,-1614.465,-26806.995,-7280.19,-18059.67,-25934.895,-5806.44,772.56
1764763433.6154432,-247.455,-1611.63,-26803.08,-7277.894999999999,-18061.335,-25937.64,-5807.655,771.12
1764763433.6154432,-241.29,-1604.475,-26795.61,-7271.28,-18056.52,-25933.005,-5803.514999999999,776.385
1764763433.6154432,-244.44,-1608.615,-26802.945,-7276.05,-18059.085,-25934.805,-5804.325,774.9
1764763433.6154432,-247.905,-1612.53,-26808.615,-7281.675,-18063.36,-25939.44,-5807.07,771.48
1764763433.6154432,-247.32,-1613.5649999999998,-26810.28,-7283.025,-18061.065,-25936.965,-5805.81,772.6949999999999
1764763433.6154432,-248.94,-1615.275,-26811.99,-7284.33,-18061.2,-25936.515,-5805.54,771.75
1764763433.6154432,-248.85,-1614.465,-26809.695,-7283.384999999999,-18063.495,-25939.395,-5806.53,770.355
1764763433.6154432,-244.8,-1609.155,-26803.665,-7279.155,-18061.29,-25936.74,-5804.099999999999,774.54
1764763433.6154432,-245.43,-1609.74,-26803.89,-7279.74,-18063.27,-25938.315,-5804.325,773.4599999999999
1764763433.6579852,-241.38,-1605.4199999999998,-26800.245,-7276.365,-18059.94,-25934.715,-5802.12,777.645
1764763433.6579852,-240.39,-1605.105,-26800.47,-7275.735,-18057.015,-25930.845,-5799.195,779.9399999999999
1764763433.6584918,-240.795,-1605.645,-26800.515,-7275.014999999999,-18056.34,-25930.62,-5798.745,780.03
1764763433.6584918,-243.54,-1607.535,-26802.72,-7277.264999999999,-18059.49,-25933.725,-5801.94,777.24
1764763433.6584918,-243.405,-1606.905,-26801.775,-7277.625,-18060.255,-25934.13,-5802.48,777.285
1764763433.6584918,-243.765,-1607.8049999999998,-26803.53,-7279.514999999999,-18062.955,-25937.28,-5803.065,775.98
1764763433.6584918,-246.465,-1610.55,-26807.04,-7282.844999999999,-18068.175,-25941.915,-5805.09,773.685
1764763433.6584918,-244.8,-1608.885,-26804.745,-7280.505,-18066.105,-25940.565,-5804.865,775.485
1764763433.6584918,-247.32,-1611.0,-26806.905,-7282.08,-18067.365,-25941.87,-5804.955,772.8299999999999
1764763433.6584918,-245.61,-1608.525,-26805.015,-7279.695,-18064.53,-25938.855,-5802.795,775.26
1764763433.6584918,-241.65,-1604.5649999999998,-26800.875,-7275.78,-18059.895,-25934.85,-5800.77,778.545
1764763433.6584918,-240.84,-1604.835,-26800.02,-7274.295,-18058.545,-25934.355,-5799.42,779.355
1764763433.6584918,-240.255,-1604.52,-26799.03,-7272.675,-18058.14,-25933.23,-5798.07,780.345
1764763433.6584918,-243.315,-1607.715,-26803.08,-7276.634999999999,-18061.74,-25936.875,-5800.679999999999,776.16
1764763433.6584918,-242.145,-1607.445,-26802.18,-7276.41,-18060.525,-25936.695,-5800.59,777.06
1764763433.6584918,-239.49,-1605.33,-26799.75,-7274.115,-18058.005,-25933.95,-5799.33,780.2099999999999
1764763433.6584918,-239.58,-1605.51,-26800.425,-7274.519999999999,-18058.635,-25935.39,-5799.554999999999,779.31
1764763433.6584918,-238.77,-1604.385,-26799.165,-7273.17,-18058.545,-25935.48,-5799.69,779.49
1764763433.6584918,-239.715,-1604.835,-26800.02,-7273.62,-18058.995,-25935.525,-5799.554999999999,778.725
1764763433.6584918,-241.605,-1605.915,-26801.64,-7275.509999999999,-18060.48,-25937.37,-5799.915,777.555
1764763433.6584918,-245.295,-1609.245,-26805.06,-7278.615,-18063.045,-25940.34,-5802.48,773.595
1764763433.6584918,-242.955,-1607.13,-26802.72,-7275.87,-18060.615,-25937.865,-5801.085,775.53
1764763433.6584918,-238.32,-1602.135,-26797.905,-7271.28,-18056.34,-25933.815,-5798.025,780.5699999999999
1764763433.6584918,-239.13,-1602.09,-26797.68,-7271.73,-18058.86,-25935.39,-5799.24,779.4
1764763433.7059617,-239.49,-1601.1,-26796.87,-7270.559999999999,-18058.545,-25936.155,-5798.969999999999,779.85
1764763433.7059617,-240.48,-1601.955,-26798.13,-7271.37,-18059.22,-25937.145,-5799.78,779.0849999999999
1764763433.7059617,-244.755,-1606.455,-26802.36,-7275.554999999999,-18062.37,-25940.07,-5802.21,774.72
1764763433.7059617,-249.615,-1611.405,-26807.49,-7279.92,-18065.745,-25944.165,-5804.865,770.985
1764763433.7059617,-245.115,-1606.455,-26802.63,-7274.34,-18061.065,-25940.565,-5802.075,775.305
1764763433.7059617,-247.185,-1608.39,-26804.655,-7277.445,-18065.25,-25944.075,-5803.695,771.255
1764763433.7059617,-248.04,-1610.235,-26807.715,-7280.865,-18068.58,-25946.685,-5805.0,771.12
1764763433.7059617,-246.69,-1610.91,-26809.38,-7282.035,-18070.155,-25945.695,-5804.145,773.1
1764763433.7059617,-244.035,-1607.715,-26805.555,-7278.389999999999,-18066.555,-25942.59,-5803.065,776.16
1764763433.7059617,-245.34,-1609.245,-26806.14,-7279.019999999999,-18066.87,-25944.03,-5804.639999999999,774.9449999999999
1764763433.7059617,-247.77,-1612.1699999999998,-26809.515,-7282.17,-18068.94,-25944.525,-5804.73,773.1
1764763433.7059617,-249.345,-1614.4199999999998,-26812.485,-7285.005,-18071.505,-25947.27,-5806.035,770.985
1764763433.7059617,-245.79,-1610.28,-26807.715,-7280.099999999999,-18067.59,-25944.345,-5804.28,773.145
1764763433.7059617,-247.275,-1611.09,-26807.58,-7279.875,-18068.715,-25946.01,-5805.405,770.76
1764763433.7059617,-245.295,-1607.715,-26801.64,-7275.15,-18065.52,-25943.895,-5804.37,772.6949999999999
1764763433.7059617,-240.795,-1600.965,-26794.845,-7267.455,-18059.715,-25939.26,-5801.895,776.25
1764763433.7059617,-243.585,-1603.665,-26797.635,-7270.245,-18061.83,-25941.015,-5801.715,773.8199999999999
1764763433.7059617,-243.855,-1607.31,-26803.395,-7274.025,-18060.615,-25938.18,-5800.545,775.935
1764763433.7059617,-246.015,-1611.945,-26810.055,-7281.134999999999,-18064.17,-25940.295,-5801.76,774.81
1764763433.7059617,-250.515,-1617.165,-26814.555,-7287.48,-18071.595,-25946.82,-5804.505,771.12
1764763433.7059617,-246.96,-1614.33,-26810.73,-7284.554999999999,-18070.11,-25945.38,-5803.155,774.18
1764763433.7059617,-247.545,-1612.665,-26809.695,-7283.295,-18070.02,-25946.28,-5804.145,773.64
1764763433.7059617,-247.95,-1612.62,-26809.605,-7283.205,-18070.875,-25947.405,-5804.865,773.865
1764763433.7059617,-250.92,-1616.04,-26812.44,-7285.455,-18071.865,-25948.35,-5805.945,771.255
1764763433.7523868,-254.385,-1619.1899999999998,-26815.995,-7288.965,-18074.385,-25951.14,-5807.745,766.89
1764763433.7523868,-251.46,-1616.49,-26813.34,-7286.219999999999,-18072.045,-25947.72,-5805.764999999999,769.3199999999999
1764763433.7523868,-246.69,-1612.4399999999998,-26809.56,-7282.349999999999,-18067.365,-25942.995,-5803.514999999999,774.225
1764763433.7523868,-246.105,-1611.495,-26807.85,-7280.009999999999,-18064.89,-25941.24,-5801.94,775.2149999999999
1764763433.7523868,-247.23,-1612.485,-26808.84,-7281.405,-18066.69,-25943.175,-5802.705,773.73
1764763433.7523868,-251.28,-1616.445,-26811.99,-7285.094999999999,-18070.11,-25946.865,-5806.035,770.13
1764763433.7523868,-247.995,-1613.2949999999998,-26808.3,-7280.955,-18066.42,-25943.76,-5804.325,773.055
1764763433.7523868,-248.4,-1612.575,-26807.94,-7281.315,-18066.555,-25943.67,-5804.28,773.37
1764763433.7523868,-250.74,-1613.745,-26810.595,-7284.33,-18069.93,-25946.73,-5804.955,771.795
1764763433.7523868,-248.85,-1610.865,-26806.725,-7280.865,-18066.465,-25944.435,-5803.514999999999,773.8199999999999
1764763433.7523868,-250.83,-1612.8,-26807.805,-7280.73,-18067.23,-25944.75,-5804.46,771.48
1764763433.7523868,-248.22,-1611.27,-26806.32,-7278.66,-18064.8,-25942.5,-5804.054999999999,773.8199999999999
1764763433.7523868,-247.095,-1610.28,-26805.915,-7278.21,-18064.08,-25941.555,-5802.84,774.18
1764763433.7523868,-246.015,-1609.29,-26805.33,-7278.344999999999,-18063.855,-25941.735,-5802.3,775.35
1764763433.7523868,-245.745,-1610.1899999999998,-26806.095,-7279.785,-18065.205,-25942.14,-5801.804999999999,775.395
1764763433.7523868,-247.32,-1611.9,-26808.66,-7282.44,-18068.715,-25945.065,-5803.83,773.64
1764763433.7523868,-249.345,-1613.97,-26811.855,-7285.95,-18072.54,-25948.485,-5805.81,771.0749999999999
1764763433.7523868,-245.205,-1609.56,-26806.455,-7280.28,-18067.455,-25944.57,-5802.165,775.395
1764763433.7523868,-248.355,-1612.665,-26810.415,-7283.79,-18070.065,-25948.08,-5803.92,772.155
1764763433.7523868,-249.93,-1615.005,-26812.665,-7285.679999999999,-18071.415,-25948.845,-5803.38,771.525
1764763433.7523868,-248.58,-1613.025,-26810.055,-7282.755,-18069.345,-25947.09,-5801.715,772.515
1764763433.7523868,-246.915,-1611.225,-26807.715,-7279.965,-18067.005,-25944.3,-5800.724999999999,774.27
1764763433.8000188,-245.655,-1609.515,-26807.31,-7279.514999999999,-18066.51,-25943.085,-5800.455,775.935
1764763433.8000188,-243.675,-1608.03,-26807.31,-7279.605,-18064.62,-25940.115,-5798.835,778.905
1764763433.8000188,-245.475,-1611.0449999999998,-26809.515,-7282.125,-18065.43,-25940.97,-5799.33,777.3299999999999
1764763433.8000188,-250.38,-1615.77,-26813.925,-7286.67,-18070.785,-25945.695,-5803.065,772.47
1764763433.8000188,-244.98,-1609.74,-26808.435,-7281.36,-18066.555,-25942.5,-5800.59,776.6999999999999
1764763433.8000188,-244.755,-1608.66,-26807.355,-7280.28,-18067.005,-25943.49,-5801.31,776.0699999999999
1764763433.8000188,-243.315,-1606.365,-26804.295,-7277.4,-18064.98,-25942.995,-5799.645,776.88
1764763433.8000188,-242.1,-1605.285,-26801.505,-7275.014999999999,-18063.63,-25942.14,-5798.745,777.24
1764763433.8000188,-242.37,-1604.385,-26801.64,-7275.33,-18064.44,-25941.825,-5797.62,778.185
1764763433.8000188,-245.52,-1608.57,-26807.715,-7280.82,-18067.68,-25943.4,-5798.429999999999,776.52
1764763433.8000188,-247.725,-1611.945,-26810.73,-7283.79,-18069.795,-25945.605,-5799.69,774.045
1764763433.8000188,-241.695,-1606.455,-26803.62,-7276.139999999999,-18062.955,-25939.08,-5794.92,780.12
1764763433.8000188,-241.695,-1607.265,-26804.88,-7277.085,-18063.09,-25939.395,-5795.415,780.39
1764763433.8000188,-242.775,-1609.29,-26807.715,-7279.605,-18064.665,-25941.195,-5797.62,778.77
1764763433.8000188,-242.955,-1609.245,-26807.715,-7278.705,-18063.585,-25940.565,-5797.304999999999,778.77
1764763433.8000188,-244.17,-1610.235,-26807.985,-7279.785,-18064.035,-25941.96,-5797.53,778.275
1764763433.8000188,-244.08,-1610.235,-26807.355,-7280.054999999999,-18064.935,-25942.995,-5797.889999999999,777.42
1764763433.8000188,-247.77,-1612.845,-26810.505,-7282.125,-18067.905,-25946.145,-5799.42,775.26
1764763433.8000188,-245.07,-1609.605,-26807.22,-7279.065,-18065.475,-25943.265,-5798.52,777.735
1764763433.8000188,-244.755,-1610.235,-26807.985,-7280.235,-18067.365,-25943.625,-5799.014999999999,777.06
1764763433.8000188,-247.005,-1612.08,-26809.605,-7281.63,-18069.435,-25946.1,-5800.094999999999,774.4499999999999
1764763433.8000188,-242.235,-1606.77,-26804.295,-7277.58,-18065.34,-25942.365,-5797.26,779.13
1764763433.8000188,-241.38,-1606.995,-26807.13,-7281.675,-18067.365,-25943.355,-5796.495,780.03
1764763433.8000188,-245.34,-1611.405,-26810.73,-7285.5,-18070.605,-25945.605,-5799.105,776.43
1764763433.847115,-246.555,-1612.1699999999998,-26810.595,-7285.275,-18071.235,-25947.09,-5800.77,775.665
1764763433.847115,-248.04,-1613.34,-26811.945,-7285.769999999999,-18073.305,-25949.97,-5801.67,774.405
1764763433.8477335,-250.92,-1615.995,-26813.79,-7287.165,-18075.24,-25951.995,-5803.785,771.255
1764763433.8477335,-249.39,-1614.105,-26810.955,-7283.7,-18071.865,-25949.34,-5801.715,772.47
1764763433.8477335,-248.895,-1615.275,-26810.46,-7283.025,-18070.065,-25946.865,-5800.59,772.92
1764763433.8477335,-247.86,-1613.655,-26808.885,-7281.54,-18066.96,-25944.12,-5799.96,774.0899999999999
1764763433.8477335,-248.355,-1612.08,-26807.265,-7279.74,-18066.96,-25944.345,-5800.365,773.9549999999999
1764763433.8477335,-246.825,-1610.37,-26806.725,-7279.514999999999,-18068.67,-25945.02,-5800.094999999999,775.62
1764763433.8477335,-246.015,-1611.27,-26808.165,-7281.809999999999,-18070.65,-25945.965,-5800.23,776.8349999999999
1764763433.8477335,-249.615,-1616.895,-26814.195,-7287.705,-18074.34,-25949.25,-5802.435,773.505
1764763433.8477335,-254.295,-1622.07,-26819.64,-7291.665,-18078.12,-25952.4,-5803.605,769.9499999999999
1764763433.8477335,-253.305,-1620.99,-26818.2,-7291.349999999999,-18078.345,-25953.165,-5803.83,770.355
1764763433.8477335,-249.84,-1616.985,-26814.465,-7287.255,-18075.555,-25951.005,-5802.66,773.91
1764763433.8477335,-251.37,-1617.7949999999998,-26815.23,-7288.29,-18076.815,-25952.085,-5802.84,772.245
1764763433.8477335,-249.03,-1615.95,-26812.35,-7285.275,-18073.62,-25949.835,-5801.58,773.73
1764763433.8477335,-251.145,-1617.66,-26814.33,-7287.21,-18074.565,-25951.41,-5802.57,771.255
1764763433.8477335,-248.625,-1614.33,-26811.225,-7283.88,-18071.82,-25948.08,-5800.679999999999,773.865
1764763433.8477335,-249.84,-1615.365,-26811.9,-7284.465,-18073.395,-25949.88,-5801.219999999999,772.02
1764763433.8477335,-246.555,-1611.135,-26807.445,-7280.37,-18069.48,-25946.64,-5798.925,774.855
1764763433.8477335,-247.635,-1611.54,-26808.255,-7280.955,-18070.74,-25948.665,-5799.915,774.495
1764763433.8477335,-251.415,-1615.14,-26811.9,-7283.88,-18074.475,-25951.59,-5801.445,771.2099999999999
1764763433.8477335,-252.135,-1616.49,-26814.195,-7286.58,-18076.545,-25952.445,-5802.075,772.02
1764763433.8477335,-248.625,-1612.845,-26811.135,-7284.42,-18073.755,-25950.465,-5799.87,775.98
1764763433.8477335,-246.915,-1610.595,-26808.795,-7282.665,-18072.945,-25949.79,-5799.51,775.8
1764763433.8923082,-246.195,-1609.83,-26807.4,-7282.08,-18071.73,-25949.43,-5799.375,776.16
1764763433.8923082,-248.985,-1613.61,-26811.765,-7284.915,-18072.855,-25950.375,-5800.815,773.4599999999999
1764763433.8923082,-251.595,-1616.715,-26815.59,-7287.795,-18074.43,-25950.465,-5802.12,771.885
1764763433.893324,-251.82,-1617.39,-26815.86,-7288.245,-18074.61,-25950.465,-5801.625,772.29
1764763433.893324,-251.595,-1617.84,-26817.075,-7288.29,-18074.07,-25949.97,-5800.41,772.6949999999999
1764763433.893324,-251.64,-1615.995,-26816.49,-7287.389999999999,-18073.89,-25950.825,-5801.264999999999,771.66
1764763433.893324,-251.865,-1614.915,-26813.115,-7285.05,-18072.63,-25951.23,-5801.219999999999,770.49
1764763433.893324,-246.465,-1608.39,-26805.465,-7277.264999999999,-18065.88,-25945.515,-5797.98,774.855
1764763433.893324,-246.375,-1607.76,-26804.7,-7276.139999999999,-18065.43,-25945.56,-5797.62,775.0799999999999
1764763433.893324,-250.47,-1612.665,-26810.64,-7281.54,-18070.02,-25949.115,-5800.139999999999,771.795
1764763433.893324,-250.065,-1615.32,-26814.555,-7285.815,-18071.505,-25947.855,-5800.094999999999,772.92
1764763433.893324,-255.69,-1623.015,-26823.96,-7294.724999999999,-18078.03,-25952.94,-5803.514999999999,768.51
1764763433.893324,-251.415,-1618.38,-26819.235,-7290.0,-18075.645,-25950.555,-5802.344999999999,772.245
1764763433.893324,-248.49,-1613.385,-26814.42,-7285.769999999999,-18074.565,-25949.07,-5801.264999999999,774.225
1764763433.8943205,-247.68,-1611.54,-26811.585,-7282.844999999999,-18073.44,-25948.89,-5800.23,774.72
1764763433.8943205,-251.64,-1614.915,-26814.69,-7285.905,-18076.815,-25952.58,-5802.615,770.355
1764763433.8943205,-250.155,-1614.195,-26814.96,-7285.275,-18075.375,-25950.825,-5801.264999999999,771.75
1764763433.8943205,-255.42,-1620.54,-26821.575,-7291.844999999999,-18080.82,-25956.0,-5803.875,767.5649999999999
1764763433.8943205,-255.24,-1621.4399999999998,-26823.105,-7292.835,-18080.1,-25954.155,-5803.875,769.77
1764763433.8943205,-256.86,-1623.375,-26824.995,-7294.815,-18081.855,-25955.91,-5806.17,767.8349999999999
1764763433.8943205,-253.08,-1620.36,-26821.665,-7292.295,-18078.885,-25953.435,-5804.235,770.13
1764763433.8943205,-254.835,-1622.025,-26822.52,-7293.78,-18080.955,-25956.09,-5805.09,767.43
1764763433.8943205,-250.875,-1617.075,-26817.12,-7288.83,-18076.905,-25952.085,-5802.66,771.12
1764763433.8943205,-248.355,-1614.5549999999998,-26814.015,-7285.769999999999,-18072.855,-25949.07,-5799.42,773.37
1764763433.937538,-247.545,-1613.52,-26813.295,-7284.644999999999,-18071.955,-25947.405,-5798.115,774.36
1764763433.937538,-249.84,-1615.995,-26817.165,-7286.804999999999,-18073.8,-25949.07,-5800.59,772.56
1764763433.937538,-251.82,-1618.155,-26819.28,-7288.065,-18075.33,-25950.42,-5801.219999999999,771.66
1764763433.937538,-251.19,-1618.0649999999998,-26818.065,-7288.695,-18075.6,-25950.915,-5801.58,771.885
1764763433.937538,-252.36,-1618.11,-26817.615,-7288.92,-18075.87,-25951.05,-5802.3,770.22
1764763433.937538,-256.905,-1621.08,-26820.315,-7290.855,-18078.435,-25954.2,-5804.145,765.9449999999999
1764763433.937538,-253.755,-1618.785,-26818.02,-7288.514999999999,-18075.825,-25951.77,-5802.885,768.3299999999999
1764763433.937538,-255.51,-1620.72,-26819.955,-7290.675,-18077.715,-25953.345,-5803.695,766.305
1764763433.937538,-254.295,-1619.73,-26818.875,-7290.045,-18077.715,-25952.445,-5802.929999999999,768.555
1764763433.937538,-254.115,-1619.91,-26819.505,-7291.035,-18079.065,-25954.29,-5802.974999999999,768.3299999999999
1764763433.937538,-249.345,-1615.77,-26813.655,-7285.23,-18074.07,-25949.61,-5799.87,772.245
1764763433.937538,-251.415,-1617.21,-26815.635,-7286.445,-18075.24,-25950.825,-5801.175,771.2099999999999
1764763433.937538,-255.465,-1621.215,-26819.595,-7291.44,-18079.02,-25954.47,-5803.56,768.1949999999999
1764763433.937538,-255.15,-1621.1699999999998,-26820.765,-7292.429999999999,-18080.775,-25955.19,-5804.415,767.655
1764763433.937538,-259.605,-1626.03,-26826.255,-7297.514999999999,-18085.77,-25959.51,-5806.98,763.785
1764763433.937538,-259.47,-1625.76,-26825.4,-7297.2,-18085.77,-25959.645,-5806.844999999999,763.875
1764763433.937538,-257.67,-1622.835,-26823.285,-7295.49,-18085.14,-25959.195,-5806.44,764.775
1764763433.937538,-256.59,-1621.935,-26821.845,-7293.465,-18084.24,-25959.195,-5806.304999999999,765.3149999999999
1764763433.937538,-255.915,-1620.99,-26820.315,-7292.115,-18082.98,-25958.475,-5806.08,765.405
1764763433.937538,-254.16,-1618.38,-26816.085,-7288.2,-18078.615,-25954.605,-5803.605,766.755
1764763433.937538,-253.44,-1616.895,-26813.43,-7287.57,-18076.905,-25953.435,-5803.695,767.88
1764763433.937538,-257.805,-1622.07,-26820.405,-7292.925,-18080.955,-25957.53,-5806.349999999999,764.505
1764763433.9849658,-257.085,-1623.825,-26823.465,-7292.745,-18078.255,-25953.48,-5803.605,766.305
1764763433.9849658,-259.29,-1626.48,-26825.49,-7295.445,-18081.945,-25956.54,-5805.27,763.3349999999999
1764763433.9849658,-257.895,-1623.4199999999998,-26822.16,-7292.745,-18081.495,-25956.72,-5804.91,764.415
1764763433.9849658,-256.77,-1620.81,-26819.145,-7291.665,-18081.0,-25957.035,-5804.37,765.9449999999999
1764763433.9855127,-254.97,-1619.73,-26817.39,-7290.405,-18081.09,-25956.9,-5803.74,766.305
1764763433.9855127,-255.15,-1619.91,-26818.74,-7290.179999999999,-18080.46,-25956.405,-5802.84,766.8
1764763433.9855127,-255.69,-1621.755,-26821.305,-7291.98,-18080.325,-25955.505,-5802.929999999999,767.3399999999999
1764763433.9855127,-252.675,-1619.82,-26819.19,-7290.179999999999,-18077.265,-25951.32,-5799.735,770.985
1764763433.9855127,-252.315,-1618.11,-26817.795,-7288.469999999999,-18075.87,-25951.095,-5798.34,771.2099999999999
1764763433.9855127,-254.79,-1619.55,-26818.56,-7289.865,-18079.11,-25955.01,-5801.31,768.645
1764763433.9855127,-252.27,-1618.155,-26817.705,-7288.425,-18076.32,-25951.455,-5799.599999999999,770.4449999999999
1764763433.9855127,-255.78,-1622.79,-26823.33,-7293.15,-18079.425,-25954.695,-5801.13,766.98
1764763433.9855127,-255.33,-1622.4299999999998,-26824.455,-7293.735,-18080.37,-25955.1,-5801.895,768.06
1764763433.9855127,-251.37,-1618.695,-26820.945,-7289.684999999999,-18076.59,-25950.735,-5799.42,772.605
1764763433.9855127,-252.54,-1620.36,-26821.215,-7290.315,-18077.265,-25950.96,-5798.835,771.66
1764763433.9855127,-255.87,-1623.4199999999998,-26823.645,-7292.969999999999,-18079.74,-25953.615,-5800.41,768.3299999999999
1764763433.9855127,-251.1,-1618.9199999999998,-26820.315,-7289.684999999999,-18076.59,-25950.87,-5798.655,771.885
1764763433.9855127,-249.435,-1615.77,-26817.615,-7287.615,-18074.88,-25949.475,-5797.304999999999,773.1
1764763433.9855127,-248.67,-1615.5,-26816.94,-7287.03,-18075.285,-25948.845,-5796.36,773.235
1764763433.9855127,-250.74,-1617.165,-26819.01,-7289.37,-18077.58,-25952.13,-5799.105,770.76
1764763433.9855127,-253.395,-1619.0549999999998,-26822.07,-7293.105,-18080.685,-25955.1,-5800.905,768.1949999999999
1764763433.9855127,-250.74,-1616.76,-26820.045,-7289.505,-18077.355,-25952.13,-5798.565,770.49
1764763433.9855127,-251.955,-1617.84,-26821.44,-7290.54,-18079.065,-25954.245,-5798.969999999999,769.545
1764763433.9855127,-249.48,-1616.13,-26818.335,-7287.884999999999,-18076.32,-25951.905,-5796.63,772.875
1764763434.0316591,-254.295,-1620.855,-26823.78,-7292.565,-18079.11,-25954.38,-5799.285,769.23
1764763434.0316591,-253.125,-1619.955,-26822.565,-7292.429999999999,-18078.255,-25953.255,-5799.735,769.005
1764763434.0327828,-251.37,-1617.345,-26819.325,-7288.965,-18075.915,-25950.69,-5798.25,771.525
1764763434.0327828,-253.035,-1619.1899999999998,-26820.855,-7289.639999999999,-18077.22,-25951.815,-5798.295,769.68
1764763434.0327828,-249.57,-1616.535,-26817.705,-7287.344999999999,-18074.07,-25948.17,-5794.83,772.92
1764763434.0327828,-251.685,-1618.47,-26821.035,-7290.36,-18077.49,-25950.915,-5797.71,770.895
1764763434.0327828,-252.765,-1619.64,-26821.755,-7292.07,-18079.245,-25953.12,-5798.835,769.545
1764763434.0327828,-255.465,-1622.475,-26823.915,-7294.139999999999,-18081.09,-25955.64,-5799.465,767.295
1764763434.0327828,-254.745,-1621.1699999999998,-26822.52,-7293.24,-18080.28,-25954.695,-5799.105,767.88
1764763434.0327828,-251.82,-1618.02,-26819.91,-7290.9,-18079.245,-25954.74,-5798.115,769.635
1764763434.0327828,-249.165,-1615.5449999999998,-26817.57,-7287.795,-18076.995,-25952.49,-5796.855,771.885
1764763434.0327828,-253.575,-1619.01,-26821.485,-7290.9,-18080.46,-25955.73,-5798.52,767.8349999999999
1764763434.0327828,-253.665,-1618.9199999999998,-26820.9,-7290.855,-18080.595,-25955.82,-5798.295,768.06
1764763434.0327828,-248.85,-1614.195,-26815.005,-7285.275,-18076.41,-25951.815,-5795.505,772.245
1764763434.0327828,-243.27,-1607.265,-26806.365,-7276.634999999999,-18070.515,-25947.27,-5792.445,776.925
1764763434.0327828,-247.635,-1610.955,-26810.01,-7280.684999999999,-18074.88,-25950.78,-5794.38,773.4599999999999
1764763434.0327828,-248.985,-1614.015,-26815.545,-7285.184999999999,-18075.645,-25950.15,-5794.335,773.235
1764763434.0327828,-249.615,-1615.995,-26818.965,-7287.255,-18074.34,-25948.44,-5794.695,773.685
1764763434.0327828,-253.935,-1621.215,-26823.555,-7290.945,-18077.67,-25952.76,-5797.44,769.365
1764763434.0327828,-253.395,-1620.405,-26822.16,-7289.235,-18077.22,-25952.85,-5797.665,768.78
1764763434.0327828,-250.83,-1616.265,-26817.795,-7285.679999999999,-18075.69,-25952.13,-5796.63,770.535
1764763434.0327828,-247.095,-1612.08,-26812.62,-7281.764999999999,-18072.54,-25948.89,-5793.344999999999,774.405
1764763434.0802815,-251.46,-1617.255,-26818.83,-7288.245,-18078.165,-25953.39,-5795.775,771.03
1764763434.0802815,-249.615,-1617.255,-26818.785,-7288.245,-18076.905,-25951.185,-5793.389999999999,772.785
1764763434.0802815,-245.565,-1612.845,-26813.565,-7283.07,-18072.36,-25946.865,-5790.014999999999,776.6999999999999
1764763434.0802815,-249.75,-1616.49,-26816.49,-7285.995,-18076.905,-25951.995,-5794.469999999999,772.155
1764763434.0802815,-247.5,-1613.655,-26813.295,-7282.62,-18074.655,-25949.7,-5794.245,774.18
1764763434.0802815,-249.93,-1616.265,-26816.76,-7285.679999999999,-18077.715,-25951.77,-5795.73,772.3349999999999
1764763434.0802815,-250.695,-1617.7949999999998,-26820.585,-7287.884999999999,-18078.3,-25951.905,-5796.045,772.8299999999999
1764763434.0802815,-253.575,-1619.91,-26823.24,-7290.63,-18080.865,-25955.055,-5797.304999999999,770.22
1764763434.0802815,-250.425,-1616.4,-26818.29,-7286.04,-18076.365,-25950.915,-5794.065,773.1
1764763434.0802815,-251.1,-1616.445,-26817.84,-7286.759999999999,-18076.905,-25951.545,-5795.19,771.66
1764763434.0802815,-251.865,-1617.48,-26819.37,-7288.785,-18079.29,-25953.75,-5796.495,771.3
1764763434.0802815,-251.37,-1617.57,-26819.595,-7289.144999999999,-18079.065,-25952.94,-5795.639999999999,771.7049999999999
1764763434.0802815,-250.605,-1617.075,-26818.875,-7288.425,-18078.48,-25951.815,-5794.875,772.47
1764763434.0802815,-254.925,-1621.755,-26824.275,-7294.139999999999,-18084.24,-25957.08,-5798.025,768.24
1764763434.0802815,-251.28,-1617.21,-26820.045,-7289.099999999999,-18079.56,-25954.245,-5796.224999999999,771.93
1764763434.0802815,-250.2,-1615.41,-26817.255,-7287.03,-18077.49,-25952.625,-5795.145,772.02
1764763434.0802815,-250.155,-1615.05,-26815.86,-7285.094999999999,-18076.725,-25951.815,-5795.415,771.3
1764763434.0802815,-250.965,-1614.465,-26814.645,-7283.655,-18074.88,-25950.96,-5795.145,771.255
1764763434.0802815,-251.91,-1616.355,-26817.12,-7285.815,-18077.94,-25952.4,-5795.37,771.03
1764763434.0802815,-256.23,-1621.665,-26823.735,-7292.79,-18084.105,-25957.305,-5797.844999999999,767.6999999999999
1764763434.0802815,-255.06,-1621.08,-26824.995,-7294.094999999999,-18083.52,-25955.505,-5796.63,770.0849999999999
1764763434.0802815,-253.17,-1620.3149999999998,-26823.465,-7293.15,-18082.53,-25954.155,-5795.594999999999,771.255
1764763434.0802815,-252.225,-1618.65,-26821.125,-7290.99,-18081.63,-25953.12,-5794.83,772.1999999999999
1764763434.0802815,-256.59,-1621.71,-26824.005,-7292.474999999999,-18083.97,-25955.955,-5798.025,768.105
1764763434.0802815,-254.295,-1619.505,-26821.44,-7288.875,-18080.955,-25953.525,-5796.495,769.41
1764763434.0802815,-257.13,-1622.475,-26824.005,-7291.889999999999,-18083.655,-25956.675,-5798.745,766.5749999999999
1764763434.1229496,-253.89,-1619.73,-26820.765,-7289.099999999999,-18081.045,-25953.48,-5796.99,769.9499999999999
1764763434.1229496,-254.52,-1619.955,-26821.575,-7290.585,-18083.79,-25956.045,-5797.665,768.645
1764763434.1229496,-250.245,-1614.96,-26816.58,-7286.58,-18082.125,-25954.785,-5795.505,773.145
1764763434.1229496,-252.225,-1617.345,-26818.02,-7288.29,-18084.51,-25956.54,-5796.405,770.9399999999999
1764763434.1229496,-252.99,-1617.39,-26817.21,-7286.355,-18081.72,-25954.2,-5795.91,770.5799999999999
1764763434.1229496,-248.49,-1612.215,-26811.765,-7281.315,-18075.96,-25948.845,-5792.49,775.53
1764763434.1239686,-247.455,-1612.89,-26813.385,-7282.53,-18075.915,-25948.215,-5791.724999999999,775.935
1764763434.1239686,-251.82,-1617.12,-26818.515,-7287.12,-18080.19,-25952.265,-5795.505,772.1999999999999
1764763434.1239686,-252.855,-1617.39,-26818.065,-7288.245,-18083.025,-25955.64,-5797.395,769.68
1764763434.1239686,-248.22,-1612.98,-26811.945,-7282.889999999999,-18077.67,-25951.68,-5793.885,773.37
1764763434.1239686,-248.535,-1612.755,-26810.775,-7281.045,-18076.185,-25950.33,-5793.165,773.145
1764763434.1239686,-251.505,-1616.58,-26816.445,-7285.995,-18080.28,-25951.77,-5793.929999999999,771.0749999999999
1764763434.1239686,-257.76,-1625.8049999999998,-26826.795,-7295.58,-18086.94,-25957.035,-5797.53,766.8
1764763434.1239686,-261.0,-1630.215,-26832.15,-7299.9,-18088.47,-25958.25,-5799.87,764.73
1764763434.1239686,-256.68,-1625.175,-26826.84,-7295.49,-18085.095,-25955.415,-5798.565,767.97
1764763434.1239686,-254.34,-1621.08,-26823.285,-7293.059999999999,-18085.365,-25956.405,-5797.665,769.86
1764763434.1239686,-255.87,-1621.215,-26822.835,-7292.745,-18087.345,-25958.655,-5799.78,767.475
1764763434.1239686,-257.895,-1621.71,-26822.205,-7292.429999999999,-18087.795,-25960.185,-5801.67,764.9549999999999
1764763434.1239686,-258.705,-1623.465,-26822.07,-7292.429999999999,-18089.28,-25962.345,-5802.21,762.795
1764763434.1239686,-259.065,-1624.095,-26824.455,-7294.005,-18089.55,-25962.48,-5802.795,762.8399999999999
1764763434.170406,-260.505,-1626.21,-26828.55,-7297.83,-18090.675,-25962.795,-5803.875,763.3349999999999
1764763434.170406,-258.39,-1624.005,-26826.93,-7295.445,-18089.325,-25961.04,-5802.57,765.9449999999999
1764763434.170406,-261.36,-1627.83,-26830.305,-7299.269999999999,-18092.88,-25964.505,-5804.91,761.76
1764763434.170406,-258.255,-1625.13,-26826.84,-7296.344999999999,-18089.505,-25961.445,-5802.21,765.0
1764763434.170406,-252.855,-1619.595,-26820.765,-7290.315,-18085.185,-25957.17,-5798.969999999999,769.9499999999999
1764763434.170406,-251.82,-1617.21,-26818.02,-7288.245,-18084.915,-25957.125,-5797.71,770.85
1764763434.170406,-252.135,-1618.29,-26818.785,-7289.82,-18086.49,-25958.16,-5797.755,771.03
1764763434.170406,-255.42,-1622.34,-26823.78,-7294.094999999999,-18088.965,-25960.23,-5800.185,768.3299999999999
1764763434.170406,-257.085,-1625.175,-26827.875,-7296.795,-18089.685,-25961.265,-5799.915,766.8
1764763434.170406,-258.255,-1626.345,-26829.09,-7297.605,-18090.405,-25962.3,-5800.815,765.045
1764763434.170406,-259.515,-1627.695,-26830.665,-7298.91,-18092.205,-25963.515,-5801.625,764.055
1764763434.170406,-263.43,-1631.52,-26833.455,-7302.105,-18095.58,-25967.565,-5804.415,760.3199999999999
1764763434.1714182,-262.08,-1629.3149999999998,-26831.25,-7299.719999999999,-18093.915,-25966.35,-5802.974999999999,762.03
1764763434.1714182,-258.255,-1624.995,-26826.12,-7294.724999999999,-18089.505,-25962.435,-5800.59,766.26
1764763434.1714182,-258.12,-1624.6799999999998,-26825.49,-7294.59,-18089.055,-25962.12,-5800.86,766.2149999999999
1764763434.1714182,-254.295,-1621.755,-26822.565,-7291.304999999999,-18085.5,-25958.25,-5797.08,768.78
1764763434.1714182,-250.74,-1617.705,-26817.75,-7286.67,-18081.405,-25953.75,-5792.76,772.38
1764763434.1714182,-252.045,-1618.29,-26818.695,-7287.165,-18082.035,-25954.02,-5794.02,771.03
1764763434.1714182,-252.945,-1619.01,-26819.505,-7287.165,-18082.665,-25954.83,-5794.695,770.895
1764763434.1714182,-255.105,-1620.81,-26820.99,-7288.74,-18084.105,-25957.08,-5796.315,769.68
1764763434.1714182,-258.48,-1624.635,-26824.815,-7292.655,-18087.66,-25960.185,-5798.205,766.7099999999999
1764763434.1714182,-255.78,-1621.08,-26822.655,-7290.269999999999,-18084.735,-25957.08,-5796.315,769.77
1764763434.1714182,-254.925,-1620.0449999999998,-26820.54,-7288.92,-18084.465,-25956.135,-5795.594999999999,769.4549999999999
1764763434.1714182,-256.68,-1621.935,-26822.205,-7290.45,-18085.455,-25957.395,-5795.865,768.105
1764763434.2178974,-260.055,-1625.85,-26826.525,-7294.365,-18087.75,-25959.42,-5798.205,764.73
1764763434.2178974,-257.895,-1624.6799999999998,-26824.5,-7293.014999999999,-18086.94,-25958.205,-5796.81,765.63
1764763434.2178974,-252.945,-1618.74,-26818.965,-7288.245,-18082.62,-25954.335,-5792.804999999999,770.985
1764763434.2178974,-254.385,-1620.765,-26821.17,-7289.55,-18084.87,-25956.495,-5794.469999999999,769.14
1764763434.2178974,-257.49,-1623.465,-26824.725,-7293.105,-18088.965,-25960.59,-5797.035,766.755
1764763434.2178974,-255.51,-1621.4399999999998,-26822.88,-7290.945,-18086.22,-25958.07,-5795.73,769.275
1764763434.2178974,-257.58,-1624.32,-26824.41,-7292.025,-18087.03,-25958.475,-5795.46,766.935
1764763434.2178974,-256.725,-1624.365,-26823.915,-7291.71,-18086.355,-25957.89,-5795.415,767.3399999999999
1764763434.2178974,-255.375,-1622.2949999999998,-26822.79,-7291.304999999999,-18085.185,-25956.765,-5794.469999999999,769.14
1764763434.2178974,-251.865,-1619.28,-26820.36,-7288.245,-18084.15,-25954.245,-5793.12,772.92
1764763434.2178974,-251.37,-1618.425,-26819.595,-7287.525,-18083.655,-25953.705,-5793.03,773.37
1764763434.2178974,-251.01,-1616.9399999999998,-26818.155,-7285.545,-18081.63,-25952.445,-5791.59,774.27
1764763434.2178974,-252.315,-1617.84,-26818.92,-7285.679999999999,-18082.035,-25953.48,-5792.49,772.47
1764763434.2178974,-253.98,-1619.145,-26819.865,-7287.12,-18083.43,-25955.955,-5794.74,770.13
1764763434.2178974,-253.26,-1616.8049999999998,-26817.57,-7285.545,-18082.575,-25956.135,-5794.514999999999,770.985
1764763434.2178974,-254.295,-1618.38,-26818.065,-7286.894999999999,-18084.375,-25957.665,-5794.92,768.87
1764763434.2178974,-257.985,-1623.6,-26823.6,-7292.115,-18088.92,-25960.86,-5796.63,765.855
1764763434.2178974,-258.03,-1625.8049999999998,-26828.01,-7295.759999999999,-18089.505,-25960.32,-5796.719999999999,766.485
1764763434.2178974,-261.315,-1629.0449999999998,-26832.33,-7299.675,-18093.15,-25963.29,-5798.385,764.235
1764763434.2178974,-260.82,-1628.37,-26830.89,-7298.55,-18092.43,-25962.39,-5797.71,765.135
1764763434.2178974,-259.2,-1627.335,-26828.865,-7296.795,-18091.215,-25960.815,-5796.945,766.0799999999999
1764763434.2178974,-258.03,-1625.085,-26826.93,-7295.175,-18089.685,-25958.925,-5796.36,767.16
1764763434.2194345,-254.07,-1619.91,-26822.07,-7290.855,-18084.87,-25954.965,-5793.389999999999,771.255
1764763434.2194345,-255.555,-1620.855,-26822.97,-7292.115,-18086.49,-25956.72,-5794.695,770.13
1764763434.2659364,-255.6,-1620.9,-26823.06,-7292.474999999999,-18088.83,-25959.33,-5794.83,768.8249999999999
1764763434.2659364,-251.19,-1617.075,-26818.155,-7287.929999999999,-18085.905,-25956.63,-5792.355,772.47
1764763434.2659364,-254.385,-1618.965,-26820.765,-7290.54,-18088.695,-25959.42,-5794.469999999999,769.545
1764763434.2659364,-254.88,-1620.9,-26822.835,-7291.215,-18086.94,-25957.305,-5794.425,770.5799999999999
1764763434.2659364,-258.255,-1624.995,-26827.38,-7294.86,-18089.64,-25958.835,-5795.865,767.655
1764763434.2659364,-256.23,-1622.16,-26822.79,-7290.9,-18086.85,-25956.315,-5794.74,769.4549999999999
1764763434.2659364,-259.695,-1624.365,-26824.005,-7291.394999999999,-18088.965,-25958.655,-5797.62,765.225
1764763434.2659364,-258.615,-1621.53,-26820.765,-7287.795,-18086.355,-25957.08,-5796.63,766.5749999999999
1764763434.2659364,-254.25,-1617.075,-26815.455,-7282.71,-18081.63,-25953.93,-5793.615,770.31
1764763434.2659364,-258.165,-1621.3049999999998,-26818.785,-7287.255,-18085.815,-25957.89,-5796.855,766.53
1764763434.2659364,-255.87,-1618.74,-26817.885,-7287.03,-18084.78,-25956.27,-5795.73,769.23
1764763434.2659364,-255.87,-1620.585,-26820.765,-7289.19,-18086.355,-25956.315,-5794.83,769.86
1764763434.2659364,-256.005,-1621.4399999999998,-26822.79,-7291.215,-18087.705,-25957.53,-5794.74,769.41
1764763434.2659364,-256.14,-1621.35,-26821.755,-7290.99,-18087.66,-25957.485,-5794.605,769.5899999999999
1764763434.2659364,-257.445,-1624.005,-26824.5,-7293.915,-18088.965,-25958.52,-5795.325,768.3299999999999
1764763434.2659364,-258.84,-1626.75,-26828.595,-7296.615,-18090.45,-25959.42,-5796.27,766.5749999999999
1764763434.2659364,-258.66,-1626.165,-26827.245,-7295.715,-18090.81,-25959.645,-5796.719999999999,766.17
1764763434.2659364,-259.47,-1626.525,-26827.47,-7294.769999999999,-18090.27,-25960.23,-5796.495,765.27
1764763434.2659364,-253.395,-1618.83,-26819.64,-7286.894999999999,-18082.755,-25953.885,-5791.59,771.7049999999999
1764763434.2659364,-255.24,-1620.9,-26821.665,-7289.144999999999,-18085.05,-25955.955,-5793.165,769.77
1764763434.2659364,-259.335,-1625.8049999999998,-26827.515,-7294.815,-18090.72,-25961.67,-5796.27,766.7099999999999
1764763434.2659364,-256.68,-1622.88,-26824.545,-7291.62,-18088.065,-25958.835,-5794.469999999999,769.68
1764763434.2659364,-255.375,-1621.4399999999998,-26822.385,-7290.134999999999,-18086.67,-25958.25,-5793.344999999999,771.255
1764763434.2659364,-254.61,-1620.855,-26820.855,-7289.73,-18086.13,-25957.8,-5792.445,771.66
1764763434.3121142,-256.995,-1622.7,-26823.645,-7292.205,-18088.605,-25959.465,-5793.795,769.4549999999999
1764763434.3131282,-253.845,-1620.45,-26820.9,-7289.009999999999,-18087.21,-25957.53,-5792.985,770.805
1764763434.3131282,-256.275,-1623.735,-26824.455,-7292.969999999999,-18091.665,-25962.165,-5795.639999999999,767.385
1764763434.3131282,-254.115,-1619.37,-26820.27,-7289.325,-18087.93,-25959.78,-5794.65,768.8249999999999
1764763434.3131282,-249.075,-1614.105,-26814.87,-7283.655,-18082.62,-25955.235,-5791.32,773.3249999999999
1764763434.3131282,-254.835,-1621.4399999999998,-26823.6,-7291.394999999999,-18088.155,-25958.925,-5793.75,768.9599999999999
1764763434.3131282,-255.465,-1623.015,-26825.895,-7292.205,-18086.985,-25957.08,-5793.344999999999,768.555
1764763434.3131282,-252.18,-1619.01,-26821.17,-7288.245,-18084.105,-25954.605,-5791.005,772.6949999999999
1764763434.3131282,-254.88,-1621.845,-26823.915,-7291.349999999999,-18088.11,-25958.475,-5791.724999999999,769.77
1764763434.3131282,-254.205,-1622.4299999999998,-26824.725,-7291.844999999999,-18088.47,-25957.98,-5791.545,770.31
1764763434.3131282,-251.28,-1619.0549999999998,-26822.835,-7288.65,-18085.95,-25955.64,-5790.96,773.055
1764763434.3131282,-251.055,-1617.84,-26822.205,-7287.795,-18085.725,-25955.82,-5790.15,773.055
1764763434.3131282,-254.925,-1620.855,-26824.59,-7291.17,-18089.145,-25959.96,-5791.995,769.005
1764763434.3131282,-253.44,-1620.0449999999998,-26822.925,-7289.19,-18086.805,-25958.43,-5791.139999999999,770.895
1764763434.3131282,-250.065,-1617.9299999999998,-26820.36,-7286.58,-18084.015,-25955.19,-5788.98,774.045
1764763434.3131282,-255.645,-1622.97,-26825.13,-7291.889999999999,-18089.82,-25961.22,-5792.804999999999,768.06
1764763434.3131282,-254.88,-1622.16,-26823.51,-7290.179999999999,-18089.415,-25961.76,-5792.804999999999,768.735
1764763434.3141277,-252.405,-1619.415,-26821.395,-7288.335,-18087.93,-25959.555,-5791.005,771.435
1764763434.3141277,-255.24,-1622.655,-26824.455,-7292.34,-18091.08,-25962.705,-5793.075,767.43
1764763434.3141277,-256.23,-1625.04,-26825.49,-7293.059999999999,-18090.72,-25961.67,-5793.12,767.25
1764763434.3141277,-254.565,-1623.33,-26824.32,-7290.945,-18088.335,-25958.25,-5792.04,769.68
1764763434.3141277,-255.69,-1622.655,-26824.86,-7291.62,-18089.595,-25959.915,-5793.03,768.51
1764763434.3141277,-255.24,-1622.7,-26824.995,-7291.665,-18089.64,-25960.23,-5792.264999999999,768.24
1764763434.3141277,-253.89,-1621.35,-26822.655,-7289.505,-18086.715,-25958.16,-5791.455,769.86
1764763434.3583252,-252.63,-1619.0549999999998,-26820.72,-7286.804999999999,-18084.6,-25956.045,-5790.195,771.2099999999999
1764763434.3583252,-253.665,-1620.1799999999998,-26821.8,-7287.344999999999,-18085.545,-25957.17,-5791.32,769.365
1764763434.3583252,-253.62,-1620.405,-26821.26,-7287.165,-18085.995,-25957.665,-5790.915,769.185
1764763434.359867,-257.31,-1623.105,-26823.51,-7290.09,-18089.64,-25961.715,-5793.344999999999,765.72
1764763434.359867,-257.4,-1623.5549999999998,-26823.51,-7289.415,-18089.505,-25961.76,-5793.974999999999,766.17
1764763434.359867,-253.575,-1620.45,-26820.9,-7286.894999999999,-18087.705,-25958.88,-5791.77,770.0849999999999
1764763434.360186,-254.205,-1620.1799999999998,-26821.755,-7287.795,-18089.1,-25959.195,-5791.86,769.77
1764763434.360186,-258.255,-1622.79,-26824.23,-7290.09,-18091.53,-25963.065,-5794.29,765.18
1764763434.360186,-255.645,-1620.855,-26821.665,-7287.84,-18088.515,-25960.455,-5793.165,767.88
1764763434.360186,-255.06,-1622.115,-26824.32,-7290.045,-18088.92,-25959.51,-5793.075,768.915
1764763434.360186,-255.645,-1621.8,-26825.04,-7291.304999999999,-18091.035,-25961.715,-5793.615,768.51
1764763434.360186,-259.875,-1625.9399999999998,-26828.505,-7294.139999999999,-18094.275,-25965.72,-5796.54,764.37
1764763434.360186,-254.79,-1621.1699999999998,-26821.89,-7286.4,-18086.265,-25959.645,-5792.13,769.23
1764763434.360186,-251.82,-1617.525,-26817.615,-7282.62,-18083.205,-25957.98,-5790.014999999999,771.795
1764763434.360186,-255.33,-1621.53,-26823.015,-7287.84,-18087.48,-25961.22,-5791.455,769.68
1764763434.360186,-260.64,-1628.82,-26829.585,-7294.094999999999,-18091.71,-25963.875,-5794.38,765.045
1764763434.360186,-259.605,-1628.775,-26829.27,-7293.42,-18089.28,-25959.87,-5792.49,767.295
1764763434.360883,-261.045,-1630.08,-26830.8,-7295.58,-18092.61,-25963.11,-5793.21,765.045
1764763434.360883,-259.695,-1629.0449999999998,-26829.72,-7296.075,-18094.59,-25965.405,-5794.38,765.5849999999999
1764763434.360883,-257.49,-1626.7949999999998,-26827.695,-7294.23,-18093.735,-25963.965,-5793.795,767.2049999999999
1764763434.360883,-253.17,-1622.97,-26823.015,-7289.684999999999,-18090.27,-25959.375,-5790.599999999999,770.9399999999999
1764763434.360883,-255.87,-1625.22,-26825.76,-7292.745,-18093.195,-25962.165,-5792.49,766.755
1764763434.4044354,-253.89,-1622.205,-26823.105,-7290.0,-18090.495,-25960.14,-5791.23,769.4549999999999
1764763434.4044354,-256.995,-1623.5549999999998,-26825.22,-7292.025,-18092.655,-25962.84,-5792.535,766.395
1764763434.4044354,-256.14,-1623.105,-26824.545,-7291.44,-18092.07,-25962.615,-5792.04,766.755
1764763434.4049418,-255.645,-1621.935,-26822.61,-7289.19,-18090.405,-25962.165,-5791.95,767.745
1764763434.4049418,-255.15,-1620.495,-26821.26,-7287.255,-18088.92,-25960.455,-5791.679999999999,768.1949999999999
1764763434.4049418,-255.825,-1622.115,-26823.015,-7289.37,-18089.955,-25959.915,-5791.545,766.98
1764763434.4049418,-255.78,-1622.655,-26823.78,-7289.235,-18089.505,-25958.745,-5790.24,767.97
1764763434.4049418,-252.27,-1619.145,-26820.18,-7285.005,-18084.375,-25954.29,-5787.09,772.11
1764763434.4049418,-251.37,-1617.12,-26817.255,-7282.215,-18082.395,-25953.3,-5786.415,772.515
1764763434.4049418,-252.36,-1617.66,-26816.94,-7282.215,-18083.52,-25954.155,-5787.045,770.5799999999999
1764763434.4049418,-254.79,-1619.28,-26819.1,-7284.33,-18086.04,-25957.215,-5788.755,768.915
1764763434.4049418,-253.08,-1617.255,-26817.57,-7283.565,-18085.32,-25957.08,-5788.125,771.3
1764763434.4049418,-254.565,-1619.865,-26820.09,-7287.12,-18089.595,-25960.905,-5790.014999999999,769.095
1764763434.4049418,-252.315,-1619.0549999999998,-26819.955,-7285.815,-18087.12,-25957.98,-5788.395,771.345
1764763434.4049418,-257.67,-1624.23,-26825.94,-7291.215,-18089.73,-25960.32,-5790.105,767.61
1764763434.4049418,-258.57,-1626.75,-26828.775,-7293.915,-18091.71,-25960.5,-5789.969999999999,767.025
1764763434.4049418,-256.275,-1625.13,-26827.695,-7292.25,-18091.08,-25958.97,-5789.25,769.995
1764763434.4049418,-255.735,-1624.455,-26827.695,-7292.519999999999,-18091.935,-25959.69,-5788.62,770.535
1764763434.4049418,-248.895,-1616.85,-26819.955,-7284.24,-18085.185,-25952.715,-5782.905,776.61
1764763434.4049418,-251.595,-1618.875,-26821.035,-7284.42,-18086.805,-25956.045,-5784.389999999999,772.8299999999999
1764763434.4049418,-247.32,-1612.4399999999998,-26813.295,-7277.58,-18080.955,-25952.04,-5781.69,776.52
1764763434.4049418,-245.16,-1609.29,-26809.335,-7274.88,-18077.535,-25949.115,-5779.8,778.86
1764763434.4515605,-246.87,-1611.495,-26812.98,-7278.075,-18079.605,-25950.915,-5780.385,777.51
1764763434.4515605,-249.165,-1614.6899999999998,-26817.3,-7282.44,-18085.14,-25955.37,-5783.49,775.665
1764763434.4515605,-251.82,-1619.28,-26822.97,-7288.245,-18090.09,-25959.06,-5786.054999999999,773.4599999999999
1764763434.4515605,-257.13,-1626.255,-26830.305,-7295.13,-18094.86,-25963.065,-5789.25,768.105
1764763434.4515605,-254.97,-1623.24,-26827.56,-7291.844999999999,-18091.845,-25959.33,-5787.855,770.31
1764763434.4515605,-255.645,-1623.465,-26826.84,-7290.585,-18090.585,-25958.88,-5787.179999999999,769.905
1764763434.4520693,-251.505,-1618.9199999999998,-26821.125,-7285.455,-18085.86,-25955.37,-5784.255,773.9549999999999
1764763434.4520693,-253.755,-1621.395,-26821.89,-7286.58,-18088.155,-25958.52,-5785.695,770.895
1764763434.4520693,-252.945,-1619.955,-26819.64,-7286.13,-18088.515,-25959.195,-5784.615,771.5699999999999
1764763434.4520693,-251.955,-1617.435,-26817.03,-7284.105,-18088.155,-25959.105,-5784.48,772.38
1764763434.4520693,-247.455,-1613.79,-26812.53,-7278.84,-18084.195,-25955.46,-5782.545,775.485
1764763434.4520693,-248.175,-1616.355,-26815.77,-7281.54,-18085.41,-25955.775,-5782.815,774.54
1764763434.4520693,-253.8,-1623.87,-26824.32,-7288.92,-18090.405,-25959.015,-5785.38,770.9399999999999
1764763434.4520693,-249.255,-1617.9299999999998,-26818.695,-7282.215,-18084.015,-25953.615,-5782.41,774.765
1764763434.4520693,-247.95,-1616.445,-26818.02,-7281.045,-18082.395,-25952.265,-5780.835,776.25
1764763434.4520693,-251.955,-1620.945,-26823.24,-7286.715,-18086.94,-25955.55,-5782.23,773.055
1764763434.4520693,-250.155,-1618.515,-26821.215,-7285.769999999999,-18085.725,-25954.065,-5780.969999999999,774.63
1764763434.4520693,-252.495,-1620.675,-26821.35,-7287.12,-18088.65,-25956.945,-5782.545,771.615
1764763434.4520693,-250.155,-1618.0649999999998,-26818.47,-7284.375,-18087.03,-25955.37,-5781.87,773.91
1764763434.4520693,-253.26,-1620.495,-26821.575,-7287.255,-18089.595,-25957.935,-5784.21,771.5699999999999
1764763434.4520693,-250.38,-1617.075,-26818.785,-7284.24,-18086.04,-25954.515,-5782.545,774.855
1764763434.4520693,-250.56,-1617.705,-26818.245,-7282.8,-18085.635,-25954.245,-5782.275,774.135
1764763434.4520693,-253.395,-1620.3149999999998,-26819.865,-7285.365,-18089.685,-25958.385,-5784.795,770.4449999999999
1764763434.4520693,-251.37,-1615.725,-26816.04,-7282.485,-18088.38,-25957.53,-5782.905,771.975
1764763434.498385,-249.255,-1612.8,-26812.44,-7278.389999999999,-18086.49,-25956.495,-5782.139999999999,772.92
1764763434.498385,-246.87,-1610.46,-26811.09,-7277.894999999999,-18086.265,-25955.865,-5781.915,775.89
1764763434.498385,-247.905,-1613.52,-26815.095,-7281.495,-18088.155,-25955.91,-5783.849999999999,775.89
1764763434.498385,-252.855,-1619.505,-26821.89,-7287.3,-18092.52,-25958.61,-5786.82,772.155
1764763434.498385,-254.745,-1621.89,-26824.05,-7288.74,-18093.06,-25959.69,-5787.63,770.4449999999999
1764763434.498385,-259.245,-1627.155,-26828.28,-7293.105,-18096.975,-25964.055,-5790.51,765.99
1764763434.498385,-259.605,-1628.28,-26829.54,-7294.32,-18097.29,-25964.505,-5790.33,766.755
1764763434.498385,-255.825,-1623.105,-26823.555,-7288.559999999999,-18091.395,-25959.78,-5786.91,770.5799999999999
1764763434.498385,-255.465,-1621.08,-26820.63,-7286.13,-18090.765,-25960.14,-5786.37,769.68
1764763434.498385,-249.345,-1614.465,-26812.485,-7279.514999999999,-18086.22,-25956.18,-5783.04,774.63
1764763434.498385,-246.69,-1612.35,-26811.405,-7278.344999999999,-18086.805,-25956.315,-5782.5,775.7099999999999
1764763434.498385,-249.03,-1616.4,-26816.895,-7283.16,-18089.37,-25957.8,-5782.815,773.91
1764763434.498385,-251.73,-1620.27,-26822.655,-7287.48,-18090.495,-25957.17,-5782.05,773.4599999999999
1764763434.498385,-253.08,-1622.205,-26824.95,-7289.19,-18091.98,-25959.015,-5783.49,772.785
1764763434.498385,-255.51,-1623.465,-26826.39,-7290.179999999999,-18092.745,-25960.68,-5785.065,771.255
1764763434.498385,-259.785,-1626.48,-26829.675,-7293.375,-18096.795,-25964.955,-5787.855,767.5649999999999
1764763434.498385,-259.83,-1627.515,-26830.53,-7294.139999999999,-18097.74,-25965.36,-5788.665,766.395
1764763434.498385,-260.595,-1628.28,-26831.745,-7294.634999999999,-18097.965,-25965.99,-5789.745,764.9549999999999
1764763434.498385,-258.93,-1625.6699999999998,-26828.145,-7291.304999999999,-18095.94,-25964.505,-5788.889999999999,766.8
1764763434.498385,-255.195,-1621.665,-26823.87,-7287.21,-18092.34,-25960.77,-5786.37,770.04
1764763434.498385,-250.38,-1616.9399999999998,-26818.695,-7283.295,-18088.29,-25956.18,-5783.264999999999,774.27
1764763434.498385,-253.17,-1619.955,-26822.475,-7286.355,-18090.855,-25958.295,-5784.615,772.245
1764763434.498385,-255.645,-1622.79,-26827.155,-7289.865,-18092.745,-25960.005,-5785.02,769.635
1764763434.498385,-260.955,-1627.9199999999998,-26831.79,-7294.95,-18097.02,-25964.505,-5788.53,764.865
1764763434.545432,-259.47,-1624.8149999999998,-26827.74,-7291.485,-18095.49,-25963.02,-5787.045,766.305
1764763434.545432,-254.025,-1619.37,-26822.295,-7286.894999999999,-18093.015,-25960.32,-5784.84,770.67
1764763434.545432,-250.83,-1615.8149999999998,-26819.37,-7283.79,-18090.675,-25959.42,-5783.715,773.055
1764763434.545432,-249.345,-1614.6,-26817.255,-7281.045,-18087.615,-25956.27,-5781.915,774.9
1764763434.545432,-253.575,-1618.515,-26821.17,-7285.005,-18089.415,-25958.655,-5783.219999999999,771.165
1764763434.545432,-252.27,-1617.255,-26820.9,-7283.925,-18088.875,-25956.765,-5781.78,772.605
1764763434.545432,-255.51,-1620.99,-26824.14,-7286.58,-18092.34,-25960.5,-5783.625,768.735
1764763434.545432,-255.645,-1620.45,-26823.33,-7286.085,-18091.935,-25960.59,-5784.165,769.005
1764763434.545432,-251.82,-1617.7949999999998,-26821.395,-7284.24,-18088.695,-25956.945,-5780.79,773.505
1764763434.545432,-257.175,-1624.275,-26828.955,-7290.36,-18094.32,-25960.77,-5784.48,768.3299999999999
1764763434.545432,-256.86,-1623.51,-26827.47,-7289.054999999999,-18093.915,-25961.4,-5786.19,767.97
1764763434.545432,-251.685,-1618.74,-26822.115,-7283.969999999999,-18089.82,-25957.71,-5783.4,772.1999999999999
1764763434.545432,-251.055,-1617.705,-26820.9,-7283.025,-18089.46,-25957.035,-5782.365,773.55
1764763434.545432,-250.92,-1616.6699999999998,-26821.305,-7283.79,-18089.865,-25957.305,-5782.23,774.18
1764763434.545432,-250.83,-1617.255,-26821.485,-7283.295,-18088.65,-25956.27,-5781.735,774.675
1764763434.545432,-251.91,-1618.56,-26823.06,-7284.33,-18090.135,-25957.395,-5781.645,774.36
1764763434.545432,-254.97,-1621.3049999999998,-26825.94,-7287.525,-18094.23,-25961.22,-5784.705,770.175
1764763434.545432,-251.19,-1616.625,-26821.08,-7282.62,-18089.28,-25956.27,-5781.465,774.27
1764763434.545432,-251.415,-1616.085,-26821.44,-7281.945,-18088.29,-25956.18,-5780.16,774.54
1764763434.545432,-252.63,-1617.21,-26822.34,-7283.205,-18090.405,-25958.025,-5782.005,774.045
1764763434.545432,-252.585,-1617.255,-26821.845,-7283.565,-18091.395,-25958.97,-5782.455,773.55
1764763434.545432,-254.295,-1619.1,-26824.41,-7286.219999999999,-18094.32,-25962.12,-5783.04,771.885
1764763434.545432,-250.065,-1615.95,-26820.225,-7282.08,-18090.18,-25958.115,-5780.79,774.855
1764763434.545432,-253.08,-1618.965,-26822.79,-7285.905,-18093.42,-25960.95,-5782.005,771.75
1764763434.5919693,-253.08,-1618.785,-26823.105,-7286.219999999999,-18094.365,-25961.445,-5782.185,772.0649999999999
1764763434.5919693,-250.785,-1616.13,-26820.765,-7282.889999999999,-18092.25,-25959.645,-5781.42,774.045
1764763434.5919693,-255.645,-1621.3049999999998,-26824.905,-7288.065,-18096.12,-25964.145,-5784.929999999999,769.095
1764763434.5919693,-255.96,-1623.96,-26827.11,-7289.37,-18096.66,-25964.145,-5785.469999999999,769.095
1764763434.5919693,-255.195,-1624.185,-26827.515,-7289.415,-18095.715,-25963.335,-5785.514999999999,770.175
1764763434.5919693,-259.56,-1626.705,-26829.855,-7292.115,-18099.945,-25967.565,-5788.844999999999,765.27
1764763434.5919693,-257.625,-1624.8149999999998,-26827.74,-7289.594999999999,-18097.965,-25965.45,-5788.17,766.665
1764763434.5919693,-254.43,-1622.34,-26824.365,-7286.58,-18094.725,-25962.615,-5785.965,770.13
1764763434.5919693,-257.67,-1626.3,-26829.315,-7290.9,-18098.055,-25966.08,-5787.855,766.53
1764763434.5919693,-254.43,-1623.4199999999998,-26826.93,-7288.245,-18094.5,-25962.255,-5784.885,769.86
1764763434.5919693,-254.565,-1622.79,-26826.84,-7288.019999999999,-18094.23,-25961.31,-5784.165,770.49
1764763434.5919693,-253.62,-1621.4399999999998,-26826.165,-7287.884999999999,-18094.725,-25961.535,-5783.49,770.85
1764763434.5919693,-251.64,-1619.0549999999998,-26822.97,-7285.679999999999,-18093.555,-25960.095,-5781.96,772.6949999999999
1764763434.5919693,-250.065,-1617.345,-26820.855,-7283.925,-18091.395,-25958.025,-5780.565,774.0899999999999
1764763434.5919693,-249.345,-1616.895,-26820.27,-7282.755,-18090.225,-25957.305,-5779.71,774.72
1764763434.5919693,-250.92,-1619.28,-26822.565,-7284.644999999999,-18092.205,-25959.24,-5781.014999999999,772.605
1764763434.5919693,-252.54,-1619.91,-26822.79,-7285.815,-18094.05,-25961.625,-5782.32,770.5799999999999
1764763434.5919693,-255.375,-1620.72,-26823.105,-7286.804999999999,-18095.715,-25964.19,-5783.67,767.5649999999999
1764763434.5919693,-252.135,-1618.245,-26819.505,-7283.655,-18091.485,-25960.635,-5780.88,770.5799999999999
1764763434.5919693,-253.935,-1620.945,-26822.655,-7285.545,-18093.33,-25961.265,-5781.51,768.78
1764763434.5919693,-253.485,-1622.07,-26824.815,-7286.219999999999,-18092.475,-25958.475,-5780.88,770.805
1764763434.5919693,-257.58,-1626.525,-26830.395,-7291.44,-18095.715,-25961.355,-5782.995,767.88
1764763434.6370485,-258.795,-1626.7949999999998,-26830.215,-7292.205,-18098.01,-25963.245,-5784.12,765.765
1764763434.6370485,-252.9,-1620.27,-26822.34,-7284.69,-18092.34,-25958.745,-5780.88,770.265
1764763434.6370485,-248.265,-1615.6799999999998,-26817.57,-7280.144999999999,-18087.93,-25955.01,-5777.19,774.18
1764763434.6370485,-250.92,-1618.245,-26821.71,-7283.79,-18090.855,-25958.205,-5778.27,771.7049999999999
1764763434.6370485,-249.39,-1617.345,-26821.98,-7283.61,-18090.18,-25956.27,-5777.37,775.0799999999999
1764763434.6370485,-249.93,-1617.165,-26820.135,-7281.945,-18090.945,-25958.25,-5778.27,772.92
1764763434.6370485,-246.555,-1612.1699999999998,-26812.53,-7274.34,-18083.88,-25953.615,-5775.03,776.2049999999999
1764763434.6370485,-246.645,-1612.4399999999998,-26811.99,-7274.16,-18082.98,-25952.715,-5774.49,775.53
1764763434.6370485,-251.73,-1618.605,-26820.0,-7281.63,-18090.225,-25957.08,-5776.74,772.0649999999999
1764763434.6370485,-254.43,-1623.735,-26828.505,-7289.325,-18095.445,-25959.69,-5779.53,771.03
1764763434.6370485,-260.19,-1630.665,-26836.515,-7297.019999999999,-18102.105,-25965.315,-5784.255,766.0799999999999
1764763434.6370485,-253.62,-1623.24,-26827.47,-7288.245,-18093.78,-25958.115,-5779.44,772.02
1764763434.6370485,-250.29,-1618.785,-26821.575,-7282.304999999999,-18090.27,-25955.55,-5777.325,774.81
1764763434.6370485,-251.595,-1619.145,-26819.955,-7281.179999999999,-18090.18,-25956.99,-5778.315,772.785
1764763434.6370485,-251.865,-1619.955,-26820.81,-7281.945,-18091.665,-25959.06,-5778.855,771.435
1764763434.6370485,-255.915,-1623.87,-26825.985,-7286.759999999999,-18094.32,-25962.255,-5780.79,768.105
1764763434.6370485,-258.39,-1625.58,-26828.865,-7287.929999999999,-18091.98,-25959.42,-5780.25,768.1949999999999
1764763434.6370485,-258.75,-1626.57,-26830.215,-7288.965,-18093.51,-25959.825,-5779.8,768.285
1764763434.6370485,-257.58,-1625.76,-26829.36,-7289.099999999999,-18095.13,-25961.175,-5780.52,768.24
1764763434.6370485,-255.105,-1622.97,-26826.615,-7287.615,-18094.365,-25961.265,-5780.34,769.23
1764763434.6390646,-250.56,-1619.1,-26821.89,-7284.014999999999,-18092.205,-25958.88,-5779.62,772.605
1764763434.6390646,-251.1,-1620.09,-26822.25,-7285.23,-18092.925,-25959.105,-5779.304999999999,772.02
1764763434.6861756,-253.935,-1623.735,-26827.74,-7288.74,-18094.14,-25958.88,-5778.945,770.805
1764763434.6861756,-257.085,-1626.7949999999998,-26831.97,-7292.519999999999,-18097.245,-25962.57,-5782.41,767.655
1764763434.6861756,-261.09,-1630.98,-26835.075,-7296.705,-18102.69,-25968.555,-5785.74,763.11
1764763434.6861756,-259.335,-1628.955,-26832.51,-7294.5,-18100.89,-25967.07,-5784.435,764.91
1764763434.6861756,-255.375,-1624.41,-26827.785,-7289.865,-18096.03,-25963.38,-5781.42,769.635
1764763434.6861756,-255.375,-1624.005,-26827.245,-7289.91,-18096.39,-25963.83,-5781.554999999999,769.3199999999999
1764763434.6861756,-256.455,-1624.6799999999998,-26828.28,-7291.394999999999,-18098.505,-25965.855,-5782.005,767.97
1764763434.6861756,-251.505,-1620.09,-26822.925,-7286.849999999999,-18094.32,-25961.94,-5779.44,772.155
1764763434.6861756,-251.145,-1618.965,-26822.655,-7286.355,-18095.04,-25962.12,-5779.215,772.56
1764763434.6861756,-255.465,-1623.015,-26827.47,-7292.295,-18100.71,-25967.43,-5783.31,768.375
1764763434.6861756,-254.295,-1622.34,-26826.84,-7292.07,-18100.89,-25966.8,-5783.58,769.5899999999999
1764763434.6861756,-257.49,-1627.2,-26830.62,-7295.445,-18104.445,-25969.14,-5785.83,766.17
1764763434.6861756,-254.88,-1624.77,-26828.955,-7293.24,-18100.71,-25965.54,-5782.635,769.995
1764763434.6861756,-254.295,-1624.365,-26829.18,-7292.7,-18099.63,-25965.045,-5781.42,770.13
1764763434.6871908,-256.905,-1625.9399999999998,-26830.215,-7293.509999999999,-18101.205,-25967.52,-5782.5,767.0699999999999
1764763434.6871908,-252.855,-1621.3049999999998,-26825.265,-7288.29,-18096.75,-25963.29,-5780.835,770.13
1764763434.6871908,-251.595,-1619.82,-26822.745,-7285.815,-18094.95,-25960.815,-5779.53,770.4449999999999
1764763434.6871908,-252.63,-1620.675,-26823.42,-7285.724999999999,-18094.905,-25960.77,-5778.719999999999,769.86
1764763434.6871908,-256.32,-1625.22,-26828.37,-7290.809999999999,-18097.2,-25963.29,-5779.755,767.025
1764763434.6871908,-253.98,-1623.24,-26826.39,-7288.514999999999,-18094.905,-25959.87,-5778.855,769.905
1764763434.6871908,-258.03,-1626.075,-26829.54,-7291.934999999999,-18099.09,-25964.685,-5782.679999999999,765.405
1764763434.6871908,-262.89,-1631.745,-26834.715,-7297.469999999999,-18104.04,-25969.905,-5786.37,760.86
1764763434.6871908,-261.045,-1629.855,-26832.51,-7295.985,-18102.915,-25969.725,-5786.145,762.39
1764763434.6871908,-257.805,-1625.4,-26828.37,-7291.304999999999,-18099.9,-25966.935,-5784.12,766.0799999999999
1764763434.730165,-258.165,-1625.445,-26827.74,-7291.17,-18100.53,-25967.79,-5784.165,765.36
1764763434.730165,-257.355,-1624.14,-26826.3,-7290.134999999999,-18099.99,-25968.105,-5784.57,766.0799999999999
1764763434.730165,-255.735,-1622.61,-26824.365,-7287.84,-18099.315,-25967.115,-5783.715,766.62
1764763434.730699,-255.69,-1622.4299999999998,-26824.365,-7286.94,-18098.865,-25965.72,-5783.219999999999,766.305
1764763434.730699,-256.41,-1623.87,-26827.29,-7288.245,-18099.27,-25965.99,-5783.13,765.855
1764763434.730699,-258.795,-1626.48,-26829.855,-7291.259999999999,-18101.295,-25967.34,-5783.625,764.415
1764763434.730699,-257.715,-1625.22,-26827.74,-7289.505,-18097.695,-25964.325,-5782.365,765.54
1764763434.730699,-259.02,-1625.625,-26827.245,-7288.29,-18097.92,-25965.72,-5782.995,763.875
1764763434.730699,-254.7,-1621.845,-26823.51,-7284.33,-18093.69,-25960.995,-5779.62,768.375
1764763434.730699,-260.37,-1629.405,-26832.69,-7292.519999999999,-18097.92,-25963.74,-5781.285,763.605
1764763434.730699,-261.855,-1632.375,-26837.28,-7296.48,-18101.115,-25965.585,-5782.275,762.93
1764763434.730699,-260.595,-1631.205,-26838.045,-7296.929999999999,-18101.385,-25964.91,-5781.735,765.63
1764763434.730699,-258.12,-1628.505,-26836.02,-7294.139999999999,-18098.865,-25963.425,-5780.565,768.3299999999999
1764763434.730699,-256.365,-1626.9299999999998,-26833.185,-7292.295,-18097.92,-25963.47,-5779.935,769.725
1764763434.730699,-256.275,-1627.245,-26832.42,-7292.474999999999,-18098.73,-25963.83,-5780.295,768.87
1764763434.730699,-258.12,-1627.02,-26832.015,-7292.115,-18099.63,-25964.955,-5780.745,767.0699999999999
1764763434.730699,-251.145,-1619.1899999999998,-26823.465,-7283.384999999999,-18092.745,-25959.105,-5776.38,772.6949999999999
1764763434.730699,-250.74,-1617.7949999999998,-26820.63,-7280.82,-18092.205,-25959.69,-5776.245,772.74
1764763434.730699,-251.73,-1618.47,-26820.405,-7280.054999999999,-18091.755,-25960.455,-5775.929999999999,771.5699999999999
1764763434.730699,-250.335,-1618.02,-26821.17,-7281.179999999999,-18090.54,-25957.44,-5774.219999999999,773.145
1764763434.730699,-254.88,-1624.77,-26830.485,-7289.82,-18096.21,-25960.635,-5776.29,769.86
1764763434.730699,-259.875,-1630.755,-26838.09,-7296.165,-18100.395,-25963.92,-5778.99,765.405
1764763434.730699,-257.31,-1627.74,-26834.04,-7291.62,-18096.615,-25960.455,-5777.37,767.16
1764763434.730699,-258.255,-1627.875,-26833.14,-7291.304999999999,-18098.19,-25961.805,-5777.415,765.9
1764763434.777471,-254.835,-1623.195,-26828.37,-7287.389999999999,-18094.545,-25958.565,-5775.57,769.995
1764763434.777471,-251.73,-1620.3149999999998,-26825.04,-7285.094999999999,-18092.88,-25957.035,-5773.679999999999,772.56
1764763434.777471,-250.785,-1619.0549999999998,-26823.33,-7282.755,-18091.845,-25956.09,-5772.014999999999,772.92
1764763434.777471,-252.765,-1620.63,-26823.33,-7282.934999999999,-18090.72,-25956.315,-5772.554999999999,771.435
1764763434.777471,-254.88,-1623.06,-26825.58,-7284.78,-18092.52,-25957.98,-5773.815,769.545
1764763434.777471,-260.505,-1630.08,-26833.23,-7293.33,-18101.07,-25965.18,-5778.719999999999,764.235
1764763434.777471,-260.595,-1630.395,-26834.94,-7297.155,-18106.155,-25969.23,-5781.15,763.245
1764763434.777992,-258.615,-1628.73,-26833.815,-7297.245,-18106.02,-25968.87,-5780.565,765.27
1764763434.777992,-254.835,-1625.445,-26829.81,-7292.745,-18101.43,-25965.495,-5777.054999999999,769.185
1764763434.777992,-252.315,-1622.205,-26825.94,-7287.84,-18096.84,-25962.57,-5775.03,770.355
1764763434.777992,-254.295,-1624.095,-26827.02,-7288.559999999999,-18097.74,-25963.245,-5776.155,767.8349999999999
1764763434.777992,-253.08,-1622.5649999999998,-26825.355,-7287.344999999999,-18096.255,-25961.175,-5775.255,768.78
1764763434.777992,-252.675,-1621.665,-26824.86,-7286.985,-18095.13,-25960.365,-5775.075,769.545
1764763434.777992,-256.095,-1625.985,-26829.675,-7290.99,-18098.64,-25963.29,-5777.91,766.53
1764763434.777992,-259.29,-1629.63,-26833.005,-7293.42,-18100.71,-25965.315,-5779.215,763.92
1764763434.777992,-254.52,-1625.175,-26827.29,-7287.705,-18096.03,-25960.86,-5776.02,766.98
1764763434.777992,-252.09,-1621.62,-26823.285,-7285.32,-18093.915,-25959.105,-5774.445,768.8249999999999
1764763434.777992,-252.72,-1620.36,-26821.935,-7284.915,-18094.455,-25960.365,-5773.815,768.735
1764763434.777992,-256.77,-1623.51,-26825.535,-7288.514999999999,-18098.865,-25964.595,-5776.29,765.54
1764763434.777992,-256.095,-1623.87,-26825.58,-7288.514999999999,-18098.28,-25964.28,-5776.469999999999,765.495
1764763434.777992,-253.395,-1621.755,-26824.5,-7286.804999999999,-18095.94,-25961.445,-5775.795,768.1949999999999
1764763434.777992,-257.4,-1627.515,-26831.07,-7291.934999999999,-18098.82,-25962.48,-5776.514999999999,766.755
1764763434.777992,-255.6,-1627.74,-26831.205,-7292.025,-18098.73,-25961.22,-5775.84,768.915
1764763434.777992,-258.03,-1629.135,-26832.465,-7294.23,-18102.555,-25966.17,-5779.17,765.18
1764763434.8241286,-254.34,-1623.87,-26826.39,-7289.144999999999,-18100.215,-25965.765,-5778.135,766.755
1764763434.8241286,-250.335,-1618.965,-26820.72,-7283.34,-18095.985,-25962.345,-5775.615,769.995
1764763434.8246503,-254.475,-1622.385,-26825.445,-7287.434999999999,-18099.405,-25965.63,-5776.11,767.3399999999999
1764763434.8246503,-256.005,-1625.9399999999998,-26830.935,-7291.08,-18100.98,-25965.945,-5776.92,766.755
1764763434.8246503,-255.105,-1626.39,-26832.015,-7291.44,-18099.495,-25963.65,-5776.245,767.8349999999999
1764763434.8246503,-261.315,-1632.915,-26838.9,-7297.245,-18104.22,-25968.015,-5780.07,762.2099999999999
1764763434.8246503,-260.1,-1631.79,-26836.92,-7295.715,-18102.24,-25966.98,-5779.395,763.425
1764763434.8246503,-253.98,-1624.6799999999998,-26830.17,-7288.425,-18096.12,-25961.355,-5775.21,769.545
1764763434.8246503,-253.305,-1624.23,-26829.315,-7288.469999999999,-18096.615,-25961.715,-5774.13,769.4549999999999
1764763434.8246503,-257.715,-1629.225,-26833.41,-7293.825,-18101.34,-25967.07,-5778.0,764.055
1764763434.8246503,-256.59,-1627.56,-26832.24,-7292.07,-18101.115,-25967.205,-5777.82,764.55
1764763434.8246503,-254.61,-1624.365,-26828.91,-7288.38,-18098.64,-25966.08,-5775.84,766.98
1764763434.8246503,-249.165,-1618.245,-26822.52,-7282.394999999999,-18092.61,-25959.69,-5771.205,772.8299999999999
1764763434.8246503,-247.68,-1617.435,-26821.89,-7282.44,-18092.385,-25957.62,-5769.945,774.225
1764763434.8246503,-251.055,-1621.395,-26826.21,-7286.894999999999,-18096.705,-25961.04,-5772.33,770.985
1764763434.8246503,-255.645,-1627.515,-26831.925,-7292.205,-18100.665,-25965.045,-5774.264999999999,766.53
1764763434.8246503,-255.105,-1627.47,-26831.43,-7290.54,-18098.73,-25962.795,-5774.04,767.295
1764763434.8246503,-250.29,-1621.665,-26825.625,-7284.554999999999,-18093.375,-25958.295,-5770.844999999999,771.435
1764763434.8246503,-250.2,-1620.72,-26824.455,-7284.195,-18094.95,-25959.645,-5772.06,770.76
1764763434.8246503,-254.295,-1624.005,-26826.525,-7286.219999999999,-18098.865,-25965.27,-5776.514999999999,765.855
1764763434.8246503,-251.595,-1620.54,-26822.655,-7282.08,-18094.455,-25961.67,-5773.905,768.915
1764763434.8246503,-255.87,-1625.76,-26828.955,-7288.335,-18099.045,-25965.585,-5776.065,765.5849999999999
1764763434.8246503,-259.29,-1630.1699999999998,-26836.11,-7294.094999999999,-18102.915,-25967.475,-5778.855,763.6949999999999
1764763434.8246503,-261.045,-1633.23,-26839.62,-7297.605,-18105.57,-25969.5,-5780.429999999999,763.245
1764763434.8718016,-260.64,-1632.78,-26838.585,-7297.155,-18105.345,-25969.995,-5779.8,763.155
1764763434.8718016,-259.335,-1631.7,-26836.65,-7295.13,-18102.915,-25967.835,-5778.179999999999,763.11
1764763434.8718016,-255.24,-1627.0649999999998,-26831.745,-7289.639999999999,-18098.595,-25964.235,-5775.435,767.25
1764763434.8718016,-251.82,-1623.4199999999998,-26826.345,-7285.455,-18094.05,-25959.915,-5772.014999999999,771.345
1764763434.8718016,-253.53,-1625.895,-26829.045,-7288.605,-18096.66,-25962.165,-5772.554999999999,769.725
1764763434.8718016,-257.67,-1630.395,-26835.075,-7295.445,-18104.31,-25969.77,-5777.82,763.3349999999999
1764763434.8718016,-255.33,-1628.595,-26832.24,-7292.655,-18101.97,-25967.79,-5776.56,765.675
1764763434.8718016,-255.285,-1628.595,-26831.205,-7291.485,-18100.53,-25966.665,-5776.469999999999,765.855
1764763434.8718016,-254.07,-1627.155,-26829.495,-7289.28,-18099.135,-25965.855,-5774.849999999999,766.305
1764763434.8718016,-255.465,-1627.785,-26830.125,-7289.955,-18099.72,-25967.205,-5775.66,765.36
1764763434.8718016,-254.655,-1627.83,-26830.575,-7289.46,-18098.145,-25965.72,-5774.804999999999,766.395
1764763434.8718016,-253.035,-1626.885,-26830.35,-7289.099999999999,-18098.37,-25965.315,-5775.435,767.385
1764763434.8718016,-255.375,-1629.225,-26832.105,-7291.304999999999,-18101.43,-25968.015,-5776.469999999999,765.225
1764763434.8718016,-253.395,-1626.255,-26827.74,-7287.57,-18097.875,-25965.045,-5774.76,767.385
1764763434.8718016,-248.13,-1619.82,-26821.125,-7281.495,-18093.015,-25960.77,-5771.205,772.0649999999999
1764763434.8718016,-251.865,-1623.015,-26823.555,-7284.33,-18097.155,-25964.73,-5774.219999999999,767.16
1764763434.8718016,-250.11,-1620.3149999999998,-26820.63,-7282.08,-18095.94,-25963.47,-5773.59,768.42
1764763434.8718016,-245.43,-1616.31,-26817.93,-7278.884999999999,-18091.44,-25959.42,-5769.764999999999,773.8199999999999
1764763434.8718016,-248.67,-1621.485,-26823.96,-7283.7,-18093.78,-25960.05,-5770.17,772.155
1764763434.8718016,-253.53,-1628.0549999999998,-26830.98,-7289.684999999999,-18097.245,-25962.525,-5772.915,769.095
1764763434.8718016,-259.065,-1634.895,-26838.36,-7297.245,-18103.14,-25967.16,-5776.605,764.1899999999999
1764763434.8718016,-259.605,-1636.47,-26841.24,-7300.304999999999,-18105.885,-25968.735,-5777.594999999999,764.145
1764763434.8718016,-255.915,-1632.375,-26836.515,-7295.58,-18102.33,-25966.08,-5775.48,767.115
1764763434.8718016,-256.14,-1631.205,-26834.22,-7293.509999999999,-18101.61,-25965.09,-5774.219999999999,766.845
1764763434.919125,-251.82,-1625.9399999999998,-26828.37,-7287.974999999999,-18095.805,-25960.23,-5771.88,770.76
1764763434.919125,-254.43,-1629.405,-26830.89,-7290.36,-18098.01,-25963.605,-5774.04,766.7099999999999
1764763434.919125,-252.18,-1627.83,-26829.09,-7288.29,-18096.165,-25961.625,-5773.23,769.095
1764763434.919125,-254.565,-1629.495,-26831.79,-7291.349999999999,-18098.595,-25963.47,-5775.795,766.845
1764763434.919125,-258.12,-1632.015,-26835.255,-7295.219999999999,-18103.41,-25967.97,-5777.594999999999,763.605
1764763434.919125,-256.815,-1630.98,-26834.175,-7295.13,-18105.255,-25969.815,-5778.224999999999,764.775
1764763434.919125,-256.32,-1629.54,-26833.41,-7293.509999999999,-18104.355,-25969.5,-5777.865,764.595
1764763434.919125,-256.725,-1629.0,-26832.465,-7292.565,-18102.87,-25968.24,-5776.469999999999,764.55
1764763434.919125,-256.365,-1630.485,-26833.77,-7293.87,-18102.465,-25966.98,-5776.605,764.505
1764763434.919125,-254.07,-1628.415,-26832.555,-7291.755,-18099.045,-25963.695,-5774.715,766.89
1764763434.919125,-253.215,-1625.985,-26829.81,-7289.415,-18098.145,-25963.83,-5773.95,767.0699999999999
1764763434.919125,-254.52,-1627.515,-26830.98,-7290.719999999999,-18100.305,-25967.205,-5775.84,764.91
1764763434.919125,-253.62,-1626.48,-26829.855,-7289.505,-18099.18,-25966.755,-5775.389999999999,765.405
1764763434.919125,-254.655,-1626.66,-26829.36,-7289.415,-18100.44,-25967.34,-5776.605,764.9549999999999
1764763434.919125,-257.76,-1629.1799999999998,-26831.655,-7292.07,-18103.365,-25970.67,-5778.54,761.85
1764763434.919125,-257.625,-1629.45,-26831.745,-7292.025,-18102.69,-25969.545,-5778.54,761.895
1764763434.919125,-257.94,-1631.025,-26834.445,-7293.33,-18101.34,-25965.63,-5776.469999999999,763.245
1764763434.919125,-263.385,-1637.01,-26841.285,-7299.315,-18107.145,-25970.625,-5779.53,758.385
1764763434.919125,-262.215,-1634.9399999999998,-26839.215,-7297.29,-18105.615,-25970.04,-5779.26,758.6999999999999
1764763434.919125,-259.29,-1631.4299999999998,-26835.84,-7293.69,-18102.105,-25966.665,-5776.695,761.13
1764763434.919125,-255.555,-1628.775,-26833.68,-7291.44,-18098.73,-25962.12,-5773.679999999999,765.3149999999999
1764763434.919125,-257.535,-1630.98,-26836.245,-7294.365,-18102.69,-25966.305,-5776.245,763.1999999999999
1764763434.9663453,-261.495,-1635.03,-26841.42,-7299.495,-18108.765,-25972.92,-5779.575,759.375
1764763434.9663453,-260.235,-1633.905,-26839.755,-7297.469999999999,-18106.155,-25970.04,-5777.955,760.905
1764763434.9663453,-263.745,-1636.785,-26842.05,-7299.855,-18108.45,-25972.38,-5779.53,756.99
1764763434.9663453,-261.405,-1633.905,-26839.845,-7297.92,-18106.065,-25970.445,-5778.09,759.06
1764763434.9663453,-257.445,-1629.72,-26836.02,-7293.69,-18102.6,-25967.07,-5776.11,763.785
1764763434.9663453,-255.87,-1628.1,-26833.815,-7292.07,-18102.87,-25966.98,-5775.165,764.235
1764763434.9663453,-259.65,-1631.025,-26836.02,-7295.219999999999,-18105.93,-25970.535,-5777.594999999999,760.005
1764763434.9663453,-260.145,-1631.34,-26836.47,-7295.58,-18105.615,-25970.355,-5778.09,759.9599999999999
1764763434.9663453,-256.68,-1627.74,-26833.095,-7292.519999999999,-18102.51,-25966.35,-5774.94,764.055
1764763434.9663453,-260.055,-1631.475,-26837.37,-7296.66,-18104.895,-25969.59,-5777.594999999999,760.4549999999999
1764763434.9663453,-262.665,-1634.085,-26839.305,-7298.594999999999,-18107.82,-25973.55,-5780.295,756.045
1764763434.9663453,-262.125,-1632.33,-26836.155,-7296.12,-18108.63,-25974.315,-5781.33,755.505
1764763434.9663453,-261.495,-1630.665,-26833.545,-7294.139999999999,-18107.955,-25974.315,-5781.554999999999,755.91
1764763434.9663453,-259.785,-1628.955,-26831.475,-7292.25,-18106.74,-25973.055,-5780.34,757.26
1764763434.9663453,-256.995,-1628.46,-26831.52,-7291.035,-18104.04,-25969.41,-5778.09,760.545
1764763434.9663453,-262.44,-1635.885,-26841.195,-7299.585,-18108.315,-25970.85,-5779.304999999999,757.98
1764763434.9663453,-269.01,-1644.75,-26851.815,-7309.62,-18115.245,-25976.7,-5782.905,752.895
1764763434.9663453,-265.32,-1641.195,-26847.945,-7305.255,-18111.105,-25973.955,-5781.24,755.505
1764763434.9663453,-264.465,-1639.08,-26845.875,-7303.32,-18110.835,-25974.675,-5781.15,755.865
1764763434.9663453,-266.49,-1641.51,-26848.215,-7306.11,-18114.165,-25978.59,-5782.905,753.345
1764763434.9663453,-264.51,-1639.575,-26846.28,-7304.175,-18113.175,-25977.33,-5782.139999999999,754.56
1764763434.9663453,-262.98,-1637.145,-26843.67,-7301.969999999999,-18110.97,-25975.53,-5780.925,756.27
1764763434.9663453,-260.64,-1633.995,-26840.205,-7298.505,-18107.595,-25971.84,-5778.99,758.52
1764763434.9663453,-261.495,-1634.895,-26840.7,-7298.73,-18108.315,-25972.065,-5779.62,757.395
1764763435.0132575,-261.765,-1634.9399999999998,-26841.42,-7299.09,-18108.72,-25971.03,-5779.08,757.17
1764763435.0132575,-264.195,-1636.47,-26843.49,-7301.115,-18110.34,-25972.785,-5779.125,755.37
1764763435.0132575,-261.54,-1632.87,-26839.125,-7296.615,-18107.28,-25970.49,-5778.135,757.935
1764763435.0132575,-261.18,-1632.4199999999998,-26837.37,-7295.355,-18106.425,-25970.13,-5777.639999999999,757.62
1764763435.0132575,-260.19,-1632.105,-26836.47,-7294.545,-18106.605,-25970.94,-5776.965,758.43
1764763435.0132575,-260.865,-1632.87,-26838.135,-7296.165,-18108.54,-25972.83,-5778.54,758.2049999999999
1764763435.0132575,-263.025,-1636.74,-26842.59,-7300.485,-18109.98,-25974.36,-5779.485,756.495
1764763435.0132575,-266.715,-1640.52,-26847.0,-7305.66,-18114.255,-25979.04,-5781.51,753.2099999999999
1764763435.0132575,-265.995,-1638.765,-26845.02,-7304.445,-18113.445,-25977.6,-5780.79,754.605
1764763435.0132575,-263.43,-1635.525,-26841.645,-7301.205,-18111.195,-25974.495,-5778.945,757.395
1764763435.0132575,-267.12,-1638.765,-26845.515,-7305.12,-18116.415,-25979.895,-5781.69,753.5699999999999
1764763435.0132575,-265.995,-1638.09,-26843.94,-7303.41,-18114.075,-25978.185,-5781.465,753.93
1764763435.0132575,-261.495,-1633.8149999999998,-26838.99,-7298.054999999999,-18108.54,-25973.055,-5778.27,758.295
1764763435.0132575,-259.515,-1631.475,-26837.865,-7295.985,-18105.525,-25971.39,-5775.795,760.3199999999999
1764763435.0132575,-258.39,-1630.1699999999998,-26836.695,-7295.04,-18103.77,-25969.995,-5773.455,761.04
1764763435.0132575,-260.775,-1633.275,-26838.855,-7296.795,-18106.29,-25972.065,-5775.66,759.4649999999999
1764763435.0132575,-262.125,-1634.535,-26840.43,-7298.775,-18108.27,-25974.54,-5778.045,757.53
1764763435.0132575,-265.365,-1637.37,-26842.545,-7301.295,-18110.745,-25977.645,-5779.8,754.785
1764763435.0132575,-262.53,-1634.265,-26839.08,-7297.469999999999,-18107.595,-25974.99,-5777.73,757.17
1764763435.0132575,-264.69,-1637.01,-26842.86,-7301.519999999999,-18112.23,-25978.095,-5779.98,753.975
1764763435.0132575,-261.99,-1633.635,-26839.89,-7298.505,-18109.485,-25975.665,-5778.495,756.99
1764763435.0132575,-264.105,-1635.165,-26841.69,-7300.035,-18111.105,-25977.195,-5779.26,755.145
1764763435.0132575,-261.72,-1632.465,-26838.135,-7296.255,-18107.37,-25973.37,-5777.415,757.98
1764763435.0132575,-261.27,-1632.645,-26837.37,-7295.67,-18106.695,-25973.415,-5776.875,757.26
1764763435.0613527,-257.67,-1628.775,-26833.815,-7292.115,-18103.32,-25970.22,-5774.895,760.005
1764763435.0613527,-262.125,-1634.715,-26841.195,-7298.19,-18107.37,-25973.685,-5777.145,756.675
1764763435.0613527,-267.075,-1640.655,-26847.27,-7303.86,-18113.13,-25978.23,-5780.07,752.31
1764763435.0613527,-266.94,-1640.34,-26847.09,-7303.32,-18113.715,-25978.725,-5781.78,751.905
1764763435.0613527,-263.97,-1636.605,-26843.58,-7299.855,-18110.655,-25976.7,-5780.385,753.5699999999999
1764763435.0613527,-266.715,-1638.63,-26845.695,-7303.005,-18112.905,-25979.535,-5782.005,751.365
1764763435.0613527,-264.915,-1638.54,-26846.28,-7302.78,-18112.365,-25977.735,-5781.24,753.615
1764763435.0613527,-268.605,-1641.96,-26851.23,-7307.19,-18116.595,-25981.47,-5782.86,750.555
1764763435.0613527,-268.83,-1641.33,-26850.195,-7306.74,-18116.64,-25981.47,-5782.679999999999,750.3299999999999
1764763435.0613527,-265.815,-1638.09,-26846.37,-7303.455,-18113.22,-25978.095,-5780.745,753.12
1764763435.0613527,-260.28,-1632.195,-26840.07,-7296.795,-18107.55,-25973.73,-5776.425,757.89
1764763435.0613527,-261.18,-1631.88,-26839.98,-7296.48,-18108.09,-25974.54,-5777.639999999999,756.135
1764763435.0613527,-261.135,-1631.4299999999998,-26838.495,-7294.32,-18106.92,-25974.27,-5777.91,755.91
1764763435.0613527,-264.465,-1633.995,-26838.945,-7295.804999999999,-18109.125,-25976.97,-5778.99,753.48
1764763435.0613527,-262.08,-1631.2949999999998,-26834.94,-7292.7,-18106.02,-25973.145,-5777.19,756.495
1764763435.0613527,-262.53,-1633.14,-26837.595,-7295.085,-18107.325,-25973.685,-5778.045,755.595
1764763435.0613527,-267.345,-1637.685,-26844.615,-7301.474999999999,-18114.12,-25980.075,-5781.554999999999,751.545
1764763435.0613527,-268.605,-1639.485,-26847.27,-7304.175,-18115.92,-25980.48,-5782.724999999999,750.78
1764763435.0613527,-267.84,-1638.225,-26845.065,-7301.519999999999,-18111.645,-25977.645,-5781.014999999999,751.77
1764763435.0613527,-262.305,-1632.015,-26838.9,-7294.86,-18106.065,-25973.415,-5777.594999999999,756.855
1764763435.0613527,-261.225,-1631.835,-26838.495,-7295.175,-18106.74,-25973.865,-5776.875,757.53
1764763435.0613527,-266.49,-1637.82,-26845.29,-7301.88,-18112.545,-25978.59,-5780.565,751.995
1764763435.0613527,-266.04,-1637.955,-26846.055,-7302.735,-18111.15,-25976.25,-5779.844999999999,753.975
1764763435.0613527,-269.415,-1641.96,-26850.24,-7307.639999999999,-18115.83,-25980.165,-5780.835,751.4549999999999
1764763435.1056342,-268.155,-1640.5649999999998,-26848.935,-7307.28,-18116.82,-25980.345,-5781.06,751.095
1764763435.1056342,-267.345,-1639.215,-26847.54,-7306.514999999999,-18116.73,-25980.345,-5781.465,752.265
1764763435.1056342,-267.39,-1638.09,-26846.37,-7305.03,-18115.425,-25980.255,-5781.014999999999,752.355
1764763435.1056342,-266.985,-1637.955,-26846.145,-7303.679999999999,-18114.795,-25979.04,-5780.429999999999,751.68
1764763435.106164,-265.815,-1637.325,-26845.29,-7302.375,-18113.94,-25978.095,-5780.429999999999,752.535
1764763435.106164,-261.495,-1633.185,-26840.565,-7298.594999999999,-18110.25,-25974.675,-5778.179999999999,757.035
1764763435.106164,-260.595,-1631.925,-26838.765,-7297.11,-18110.34,-25974.63,-5777.099999999999,757.485
1764763435.106164,-264.645,-1635.84,-26841.69,-7299.45,-18113.445,-25978.905,-5779.844999999999,752.985
1764763435.106164,-264.015,-1634.265,-26839.89,-7297.92,-18112.365,-25979.04,-5779.125,753.435
1764763435.106164,-263.97,-1634.6699999999998,-26841.78,-7300.17,-18113.22,-25979.13,-5778.675,753.885
1764763435.106164,-263.7,-1635.03,-26844.3,-7301.34,-18113.175,-25979.13,-5778.9,753.885
1764763435.106164,-263.16,-1633.8149999999998,-26842.14,-7300.394999999999,-18112.77,-25978.995,-5777.865,754.29
1764763435.106164,-261.63,-1631.475,-26839.035,-7298.28,-18111.69,-25977.51,-5777.639999999999,755.91
1764763435.106164,-257.58,-1627.74,-26834.04,-7292.565,-18107.055,-25972.92,-5775.389999999999,758.88
1764763435.1532538,-257.175,-1628.1,-26833.725,-7292.34,-18106.695,-25971.795,-5774.67,758.79
1764763435.1532538,-256.815,-1627.02,-26832.915,-7291.44,-18105.615,-25970.04,-5773.275,759.78
1764763435.1532538,-259.92,-1633.23,-26840.385,-7297.965,-18108.315,-25970.355,-5774.175,757.935
1764763435.1532538,-265.545,-1641.195,-26850.195,-7307.19,-18114.435,-25974.99,-5777.099999999999,753.435
1764763435.1532538,-269.28,-1644.9299999999998,-26853.705,-7310.384999999999,-18118.08,-25978.995,-5779.349999999999,749.43
1764763435.1532538,-269.595,-1644.345,-26852.13,-7309.62,-18117.135,-25978.995,-5780.205,748.5749999999999
1764763435.1532538,-265.725,-1639.665,-26847.09,-7304.94,-18113.715,-25975.35,-5778.179999999999,751.725
1764763435.1532538,-267.525,-1640.925,-26848.26,-7306.29,-18116.19,-25978.14,-5778.27,750.6899999999999
1764763435.1532538,-265.14,-1639.4399999999998,-26846.505,-7304.445,-18115.38,-25977.465,-5777.73,752.67
1764763435.1532538,-261.72,-1636.605,-26842.95,-7300.889999999999,-18112.32,-25973.865,-5776.02,754.92
1764763435.1532538,-261.99,-1635.39,-26842.095,-7299.63,-18110.295,-25973.145,-5775.615,754.92
1764763435.1532538,-259.92,-1632.33,-26838.855,-7296.075,-18108.09,-25971.165,-5773.679999999999,756.675
1764763435.1532538,-258.165,-1630.845,-26837.415,-7293.599999999999,-18108.045,-25970.31,-5772.645,757.755
1764763435.1532538,-263.565,-1635.975,-26842.14,-7299.179999999999,-18113.58,-25975.935,-5776.92,752.85
1764763435.1532538,-262.935,-1635.7949999999998,-26841.555,-7299.269999999999,-18112.455,-25974.945,-5776.605,753.12
1764763435.1532538,-260.19,-1632.78,-26838.63,-7295.264999999999,-18108.63,-25971.12,-5774.13,757.0799999999999
1764763435.1532538,-263.025,-1637.46,-26844.39,-7300.17,-18110.61,-25973.1,-5775.435,755.4599999999999
1764763435.1532538,-264.825,-1640.2949999999998,-26847.495,-7303.23,-18112.32,-25974.54,-5776.83,753.885
1764763435.1532538,-266.49,-1639.845,-26847.27,-7303.679999999999,-18113.13,-25975.62,-5777.91,752.31
1764763435.1532538,-268.47,-1641.24,-26847.945,-7304.804999999999,-18114.705,-25977.33,-5779.575,750.3299999999999
1764763435.1532538,-263.34,-1635.975,-26842.5,-7298.73,-18110.34,-25973.595,-5776.38,754.6949999999999
1764763435.1532538,-261.765,-1634.04,-26839.845,-7297.38,-18108.945,-25972.74,-5775.344999999999,755.055
1764763435.1532538,-261.63,-1633.86,-26839.935,-7298.054999999999,-18109.755,-25974.045,-5775.48,754.56
1764763435.1532538,-267.255,-1638.855,-26846.37,-7304.49,-18116.955,-25981.47,-5780.429999999999,749.745
1764763435.15379,-266.4,-1638.225,-26846.505,-7303.679999999999,-18115.155,-25979.58,-5779.26,751.185
1764763435.15379,-271.17,-1643.265,-26852.355,-7309.17,-18119.745,-25983.225,-5781.78,746.505
1764763435.15379,-271.035,-1642.455,-26850.87,-7307.28,-18118.98,-25982.64,-5781.375,746.685
1764763435.15379,-268.56,-1640.07,-26847.99,-7304.04,-18116.595,-25980.165,-5779.44,748.89
1764763435.15379,-266.625,-1637.685,-26845.56,-7301.969999999999,-18114.21,-25977.915,-5777.415,750.735
1764763435.15379,-262.44,-1632.6899999999998,-26839.845,-7295.94,-18109.8,-25973.37,-5774.849999999999,755.235
1764763435.200629,-265.275,-1636.245,-26843.49,-7299.945,-18113.715,-25977.555,-5777.639999999999,751.8149999999999
1764763435.2016785,-265.32,-1637.415,-26844.435,-7301.61,-18114.66,-25977.78,-5777.415,751.86
1764763435.2016785,-262.845,-1634.445,-26841.87,-7298.594999999999,-18110.97,-25973.865,-5775.165,755.1899999999999
1764763435.2016785,-263.97,-1635.7949999999998,-26842.59,-7299.269999999999,-18111.645,-25975.62,-5776.065,753.3
1764763435.2016785,-264.69,-1636.74,-26843.265,-7299.945,-18111.78,-25975.89,-5775.84,752.895
1764763435.2016785,-266.13,-1638.1799999999998,-26845.29,-7302.599999999999,-18113.535,-25977.195,-5776.514999999999,751.995
1764763435.2016785,-269.73,-1641.735,-26850.015,-7307.505,-18119.34,-25981.245,-5778.54,748.17
1764763435.2016785,-270.585,-1642.6799999999998,-26852.355,-7310.115,-18121.905,-25983.765,-5780.115,748.0799999999999
1764763435.2016785,-266.805,-1640.025,-26850.195,-7308.0,-18119.475,-25981.335,-5778.585,752.04
1764763435.2016785,-266.265,-1639.1699999999998,-26849.205,-7306.965,-18119.475,-25981.605,-5778.855,751.275
1764763435.2026968,-267.435,-1639.53,-26849.205,-7306.74,-18119.07,-25981.65,-5779.53,750.51
1764763435.2026968,-269.01,-1641.015,-26849.07,-7307.46,-18120.42,-25982.82,-5779.935,749.475
1764763435.2026968,-263.79,-1636.02,-26843.4,-7303.365,-18117.675,-25980.345,-5778.045,753.525
1764763435.2026968,-267.39,-1639.665,-26846.19,-7306.2,-18121.32,-25985.07,-5781.554999999999,748.755
1764763435.2026968,-267.165,-1639.845,-26846.055,-7304.58,-18119.745,-25984.44,-5780.7,749.0699999999999
1764763435.2026968,-266.445,-1639.845,-26846.415,-7304.759999999999,-18118.395,-25982.91,-5778.585,750.015
1764763435.2026968,-267.21,-1640.25,-26847.27,-7305.075,-18117.18,-25980.885,-5778.63,751.005
1764763435.2026968,-271.845,-1645.335,-26851.68,-7308.855,-18121.005,-25983.63,-5780.969999999999,747.135
1764763435.2026968,-271.665,-1646.01,-26852.355,-7310.07,-18121.905,-25983.54,-5781.014999999999,747.27
1764763435.2026968,-270.405,-1644.345,-26851.32,-7309.125,-18121.59,-25983.45,-5781.51,747.9449999999999
1764763435.2026968,-266.985,-1639.53,-26846.46,-7304.94,-18117.135,-25980.03,-5779.53,750.555
1764763435.2026968,-267.795,-1638.72,-26846.37,-7304.219999999999,-18117.855,-25980.525,-5779.08,749.655
1764763435.2026968,-264.51,-1635.57,-26843.445,-7300.889999999999,-18115.83,-25978.59,-5777.19,752.4449999999999
1764763435.2026968,-271.17,-1643.13,-26851.59,-7309.844999999999,-18122.715,-25985.43,-5782.275,746.145
1764763435.2026968,-272.295,-1645.9199999999998,-26854.83,-7312.139999999999,-18124.245,-25985.88,-5783.219999999999,745.155
1764763435.2026968,-271.62,-1645.155,-26853.93,-7311.735,-18123.66,-25985.61,-5782.679999999999,745.29
1764763435.2453492,-270.45,-1644.48,-26852.85,-7309.8,-18122.535,-25984.62,-5781.105,746.145
1764763435.2453492,-267.57,-1641.645,-26849.745,-7307.415,-18120.645,-25981.245,-5779.395,749.43
1764763435.2468326,-268.965,-1641.51,-26849.565,-7308.36,-18122.355,-25983.405,-5780.565,746.595
1764763435.2468326,-265.05,-1637.145,-26845.515,-7303.545,-18118.08,-25980.21,-5778.495,749.0699999999999
1764763435.2468326,-268.02,-1641.195,-26849.205,-7307.009999999999,-18119.16,-25981.155,-5779.53,746.9549999999999
1764763435.2468326,-264.78,-1639.53,-26847.54,-7305.12,-18115.02,-25976.655,-5775.795,751.545
1764763435.2468326,-265.005,-1639.935,-26847.675,-7305.21,-18116.01,-25977.87,-5775.705,751.5
1764763435.2468326,-266.94,-1641.015,-26848.44,-7305.795,-18117.315,-25979.895,-5776.785,749.16
1764763435.2468326,-262.89,-1636.9199999999998,-26843.985,-7301.34,-18112.995,-25975.44,-5774.13,753.525
1764763435.2468326,-264.24,-1637.955,-26846.01,-7302.105,-18114.48,-25976.835,-5775.344999999999,752.175
1764763435.2468326,-268.2,-1641.87,-26850.645,-7306.38,-18118.89,-25981.02,-5778.405,747.675
1764763435.2468326,-268.74,-1643.13,-26851.095,-7306.965,-18119.88,-25981.695,-5778.63,747.225
1764763435.2468326,-268.155,-1642.32,-26851.005,-7307.594999999999,-18120.915,-25982.595,-5779.26,747.72
1764763435.2468326,-266.04,-1639.4399999999998,-26848.215,-7305.615,-18119.295,-25981.425,-5778.405,749.79
1764763435.2468326,-260.73,-1634.49,-26842.185,-7298.594999999999,-18113.445,-25976.025,-5775.21,754.11
1764763435.2468326,-258.39,-1630.575,-26837.82,-7295.355,-18111.105,-25975.08,-5773.59,755.3249999999999
1764763435.2468326,-257.31,-1628.685,-26834.94,-7292.88,-18109.44,-25974.315,-5772.42,756.135
1764763435.2468326,-263.205,-1636.155,-26843.085,-7299.719999999999,-18114.435,-25979.31,-5775.3,751.545
1764763435.2468326,-264.195,-1637.685,-26844.705,-7302.15,-18116.505,-25981.02,-5775.344999999999,750.645
1764763435.2468326,-264.42,-1638.675,-26846.145,-7303.86,-18117.675,-25981.245,-5775.66,750.915
1764763435.2483492,-267.705,-1643.22,-26851.365,-7308.45,-18118.53,-25981.38,-5776.785,749.295
1764763435.2483492,-269.19,-1644.3,-26853.12,-7309.62,-18120.78,-25982.955,-5778.36,747.405
1764763435.2944007,-268.47,-1643.04,-26851.815,-7308.315,-18121.68,-25983.09,-5778.315,747.855
1764763435.2944007,-269.235,-1643.625,-26852.445,-7308.269999999999,-18121.365,-25982.91,-5777.955,747.63
1764763435.2944007,-267.525,-1642.5449999999998,-26850.375,-7307.144999999999,-18120.645,-25981.515,-5777.775,748.53
1764763435.2944007,-262.89,-1638.0449999999998,-26846.505,-7303.545,-18117.225,-25978.455,-5775.12,752.31
1764763435.2944007,-262.395,-1636.335,-26844.48,-7302.105,-18115.38,-25977.33,-5773.23,753.66
1764763435.2944007,-265.455,-1639.8,-26846.595,-7303.634999999999,-18116.955,-25979.85,-5775.705,750.375
1764763435.2944007,-267.66,-1642.995,-26848.98,-7305.705,-18119.07,-25981.74,-5776.514999999999,748.395
1764763435.2944007,-272.295,-1648.08,-26855.235,-7311.915,-18124.92,-25987.05,-5779.98,743.67
1764763435.2944007,-271.035,-1645.965,-26854.2,-7311.285,-18124.695,-25987.275,-5780.835,744.7049999999999
1764763435.2944007,-266.58,-1640.475,-26848.62,-7306.514999999999,-18120.78,-25983.63,-5778.45,748.755
1764763435.2944007,-268.695,-1642.095,-26849.025,-7307.505,-18123.12,-25986.87,-5779.395,745.8299999999999
1764763435.2944007,-268.38,-1640.07,-26846.46,-7305.12,-18122.085,-25986.015,-5779.53,745.47
1764763435.2944007,-263.745,-1635.345,-26841.87,-7300.44,-18116.595,-25980.615,-5776.965,750.06
1764763435.2944007,-264.015,-1637.595,-26844.975,-7302.014999999999,-18115.11,-25978.995,-5775.21,751.14
1764763435.2944007,-267.165,-1642.365,-26850.825,-7305.795,-18117.72,-25979.715,-5775.57,748.7099999999999
1764763435.2944007,-269.37,-1644.66,-26852.31,-7307.55,-18120.06,-25981.47,-5777.73,746.685
1764763435.2944007,-270.405,-1645.74,-26853.03,-7309.53,-18122.13,-25983.765,-5778.224999999999,746.235
1764763435.2944007,-274.68,-1649.88,-26857.395,-7314.84,-18126.765,-25988.67,-5781.24,742.185
1764763435.2944007,-273.465,-1648.89,-26856.99,-7314.12,-18125.73,-25987.545,-5781.42,742.86
1764763435.2944007,-271.8,-1647.27,-26854.74,-7311.285,-18123.75,-25985.7,-5780.07,743.985
1764763435.2944007,-270.0,-1644.165,-26852.13,-7308.179999999999,-18121.455,-25983.18,-5778.09,746.145
1764763435.2944007,-272.925,-1646.64,-26854.605,-7310.745,-18124.155,-25986.015,-5779.575,743.4
1764763435.3387723,-271.53,-1645.695,-26852.895,-7308.809999999999,-18121.815,-25984.215,-5779.304999999999,744.5699999999999
1764763435.3387723,-266.31,-1640.34,-26846.865,-7302.825,-18115.605,-25978.32,-5774.849999999999,750.06
1764763435.3387723,-263.88,-1637.91,-26844.615,-7300.394999999999,-18113.895,-25975.98,-5772.24,752.4449999999999
1764763435.3387723,-265.095,-1639.215,-26846.505,-7301.969999999999,-18116.28,-25978.365,-5773.545,751.005
1764763435.3387723,-266.985,-1640.745,-26848.35,-7304.894999999999,-18119.745,-25982.64,-5775.344999999999,748.665
1764763435.3387723,-268.11,-1641.06,-26847.63,-7304.759999999999,-18120.33,-25984.305,-5776.245,747.495
1764763435.3387723,-267.525,-1640.025,-26845.83,-7302.33,-18118.395,-25982.415,-5775.03,748.17
1764763435.3387723,-264.33,-1637.595,-26844.03,-7300.98,-18115.92,-25979.4,-5771.52,750.42
1764763435.3387723,-261.27,-1636.0649999999998,-26842.68,-7299.9,-18113.67,-25976.52,-5769.675,753.5699999999999
1764763435.3387723,-263.115,-1639.08,-26846.64,-7303.995,-18117.18,-25978.905,-5771.52,752.895
1764763435.3387723,-264.555,-1639.98,-26848.485,-7306.065,-18119.79,-25980.885,-5772.96,750.915
1764763435.3387723,-264.87,-1640.205,-26848.845,-7306.605,-18121.095,-25981.695,-5772.78,750.06
1764763435.3387723,-260.955,-1636.245,-26844.435,-7303.005,-18117.45,-25977.87,-5770.26,754.65
1764763435.3387723,-263.43,-1638.9,-26846.82,-7305.03,-18119.565,-25979.85,-5772.42,752.625
1764763435.340334,-263.745,-1638.3149999999998,-26845.065,-7303.275,-18119.655,-25981.29,-5773.139999999999,751.275
1764763435.340334,-264.33,-1638.495,-26844.705,-7302.69,-18120.105,-25982.37,-5772.825,749.0699999999999
1764763435.340334,-264.195,-1638.81,-26845.875,-7303.455,-18119.7,-25981.11,-5772.24,750.105
1764763435.340334,-264.42,-1639.665,-26848.215,-7305.075,-18119.88,-25980.975,-5772.599999999999,751.4549999999999
1764763435.3406837,-267.21,-1641.735,-26850.33,-7307.415,-18123.255,-25984.305,-5773.95,747.63
1764763435.3406837,-266.22,-1640.475,-26848.62,-7305.75,-18121.005,-25981.29,-5771.52,749.52
1764763435.3406837,-262.755,-1638.1799999999998,-26846.145,-7302.509999999999,-18117.765,-25976.565,-5769.135,753.2099999999999
1764763435.3406837,-261.495,-1636.785,-26846.1,-7301.07,-18116.865,-25974.9,-5768.145,754.3349999999999
1764763435.3406837,-261.945,-1636.9199999999998,-26846.01,-7301.205,-18117.495,-25976.385,-5768.19,753.7049999999999
1764763435.3406837,-266.76,-1641.51,-26849.745,-7305.344999999999,-18121.815,-25982.19,-5772.105,749.0699999999999
1764763435.3837929,-264.96,-1638.72,-26847.225,-7302.599999999999,-18120.24,-25980.84,-5771.52,749.97
1764763435.3837929,-261.495,-1636.38,-26844.795,-7299.719999999999,-18117.405,-25977.78,-5770.304999999999,752.895
1764763435.3837929,-263.745,-1639.53,-26847.09,-7302.465,-18118.98,-25979.715,-5771.745,750.87
1764763435.384846,-266.31,-1641.015,-26848.98,-7305.48,-18122.49,-25983.45,-5774.175,747.0899999999999
1764763435.384846,-262.89,-1637.73,-26846.055,-7302.644999999999,-18119.295,-25979.895,-5771.745,751.005
1764763435.384846,-266.625,-1642.14,-26850.51,-7305.929999999999,-18122.085,-25981.695,-5773.679999999999,748.98
1764763435.384846,-270.63,-1646.1899999999998,-26855.37,-7310.205,-18125.415,-25984.755,-5776.11,745.155
1764763435.384846,-263.97,-1639.89,-26848.17,-7303.679999999999,-18118.98,-25978.275,-5771.07,750.78
1764763435.384846,-261.72,-1636.38,-26843.535,-7299.945,-18116.415,-25977.015,-5769.81,752.67
1764763435.384846,-263.34,-1636.02,-26842.41,-7299.315,-18116.82,-25978.905,-5771.34,750.87
1764763435.384846,-261.36,-1633.455,-26839.8,-7296.344999999999,-18115.335,-25978.68,-5770.62,752.535
1764763435.384846,-262.395,-1634.85,-26841.42,-7298.37,-18117.495,-25980.48,-5771.16,751.14
1764763435.3858614,-265.77,-1638.27,-26845.38,-7302.014999999999,-18121.59,-25983.36,-5772.554999999999,747.72
1764763435.3858614,-263.34,-1637.595,-26846.28,-7301.565,-18119.52,-25979.49,-5770.44,750.6899999999999
1764763435.3858614,-264.915,-1641.915,-26850.645,-7304.894999999999,-18119.205,-25978.77,-5770.8,750.51
1764763435.3858614,-264.51,-1640.79,-26848.8,-7303.59,-18117.9,-25978.365,-5770.62,751.365
1764763435.3858614,-263.115,-1638.63,-26845.695,-7301.16,-18117.18,-25977.915,-5769.99,751.41
1764763435.3858614,-262.305,-1636.695,-26842.815,-7298.28,-18115.47,-25976.79,-5768.82,751.185
1764763435.3858614,-257.4,-1630.665,-26837.46,-7292.969999999999,-18110.745,-25972.74,-5765.895,755.505
1764763435.3858614,-262.845,-1635.57,-26842.905,-7299.945,-18118.35,-25979.85,-5770.755,750.1949999999999
1764763435.3858614,-262.71,-1636.155,-26843.4,-7301.745,-18120.645,-25982.37,-5770.665,749.925
1764763435.3858614,-262.44,-1637.73,-26846.46,-7303.32,-18121.995,-25982.865,-5770.215,751.14
1764763435.3858614,-262.665,-1638.765,-26848.395,-7304.849999999999,-18122.13,-25982.73,-5771.025,751.185
1764763435.3858614,-262.35,-1638.855,-26848.485,-7304.445,-18120.465,-25979.535,-5770.665,752.985
1764763435.434492,-267.795,-1644.525,-26853.39,-7310.07,-18125.46,-25983.945,-5773.905,747.3149999999999
1764763435.434492,-270.945,-1647.765,-26857.35,-7313.085,-18128.115,-25986.69,-5776.065,744.255
1764763435.434492,-269.865,-1646.28,-26855.64,-7310.7,-18126.405,-25986.24,-5775.435,745.29
1764763435.434492,-267.3,-1643.49,-26851.86,-7307.415,-18123.93,-25983.99,-5774.445,747.135
1764763435.434492,-263.88,-1640.07,-26848.08,-7303.95,-18120.915,-25980.75,-5771.61,750.42
1764763435.434492,-268.695,-1644.345,-26853.165,-7309.304999999999,-18126.63,-25985.34,-5775.705,745.155
1764763435.434492,-267.705,-1643.49,-26853.435,-7309.17,-18125.64,-25984.305,-5775.075,746.37
1764763435.434492,-269.73,-1644.525,-26854.29,-7310.745,-18127.125,-25986.87,-5776.245,744.66
1764763435.434492,-265.005,-1638.765,-26846.64,-7304.535,-18123.39,-25983.225,-5774.04,748.53
1764763435.434492,-264.195,-1637.0549999999998,-26844.39,-7302.375,-18122.535,-25983.09,-5773.77,748.53
1764763435.434492,-263.88,-1634.625,-26841.555,-7300.215,-18122.04,-25983.27,-5774.04,748.53
1764763435.434492,-263.52,-1634.355,-26841.51,-7299.719999999999,-18121.275,-25981.83,-5774.13,748.17
1764763435.434492,-266.265,-1639.08,-26846.82,-7303.41,-18121.77,-25981.38,-5773.455,747.27
1764763435.434492,-266.445,-1638.72,-26846.955,-7302.96,-18121.095,-25981.605,-5772.825,747.4499999999999
1764763435.434492,-265.725,-1638.585,-26846.865,-7302.96,-18119.745,-25980.48,-5771.79,748.26
1764763435.434492,-264.69,-1636.74,-26844.39,-7299.855,-18117.9,-25979.76,-5770.62,749.52
1764763435.434492,-262.98,-1633.8149999999998,-26841.24,-7298.19,-18117.945,-25979.265,-5769.495,750.06
1764763435.434492,-265.23,-1638.09,-26845.965,-7302.78,-18122.085,-25982.055,-5771.52,747.855
1764763435.434492,-267.57,-1641.6899999999998,-26850.51,-7306.695,-18125.415,-25984.62,-5773.139999999999,746.595
1764763435.434492,-273.33,-1649.88,-26859.42,-7315.469999999999,-18130.545,-25988.67,-5775.84,742.3199999999999
1764763435.434492,-274.725,-1652.22,-26863.2,-7317.945,-18130.14,-25988.13,-5776.56,741.51
1764763435.434492,-271.98,-1648.08,-26859.87,-7314.12,-18126.99,-25984.395,-5775.48,744.5699999999999
1764763435.434492,-271.44,-1646.73,-26858.745,-7312.724999999999,-18126.63,-25984.26,-5775.615,743.985
1764763435.434492,-270.045,-1645.9199999999998,-26856.135,-7311.15,-18126.09,-25984.215,-5774.4,744.975
1764763435.4784298,-268.47,-1644.57,-26854.56,-7309.62,-18125.91,-25983.855,-5772.915,746.37
1764763435.4784298,-271.62,-1647.855,-26857.215,-7312.32,-18129.6,-25987.095,-5775.075,743.0849999999999
1764763435.4784298,-267.615,-1643.49,-26852.58,-7308.224999999999,-18126.72,-25984.8,-5772.554999999999,746.4599999999999
1764763435.4784298,-268.605,-1643.8049999999998,-26853.03,-7308.719999999999,-18127.395,-25986.69,-5773.139999999999,744.8399999999999
1764763435.4784298,-266.355,-1642.5449999999998,-26851.5,-7306.245,-18123.93,-25983.225,-5771.565,747.72
1764763435.4784298,-267.75,-1643.49,-26852.67,-7308.134999999999,-18124.605,-25983.27,-5772.15,746.91
1764763435.4784298,-266.49,-1641.195,-26851.275,-7306.514999999999,-18124.605,-25983.72,-5772.69,747.36
1764763435.4784298,-265.32,-1640.07,-26849.25,-7304.715,-18123.48,-25983.09,-5771.745,747.81
1764763435.4784298,-266.58,-1642.365,-26852.31,-7306.155,-18124.245,-25983.27,-5771.88,747.405
1764763435.4784298,-267.57,-1643.175,-26854.515,-7307.37,-18124.2,-25983.315,-5771.79,747.045
1764763435.4784298,-268.335,-1643.49,-26854.38,-7307.144999999999,-18123.795,-25983.27,-5772.15,747.36
1764763435.4784298,-274.365,-1649.4299999999998,-26860.23,-7313.715,-18130.005,-25988.85,-5776.74,742.185
1764763435.4784298,-272.07,-1646.0549999999998,-26856.315,-7310.16,-18126.27,-25985.835,-5775.389999999999,744.0749999999999
1764763435.4784298,-275.445,-1649.4299999999998,-26858.565,-7312.59,-18128.79,-25989.075,-5777.145,740.52
1764763435.4784298,-274.005,-1647.225,-26856.81,-7310.969999999999,-18127.44,-25988.13,-5776.2,741.285
1764763435.4784298,-269.1,-1641.96,-26851.23,-7306.335,-18124.425,-25984.575,-5773.724999999999,745.3349999999999
1764763435.480219,-269.865,-1641.195,-26850.24,-7305.615,-18126.09,-25986.33,-5774.445,743.265
1764763435.480219,-268.335,-1639.53,-26847.765,-7303.365,-18124.47,-25986.6,-5774.355,744.0749999999999
1764763435.480219,-267.21,-1638.945,-26848.17,-7303.545,-18124.605,-25987.005,-5773.545,746.235
1764763435.480219,-267.795,-1641.015,-26851.41,-7306.155,-18125.055,-25985.52,-5772.42,747.18
1764763435.480219,-263.295,-1636.83,-26847.54,-7301.61,-18121.32,-25980.885,-5768.955,751.005
1764763435.480219,-266.535,-1640.385,-26851.005,-7306.29,-18126.27,-25985.115,-5771.969999999999,748.17
1764763435.480219,-272.205,-1648.08,-26860.095,-7316.009999999999,-18134.145,-25991.865,-5776.155,742.86
1764763435.480219,-269.325,-1645.02,-26856.315,-7313.04,-18131.04,-25989.885,-5774.895,745.02
1764763435.5284271,-267.48,-1641.375,-26851.275,-7309.215,-18129.33,-25988.445,-5773.77,746.73
1764763435.5284271,-268.29,-1641.4199999999998,-26851.77,-7309.215,-18129.645,-25988.895,-5773.95,745.11
1764763435.5284271,-269.685,-1643.265,-26853.975,-7311.42,-18130.815,-25989.795,-5774.895,744.525
1764763435.5284271,-272.34,-1647.81,-26859.645,-7316.19,-18132.795,-25990.29,-5775.48,742.005
1764763435.5284271,-276.66,-1652.13,-26863.515,-7319.295,-18135.27,-25992.765,-5777.639999999999,737.73
1764763435.5284271,-273.645,-1647.99,-26858.565,-7314.255,-18133.515,-25990.92,-5776.245,740.295
1764763435.5284271,-269.325,-1643.625,-26854.515,-7310.745,-18128.88,-25986.78,-5773.86,744.345
1764763435.5284271,-274.23,-1648.665,-26859.015,-7315.11,-18132.84,-25991.64,-5777.235,739.53
1764763435.5284271,-272.79,-1646.865,-26857.17,-7312.455,-18131.04,-25990.47,-5776.92,741.15
1764763435.5284271,-267.84,-1642.5449999999998,-26851.995,-7307.144999999999,-18124.92,-25985.295,-5772.87,746.145
1764763435.5284271,-265.68,-1640.115,-26849.115,-7304.894999999999,-18123.705,-25985.565,-5771.61,746.91
1764763435.5284271,-268.29,-1640.61,-26850.555,-7306.83,-18126.945,-25988.805,-5773.455,744.12
1764763435.5284271,-265.275,-1637.505,-26847.495,-7303.545,-18124.02,-25985.835,-5772.014999999999,746.64
1764763435.5284271,-267.075,-1640.79,-26850.105,-7305.48,-18124.47,-25985.655,-5772.78,745.11
1764763435.5284271,-269.415,-1644.705,-26854.965,-7309.665,-18126.63,-25987.455,-5774.94,743.67
1764763435.5284271,-272.115,-1648.395,-26860.725,-7314.705,-18129.105,-25988.355,-5775.255,742.23
1764763435.5284271,-272.34,-1649.34,-26861.715,-7315.965,-18129.015,-25988.22,-5774.804999999999,741.105
1764763435.5284271,-272.205,-1647.0449999999998,-26857.53,-7312.905,-18129.555,-25989.885,-5775.615,740.43
1764763435.5284271,-272.61,-1646.145,-26855.73,-7312.455,-18131.22,-25992.495,-5777.054999999999,739.035
1764763435.5284271,-268.2,-1641.645,-26851.41,-7308.585,-18127.62,-25989.03,-5773.77,743.49
1764763435.5284271,-272.34,-1647.855,-26859.195,-7315.74,-18131.85,-25991.685,-5774.804999999999,740.43
1764763435.5284271,-272.52,-1650.33,-26863.47,-7317.54,-18130.275,-25988.58,-5774.04,741.8249999999999
1764763435.5737054,-272.745,-1648.62,-26861.985,-7315.83,-18129.915,-25988.85,-5774.58,740.88
1764763435.5737054,-272.34,-1645.605,-26856.72,-7312.094999999999,-18129.015,-25988.985,-5775.389999999999,740.16
1764763435.5737054,-265.365,-1638.72,-26847.99,-7303.59,-18121.23,-25982.505,-5770.755,746.4599999999999
1764763435.5737054,-263.34,-1636.155,-26845.74,-7300.44,-18118.62,-25980.615,-5768.415,748.395
1764763435.5737054,-266.58,-1640.88,-26851.905,-7305.795,-18121.905,-25982.145,-5769.315,746.505
1764763435.5737054,-277.515,-1655.325,-26868.33,-7322.13,-18134.19,-25991.685,-5776.425,738.765
1764763435.5737054,-278.685,-1655.415,-26870.4,-7324.875,-18137.655,-25994.79,-5778.09,738.225
1764763435.5737054,-276.39,-1651.59,-26865.405,-7320.69,-18137.07,-25996.05,-5778.045,738.63
1764763435.5737054,-273.78,-1647.945,-26860.905,-7316.91,-18135.54,-25995.15,-5778.179999999999,739.395
1764763435.5737054,-269.55,-1641.915,-26854.29,-7309.665,-18128.475,-25989.795,-5774.264999999999,743.985
1764763435.5737054,-274.185,-1645.605,-26858.475,-7313.715,-18132.03,-25993.08,-5776.245,740.52
1764763435.5737054,-276.255,-1649.5649999999998,-26863.74,-7317.764999999999,-18134.235,-25993.665,-5777.19,739.26
1764763435.5742202,-273.195,-1647.54,-26861.175,-7315.019999999999,-18131.04,-25989.48,-5774.895,742.095
1764763435.5742202,-270.855,-1644.705,-26856.99,-7311.24,-18129.105,-25988.805,-5773.094999999999,743.85
1764763435.5742202,-269.235,-1642.77,-26854.785,-7308.719999999999,-18128.115,-25987.86,-5772.014999999999,745.56
1764763435.5742202,-269.505,-1642.6799999999998,-26855.055,-7310.565,-18130.05,-25989.66,-5773.679999999999,744.435
1764763435.5742202,-268.605,-1641.015,-26853.885,-7310.519999999999,-18130.68,-25991.28,-5774.04,744.5699999999999
1764763435.5742202,-270.945,-1642.32,-26855.415,-7311.42,-18133.02,-25993.935,-5775.344999999999,741.8249999999999
1764763435.5742202,-269.91,-1642.32,-26855.73,-7310.655,-18129.78,-25989.84,-5773.5,743.535
1764763435.5742202,-275.94,-1649.97,-26864.73,-7319.025,-18134.955,-25994.205,-5777.145,738.63
1764763435.5742202,-275.085,-1650.645,-26865.18,-7320.15,-18135.99,-25995.015,-5778.045,738.72
1764763435.5742202,-269.19,-1645.9199999999998,-26860.05,-7314.12,-18131.355,-25989.795,-5774.804999999999,744.345
1764763435.5742202,-270.18,-1645.695,-26859.78,-7313.715,-18131.805,-25990.335,-5774.67,744.0749999999999
1764763435.5742202,-273.645,-1647.765,-26861.265,-7315.425,-18133.38,-25992.225,-5775.615,741.78
1764763435.6204357,-270.585,-1644.39,-26858.295,-7311.78,-18129.96,-25988.85,-5772.554999999999,745.56
1764763435.6204357,-272.205,-1645.875,-26859.78,-7312.995,-18132.525,-25991.055,-5774.355,743.76
1764763435.6204357,-272.295,-1646.1899999999998,-26860.41,-7313.58,-18132.795,-25991.37,-5774.13,743.0849999999999
1764763435.6204357,-273.105,-1648.62,-26862.12,-7315.83,-18133.515,-25992.405,-5774.67,742.545
1764763435.6204357,-276.345,-1651.185,-26865.54,-7319.34,-18136.845,-25995.96,-5777.37,739.17
1764763435.6204357,-273.96,-1649.07,-26863.065,-7316.82,-18135.495,-25994.7,-5775.705,740.61
1764763435.6204357,-269.505,-1644.255,-26858.295,-7311.78,-18130.995,-25989.48,-5773.05,745.02
1764763435.6204357,-269.46,-1642.995,-26856.72,-7310.88,-18130.77,-25988.94,-5773.32,744.885
1764763435.6204357,-271.665,-1643.49,-26857.17,-7311.105,-18131.49,-25990.29,-5774.219999999999,743.4449999999999
1764763435.6204357,-273.87,-1646.145,-26859.195,-7313.355,-18133.335,-25992.405,-5774.849999999999,740.61
1764763435.6204357,-269.82,-1642.8149999999998,-26854.92,-7309.125,-18128.385,-25988.085,-5771.565,744.3
1764763435.6204357,-268.785,-1642.14,-26854.065,-7308.63,-18127.89,-25987.68,-5770.889999999999,745.11
1764763435.6204357,-268.695,-1641.6,-26853.885,-7308.719999999999,-18128.205,-25987.545,-5770.71,745.0649999999999
1764763435.6204357,-270.045,-1642.77,-26854.695,-7309.665,-18129.645,-25989.39,-5771.52,743.805
1764763435.6204357,-273.375,-1646.37,-26857.845,-7313.264999999999,-18133.11,-25993.17,-5773.679999999999,740.88
1764763435.6204357,-272.25,-1645.47,-26857.305,-7311.599999999999,-18131.175,-25990.02,-5772.105,741.9599999999999
1764763435.6204357,-268.74,-1641.51,-26853.435,-7307.054999999999,-18126.54,-25985.565,-5769.54,745.6949999999999
1764763435.6204357,-269.865,-1642.6799999999998,-26854.695,-7308.63,-18127.62,-25986.555,-5770.215,744.75
1764763435.6204357,-272.475,-1646.37,-26858.475,-7312.815,-18131.715,-25990.02,-5772.42,741.735
1764763435.6204357,-268.74,-1641.78,-26853.525,-7308.585,-18129.6,-25987.635,-5770.98,744.885
1764763435.6204357,-268.605,-1639.89,-26852.265,-7307.19,-18128.97,-25987.995,-5770.485,745.11
1764763435.6204357,-270.585,-1642.185,-26854.065,-7309.44,-18132.39,-25992.09,-5772.78,741.735
1764763435.6204357,-267.12,-1638.765,-26850.645,-7305.795,-18128.115,-25989.03,-5770.755,743.985
1764763435.6204357,-271.845,-1645.155,-26855.865,-7310.429999999999,-18132.03,-25991.73,-5772.825,739.5749999999999
1764763435.6683326,-275.805,-1650.96,-26863.29,-7316.55,-18134.865,-25992.45,-5773.679999999999,738.27
1764763435.6688716,-276.795,-1653.57,-26867.295,-7319.429999999999,-18134.64,-25990.605,-5773.365,738.72
1764763435.6688716,-272.295,-1648.845,-26862.57,-7314.21,-18130.77,-25986.195,-5770.53,742.68
1764763435.6688716,-270.18,-1645.38,-26858.835,-7311.465,-18129.87,-25986.285,-5769.36,744.255
1764763435.6688716,-270.855,-1646.37,-26859.915,-7313.535,-18131.895,-25987.905,-5770.395,742.635
1764763435.6688716,-273.735,-1649.2949999999998,-26863.38,-7317.045,-18135.63,-25991.19,-5772.96,739.305
1764763435.6688716,-270.675,-1646.325,-26859.78,-7312.86,-18132.48,-25988.355,-5771.07,741.87
1764763435.6688716,-274.365,-1649.475,-26862.93,-7315.65,-18135.54,-25992.135,-5774.219999999999,737.8199999999999
1764763435.6688716,-270.315,-1644.12,-26857.125,-7309.844999999999,-18129.87,-25988.175,-5771.115,742.86
1764763435.6688716,-269.28,-1642.14,-26854.29,-7308.045,-18127.845,-25986.555,-5770.08,744.3
1764763435.6688716,-268.785,-1641.78,-26854.515,-7307.865,-18128.565,-25987.32,-5769.855,743.76
1764763435.6688716,-269.64,-1643.49,-26856.495,-7310.34,-18131.265,-25988.58,-5770.575,742.9499999999999
1764763435.6688716,-268.515,-1642.635,-26856.225,-7310.565,-18133.155,-25989.39,-5770.755,743.0849999999999
1764763435.6688716,-269.19,-1642.905,-26856.675,-7310.474999999999,-18132.705,-25989.57,-5770.53,743.13
1764763435.6688716,-272.61,-1645.785,-26859.51,-7312.41,-18133.02,-25990.74,-5771.565,740.025
1764763435.6688716,-269.055,-1642.32,-26856.765,-7309.934999999999,-18128.925,-25986.33,-5769.09,743.49
1764763435.6688716,-269.145,-1643.715,-26858.79,-7311.825,-18128.88,-25986.285,-5768.82,743.67
1764763435.6688716,-270.405,-1645.02,-26860.905,-7312.95,-18130.905,-25987.77,-5769.495,743.22
1764763435.6688716,-270.135,-1644.7949999999998,-26860.59,-7312.275,-18130.995,-25988.13,-5769.675,743.67
1764763435.6688716,-270.855,-1645.425,-26860.32,-7312.545,-18131.22,-25989.3,-5769.719999999999,742.9499999999999
1764763435.6688716,-271.35,-1645.695,-26859.825,-7312.005,-18130.905,-25988.67,-5769.63,743.04
1764763435.6688716,-270.63,-1645.605,-26858.925,-7311.24,-18130.995,-25988.76,-5769.81,742.635
1764763435.6688716,-272.16,-1646.55,-26860.365,-7313.219999999999,-18132.795,-25990.155,-5770.98,740.88
1764763435.6688716,-274.68,-1648.215,-26861.625,-7314.255,-18134.145,-25992.405,-5772.554999999999,738.63
1764763435.7158003,-270.72,-1643.265,-26857.53,-7309.665,-18130.095,-25988.265,-5770.125,742.77
1764763435.7158003,-268.47,-1642.77,-26857.62,-7309.304999999999,-18129.06,-25986.555,-5768.46,744.48
1764763435.7158003,-269.19,-1643.76,-26858.295,-7310.835,-18129.33,-25987.05,-5768.37,743.805
1764763435.7158003,-271.935,-1646.1899999999998,-26861.085,-7313.715,-18134.055,-25991.73,-5771.429999999999,740.52
1764763435.7158003,-273.645,-1648.3049999999998,-26863.065,-7316.325,-18137.88,-25995.375,-5773.995,738.36
1764763435.7158003,-268.74,-1644.345,-26858.97,-7312.634999999999,-18134.37,-25990.965,-5771.925,742.86
1764763435.7158003,-269.235,-1644.84,-26860.68,-7313.804999999999,-18134.415,-25991.28,-5771.07,742.68
1764763435.7158003,-271.35,-1646.1899999999998,-26862.705,-7315.965,-18136.845,-25993.44,-5772.42,741.42
1764763435.7158003,-271.26,-1646.415,-26863.065,-7316.28,-18137.205,-25994.655,-5772.825,741.735
1764763435.7158003,-271.89,-1647.72,-26864.1,-7317.134999999999,-18138.195,-25995.735,-5773.23,740.385
1764763435.7158003,-275.355,-1650.915,-26866.53,-7320.42,-18140.985,-25999.02,-5774.535,737.01
1764763435.7158003,-272.34,-1647.3149999999998,-26863.38,-7317.09,-18138.015,-25996.14,-5772.69,740.0699999999999
1764763435.7158003,-266.67,-1641.105,-26857.44,-7310.655,-18132.3,-25990.38,-5768.19,745.245
1764763435.7158003,-269.19,-1643.265,-26859.33,-7312.59,-18134.01,-25992.405,-5769.27,742.995
1764763435.7158003,-272.88,-1647.765,-26863.74,-7316.009999999999,-18138.195,-25996.59,-5771.429999999999,738.27
1764763435.7158003,-273.735,-1649.79,-26864.415,-7316.865,-18139.41,-25996.68,-5772.78,736.875
1764763435.7158003,-272.61,-1648.53,-26863.83,-7315.785,-18137.295,-25994.565,-5772.465,739.0799999999999
1764763435.7158003,-275.49,-1650.645,-26865.54,-7317.224999999999,-18138.6,-25995.6,-5773.455,737.595
1764763435.7158003,-272.52,-1647.63,-26862.57,-7314.21,-18135.18,-25993.035,-5771.88,740.385
1764763435.7158003,-277.02,-1651.95,-26866.8,-7318.349999999999,-18139.815,-25997.805,-5775.389999999999,735.2099999999999
1764763435.7170532,-275.715,-1650.6899999999998,-26865.045,-7316.865,-18138.375,-25996.905,-5774.625,735.48
1764763435.7170532,-270.045,-1644.84,-26858.88,-7311.509999999999,-18132.345,-25991.37,-5771.205,740.2049999999999
1764763435.7602484,-269.28,-1643.9399999999998,-26857.62,-7310.429999999999,-18132.12,-25991.595,-5770.26,740.0699999999999
1764763435.7602484,-273.24,-1648.08,-26861.985,-7314.389999999999,-18136.53,-25996.095,-5772.15,736.8299999999999
1764763435.761274,-271.08,-1645.425,-26859.915,-7312.05,-18134.145,-25992.765,-5769.81,740.745
1764763435.761274,-272.565,-1647.09,-26863.02,-7313.849999999999,-18135.315,-25993.26,-5770.215,739.62
1764763435.761274,-274.77,-1649.4299999999998,-26865.045,-7315.74,-18136.935,-25995.645,-5772.014999999999,737.1899999999999
1764763435.761274,-269.19,-1643.085,-26858.475,-7309.125,-18131.4,-25991.19,-5768.594999999999,741.8249999999999
1764763435.761274,-267.705,-1641.195,-26855.685,-7306.469999999999,-18130.635,-25990.515,-5767.695,741.87
1764763435.761274,-268.965,-1640.655,-26854.065,-7306.065,-18130.905,-25991.505,-5768.594999999999,740.16
1764763435.761274,-266.265,-1637.1,-26850.735,-7303.094999999999,-18127.755,-25987.905,-5766.75,743.5799999999999
1764763435.761274,-265.005,-1638.09,-26851.365,-7303.545,-18128.025,-25987.275,-5765.58,744.5699999999999
1764763435.761274,-266.04,-1641.24,-26855.28,-7307.19,-18129.465,-25987.59,-5765.94,743.76
1764763435.7617922,-271.215,-1646.955,-26862.66,-7312.815,-18132.165,-25988.94,-5767.83,740.97
1764763435.8099613,-272.925,-1649.115,-26865.9,-7315.38,-18134.055,-25991.055,-5768.19,739.53
1764763435.8099613,-273.96,-1649.475,-26866.62,-7316.144999999999,-18135.045,-25992.585,-5769.81,739.17
1764763435.8099613,-272.295,-1647.1799999999998,-26863.875,-7314.344999999999,-18134.19,-25991.73,-5769.179999999999,739.98
1764763435.8099613,-267.03,-1640.4299999999998,-26855.865,-7306.335,-18129.51,-25988.76,-5765.94,743.175
1764763435.8109756,-264.96,-1636.02,-26849.07,-7300.08,-18126.99,-25988.625,-5764.905,744.0749999999999
1764763435.8109756,-265.59,-1634.445,-26847.45,-7298.144999999999,-18127.575,-25989.75,-5766.255,742.4549999999999
1764763435.8109756,-264.735,-1634.6699999999998,-26847.72,-7298.009999999999,-18126.945,-25988.715,-5765.58,743.76
1764763435.8109756,-268.515,-1643.355,-26858.43,-7308.09,-18129.33,-25988.04,-5764.679999999999,743.22
1764763435.8109756,-271.755,-1650.825,-26867.88,-7314.75,-18129.735,-25985.385,-5764.77,743.31
1764763435.8109756,-273.105,-1652.085,-26868.375,-7314.929999999999,-18129.555,-25986.105,-5766.84,741.42
1764763435.8109756,-270.54,-1647.99,-26863.785,-7311.735,-18128.205,-25985.43,-5765.58,742.095
1764763435.8109756,-271.935,-1649.61,-26865.315,-7314.344999999999,-18131.715,-25988.76,-5767.514999999999,740.385
1764763435.8109756,-276.075,-1654.155,-26869.95,-7319.474999999999,-18138.465,-25994.07,-5770.71,736.3349999999999
1764763435.8109756,-274.455,-1651.635,-26867.655,-7317.945,-18137.97,-25994.34,-5770.035,737.73
1764763435.8109756,-271.935,-1647.72,-26864.91,-7315.74,-18135.99,-25992.855,-5769.315,740.025
1764763435.8109756,-270.315,-1644.9299999999998,-26861.4,-7311.24,-18131.985,-25990.02,-5767.38,741.9599999999999
1764763435.8109756,-272.43,-1648.215,-26863.065,-7312.59,-18132.48,-25991.01,-5768.415,739.26
1764763435.8109756,-268.155,-1643.31,-26858.835,-7308.179999999999,-18128.88,-25986.825,-5765.804999999999,743.67
1764763435.8109756,-265.14,-1641.105,-26856.45,-7305.57,-18127.935,-25984.305,-5763.42,746.685
1764763435.8109756,-268.38,-1644.48,-26860.14,-7309.575,-18131.4,-25987.68,-5765.94,743.76
1764763435.8109756,-270.315,-1646.145,-26862.84,-7312.59,-18134.865,-25992.27,-5768.325,741.3299999999999
1764763435.8109756,-265.905,-1641.645,-26856.99,-7307.91,-18131.76,-25989.93,-5766.795,745.29
1764763435.8109756,-264.24,-1638.585,-26852.805,-7305.12,-18130.635,-25989.615,-5766.3,745.605
1764763435.8109756,-262.755,-1634.895,-26849.025,-7299.719999999999,-18129.015,-25987.86,-5765.49,745.74
1764763435.8109756,-266.49,-1637.55,-26851.23,-7301.429999999999,-18130.725,-25989.885,-5767.065,742.185
1764763435.8109756,-267.705,-1641.465,-26855.325,-7306.38,-18131.535,-25989.12,-5767.785,741.9599999999999
1764763435.8109756,-277.245,-1656.135,-26872.875,-7321.365,-18139.275,-25994.34,-5771.52,735.03
1764763435.8109756,-276.93,-1655.64,-26874.9,-7321.679999999999,-18137.34,-25991.415,-5770.08,737.1
1764763435.8109756,-273.6,-1650.915,-26868.105,-7316.865,-18136.08,-25990.335,-5769.675,738.81
1764763435.8109756,-274.185,-1651.32,-26867.115,-7316.054999999999,-18137.25,-25992.36,-5771.205,737.28
1764763435.8109756,-274.095,-1650.825,-26866.575,-7316.144999999999,-18137.025,-25993.71,-5772.014999999999,737.685
1764763435.8109756,-274.545,-1650.24,-26866.53,-7315.875,-18137.115,-25993.755,-5771.79,737.01
1764763435.8109756,-277.02,-1652.895,-26868.87,-7317.99,-18139.41,-25995.105,-5772.735,734.265
1764763435.8109756,-272.88,-1649.205,-26864.235,-7313.13,-18135.045,-25991.19,-5770.395,737.37
1764763435.8109756,-274.68,-1650.375,-26864.865,-7314.84,-18136.845,-25993.44,-5771.88,734.265
1764763435.8109756,-272.745,-1647.27,-26861.445,-7311.644999999999,-18134.055,-25990.74,-5771.07,736.38
1764763435.8545594,-274.905,-1648.35,-26863.11,-7312.769999999999,-18136.53,-25993.125,-5772.465,734.76
1764763435.8545594,-270.81,-1644.57,-26859.42,-7308.764999999999,-18132.39,-25989.345,-5769.54,739.665
1764763435.8545594,-272.07,-1647.855,-26863.38,-7312.32,-18134.28,-25990.47,-5769.855,738.72
1764763435.8545594,-278.64,-1654.56,-26871.3,-7320.42,-18140.535,-25995.915,-5773.77,733.3199999999999
1764763435.8545594,-273.33,-1649.07,-26865.405,-7314.75,-18135.765,-25991.82,-5769.495,738.405
1764763435.8545594,-271.575,-1647.675,-26863.83,-7312.905,-18134.595,-25989.93,-5767.83,739.62
1764763435.8545594,-274.05,-1650.06,-26866.305,-7315.695,-18137.34,-25992.225,-5769.135,736.785
1764763435.8545594,-271.935,-1647.63,-26864.145,-7313.13,-18135.135,-25990.515,-5768.639999999999,738.0899999999999
1764763435.8545594,-275.13,-1650.5549999999998,-26866.98,-7316.594999999999,-18138.87,-25994.43,-5771.07,734.76
1764763435.8545594,-273.6,-1648.4399999999998,-26865.18,-7314.57,-18136.98,-25992.54,-5770.755,736.3349999999999
1764763435.8545594,-274.77,-1650.33,-26866.215,-7315.83,-18137.835,-25993.35,-5771.925,736.0649999999999
1764763435.8545594,-276.435,-1651.86,-26867.88,-7317.315,-18138.915,-25994.25,-5771.79,734.76
1764763435.8545594,-271.755,-1646.955,-26863.515,-7312.995,-18135.45,-25990.38,-5769.179999999999,738.405
1764763435.8545594,-272.565,-1648.53,-26864.325,-7313.849999999999,-18137.34,-25991.73,-5770.62,736.47
1764763435.8545594,-274.725,-1651.005,-26866.98,-7316.82,-18140.04,-25994.79,-5771.969999999999,733.905
1764763435.8545594,-274.23,-1649.97,-26865.72,-7315.785,-18138.96,-25993.71,-5771.25,734.9399999999999
1764763435.8545594,-276.975,-1651.635,-26867.07,-7316.82,-18140.805,-25995.645,-5772.69,732.735
1764763435.8555703,-273.87,-1648.3049999999998,-26863.965,-7313.67,-18138.195,-25992.63,-5771.925,735.795
1764763435.8555703,-277.425,-1653.3,-26869.005,-7319.34,-18141.75,-25995.24,-5773.815,731.925
1764763435.8555703,-278.685,-1654.515,-26870.58,-7320.644999999999,-18141.255,-25994.34,-5773.455,731.295
