Timestamp,Channel1,Channel2,Channel3,Channel4,Channel5,Channel6,Channel7,Channel8
1764763901.5007584,162.63,-1159.515,-27659.97,-6335.415,-18933.3,-26782.02,-6039.855,1855.665
1764763901.5007584,158.715,-1162.1699999999998,-27663.57,-6339.915,-18938.88,-26787.645,-6042.645,1852.11
1764763901.5007584,162.405,-1157.94,-27659.115,-6336.99,-18936.72,-26785.62,-6041.16,1855.125
1764763901.5007584,164.79,-1156.14,-27657.54,-6335.325,-18934.83,-26784.045,-6039.945,1857.96
1764763901.5007584,158.89499999999998,-1162.89,-27666.0,-6342.885,-18939.87,-26788.275,-6042.645,1853.415
1764763901.5007584,159.48,-1164.24,-27667.62,-6344.325,-18939.105,-26787.105,-6042.15,1854.27
1764763901.5007584,156.285,-1168.065,-27671.04,-6347.7,-18942.12,-26789.805,-6045.03,1851.93
1764763901.5007584,158.085,-1165.23,-27668.07,-6344.594999999999,-18939.69,-26787.33,-6044.4,1853.505
1764763901.5007584,158.445,-1164.06,-27666.855,-6343.02,-18938.97,-26787.015,-6044.4,1852.335
1764763901.5007584,156.6,-1165.185,-27667.08,-6342.795,-18940.14,-26789.085,-6045.3,1850.76
1764763901.5007584,160.695,-1160.505,-27660.87,-6337.53,-18936.27,-26785.845,-6042.825,1854.405
1764763901.5007584,160.2,-1160.145,-27658.575,-6336.63,-18937.845,-26788.005,-6044.535,1853.235
1764763901.5007584,157.545,-1163.07,-27661.23,-6339.915,-18940.995,-26790.615,-6045.705,1850.895
1764763901.5007584,153.81,-1168.74,-27669.555,-6346.304999999999,-18943.605,-26791.965,-6047.505,1848.285
1764763901.5007584,151.695,-1172.88,-27676.125,-6352.065,-18945.945,-26793.045,-6048.09,1846.89
1764763901.5007584,151.2,-1174.185,-27678.195,-6353.28,-18946.665,-26793.315,-6048.99,1846.935
1764763901.5007584,155.25,-1168.965,-27673.515,-6348.15,-18943.65,-26789.355,-6047.145,1850.4
1764763901.5007584,154.665,-1168.56,-27672.93,-6347.7,-18944.955,-26791.47,-6047.73,1848.105
1764763901.5474646,157.86,-1165.095,-27668.79,-6343.155,-18940.725,-26787.42,-6044.804999999999,1851.48
1764763901.5474646,155.385,-1167.165,-27669.69,-6344.91,-18942.21,-26789.49,-6045.075,1850.13
1764763901.5474646,158.76,-1163.385,-27665.235,-6341.04,-18937.755,-26785.215,-6042.87,1853.82
1764763901.5474646,156.285,-1166.13,-27666.585,-6343.155,-18939.375,-26786.61,-6045.435,1851.345
1764763901.5474646,155.16,-1167.93,-27668.565,-6344.415,-18940.68,-26788.545,-6046.38,1849.995
1764763901.5474646,150.12,-1172.745,-27673.605,-6349.815,-18945.225,-26792.19,-6048.315,1846.125
1764763901.5474646,148.95,-1173.78,-27675.72,-6351.12,-18945.855,-26792.865,-6049.035,1845.18
1764763901.5474646,149.715,-1172.7,-27675.945,-6350.49,-18944.55,-26792.595,-6049.395,1845.18
1764763901.5474646,154.07999999999998,-1167.75,-27671.805,-6346.935,-18942.03,-26789.94,-6047.19,1848.645
1764763901.5474646,153.405,-1168.155,-27672.48,-6349.05,-18945.495,-26793.0,-6048.585,1847.61
1764763901.5474646,151.01999999999998,-1170.54,-27674.505,-6350.715,-18947.61,-26794.98,-6049.08,1845.36
1764763901.5474646,154.485,-1167.075,-27670.23,-6345.675,-18943.02,-26790.03,-6046.695,1850.31
1764763901.5474646,156.195,-1165.23,-27668.34,-6343.83,-18940.815,-26788.455,-6044.849999999999,1851.975
1764763901.5474646,154.07999999999998,-1167.3,-27669.6,-6344.955,-18941.22,-26789.49,-6045.929999999999,1849.005
1764763901.5474646,150.57,-1169.685,-27672.705,-6347.295,-18944.415,-26791.965,-6047.19,1846.305
1764763901.5474646,151.56,-1168.11,-27670.23,-6344.685,-18942.525,-26790.93,-6047.054999999999,1846.935
1764763901.5474646,152.54999999999998,-1166.535,-27668.835,-6343.29,-18941.085,-26790.345,-6047.145,1847.52
1764763901.5474646,152.1,-1167.525,-27669.825,-6344.775,-18941.04,-26790.66,-6046.92,1847.43
1764763901.5474646,154.07999999999998,-1166.94,-27669.69,-6344.28,-18938.97,-26788.275,-6045.165,1850.625
1764763901.5474646,151.92,-1170.0449999999998,-27674.46,-6349.139999999999,-18942.84,-26790.66,-6047.19,1848.915
1764763901.5474646,148.5,-1172.7,-27677.565,-6353.73,-18949.005,-26795.7,-6050.25,1845.225
1764763901.5474646,150.70499999999998,-1169.28,-27674.37,-6351.165,-18947.52,-26794.575,-6048.99,1846.62
1764763901.5474646,155.88,-1163.79,-27668.295,-6344.775,-18939.915,-26787.69,-6044.355,1852.245
1764763901.5474646,153.225,-1166.625,-27670.68,-6346.889999999999,-18941.445,-26789.22,-6046.83,1849.455
1764763901.5474646,149.985,-1168.74,-27672.48,-6348.465,-18944.73,-26792.685,-6049.215,1845.765
1764763901.5474646,151.56,-1166.94,-27669.555,-6345.179999999999,-18942.84,-26792.1,-6049.035,1846.53
1764763901.594799,154.935,-1163.565,-27665.46,-6341.49,-18940.005,-26789.625,-6046.92,1849.185
1764763901.594799,156.42,-1162.89,-27663.705,-6340.905,-18937.98,-26787.87,-6044.804999999999,1851.57
1764763901.594799,151.065,-1168.515,-27670.05,-6346.125,-18942.795,-26792.28,-6047.19,1846.53
1764763901.594799,150.84,-1170.405,-27673.695,-6348.42,-18943.155,-26790.795,-6047.37,1847.475
1764763901.594799,150.03,-1172.115,-27676.215,-6350.715,-18944.865,-26790.84,-6047.594999999999,1846.62
1764763901.594799,151.56,-1169.28,-27673.47,-6348.42,-18944.865,-26791.965,-6046.514999999999,1846.71
1764763901.594799,159.345,-1161.945,-27665.145,-6340.995,-18938.52,-26785.89,-6042.33,1852.92
1764763901.594799,157.45499999999998,-1163.16,-27665.19,-6341.715,-18939.33,-26787.24,-6043.995,1851.12
1764763901.594799,155.88,-1164.645,-27667.08,-6343.245,-18939.24,-26787.6,-6044.219999999999,1850.715
1764763901.594799,152.01,-1169.82,-27674.775,-6349.5,-18942.93,-26790.525,-6046.514999999999,1847.115
1764763901.594799,149.13,-1172.61,-27679.095,-6353.505,-18946.17,-26792.775,-6047.865,1844.685
1764763901.594799,149.89499999999998,-1171.62,-27676.53,-6351.885,-18946.26,-26793.405,-6047.82,1845.27
1764763901.594799,152.14499999999998,-1169.055,-27674.01,-6349.41,-18944.73,-26792.1,-6046.695,1846.935
1764763901.594799,153.945,-1166.805,-27672.525,-6347.655,-18942.345,-26789.175,-6045.84,1849.68
1764763901.594799,152.91,-1168.065,-27673.65,-6349.005,-18943.245,-26789.715,-6045.974999999999,1848.78
1764763901.594799,156.69,-1164.375,-27668.295,-6344.73,-18938.97,-26785.62,-6043.815,1852.38
1764763901.594799,157.005,-1164.33,-27668.205,-6344.415,-18938.115,-26784.315,-6042.285,1852.65
1764763901.594799,154.07999999999998,-1166.715,-27670.32,-6346.395,-18940.635,-26786.475,-6044.49,1849.905
1764763901.594799,153.495,-1166.535,-27669.69,-6345.54,-18941.13,-26788.095,-6045.795,1848.78
1764763901.594799,150.435,-1169.775,-27673.65,-6349.139999999999,-18944.595,-26792.46,-6048.495,1845.27
1764763901.594799,151.965,-1168.9199999999998,-27674.82,-6348.78,-18943.11,-26789.715,-6047.37,1847.7
1764763901.594799,151.38,-1170.18,-27677.745,-6352.83,-18946.845,-26792.145,-6048.315,1846.71
1764763901.594799,152.73,-1168.425,-27676.17,-6351.165,-18945.405,-26791.065,-6047.054999999999,1847.97
1764763901.594799,151.92,-1168.56,-27675.09,-6349.365,-18945.045,-26791.47,-6047.865,1846.485
1764763901.6385095,151.11,-1169.28,-27675.18,-6348.825,-18944.73,-26792.055,-6048.54,1846.26
1764763901.6390288,149.76,-1170.855,-27676.665,-6350.175,-18945.99,-26793.09,-6048.495,1845.225
1764763901.6390288,153.405,-1168.155,-27673.965,-6347.115,-18942.12,-26788.185,-6045.525,1849.185
1764763901.6390288,146.835,-1174.68,-27680.58,-6353.639999999999,-18948.555,-26793.63,-6049.62,1843.335
1764763901.6390288,147.465,-1174.005,-27681.075,-6354.179999999999,-18949.005,-26794.08,-6049.349999999999,1843.965
1764763901.6390288,149.985,-1170.27,-27677.655,-6350.58,-18946.8,-26792.64,-6047.505,1846.17
1764763901.6390288,152.82,-1167.39,-27674.37,-6347.474999999999,-18944.64,-26791.155,-6045.435,1848.465
1764763901.6390288,153.9,-1165.905,-27672.345,-6346.125,-18943.92,-26790.03,-6045.12,1850.445
1764763901.6390288,150.21,-1169.055,-27675.135,-6349.23,-18947.52,-26793.675,-6048.0,1846.44
1764763901.6390288,151.73999999999998,-1167.525,-27674.235,-6347.88,-18946.62,-26792.685,-6047.19,1847.565
1764763901.6390288,153.045,-1166.6699999999998,-27674.37,-6347.205,-18944.955,-26790.48,-6046.245,1849.41
1764763901.6390288,149.85,-1169.775,-27677.52,-6349.545,-18947.025,-26792.865,-6047.46,1845.9
1764763901.6390288,154.215,-1165.185,-27672.48,-6344.145,-18942.705,-26788.455,-6044.445,1850.265
1764763901.6390288,151.65,-1167.885,-27675.72,-6347.115,-18944.73,-26790.93,-6046.29,1847.745
1764763901.6390288,149.85,-1169.19,-27677.205,-6348.42,-18946.53,-26793.36,-6047.28,1845.63
1764763901.6395388,150.57,-1168.02,-27675.99,-6348.105,-18945.99,-26792.955,-6047.73,1845.27
1764763901.6395388,152.325,-1166.6699999999998,-27673.92,-6346.26,-18943.56,-26790.525,-6045.885,1848.285
1764763901.6395388,151.38,-1168.605,-27675.09,-6347.52,-18944.64,-26791.155,-6046.065,1848.78
1764763901.6395388,148.95,-1170.0,-27677.205,-6350.219999999999,-18947.7,-26793.855,-6048.045,1845.945
1764763901.6395388,152.685,-1164.645,-27671.355,-6344.82,-18943.065,-26790.03,-6045.66,1849.005
1764763901.6395388,151.965,-1165.23,-27670.815,-6343.605,-18943.2,-26790.615,-6045.84,1847.385
1764763901.6395388,156.105,-1161.0449999999998,-27664.695,-6337.844999999999,-18938.745,-26786.7,-6042.554999999999,1850.355
1764763901.6395388,160.38,-1157.31,-27661.68,-6335.639999999999,-18936.9,-26784.0,-6039.99,1854.045
1764763901.6395388,151.47,-1168.29,-27675.135,-6348.33,-18946.8,-26791.47,-6045.929999999999,1847.07
1764763901.6855395,148.005,-1173.645,-27682.335,-6355.17,-18949.95,-26793.72,-6048.224999999999,1845.18
1764763901.6855395,150.075,-1171.845,-27681.075,-6353.955,-18947.25,-26791.155,-6046.695,1847.52
1764763901.6855395,151.875,-1169.82,-27677.115,-6349.724999999999,-18944.775,-26788.95,-6045.3,1848.87
1764763901.6855395,152.01,-1168.245,-27674.28,-6347.925,-18943.47,-26788.32,-6045.344999999999,1849.005
1764763901.6855395,151.82999999999998,-1168.155,-27675.27,-6348.285,-18944.415,-26788.545,-6045.57,1848.06
1764763901.6855395,149.17499999999998,-1170.225,-27678.645,-6351.12,-18948.195,-26792.685,-6047.28,1845.585
1764763901.6855395,150.48,-1168.38,-27676.215,-6349.094999999999,-18946.125,-26791.11,-6046.514999999999,1846.845
1764763901.6855395,148.275,-1170.225,-27676.44,-6350.219999999999,-18947.385,-26791.92,-6047.639999999999,1844.775
1764763901.6855395,149.13,-1168.875,-27673.965,-6348.465,-18946.215,-26791.695,-6047.639999999999,1845.585
1764763901.6855395,145.62,-1172.34,-27677.79,-6352.065,-18949.455,-26796.24,-6050.52,1841.535
1764763901.6855395,147.87,-1170.0449999999998,-27675.99,-6349.005,-18948.555,-26794.845,-6049.215,1843.38
1764763901.6855395,149.57999999999998,-1167.48,-27675.0,-6347.835,-18947.205,-26794.17,-6048.54,1844.19
1764763901.6855395,153.45,-1163.565,-27670.77,-6344.099999999999,-18942.84,-26790.975,-6045.795,1848.87
1764763901.6855395,153.18,-1164.33,-27671.265,-6344.594999999999,-18943.56,-26791.92,-6046.469999999999,1849.005
1764763901.6855395,150.12,-1168.245,-27674.64,-6348.645,-18946.845,-26794.53,-6048.315,1846.8
1764763901.6855395,144.585,-1174.68,-27682.11,-6355.98,-18952.335,-26799.3,-6051.42,1842.03
1764763901.6855395,147.555,-1172.655,-27681.39,-6354.63,-18949.59,-26795.205,-6048.719999999999,1844.73
1764763901.6855395,149.625,-1169.73,-27679.725,-6351.705,-18948.375,-26793.63,-6047.01,1846.26
1764763901.6855395,153.045,-1165.905,-27675.405,-6347.7,-18944.865,-26790.57,-6044.49,1848.105
1764763901.6855395,150.66,-1168.965,-27677.295,-6350.264999999999,-18946.035,-26791.38,-6045.885,1846.08
1764763901.6855395,147.64499999999998,-1170.765,-27679.14,-6352.469999999999,-18948.87,-26794.215,-6048.179999999999,1843.65
1764763901.6855395,151.01999999999998,-1166.6699999999998,-27674.82,-6347.385,-18945.09,-26791.74,-6045.84,1847.61
1764763901.6855395,150.255,-1167.39,-27676.665,-6348.915,-18945.135,-26791.875,-6045.344999999999,1847.61
1764763901.6855395,149.535,-1168.83,-27677.79,-6350.219999999999,-18946.215,-26792.19,-6045.795,1847.16
1764763901.7327735,150.885,-1168.29,-27676.89,-6349.5,-18945.945,-26791.92,-6044.219999999999,1848.105
1764763901.7327735,149.445,-1169.64,-27678.15,-6351.389999999999,-18947.43,-26794.305,-6045.435,1846.395
1764763901.7327735,147.78,-1171.35,-27679.095,-6352.38,-18948.69,-26796.555,-6047.73,1843.56
1764763901.7327735,150.435,-1167.75,-27674.415,-6347.16,-18945.495,-26793.63,-6045.795,1845.405
1764763901.7327735,154.755,-1161.765,-27668.34,-6341.219999999999,-18939.825,-26788.23,-6041.79,1850.4
1764763901.733279,150.03,-1165.725,-27673.785,-6345.54,-18942.345,-26790.03,-6043.635,1846.665
1764763901.733279,149.22,-1168.335,-27677.385,-6348.24,-18942.93,-26788.995,-6043.815,1846.755
1764763901.733279,143.37,-1175.49,-27685.8,-6356.205,-18949.95,-26794.98,-6048.179999999999,1842.03
1764763901.733279,144.135,-1174.95,-27685.44,-6356.25,-18950.76,-26795.205,-6048.315,1843.245
1764763901.733279,147.465,-1170.855,-27681.48,-6353.91,-18950.175,-26795.655,-6047.82,1845.72
1764763901.733279,145.485,-1172.655,-27682.38,-6356.07,-18952.335,-26798.175,-6048.405,1842.93
1764763901.733279,149.625,-1167.39,-27676.845,-6350.985,-18948.24,-26793.765,-6044.94,1847.61
1764763901.733279,150.93,-1165.41,-27674.685,-6349.275,-18947.475,-26793.09,-6045.12,1848.33
1764763901.733279,150.70499999999998,-1165.41,-27673.155,-6347.205,-18946.755,-26792.64,-6045.75,1847.295
1764763901.733279,150.29999999999998,-1165.725,-27673.65,-6348.014999999999,-18948.105,-26793.945,-6045.795,1846.395
1764763901.733279,144.945,-1171.845,-27681.57,-6355.395,-18953.73,-26798.985,-6049.304999999999,1842.255
1764763901.7343,143.415,-1174.5449999999998,-27685.935,-6358.32,-18955.17,-26799.57,-6050.385,1841.67
1764763901.7343,143.235,-1175.6699999999998,-27687.915,-6360.615,-18954.99,-26798.265,-6049.755,1841.715
1764763901.7343,147.78,-1170.54,-27681.795,-6354.719999999999,-18950.04,-26793.405,-6046.065,1846.215
1764763901.7343,144.495,-1173.555,-27682.92,-6356.205,-18952.56,-26796.24,-6047.865,1843.38
1764763901.7343,146.79,-1171.305,-27681.345,-6354.764999999999,-18951.03,-26794.26,-6047.099999999999,1844.91
1764763901.7343,152.37,-1166.76,-27676.44,-6349.139999999999,-18945.765,-26788.815,-6043.139999999999,1849.77
1764763901.7808628,153.945,-1164.915,-27674.82,-6346.62,-18943.875,-26786.52,-6040.844999999999,1850.94
1764763901.7808628,153.26999999999998,-1164.4199999999998,-27673.92,-6346.844999999999,-18944.19,-26787.645,-6041.115,1850.175
1764763901.7808628,152.235,-1164.375,-27673.785,-6346.575,-18944.595,-26789.265,-6041.835,1849.41
1764763901.7808628,148.095,-1167.705,-27676.89,-6349.32,-18948.015,-26793.405,-6045.255,1844.82
1764763901.7808628,152.685,-1163.745,-27672.345,-6345.99,-18944.82,-26789.94,-6041.79,1850.13
1764763901.7808628,150.12,-1167.705,-27677.25,-6349.679999999999,-18947.295,-26791.515,-6042.78,1849.05
1764763901.7808628,147.64499999999998,-1172.07,-27682.29,-6353.865,-18949.905,-26792.865,-6044.715,1847.655
1764763901.7808628,148.59,-1170.9,-27680.805,-6353.594999999999,-18949.14,-26793.225,-6044.219999999999,1847.385
1764763901.7808628,147.105,-1171.1699999999998,-27681.345,-6354.63,-18951.255,-26796.15,-6045.615,1844.91
1764763901.7808628,148.59,-1169.19,-27679.995,-6353.37,-18949.725,-26795.925,-6045.615,1845.81
1764763901.7808628,151.335,-1165.5449999999998,-27675.765,-6349.59,-18946.08,-26793.18,-6044.31,1849.185
1764763901.7808628,152.82,-1164.33,-27673.515,-6346.215,-18944.055,-26791.155,-6042.599999999999,1850.49
1764763901.7808628,155.385,-1161.585,-27670.68,-6342.255,-18939.915,-26787.15,-6039.27,1853.55
1764763901.7808628,153.135,-1164.51,-27673.695,-6345.719999999999,-18942.66,-26789.355,-6041.07,1851.3
1764763901.7808628,152.595,-1165.365,-27674.37,-6347.115,-18943.2,-26789.175,-6041.115,1851.345
1764763901.7808628,150.66,-1167.48,-27674.595,-6347.61,-18944.46,-26791.74,-6042.87,1848.645
1764763901.7808628,147.06,-1171.08,-27678.645,-6350.804999999999,-18948.78,-26795.88,-6045.66,1844.235
1764763901.7808628,144.09,-1174.14,-27682.29,-6353.505,-18950.625,-26797.185,-6047.37,1842.525
1764763901.7808628,143.235,-1176.255,-27684.63,-6355.53,-18951.57,-26797.41,-6047.865,1841.715
1764763901.7808628,144.26999999999998,-1174.815,-27684.27,-6355.485,-18951.255,-26796.195,-6046.965,1843.335
1764763901.7808628,144.315,-1174.5449999999998,-27684.99,-6355.44,-18951.975,-26795.97,-6046.92,1843.695
1764763901.7808628,144.765,-1174.14,-27684.855,-6355.215,-18952.83,-26795.52,-6047.639999999999,1844.1
1764763901.7808628,150.70499999999998,-1167.615,-27677.205,-6349.455,-18948.87,-26791.335,-6044.715,1849.14
1764763901.7808628,149.48999999999998,-1167.345,-27677.475,-6350.94,-18949.23,-26793.225,-6046.514999999999,1846.755
1764763901.8266935,148.32,-1168.47,-27679.275,-6352.065,-18949.32,-26793.855,-6046.155,1846.44
1764763901.8279655,143.28,-1175.265,-27685.215,-6357.33,-18953.145,-26796.87,-6047.594999999999,1843.425
1764763901.8279655,146.43,-1172.655,-27682.155,-6354.99,-18950.175,-26793.54,-6045.57,1845.72
1764763901.8279655,145.035,-1171.845,-27681.39,-6354.585,-18951.21,-26796.06,-6046.965,1843.335
1764763901.8279655,149.22,-1167.7949999999998,-27676.08,-6348.825,-18946.665,-26792.685,-6044.264999999999,1846.665
1764763901.8279655,144.855,-1172.205,-27681.21,-6354.495,-18951.885,-26797.68,-6046.83,1842.885
1764763901.8279655,141.57,-1177.11,-27687.51,-6361.965,-18959.04,-26802.63,-6051.33,1840.635
1764763901.8279655,142.82999999999998,-1177.38,-27689.355,-6364.395,-18961.2,-26802.675,-6051.105,1841.985
1764763901.8279655,147.87,-1171.665,-27683.415,-6357.825,-18954.72,-26796.915,-6046.92,1846.26
1764763901.8286834,143.82,-1173.6,-27684.81,-6359.175,-18957.87,-26801.28,-6050.745,1842.345
1764763901.8286834,147.06,-1169.505,-27680.49,-6355.26,-18955.35,-26799.84,-6049.44,1844.55
1764763901.8286834,146.16,-1170.63,-27681.165,-6355.755,-18955.845,-26801.595,-6049.889999999999,1842.93
1764763901.8286834,149.535,-1168.29,-27679.14,-6353.054999999999,-18953.01,-26797.635,-6047.145,1846.755
1764763901.8286834,146.385,-1172.205,-27683.1,-6357.195,-18955.755,-26799.48,-6048.585,1843.92
1764763901.8286834,144.225,-1174.005,-27683.82,-6358.905,-18958.995,-26802.045,-6050.205,1841.67
1764763901.8286834,147.06,-1171.35,-27680.4,-6355.62,-18954.63,-26797.635,-6046.785,1845.045
1764763901.8286834,144.405,-1176.075,-27685.53,-6359.625,-18955.17,-26797.275,-6047.505,1843.02
1764763901.8286834,141.345,-1177.56,-27687.465,-6361.65,-18957.42,-26799.705,-6049.8,1840.32
1764763901.8286834,148.275,-1168.83,-27677.88,-6352.02,-18949.365,-26793.63,-6045.075,1846.08
1764763901.8286834,145.755,-1171.125,-27680.13,-6354.045,-18951.795,-26795.88,-6047.46,1842.84
1764763901.8286834,145.845,-1171.845,-27681.345,-6354.764999999999,-18951.705,-26795.115,-6046.785,1843.38
1764763901.8286834,143.1,-1174.5449999999998,-27683.28,-6356.07,-18952.47,-26795.385,-6047.55,1842.03
1764763901.8286834,144.135,-1174.095,-27682.245,-6354.63,-18951.165,-26794.665,-6046.74,1842.885
1764763901.8286834,144.98999999999998,-1173.645,-27682.245,-6354.675,-18951.345,-26795.205,-6046.83,1842.435
1764763901.872194,141.21,-1177.155,-27686.61,-6358.679999999999,-18954.9,-26798.67,-6048.63,1839.51
1764763901.872194,141.885,-1176.48,-27685.665,-6358.23,-18954.54,-26798.76,-6048.224999999999,1840.635
1764763901.872194,145.575,-1172.655,-27681.075,-6354.405,-18952.695,-26797.5,-6046.92,1843.02
1764763901.872194,146.385,-1170.945,-27678.915,-6352.92,-18952.605,-26797.995,-6046.11,1842.705
1764763901.872194,150.165,-1166.895,-27673.425,-6348.014999999999,-18947.205,-26794.17,-6043.139999999999,1846.89
1764763901.872194,144.945,-1171.71,-27677.475,-6351.929999999999,-18949.455,-26795.88,-6045.615,1842.39
1764763901.872194,146.61,-1171.98,-27678.915,-6351.48,-18946.755,-26791.515,-6043.094999999999,1844.91
1764763901.872194,148.095,-1170.585,-27676.71,-6349.635,-18944.73,-26790.075,-6041.7,1846.62
1764763901.872194,149.535,-1169.055,-27676.17,-6350.175,-18945.18,-26791.155,-6040.665,1847.97
1764763901.872194,147.735,-1171.845,-27680.49,-6354.63,-18950.13,-26794.98,-6043.094999999999,1847.025
1764763901.8735683,147.285,-1171.62,-27681.525,-6355.755,-18952.74,-26796.69,-6043.545,1845.99
1764763901.8735683,144.81,-1172.655,-27683.415,-6357.06,-18954.18,-26797.59,-6044.13,1843.74
1764763901.8735683,148.185,-1169.055,-27680.49,-6353.28,-18949.59,-26793.0,-6041.925,1847.43
1764763901.8735683,147.915,-1167.975,-27678.33,-6351.03,-18947.43,-26792.28,-6041.79,1847.16
1764763901.8735683,146.79,-1170.0449999999998,-27679.905,-6351.57,-18948.69,-26794.305,-6043.32,1845.045
1764763901.8735683,143.685,-1173.24,-27682.92,-6354.719999999999,-18951.255,-26796.555,-6046.11,1842.75
1764763901.8735683,144.0,-1172.88,-27683.37,-6354.9,-18952.965,-26797.23,-6045.48,1842.885
1764763901.8735683,147.555,-1169.595,-27679.95,-6352.245,-18949.725,-26794.305,-6042.78,1845.63
1764763901.8735683,144.98999999999998,-1172.385,-27682.065,-6354.855,-18950.85,-26796.33,-6043.77,1843.245
1764763901.8735683,146.61,-1171.08,-27680.715,-6352.245,-18949.23,-26793.72,-6042.33,1845.585
1764763901.8735683,144.26999999999998,-1173.33,-27683.64,-6354.99,-18952.38,-26796.33,-6043.5,1844.46
1764763901.8735683,144.72,-1172.43,-27683.37,-6354.764999999999,-18952.92,-26797.14,-6044.219999999999,1844.505
1764763901.8735683,147.51,-1169.685,-27680.715,-6353.325,-18951.705,-26795.745,-6043.05,1846.845
1764763901.8735683,146.61,-1171.08,-27681.165,-6354.945,-18953.415,-26797.23,-6042.915,1845.72
1764763901.9211872,153.72,-1164.4199999999998,-27674.91,-6349.05,-18948.195,-26791.155,-6038.28,1852.155
1764763901.9211872,153.045,-1164.4199999999998,-27674.28,-6347.565,-18946.71,-26791.11,-6038.865,1851.255
1764763901.9211872,150.70499999999998,-1166.49,-27675.765,-6348.554999999999,-18947.79,-26792.82,-6039.63,1849.185
1764763901.9211872,151.11,-1167.165,-27676.395,-6348.78,-18948.195,-26791.92,-6039.179999999999,1849.365
1764763901.9211872,150.075,-1170.09,-27680.04,-6352.965,-18949.635,-26792.505,-6039.9,1848.645
1764763901.9222078,148.23,-1170.405,-27681.165,-6354.405,-18950.535,-26793.495,-6041.34,1847.52
1764763901.9222078,149.4,-1167.39,-27678.51,-6350.67,-18949.455,-26792.595,-6041.205,1848.825
1764763901.9222078,152.595,-1163.2949999999998,-27673.425,-6345.675,-18944.91,-26787.915,-6037.92,1852.02
1764763901.9222078,150.075,-1165.995,-27675.72,-6347.88,-18946.62,-26789.58,-6038.28,1849.545
1764763901.9222078,154.665,-1162.8,-27672.705,-6345.27,-18943.74,-26786.475,-6035.804999999999,1853.73
1764763901.9222078,154.98,-1162.08,-27673.74,-6345.675,-18944.73,-26786.97,-6036.21,1853.91
1764763901.9222078,153.09,-1164.24,-27675.18,-6347.025,-18945.72,-26788.365,-6038.235,1851.66
1764763901.9222078,155.295,-1161.72,-27670.68,-6342.75,-18943.065,-26786.88,-6035.804999999999,1853.685
1764763901.9222078,154.39499999999998,-1160.73,-27669.78,-6342.389999999999,-18944.145,-26789.49,-6037.2,1852.425
1764763901.9222078,149.805,-1164.6,-27674.505,-6347.429999999999,-18948.465,-26793.495,-6040.08,1848.15
1764763901.9222078,147.51,-1168.245,-27679.635,-6351.255,-18948.735,-26793.27,-6040.53,1846.845
1764763901.9222078,149.355,-1167.345,-27680.58,-6350.445,-18946.8,-26789.805,-6038.19,1850.085
1764763901.9222078,144.315,-1172.565,-27685.485,-6356.429999999999,-18953.28,-26795.385,-6042.96,1844.82
1764763901.9222078,145.305,-1172.2949999999998,-27684.495,-6355.844999999999,-18952.335,-26795.25,-6042.78,1845.495
1764763901.9222078,148.45499999999998,-1168.695,-27680.22,-6351.344999999999,-18946.8,-26790.165,-6039.719999999999,1848.555
1764763901.9222078,146.88,-1169.73,-27681.39,-6352.155,-18946.665,-26790.03,-6039.405,1847.88
1764763901.9222078,141.66,-1174.005,-27685.845,-6356.745,-18951.57,-26794.89,-6043.679999999999,1842.435
1764763901.965583,143.95499999999998,-1171.485,-27683.145,-6353.73,-18950.49,-26793.045,-6042.24,1844.46
1764763901.9660978,143.055,-1173.195,-27684.225,-6355.26,-18952.56,-26795.835,-6043.59,1842.345
1764763901.9660978,146.97,-1168.335,-27678.96,-6350.13,-18948.915,-26792.64,-6041.969999999999,1844.82
1764763901.9660978,146.43,-1167.705,-27677.97,-6350.895,-18951.12,-26795.205,-6042.645,1844.46
1764763901.9660978,149.805,-1164.6,-27675.0,-6347.429999999999,-18948.465,-26792.01,-6040.215,1848.06
1764763901.9660978,146.835,-1168.83,-27679.545,-6350.715,-18950.085,-26792.46,-6041.295,1846.575
1764763901.9660978,144.135,-1173.87,-27685.845,-6355.889999999999,-18953.415,-26794.845,-6042.375,1844.64
1764763901.9660978,142.245,-1174.5,-27687.195,-6356.385,-18953.955,-26795.43,-6042.735,1842.48
1764763901.9660978,146.295,-1169.505,-27681.885,-6351.255,-18949.365,-26791.38,-6040.395,1845.99
1764763901.9660978,144.765,-1172.2949999999998,-27684.72,-6353.91,-18951.39,-26793.675,-6042.51,1843.92
1764763901.9660978,144.98999999999998,-1171.98,-27685.08,-6353.639999999999,-18950.22,-26792.685,-6041.295,1845.18
1764763901.9660978,146.7,-1169.82,-27683.145,-6353.01,-18950.355,-26792.64,-6041.07,1846.17
1764763901.9660978,146.97,-1168.785,-27682.38,-6353.054999999999,-18952.38,-26793.99,-6041.925,1845.99
1764763901.9660978,145.89,-1169.955,-27684.0,-6354.315,-18954.36,-26795.61,-6042.69,1845.135
1764763901.9660978,145.215,-1171.035,-27684.585,-6354.99,-18955.53,-26797.005,-6043.455,1844.01
1764763901.9660978,143.595,-1172.79,-27685.17,-6355.17,-18955.8,-26798.535,-6043.905,1841.4
1764763901.9660978,147.96,-1168.065,-27680.265,-6350.445,-18950.94,-26793.63,-6040.304999999999,1845.72
1764763901.9660978,148.45499999999998,-1168.11,-27679.455,-6349.545,-18950.49,-26792.19,-6040.215,1846.44
1764763901.9660978,147.32999999999998,-1169.775,-27680.895,-6351.344999999999,-18951.48,-26791.83,-6039.315,1846.395
1764763901.9660978,141.93,-1175.58,-27687.69,-6356.79,-18956.655,-26797.005,-6043.815,1841.85
1764763901.9660978,139.04999999999998,-1177.83,-27690.48,-6359.264999999999,-18959.4,-26799.165,-6045.75,1839.24
1764763901.9660978,142.01999999999998,-1174.455,-27686.97,-6355.935,-18955.71,-26794.935,-6043.41,1841.985
1764763902.0135863,143.95499999999998,-1173.06,-27685.08,-6354.9,-18954.27,-26795.295,-6042.465,1842.885
1764763902.0135863,141.03,-1175.6699999999998,-27688.5,-6360.03,-18960.12,-26801.505,-6045.705,1839.915
1764763902.0135863,139.45499999999998,-1177.155,-27690.75,-6361.605,-18963.0,-26803.395,-6047.775,1838.52
1764763902.0135863,137.88,-1178.91,-27691.965,-6362.505,-18962.775,-26802.81,-6048.0,1837.71
1764763902.0135863,142.695,-1173.555,-27686.16,-6356.52,-18957.645,-26797.14,-6044.895,1841.805
1764763902.0135863,144.585,-1172.115,-27685.035,-6354.945,-18956.34,-26795.43,-6043.23,1843.785
1764763902.0135863,145.39499999999998,-1171.08,-27683.685,-6353.865,-18954.63,-26793.765,-6041.385,1844.955
1764763902.0135863,141.525,-1175.04,-27687.69,-6358.32,-18959.04,-26797.635,-6044.31,1839.735
1764763902.0135863,144.405,-1171.215,-27684.0,-6355.575,-18959.22,-26797.905,-6043.139999999999,1841.58
1764763902.0135863,146.745,-1166.6699999999998,-27678.915,-6351.255,-18957.87,-26797.455,-6042.465,1844.91
1764763902.0135863,152.595,-1160.1,-27671.895,-6343.965,-18952.425,-26792.235,-6039.27,1850.22
1764763902.0135863,152.91,-1159.38,-27669.78,-6342.57,-18950.355,-26791.47,-6038.55,1849.95
1764763902.0135863,149.4,-1164.69,-27677.745,-6348.78,-18952.065,-26792.37,-6040.125,1848.105
1764763902.0135863,145.17,-1170.72,-27684.63,-6355.44,-18955.665,-26794.44,-6041.969999999999,1844.865
1764763902.0135863,139.68,-1175.985,-27690.48,-6360.57,-18961.47,-26798.895,-6045.21,1839.645
1764763902.014604,140.67,-1175.175,-27690.615,-6360.12,-18961.11,-26798.04,-6044.355,1840.86
1764763902.014604,146.25,-1169.955,-27685.035,-6355.17,-18955.98,-26792.955,-6040.844999999999,1846.26
1764763902.014604,144.9,-1171.575,-27686.52,-6356.745,-18956.835,-26794.53,-6042.06,1844.685
1764763902.014604,143.685,-1173.15,-27687.6,-6357.87,-18957.825,-26795.52,-6042.78,1843.56
1764763902.014604,141.93,-1173.96,-27687.87,-6359.264999999999,-18959.355,-26797.77,-6043.995,1842.21
1764763902.014604,146.88,-1169.01,-27683.19,-6353.865,-18954.765,-26794.08,-6041.88,1846.305
1764763902.014604,144.72,-1170.765,-27684.855,-6355.575,-18957.69,-26797.23,-6043.635,1843.74
1764763902.014604,140.76,-1174.14,-27687.6,-6358.815,-18960.975,-26800.065,-6045.21,1840.32
1764763902.014604,143.73,-1171.305,-27684.72,-6355.98,-18958.905,-26796.51,-6043.185,1843.38
1764763902.060898,144.765,-1171.44,-27684.81,-6355.71,-18957.78,-26795.115,-6041.474999999999,1845.135
1764763902.060898,144.63,-1170.855,-27684.495,-6355.17,-18957.645,-26795.34,-6041.745,1845.27
1764763902.060898,145.35,-1170.765,-27684.495,-6355.08,-18957.465,-26795.61,-6041.79,1844.82
1764763902.060898,145.215,-1170.09,-27683.865,-6355.215,-18957.78,-26796.195,-6042.554999999999,1843.56
1764763902.060898,147.32999999999998,-1167.39,-27680.715,-6352.469999999999,-18956.205,-26794.755,-6041.115,1844.82
1764763902.060898,146.295,-1168.605,-27682.065,-6353.505,-18957.555,-26796.195,-6042.24,1844.685
1764763902.060898,144.72,-1170.45,-27684.54,-6356.25,-18959.49,-26798.805,-6043.679999999999,1843.56
1764763902.060898,141.165,-1174.095,-27689.13,-6360.795,-18963.045,-26801.82,-6045.66,1841.13
1764763902.060898,144.54,-1171.215,-27686.79,-6357.375,-18960.48,-26798.67,-6043.815,1844.64
1764763902.060898,145.305,-1170.18,-27685.17,-6355.98,-18959.265,-26797.5,-6043.094999999999,1845.0
1764763902.060898,145.44,-1170.855,-27686.7,-6356.88,-18958.095,-26796.015,-6041.88,1845.54
1764763902.060898,146.43,-1170.54,-27686.43,-6355.98,-18956.745,-26795.07,-6040.665,1846.395
1764763902.060898,147.32999999999998,-1169.19,-27685.17,-6354.135,-18955.935,-26794.44,-6039.224999999999,1846.89
1764763902.060898,144.135,-1171.44,-27688.095,-6357.69,-18960.615,-26797.635,-6041.88,1843.695
1764763902.060898,148.095,-1166.895,-27683.415,-6353.955,-18957.06,-26793.675,-6038.594999999999,1848.015
1764763902.060898,144.67499999999998,-1170.36,-27685.98,-6355.844999999999,-18959.175,-26796.375,-6040.62,1844.055
1764763902.060898,144.36,-1170.9,-27684.765,-6354.585,-18958.095,-26796.69,-6040.98,1843.605
1764763902.060898,144.855,-1170.315,-27684.09,-6353.19,-18957.015,-26796.33,-6040.485,1844.235
1764763902.060898,144.855,-1170.54,-27684.855,-6353.775,-18956.97,-26795.79,-6040.304999999999,1844.595
1764763902.060898,145.39499999999998,-1169.19,-27684.27,-6353.054999999999,-18955.53,-26794.44,-6040.08,1845.135
1764763902.060898,145.79999999999998,-1169.595,-27684.36,-6352.92,-18954.315,-26794.08,-6039.54,1845.27
1764763902.060898,146.92499999999998,-1168.245,-27682.515,-6352.02,-18952.695,-26792.82,-6038.55,1846.845
1764763902.0621195,150.12,-1165.005,-27679.32,-6349.05,-18950.04,-26790.165,-6036.974999999999,1849.68
1764763902.0621195,147.825,-1166.49,-27681.84,-6351.795,-18952.74,-26792.82,-6037.785,1847.745
1764763902.10505,151.155,-1163.7,-27678.195,-6349.41,-18950.445,-26789.445,-6035.355,1851.345
1764763902.10505,149.17499999999998,-1165.68,-27679.365,-6350.625,-18953.82,-26792.145,-6036.165,1849.635
1764763902.10505,149.13,-1165.455,-27679.32,-6350.804999999999,-18954.09,-26793.585,-6036.389999999999,1848.78
1764763902.10505,150.57,-1161.99,-27675.18,-6347.295,-18952.515,-26792.82,-6036.66,1850.13
1764763902.10505,153.855,-1160.145,-27672.57,-6343.83,-18949.32,-26789.445,-6034.59,1853.01
1764763902.10505,151.29,-1165.095,-27677.97,-6348.285,-18950.22,-26790.165,-6034.545,1851.66
1764763902.10505,149.76,-1167.165,-27682.785,-6351.57,-18951.255,-26790.57,-6034.41,1850.985
1764763902.10505,150.165,-1165.14,-27680.805,-6349.995,-18950.85,-26791.065,-6034.59,1851.03
1764763902.10505,149.67,-1164.555,-27679.77,-6349.094999999999,-18951.3,-26791.29,-6035.849999999999,1850.355
1764763902.10505,147.06,-1167.12,-27682.11,-6351.705,-18953.685,-26793.27,-6038.505,1847.385
1764763902.10505,141.61499999999998,-1173.69,-27689.22,-6358.545,-18958.185,-26796.69,-6041.745,1842.57
1764763902.10505,139.635,-1176.165,-27691.875,-6360.84,-18958.815,-26796.825,-6042.42,1840.725
1764763902.10505,141.885,-1174.365,-27690.165,-6358.365,-18957.6,-26795.88,-6041.745,1842.84
1764763902.10505,141.255,-1173.78,-27690.3,-6359.13,-18960.075,-26799.255,-6042.465,1841.805
1764763902.10505,145.53,-1168.605,-27685.08,-6354.045,-18956.43,-26796.015,-6039.315,1846.08
1764763902.10505,144.45,-1169.685,-27685.89,-6354.81,-18956.385,-26796.015,-6040.44,1844.46
1764763902.10505,148.095,-1166.355,-27682.02,-6350.04,-18952.11,-26792.1,-6038.415,1847.79
1764763902.10505,150.435,-1164.105,-27679.59,-6347.79,-18950.625,-26790.93,-6035.76,1849.77
1764763902.10505,150.66,-1163.97,-27679.32,-6348.24,-18951.39,-26790.48,-6035.804999999999,1849.95
1764763902.10505,147.64499999999998,-1166.895,-27681.57,-6351.255,-18954.045,-26792.415,-6038.145,1847.34
1764763902.10505,147.96,-1166.985,-27681.12,-6350.94,-18953.325,-26792.64,-6037.875,1848.15
1764763902.10505,146.295,-1168.47,-27683.19,-6353.19,-18955.215,-26793.72,-6038.865,1847.07
1764763902.1517107,145.35,-1168.74,-27685.08,-6354.27,-18956.07,-26794.395,-6039.179999999999,1845.9
1764763902.1517107,145.89,-1168.74,-27685.215,-6353.639999999999,-18955.89,-26794.665,-6039.179999999999,1844.595
1764763902.1517107,146.88,-1168.605,-27684.495,-6352.469999999999,-18955.53,-26793.54,-6038.28,1845.0
1764763902.1517107,144.0,-1170.81,-27686.565,-6354.855,-18957.15,-26796.42,-6040.485,1842.12
1764763902.1517107,147.735,-1167.12,-27682.245,-6350.355,-18953.28,-26792.55,-6038.73,1846.08
1764763902.1517107,149.085,-1165.05,-27681.3,-6348.465,-18952.605,-26791.155,-6037.02,1847.205
1764763902.1517107,148.995,-1164.375,-27680.22,-6348.195,-18952.83,-26791.29,-6036.705,1846.485
1764763902.1517107,142.965,-1170.945,-27686.115,-6354.27,-18957.33,-26794.485,-6039.179999999999,1841.355
1764763902.1517107,142.42499999999998,-1172.79,-27688.905,-6356.07,-18956.88,-26794.26,-6038.73,1842.525
1764763902.1517107,145.39499999999998,-1170.09,-27687.285,-6353.865,-18955.35,-26793.225,-6037.74,1844.28
1764763902.1517107,147.23999999999998,-1167.93,-27684.585,-6351.84,-18953.865,-26791.065,-6036.03,1845.81
1764763902.1517107,148.68,-1166.6699999999998,-27683.505,-6350.219999999999,-18952.65,-26789.67,-6035.445,1847.16
1764763902.1517107,146.385,-1168.02,-27684.495,-6351.21,-18953.865,-26790.84,-6036.705,1845.54
1764763902.1517107,145.935,-1167.975,-27682.875,-6350.31,-18953.37,-26790.57,-6036.57,1845.81
1764763902.1517107,146.565,-1167.75,-27683.82,-6350.58,-18953.775,-26791.29,-6036.344999999999,1846.71
1764763902.1517107,147.64499999999998,-1166.58,-27683.055,-6350.085,-18954.225,-26791.155,-6036.344999999999,1848.285
1764763902.1517107,147.96,-1168.02,-27684.765,-6352.74,-18955.575,-26793.09,-6037.469999999999,1847.16
1764763902.1517107,140.85,-1175.6699999999998,-27692.775,-6361.11,-18962.145,-26798.805,-6042.87,1841.175
1764763902.1517107,143.73,-1171.755,-27688.725,-6356.429999999999,-18957.6,-26794.215,-6038.865,1844.82
1764763902.1517107,143.595,-1170.63,-27687.915,-6355.08,-18957.015,-26794.17,-6038.37,1844.1
1764763902.1517107,147.64499999999998,-1166.265,-27684.045,-6351.12,-18953.19,-26790.795,-6036.12,1848.105
1764763902.1517107,146.295,-1167.57,-27684.855,-6351.75,-18954.18,-26792.19,-6036.705,1847.205
1764763902.1985323,142.92,-1170.405,-27687.555,-6355.035,-18958.545,-26795.835,-6038.28,1844.145
1764763902.1985323,143.14499999999998,-1171.125,-27687.42,-6355.53,-18959.535,-26796.915,-6039.45,1843.335
1764763902.1985323,143.86499999999998,-1169.865,-27685.755,-6353.55,-18958.995,-26797.005,-6039.315,1843.695
1764763902.1985323,147.06,-1164.87,-27680.445,-6348.825,-18955.98,-26794.395,-6037.56,1846.305
1764763902.1985323,151.47,-1159.245,-27674.055,-6342.344999999999,-18950.985,-26789.94,-6034.41,1851.03
1764763902.1985323,150.75,-1159.605,-27672.93,-6340.455,-18950.22,-26790.255,-6034.77,1848.96
1764763902.1985323,154.07999999999998,-1156.5449999999998,-27670.68,-6337.844999999999,-18946.17,-26785.935,-6031.889999999999,1852.47
1764763902.1995497,146.655,-1166.6699999999998,-27682.56,-6348.465,-18950.85,-26788.815,-6033.69,1848.555
1764763902.1995497,143.055,-1172.97,-27689.49,-6353.685,-18953.415,-26790.165,-6034.77,1846.26
1764763902.1995497,140.57999999999998,-1175.6699999999998,-27693.63,-6357.554999999999,-18958.095,-26793.495,-6036.705,1843.02
1764763902.1995497,143.505,-1172.565,-27690.255,-6355.665,-18957.105,-26792.1,-6035.219999999999,1845.855
1764763902.1995497,142.92,-1172.07,-27689.85,-6355.62,-18958.14,-26793.27,-6036.03,1844.55
1764763902.1995497,139.725,-1175.22,-27693.72,-6360.03,-18963.54,-26798.22,-6039.09,1840.905
1764763902.1995497,143.37,-1171.665,-27690.48,-6356.655,-18961.29,-26795.88,-6037.83,1843.605
1764763902.1995497,144.135,-1171.35,-27689.49,-6354.63,-18959.625,-26795.295,-6036.66,1844.055
1764763902.1995497,140.085,-1173.69,-27691.965,-6358.32,-18962.505,-26798.715,-6039.719999999999,1840.005
1764763902.1995497,140.85,-1172.34,-27690.3,-6357.195,-18961.875,-26797.275,-6039.405,1840.995
1764763902.1995497,140.535,-1172.925,-27690.39,-6357.014999999999,-18962.055,-26797.365,-6040.44,1840.14
1764763902.1995497,141.57,-1172.88,-27690.03,-6356.205,-18960.885,-26797.14,-6039.99,1841.13
1764763902.1995497,144.54,-1170.495,-27687.915,-6353.594999999999,-18958.05,-26793.945,-6037.38,1845.09
1764763902.1995497,145.71,-1169.505,-27686.79,-6352.605,-18957.6,-26793.405,-6036.03,1846.26
1764763902.1995497,144.45,-1169.82,-27686.925,-6353.19,-18958.23,-26794.44,-6037.83,1844.415
1764763902.2477582,144.0,-1169.595,-27686.115,-6352.56,-18958.005,-26795.52,-6038.235,1843.515
1764763902.2477582,142.335,-1171.395,-27686.565,-6353.19,-18959.13,-26796.96,-6038.325,1842.03
1764763902.2477582,146.475,-1168.155,-27683.28,-6350.49,-18956.16,-26793.54,-6036.84,1844.91
1764763902.2477582,143.505,-1171.215,-27686.07,-6353.73,-18958.725,-26795.25,-6038.28,1843.2
1764763902.2477582,141.345,-1173.87,-27689.895,-6357.014999999999,-18960.255,-26796.6,-6038.82,1842.255
1764763902.2477582,141.795,-1173.6,-27691.29,-6357.51,-18961.56,-26798.265,-6039.945,1842.885
1764763902.2477582,137.43,-1177.245,-27694.845,-6361.065,-18964.62,-26801.91,-6041.835,1839.105
1764763902.2477582,137.385,-1177.11,-27695.115,-6361.2,-18965.34,-26802.585,-6041.429999999999,1838.88
1764763902.2477582,139.68,-1174.5449999999998,-27692.19,-6357.735,-18963.225,-26801.055,-6039.63,1840.635
1764763902.2477582,144.63,-1170.0449999999998,-27687.105,-6352.785,-18958.5,-26796.69,-6036.705,1844.055
1764763902.2477582,140.94,-1172.97,-27690.3,-6356.07,-18962.055,-26799.975,-6039.0,1840.68
1764763902.2477582,141.03,-1172.745,-27690.795,-6355.8,-18960.39,-26797.545,-6038.19,1841.535
1764763902.2477582,147.105,-1166.31,-27684.27,-6349.275,-18954.09,-26791.515,-6033.78,1847.205
1764763902.2477582,144.405,-1168.29,-27684.945,-6351.03,-18958.005,-26796.24,-6036.795,1843.605
1764763902.2477582,144.18,-1167.255,-27683.505,-6350.58,-18957.375,-26796.06,-6036.255,1844.055
1764763902.2477582,144.225,-1166.49,-27682.92,-6349.724999999999,-18956.745,-26795.97,-6035.264999999999,1844.055
1764763902.2477582,148.005,-1162.35,-27678.015,-6345.315,-18954.045,-26793.135,-6032.925,1847.025
1764763902.2477582,148.59,-1162.35,-27678.24,-6344.775,-18953.37,-26792.73,-6032.429999999999,1847.835
1764763902.2477582,147.105,-1165.095,-27682.875,-6348.465,-18954.27,-26791.695,-6031.44,1848.33
1764763902.2477582,146.34,-1167.93,-27687.285,-6354.179999999999,-18958.005,-26794.17,-6033.42,1846.755
1764763902.2477582,146.655,-1168.695,-27689.805,-6355.98,-18957.285,-26792.91,-6033.465,1848.06
1764763902.2477582,145.305,-1168.335,-27689.085,-6355.26,-18958.365,-26794.125,-6034.094999999999,1846.98
1764763902.2477582,151.785,-1161.18,-27679.725,-6346.53,-18951.39,-26789.04,-6030.179999999999,1852.605
1764763902.2477582,149.76,-1162.08,-27678.555,-6346.44,-18951.615,-26790.705,-6031.304999999999,1850.805
1764763902.2477582,144.54,-1169.055,-27685.395,-6353.145,-18957.15,-26795.745,-6034.77,1846.08
1764763902.2477582,144.36,-1171.305,-27690.12,-6356.52,-18959.625,-26796.06,-6035.67,1845.765
1764763902.2920072,148.68,-1166.265,-27686.07,-6351.165,-18955.485,-26792.325,-6032.385,1849.77
1764763902.2920072,146.88,-1166.715,-27685.665,-6351.389999999999,-18955.98,-26794.665,-6033.195,1847.52
1764763902.2920072,148.86,-1162.89,-27681.435,-6347.34,-18951.705,-26791.245,-6032.34,1849.815
1764763902.2920072,147.51,-1165.41,-27684.495,-6350.04,-18954.63,-26793.54,-6033.69,1847.79
1764763902.2920072,144.45,-1169.91,-27689.715,-6355.71,-18959.76,-26797.68,-6035.264999999999,1844.595
1764763902.2920072,148.04999999999998,-1166.355,-27685.98,-6352.02,-18955.89,-26792.595,-6032.655,1849.005
1764763902.2930064,149.535,-1163.97,-27684.315,-6349.59,-18954.405,-26791.515,-6031.935,1849.635
1764763902.2930064,145.755,-1167.165,-27687.555,-6352.155,-18958.68,-26795.79,-6035.13,1844.955
1764763902.2930064,147.105,-1165.005,-27685.98,-6350.219999999999,-18957.51,-26794.305,-6033.105,1847.43
1764763902.2930064,148.32,-1164.735,-27685.575,-6350.625,-18957.105,-26793.855,-6032.969999999999,1849.095
1764763902.2930064,150.70499999999998,-1162.08,-27682.29,-6347.88,-18953.28,-26790.795,-6031.17,1851.075
1764763902.2930064,147.87,-1164.69,-27684.9,-6349.41,-18955.89,-26792.775,-6032.295,1847.835
1764763902.2930064,149.04,-1163.52,-27682.785,-6347.565,-18954.99,-26792.415,-6032.7,1847.655
1764763902.2930064,149.4,-1162.395,-27679.77,-6346.755,-18954.9,-26793.18,-6032.429999999999,1848.06
1764763902.2937877,151.82999999999998,-1160.55,-27678.645,-6345.315,-18953.235,-26791.47,-6030.81,1850.76
1764763902.2937877,153.135,-1160.685,-27680.265,-6345.945,-18950.895,-26786.79,-6028.56,1853.82
1764763902.2937877,150.48,-1164.915,-27685.89,-6351.03,-18954.585,-26789.13,-6029.73,1851.795
1764763902.2937877,147.78,-1166.6699999999998,-27687.15,-6352.514999999999,-18957.6,-26793.72,-6032.52,1848.78
1764763902.2937877,146.16,-1167.615,-27687.78,-6353.594999999999,-18958.545,-26795.655,-6032.52,1847.565
1764763902.2937877,148.815,-1165.5,-27685.215,-6351.165,-18955.62,-26793.045,-6031.755,1850.085
1764763902.2937877,146.565,-1167.075,-27687.15,-6352.695,-18957.6,-26794.935,-6033.51,1847.745
1764763902.2937877,146.295,-1167.57,-27687.105,-6352.38,-18957.78,-26794.98,-6033.105,1846.845
1764763902.2937877,147.06,-1167.075,-27686.7,-6351.389999999999,-18957.735,-26794.845,-6032.835,1847.61
1764763902.2937877,146.34,-1167.525,-27687.555,-6351.84,-18958.77,-26795.97,-6033.96,1847.52
1764763902.3415856,149.535,-1163.835,-27682.92,-6348.465,-18954.765,-26792.865,-6031.485,1850.355
1764763902.3415856,149.355,-1165.14,-27684.765,-6351.165,-18955.485,-26792.775,-6031.575,1849.41
1764763902.3415856,150.345,-1164.195,-27683.865,-6349.545,-18955.035,-26791.605,-6030.9,1850.58
1764763902.3415856,148.815,-1164.33,-27682.92,-6349.679999999999,-18956.52,-26793.18,-6032.52,1849.23
1764763902.3415856,149.4,-1161.495,-27680.49,-6348.06,-18956.43,-26794.89,-6033.195,1848.735
1764763902.3415856,151.155,-1159.065,-27676.98,-6344.955,-18954.45,-26793.72,-6032.07,1849.725
1764763902.3415856,148.36499999999998,-1162.395,-27679.86,-6348.06,-18956.565,-26796.69,-6032.655,1847.79
1764763902.3415856,144.855,-1167.93,-27686.79,-6353.639999999999,-18959.445,-26797.41,-6033.24,1846.935
1764763902.3415856,144.495,-1169.64,-27689.4,-6353.594999999999,-18958.05,-26794.125,-6032.429999999999,1847.7
1764763902.3415856,142.47,-1170.135,-27690.39,-6354.99,-18959.94,-26796.42,-6033.735,1845.27
1764763902.3415856,145.07999999999998,-1168.74,-27689.805,-6354.45,-18958.725,-26794.8,-6033.24,1847.385
1764763902.3415856,144.26999999999998,-1171.71,-27693.945,-6357.645,-18959.13,-26793.855,-6032.52,1847.61
1764763902.342747,145.17,-1169.91,-27692.415,-6356.969999999999,-18958.68,-26793.09,-6031.755,1848.42
1764763902.342747,144.45,-1170.225,-27691.92,-6356.79,-18960.435,-26795.655,-6033.33,1847.025
1764763902.342747,144.855,-1169.055,-27688.815,-6354.36,-18958.77,-26795.295,-6032.655,1847.385
1764763902.342747,142.38,-1170.765,-27690.03,-6355.53,-18959.895,-26796.555,-6033.42,1844.685
1764763902.342747,143.46,-1169.55,-27688.995,-6354.63,-18959.4,-26794.89,-6032.205,1845.405
1764763902.342747,144.585,-1169.19,-27688.905,-6354.179999999999,-18958.815,-26794.305,-6031.26,1845.405
1764763902.342747,144.945,-1168.65,-27688.275,-6353.91,-18959.175,-26795.34,-6031.08,1846.53
1764763902.342747,144.315,-1169.685,-27689.4,-6356.52,-18962.415,-26797.725,-6033.33,1845.405
1764763902.342747,148.095,-1165.68,-27684.99,-6352.38,-18957.555,-26793.855,-6030.764999999999,1849.59
1764763902.342747,146.745,-1166.265,-27686.835,-6352.65,-18958.005,-26794.395,-6030.855,1848.96
1764763902.38593,150.61499999999998,-1163.565,-27684.225,-6350.985,-18954.855,-26790.615,-6028.29,1852.83
1764763902.38593,149.85,-1164.015,-27684.72,-6351.075,-18955.08,-26791.875,-6029.639999999999,1851.165
1764763902.38593,147.87,-1164.4199999999998,-27685.44,-6350.76,-18955.26,-26792.235,-6030.495,1849.05
1764763902.38593,145.035,-1165.77,-27686.52,-6352.56,-18957.78,-26794.755,-6032.79,1846.53
1764763902.38593,149.535,-1161.18,-27682.47,-6348.014999999999,-18953.415,-26790.84,-6030.27,1851.21
1764763902.38593,151.335,-1160.055,-27680.805,-6345.63,-18951.39,-26789.4,-6028.83,1852.335
1764763902.38593,150.525,-1160.595,-27680.895,-6345.63,-18951.705,-26789.805,-6028.695,1851.975
1764763902.38593,146.51999999999998,-1164.4199999999998,-27684.63,-6349.815,-18955.845,-26794.125,-6031.035,1847.88
1764763902.38593,146.51999999999998,-1165.365,-27686.97,-6352.11,-18956.655,-26794.17,-6030.495,1848.15
1764763902.38593,150.435,-1162.035,-27683.235,-6349.275,-18953.415,-26789.49,-6027.615,1852.38
1764763902.38593,148.76999999999998,-1162.98,-27684.135,-6350.355,-18953.505,-26790.345,-6028.605,1851.435
1764763902.38593,145.44,-1166.265,-27687.555,-6353.19,-18956.34,-26794.17,-6032.429999999999,1847.7
1764763902.38593,144.135,-1167.57,-27688.545,-6354.179999999999,-18958.185,-26795.565,-6033.285,1846.035
1764763902.38593,145.17,-1165.41,-27685.44,-6350.76,-18955.935,-26793.27,-6031.755,1848.06
1764763902.38593,143.325,-1167.615,-27688.23,-6353.415,-18959.265,-26796.69,-6033.42,1846.17
1764763902.38593,145.755,-1165.365,-27686.745,-6352.65,-18958.905,-26795.97,-6032.34,1848.78
1764763902.38593,147.105,-1164.33,-27686.565,-6354.27,-18959.85,-26796.645,-6032.34,1849.995
1764763902.38593,145.665,-1165.41,-27688.905,-6356.52,-18962.145,-26799.66,-6034.005,1848.645
1764763902.38593,143.91,-1167.12,-27690.84,-6358.724999999999,-18965.34,-26802.765,-6035.895,1845.63
1764763902.38593,146.97,-1164.69,-27687.6,-6354.945,-18962.19,-26799.075,-6032.79,1848.78
1764763902.38593,150.66,-1160.64,-27683.46,-6350.49,-18957.96,-26793.81,-6029.594999999999,1853.055
1764763902.38593,147.78,-1163.655,-27685.98,-6353.955,-18961.29,-26797.32,-6032.655,1849.41
1764763902.4331253,146.295,-1165.005,-27686.88,-6356.205,-18964.44,-26800.65,-6034.05,1846.98
1764763902.4331253,150.39,-1160.595,-27682.29,-6350.67,-18959.49,-26795.97,-6031.08,1851.345
1764763902.4331253,149.22,-1163.115,-27685.305,-6352.92,-18960.525,-26795.655,-6031.62,1850.22
1764763902.4331253,144.98999999999998,-1168.155,-27690.3,-6357.645,-18962.865,-26798.355,-6032.925,1846.44
1764763902.4331253,145.845,-1167.7949999999998,-27689.76,-6356.295,-18960.57,-26795.88,-6030.63,1848.42
1764763902.4331253,146.295,-1166.76,-27690.12,-6355.62,-18959.535,-26793.945,-6029.505,1849.275
1764763902.4331253,146.51999999999998,-1166.445,-27689.175,-6354.764999999999,-18959.355,-26794.53,-6030.719999999999,1848.915
1764763902.4331253,146.745,-1166.49,-27688.005,-6354.27,-18959.175,-26794.17,-6030.495,1848.87
1764763902.4331253,149.265,-1163.565,-27685.08,-6351.12,-18955.98,-26789.94,-6028.875,1851.885
1764763902.4331253,147.42,-1164.87,-27687.24,-6352.02,-18956.7,-26792.505,-6030.495,1849.635
1764763902.4331253,147.06,-1163.7,-27685.71,-6350.895,-18957.42,-26794.53,-6030.09,1848.735
1764763902.4331253,148.41,-1161.495,-27682.29,-6349.005,-18956.835,-26793.72,-6030.36,1849.68
1764763902.4331253,150.66,-1159.47,-27679.68,-6346.125,-18953.505,-26791.38,-6028.425,1851.66
1764763902.4331253,151.42499999999998,-1159.965,-27681.48,-6347.205,-18952.155,-26789.4,-6026.04,1854.18
1764763902.4331253,148.68,-1163.25,-27686.925,-6351.389999999999,-18955.17,-26790.66,-6027.389999999999,1852.38
1764763902.433633,148.005,-1163.52,-27686.52,-6350.67,-18954.495,-26790.39,-6027.615,1851.57
1764763902.433633,148.725,-1162.935,-27685.665,-6349.995,-18954.045,-26789.445,-6027.344999999999,1852.155
1764763902.433633,149.67,-1162.71,-27686.07,-6350.895,-18955.62,-26790.39,-6027.57,1852.38
1764763902.433633,147.87,-1164.105,-27687.96,-6353.054999999999,-18958.995,-26792.64,-6029.505,1850.76
1764763902.433633,146.385,-1165.14,-27689.265,-6354.81,-18960.57,-26795.88,-6031.53,1849.32
1764763902.433633,147.375,-1164.24,-27687.78,-6353.955,-18959.76,-26795.52,-6031.035,1850.445
1764763902.433633,146.11499999999998,-1165.14,-27688.905,-6354.45,-18961.515,-26797.635,-6032.474999999999,1848.825
1764763902.433633,143.055,-1168.83,-27691.29,-6357.375,-18964.98,-26800.83,-6034.41,1844.91
1764763902.433633,144.495,-1167.66,-27689.22,-6355.53,-18963.0,-26799.255,-6033.375,1846.08
1764763902.433633,149.57999999999998,-1161.72,-27684.315,-6349.455,-18957.465,-26794.305,-6028.74,1851.84
1764763902.433633,148.815,-1161.72,-27683.73,-6348.105,-18955.89,-26792.82,-6027.705,1851.93
1764763902.478953,147.96,-1163.52,-27685.215,-6349.365,-18955.755,-26792.415,-6028.245,1851.345
1764763902.478953,146.61,-1166.31,-27689.985,-6354.135,-18958.32,-26793.585,-6028.514999999999,1850.805
1764763902.478953,143.325,-1169.82,-27694.575,-6358.679999999999,-18962.685,-26797.14,-6030.764999999999,1848.105
1764763902.478953,138.375,-1173.465,-27697.5,-6362.775,-18969.21,-26803.755,-6035.804999999999,1842.66
1764763902.478953,140.31,-1170.855,-27695.16,-6359.849999999999,-18967.32,-26801.505,-6033.96,1844.145
1764763902.478953,143.505,-1167.705,-27691.02,-6355.17,-18963.315,-26797.95,-6031.889999999999,1847.07
1764763902.478953,143.1,-1168.74,-27691.65,-6356.925,-18965.745,-26799.975,-6032.474999999999,1846.17
1764763902.478953,146.835,-1164.375,-27686.925,-6353.37,-18962.28,-26798.355,-6031.26,1849.32
1764763902.478953,148.45499999999998,-1161.135,-27684.0,-6349.365,-18958.77,-26796.42,-6029.37,1850.58
1764763902.478953,147.96,-1161.36,-27684.72,-6349.275,-18958.815,-26796.015,-6029.235,1850.4
1764763902.478953,146.88,-1163.25,-27686.7,-6351.3,-18960.255,-26795.115,-6028.875,1850.445
1764763902.478953,148.815,-1162.1699999999998,-27684.72,-6349.59,-18958.41,-26793.18,-6027.165,1851.795
1764763902.478953,150.03,-1160.01,-27682.29,-6347.34,-18957.015,-26793.09,-6026.445,1851.705
1764763902.478953,146.07,-1163.34,-27685.935,-6349.545,-18959.085,-26795.88,-6028.65,1847.835
1764763902.478953,143.95499999999998,-1167.84,-27690.795,-6353.28,-18959.94,-26796.465,-6029.28,1847.025
1764763902.478953,142.82999999999998,-1170.405,-27693.225,-6356.205,-18960.66,-26796.465,-6029.415,1846.755
1764763902.478953,143.685,-1168.515,-27691.515,-6355.304999999999,-18960.39,-26796.825,-6029.37,1847.61
1764763902.478953,145.035,-1166.805,-27690.255,-6353.775,-18959.94,-26796.87,-6028.83,1848.555
1764763902.478953,147.78,-1164.24,-27689.13,-6352.785,-18960.75,-26796.6,-6029.19,1850.445
1764763902.478953,143.46,-1167.345,-27693.09,-6356.745,-18964.71,-26800.74,-6032.205,1846.755
1764763902.478953,144.765,-1166.04,-27690.03,-6354.045,-18962.1,-26798.175,-6030.27,1847.88
1764763902.478953,147.78,-1163.115,-27685.8,-6349.724999999999,-18957.915,-26794.845,-6028.469999999999,1849.995
1764763902.525383,152.95499999999998,-1156.815,-27679.77,-6343.74,-18952.065,-26789.895,-6025.23,1854.675
1764763902.5258937,148.5,-1160.1,-27681.03,-6346.844999999999,-18956.52,-26795.07,-6028.29,1850.085
1764763902.5258937,148.14,-1160.955,-27681.84,-6347.34,-18957.555,-26795.34,-6027.84,1850.175
1764763902.5258937,146.11499999999998,-1164.78,-27688.365,-6352.74,-18961.38,-26797.68,-6029.594999999999,1848.645
1764763902.5258937,143.595,-1167.885,-27692.505,-6356.79,-18964.575,-26799.615,-6031.62,1846.98
1764763902.5258937,143.37,-1167.7949999999998,-27692.145,-6356.34,-18965.835,-26801.37,-6033.15,1846.485
1764763902.5258937,145.575,-1164.78,-27688.14,-6352.785,-18963.36,-26799.48,-6031.98,1848.15
1764763902.5258937,141.165,-1168.9199999999998,-27692.64,-6356.34,-18966.465,-26801.64,-6033.915,1844.955
1764763902.5258937,142.82999999999998,-1168.56,-27692.73,-6354.764999999999,-18963.45,-26797.41,-6031.44,1847.655
1764763902.5258937,142.605,-1169.415,-27692.01,-6354.855,-18963.495,-26798.4,-6031.17,1847.115
1764763902.5258937,147.96,-1163.43,-27685.08,-6348.105,-18957.195,-26793.18,-6027.885,1851.885
1764763902.5258937,142.38,-1170.81,-27691.965,-6355.575,-18964.53,-26799.165,-6032.07,1846.485
1764763902.526899,140.985,-1172.205,-27694.8,-6358.005,-18966.69,-26800.47,-6032.835,1845.495
1764763902.526899,140.22,-1171.98,-27694.845,-6357.42,-18965.79,-26800.56,-6033.42,1845.135
1764763902.5272062,141.29999999999998,-1170.54,-27693.72,-6355.8,-18964.53,-26799.615,-6032.655,1845.855
1764763902.5272062,141.48,-1169.775,-27692.415,-6356.07,-18964.8,-26800.065,-6032.88,1845.63
1764763902.5272062,142.965,-1168.83,-27692.775,-6355.395,-18964.62,-26799.525,-6032.025,1846.395
1764763902.5272062,146.16,-1166.13,-27689.67,-6351.615,-18960.66,-26795.97,-6029.82,1850.265
1764763902.5272062,143.505,-1168.965,-27692.145,-6354.63,-18962.865,-26798.445,-6030.99,1847.205
1764763902.5272062,145.935,-1167.12,-27689.805,-6352.469999999999,-18960.66,-26796.915,-6029.685,1849.185
1764763902.5272062,148.725,-1163.2949999999998,-27685.71,-6348.014999999999,-18957.555,-26793.99,-6027.525,1852.425
1764763902.5272062,144.315,-1166.76,-27689.175,-6350.58,-18962.01,-26798.805,-6031.44,1846.845
1764763902.5272062,146.51999999999998,-1164.915,-27686.295,-6348.69,-18960.255,-26797.365,-6029.145,1848.87
1764763902.5272062,145.62,-1165.815,-27688.68,-6351.615,-18961.83,-26797.95,-6028.965,1849.95
1764763902.5697565,146.07,-1166.355,-27689.445,-6351.389999999999,-18960.39,-26796.105,-6028.605,1852.155
1764763902.5697565,145.62,-1165.815,-27688.77,-6350.219999999999,-18959.04,-26796.015,-6027.974999999999,1851.345
1764763902.5697565,143.73,-1167.165,-27690.975,-6352.605,-18962.415,-26798.715,-6029.28,1848.96
1764763902.5697565,144.81,-1167.165,-27691.425,-6352.155,-18961.605,-26797.545,-6029.099999999999,1849.32
1764763902.5697565,148.995,-1162.845,-27686.79,-6348.195,-18958.005,-26794.305,-6028.11,1853.055
1764763902.5697565,149.985,-1161.09,-27684.495,-6347.565,-18958.455,-26794.755,-6026.94,1854.27
1764763902.5697565,152.325,-1158.165,-27681.12,-6344.594999999999,-18955.98,-26792.46,-6024.645,1856.295
1764763902.5697565,150.57,-1159.695,-27682.155,-6346.62,-18957.96,-26795.115,-6026.76,1854.0
1764763902.5697565,149.085,-1160.64,-27682.785,-6347.79,-18959.535,-26796.015,-6027.075,1852.38
1764763902.5697565,149.31,-1161.315,-27683.64,-6348.195,-18958.68,-26793.585,-6026.04,1854.18
1764763902.5697565,147.555,-1162.89,-27686.835,-6350.264999999999,-18958.86,-26793.54,-6025.905,1853.73
1764763902.5697565,148.23,-1161.63,-27685.17,-6348.554999999999,-18958.32,-26793.36,-6026.04,1854.27
1764763902.5710664,147.555,-1162.845,-27686.745,-6350.175,-18959.22,-26794.08,-6026.04,1854.18
1764763902.5710664,147.105,-1163.565,-27688.005,-6350.715,-18959.265,-26794.17,-6025.59,1854.315
1764763902.5710664,146.16,-1163.025,-27687.69,-6350.219999999999,-18959.805,-26794.89,-6025.77,1853.505
1764763902.5710664,144.45,-1164.015,-27688.905,-6352.56,-18963.9,-26798.445,-6027.57,1850.85
1764763902.5710664,146.88,-1161.9,-27686.34,-6351.344999999999,-18964.035,-26797.86,-6029.01,1851.435
1764763902.5710664,141.885,-1166.715,-27690.615,-6355.575,-18966.15,-26801.01,-6031.935,1847.295
1764763902.5710664,137.07,-1173.735,-27699.66,-6362.91,-18970.47,-26803.935,-6033.51,1843.47
1764763902.5710664,137.385,-1174.23,-27699.795,-6362.82,-18970.29,-26804.43,-6033.915,1843.56
1764763902.5710664,141.48,-1168.785,-27694.575,-6357.554999999999,-18967.5,-26801.145,-6031.304999999999,1848.465
1764763902.5710664,141.39,-1168.695,-27693.855,-6356.925,-18968.085,-26802.18,-6032.16,1847.16
1764763902.617609,140.4,-1169.055,-27694.08,-6357.42,-18967.725,-26803.035,-6032.16,1846.26
1764763902.617609,145.17,-1164.735,-27688.59,-6352.425,-18962.28,-26797.455,-6028.469999999999,1850.805
1764763902.617609,146.88,-1163.34,-27686.43,-6350.264999999999,-18960.975,-26796.645,-6026.849999999999,1852.83
1764763902.6186142,145.53,-1165.68,-27689.355,-6353.145,-18963.45,-26798.805,-6027.795,1851.165
1764763902.6186142,148.45499999999998,-1163.07,-27688.5,-6351.48,-18961.245,-26795.295,-6025.59,1854.18
1764763902.6186142,144.135,-1165.59,-27691.065,-6354.54,-18965.385,-26799.795,-6028.92,1850.58
1764763902.6186142,149.355,-1160.82,-27685.26,-6349.32,-18960.525,-26795.205,-6025.455,1855.395
1764763902.6186142,150.12,-1160.82,-27685.17,-6349.23,-18960.525,-26794.665,-6024.465,1856.205
1764763902.6186142,147.96,-1162.215,-27686.205,-6350.895,-18962.955,-26798.04,-6025.59,1853.145
1764763902.6186142,148.725,-1159.695,-27684.495,-6348.599999999999,-18962.865,-26798.49,-6026.219999999999,1852.155
1764763902.6186142,149.13,-1158.48,-27682.335,-6345.99,-18960.84,-26797.5,-6026.264999999999,1852.11
1764763902.6186142,149.535,-1158.525,-27681.39,-6345.585,-18960.39,-26797.77,-6026.355,1851.93
1764763902.6186142,150.66,-1157.04,-27682.2,-6346.395,-18960.075,-26796.375,-6025.094999999999,1854.315
1764763902.6186142,147.825,-1162.845,-27689.22,-6352.785,-18962.28,-26796.42,-6025.32,1853.415
1764763902.6186142,145.485,-1167.21,-27692.955,-6356.295,-18963.405,-26796.375,-6025.59,1851.435
1764763902.6186142,143.54999999999998,-1168.83,-27694.845,-6357.96,-18966.195,-26798.985,-6027.389999999999,1849.185
1764763902.6186142,143.86499999999998,-1167.48,-27694.17,-6358.094999999999,-18966.87,-26800.47,-6027.075,1849.815
1764763902.6186142,145.39499999999998,-1166.22,-27692.28,-6356.79,-18966.555,-26800.605,-6026.67,1850.535
1764763902.6186142,146.16,-1165.41,-27690.705,-6354.855,-18965.745,-26799.84,-6026.67,1850.67
1764763902.6196206,148.095,-1162.98,-27687.78,-6352.2,-18962.82,-26797.14,-6025.455,1852.155
1764763902.6196206,150.795,-1159.785,-27684.495,-6349.005,-18958.59,-26793.54,-6023.16,1854.585
1764763902.6196206,147.195,-1162.935,-27687.555,-6351.57,-18961.155,-26795.835,-6025.094999999999,1851.255
1764763902.6196206,146.20499999999998,-1164.78,-27688.995,-6352.74,-18962.865,-26797.365,-6025.23,1850.805
1764763902.6196206,147.78,-1163.7,-27687.24,-6351.705,-18963.315,-26797.5,-6025.32,1852.245
1764763902.662927,150.795,-1160.19,-27683.55,-6348.599999999999,-18959.895,-26793.945,-6023.52,1854.855
1764763902.662927,146.655,-1162.935,-27686.16,-6351.57,-18964.215,-26798.94,-6025.86,1851.255
1764763902.662927,147.6,-1162.8,-27686.79,-6350.58,-18963.27,-26798.625,-6024.78,1851.57
1764763902.662927,148.32,-1162.395,-27687.465,-6351.165,-18962.55,-26796.69,-6023.25,1852.605
1764763902.662927,149.67,-1161.18,-27687.015,-6351.21,-18960.84,-26794.71,-6023.16,1855.17
1764763902.662927,146.7,-1163.88,-27690.165,-6354.045,-18962.235,-26796.465,-6023.474999999999,1853.19
1764763902.662927,151.155,-1158.615,-27684.72,-6349.005,-18958.095,-26792.865,-6020.955,1856.295
1764763902.662927,149.67,-1160.01,-27684.72,-6349.094999999999,-18958.32,-26794.305,-6021.495,1853.775
1764763902.662927,146.34,-1163.97,-27689.04,-6352.83,-18962.865,-26798.58,-6023.88,1850.76
1764763902.662927,149.805,-1160.235,-27685.305,-6349.635,-18961.425,-26796.6,-6022.215,1854.135
1764763902.662927,153.585,-1155.33,-27679.86,-6343.785,-18956.43,-26791.92,-6019.065,1857.825
1764763902.662927,147.6,-1161.405,-27687.105,-6350.445,-18961.29,-26796.51,-6022.935,1852.515
1764763902.664473,147.32999999999998,-1161.765,-27688.905,-6351.3,-18960.615,-26794.8,-6021.945,1853.685
1764763902.664473,148.635,-1161.0,-27686.97,-6350.31,-18959.625,-26794.71,-6020.685,1854.99
1764763902.664473,151.965,-1156.905,-27682.065,-6346.215,-18958.005,-26794.665,-6019.425,1856.655
1764763902.664473,156.64499999999998,-1151.55,-27676.08,-6340.365,-18953.64,-26791.02,-6017.13,1860.3
1764763902.664473,152.1,-1157.31,-27683.1,-6346.26,-18957.42,-26792.775,-6018.435,1857.285
1764763902.664473,150.12,-1161.99,-27689.535,-6350.94,-18958.77,-26791.02,-6018.03,1857.915
1764763902.664473,146.745,-1166.445,-27692.37,-6352.965,-18960.165,-26792.64,-6019.469999999999,1854.675
1764763902.664473,150.21,-1161.0,-27686.295,-6347.115,-18955.53,-26789.13,-6016.59,1857.735
1764763902.664473,156.06,-1154.745,-27680.49,-6341.67,-18949.995,-26784.09,-6012.045,1861.965
1764763902.664473,151.01999999999998,-1159.965,-27685.755,-6347.474999999999,-18956.79,-26790.975,-6016.905,1856.52
1764763902.664473,151.155,-1159.515,-27685.62,-6348.24,-18958.635,-26793.72,-6019.469999999999,1856.34
1764763902.664473,155.34,-1153.845,-27679.545,-6342.255,-18952.47,-26788.455,-6016.32,1861.335
1764763902.7144177,156.78,-1152.495,-27677.61,-6339.78,-18950.805,-26785.665,-6013.215,1862.955
1764763902.7144177,151.2,-1157.625,-27682.965,-6345.315,-18955.665,-26790.57,-6016.815,1857.195
1764763902.7144177,149.535,-1159.515,-27684.855,-6347.205,-18957.33,-26793.09,-6018.795,1855.305
1764763902.7144177,149.17499999999998,-1159.74,-27685.44,-6349.455,-18959.04,-26793.99,-6019.38,1855.26
1764763902.7144177,151.245,-1157.85,-27683.685,-6348.014999999999,-18957.87,-26792.73,-6018.21,1857.51
1764763902.7144177,154.305,-1155.735,-27681.84,-6344.415,-18954.045,-26788.725,-6015.825,1861.605
1764763902.7144177,152.14499999999998,-1157.625,-27683.1,-6345.315,-18954.135,-26787.915,-6016.815,1859.76
1764763902.7144177,146.025,-1163.475,-27689.805,-6351.705,-18959.58,-26793.27,-6021.09,1854.0
1764763902.7144177,147.375,-1162.08,-27690.075,-6352.38,-18959.85,-26792.595,-6020.865,1855.26
1764763902.7144177,146.295,-1162.98,-27690.84,-6354.045,-18962.19,-26795.205,-6023.07,1853.055
1764763902.7144177,147.42,-1161.315,-27688.995,-6352.2,-18961.29,-26795.115,-6022.665,1852.65
1764763902.7144177,145.575,-1162.35,-27689.85,-6352.695,-18962.145,-26796.555,-6022.71,1851.075
1764763902.7144177,145.71,-1161.09,-27689.67,-6351.705,-18961.74,-26796.105,-6023.565,1851.525
1764763902.7144177,140.67,-1167.48,-27695.43,-6357.465,-18966.465,-26801.19,-6026.985,1846.845
1764763902.7144177,139.86,-1169.37,-27697.05,-6358.77,-18966.915,-26801.145,-6026.94,1846.98
1764763902.7144177,142.56,-1166.13,-27694.98,-6356.88,-18964.845,-26798.76,-6024.599999999999,1849.455
1764763902.7144177,147.51,-1160.55,-27688.905,-6351.66,-18960.39,-26794.755,-6020.505,1853.91
1764763902.7144177,144.18,-1163.79,-27691.47,-6353.55,-18962.91,-26797.59,-6022.98,1850.76
1764763902.7144177,147.87,-1160.91,-27688.32,-6350.4,-18960.345,-26794.53,-6020.19,1853.325
1764763902.7144177,147.06,-1161.72,-27688.995,-6351.57,-18961.155,-26795.295,-6021.045,1853.1
1764763902.7144177,144.18,-1163.565,-27691.245,-6353.19,-18963.225,-26797.455,-6022.62,1850.985
1764763902.7144177,147.105,-1159.965,-27686.88,-6348.42,-18959.22,-26794.215,-6020.46,1854.135
1764763902.7144177,145.035,-1161.81,-27687.375,-6349.77,-18960.84,-26795.7,-6020.73,1851.75
1764763902.7144177,145.485,-1162.53,-27688.545,-6351.255,-18962.055,-26795.655,-6021.315,1852.335
1764763902.760357,147.32999999999998,-1160.91,-27687.825,-6351.21,-18962.28,-26795.07,-6021.585,1853.82
1764763902.760357,144.0,-1163.88,-27690.03,-6352.605,-18963.99,-26797.905,-6023.925,1849.77
1764763902.760357,143.64,-1164.24,-27690.03,-6352.38,-18962.595,-26797.275,-6024.554999999999,1849.77
1764763902.760357,142.56,-1165.86,-27691.695,-6353.55,-18963.765,-26797.86,-6024.645,1848.555
1764763902.760357,143.46,-1164.465,-27689.985,-6352.785,-18963.36,-26798.85,-6024.78,1848.87
1764763902.760357,141.70499999999998,-1166.715,-27691.875,-6355.304999999999,-18965.385,-26800.92,-6025.86,1847.385
1764763902.760357,143.86499999999998,-1165.455,-27691.245,-6353.639999999999,-18963.54,-26797.995,-6023.79,1850.22
1764763902.760357,140.13,-1169.91,-27696.645,-6357.915,-18967.095,-26800.155,-6024.375,1848.465
1764763902.760357,142.155,-1168.29,-27694.44,-6355.17,-18963.63,-26796.285,-6022.62,1850.49
1764763902.760357,140.355,-1168.425,-27693.585,-6355.44,-18964.98,-26798.895,-6024.554999999999,1847.79
1764763902.760357,143.37,-1165.23,-27691.02,-6353.145,-18963.225,-26796.105,-6023.61,1850.31
1764763902.760357,143.595,-1165.815,-27691.92,-6353.37,-18961.965,-26794.53,-6021.945,1850.535
1764763902.760357,143.73,-1165.995,-27691.245,-6352.469999999999,-18961.83,-26795.07,-6021.63,1850.985
1764763902.760357,141.29999999999998,-1167.48,-27692.82,-6354.09,-18964.935,-26797.815,-6023.385,1847.655
1764763902.760357,143.73,-1164.825,-27689.535,-6350.715,-18961.92,-26795.25,-6021.405,1850.355
1764763902.760357,143.505,-1166.04,-27689.715,-6350.895,-18961.74,-26795.43,-6021.719999999999,1849.95
1764763902.760357,142.155,-1168.29,-27692.235,-6353.639999999999,-18963.045,-26796.33,-6022.575,1849.95
1764763902.760357,146.20499999999998,-1163.835,-27688.32,-6349.905,-18959.4,-26793.135,-6018.84,1853.685
1764763902.760357,147.105,-1161.855,-27685.485,-6347.79,-18960.165,-26795.07,-6019.875,1853.775
1764763902.760357,146.20499999999998,-1161.63,-27684.405,-6347.385,-18961.47,-26797.5,-6021.135,1851.12
1764763902.760357,145.935,-1161.09,-27683.82,-6346.304999999999,-18959.58,-26796.015,-6020.054999999999,1851.885
1764763902.760357,147.105,-1161.18,-27686.61,-6348.105,-18958.995,-26793.72,-6018.255,1854.225
1764763902.80627,143.14499999999998,-1166.535,-27692.325,-6354.224999999999,-18963.765,-26797.095,-6022.17,1850.805
1764763902.80627,137.34,-1172.565,-27698.94,-6361.514999999999,-18970.29,-26803.305,-6025.86,1845.945
1764763902.80627,138.105,-1171.395,-27697.23,-6360.885,-18969.84,-26803.395,-6026.13,1846.665
1764763902.80627,140.625,-1169.73,-27694.665,-6358.094999999999,-18968.67,-26802.09,-6025.094999999999,1847.655
1764763902.80627,140.13,-1169.865,-27695.88,-6358.365,-18968.85,-26801.235,-6024.87,1848.195
1764763902.80627,139.68,-1170.0449999999998,-27695.88,-6359.219999999999,-18968.535,-26802.0,-6025.32,1847.61
1764763902.80627,140.94,-1169.595,-27695.52,-6358.995,-18968.445,-26801.91,-6025.23,1848.15
1764763902.80627,142.56,-1167.525,-27692.865,-6355.889999999999,-18966.375,-26799.345,-6023.745,1850.535
1764763902.80627,142.65,-1167.075,-27691.605,-6355.395,-18964.845,-26798.445,-6023.385,1851.12
1764763902.80627,142.605,-1166.715,-27690.975,-6354.719999999999,-18964.305,-26799.705,-6022.8,1850.715
1764763902.80627,145.98,-1163.43,-27688.14,-6350.49,-18960.795,-26796.24,-6019.38,1854.045
1764763902.80627,139.5,-1169.505,-27694.215,-6356.295,-18966.825,-26801.82,-6024.645,1846.845
1764763902.80627,137.295,-1171.53,-27695.475,-6358.005,-18968.895,-26804.025,-6027.57,1844.055
1764763902.80627,139.905,-1168.47,-27692.415,-6355.08,-18968.445,-26804.43,-6026.264999999999,1845.36
1764763902.80627,141.70499999999998,-1166.76,-27690.03,-6353.73,-18967.725,-26804.79,-6025.59,1846.71
1764763902.80627,144.585,-1164.24,-27687.42,-6351.344999999999,-18964.845,-26801.46,-6024.105,1850.49
1764763902.80627,142.155,-1167.165,-27692.19,-6354.764999999999,-18965.565,-26801.28,-6024.24,1849.41
1764763902.80627,139.23,-1171.755,-27698.445,-6359.849999999999,-18968.49,-26802.45,-6025.32,1847.97
1764763902.80627,140.445,-1170.855,-27697.095,-6357.87,-18966.555,-26800.965,-6024.15,1848.735
1764763902.80627,142.245,-1168.9199999999998,-27693.765,-6354.719999999999,-18964.395,-26798.67,-6022.349999999999,1849.77
1764763902.80627,143.54999999999998,-1167.165,-27691.2,-6352.65,-18963.63,-26797.95,-6021.495,1850.445
1764763902.80627,141.57,-1167.84,-27692.55,-6354.54,-18966.6,-26801.145,-6023.52,1848.015
1764763902.80627,139.45499999999998,-1168.47,-27693.225,-6355.08,-18968.715,-26804.07,-6025.905,1844.82
1764763902.80627,141.03,-1166.715,-27689.895,-6352.83,-18967.365,-26803.485,-6024.96,1846.17
1764763902.8539188,144.45,-1164.555,-27687.825,-6350.67,-18963.945,-26799.975,-6022.8,1849.995
1764763902.8539188,139.725,-1170.09,-27695.34,-6355.935,-18966.42,-26801.235,-6025.005,1847.07
1764763902.8539188,135.67499999999998,-1174.365,-27700.065,-6360.66,-18970.605,-26804.97,-6026.985,1843.29
1764763902.8539188,138.69,-1170.0,-27694.44,-6356.474999999999,-18967.77,-26802.45,-6025.365,1845.99
1764763902.8539188,140.355,-1167.885,-27692.055,-6354.855,-18968.13,-26803.035,-6025.094999999999,1845.855
1764763902.8539188,140.355,-1168.11,-27692.865,-6354.27,-18968.49,-26802.72,-6025.77,1845.36
1764763902.8539188,138.735,-1170.99,-27695.385,-6356.385,-18968.4,-26801.955,-6025.995,1845.18
1764763902.8539188,135.09,-1175.355,-27699.975,-6360.57,-18972.09,-26803.845,-6028.29,1841.895
1764763902.8539188,134.325,-1175.58,-27700.515,-6360.255,-18972.09,-26804.835,-6027.57,1841.805
1764763902.8539188,132.795,-1176.39,-27700.785,-6361.514999999999,-18972.585,-26806.995,-6028.245,1840.86
1764763902.8539188,136.17,-1172.565,-27697.59,-6359.219999999999,-18972.45,-26807.355,-6027.705,1841.805
1764763902.8539188,144.585,-1162.485,-27686.79,-6349.41,-18966.105,-26802.27,-6022.889999999999,1848.285
1764763902.8539188,143.01,-1162.53,-27686.115,-6348.15,-18966.735,-26802.9,-6023.429999999999,1846.62
1764763902.8539188,142.65,-1163.565,-27686.07,-6347.79,-18964.53,-26800.47,-6021.945,1847.52
1764763902.8549323,142.82999999999998,-1167.03,-27690.57,-6351.344999999999,-18963.9,-26797.905,-6020.955,1849.41
1764763902.8549323,140.76,-1171.44,-27698.04,-6357.96,-18967.23,-26799.3,-6021.719999999999,1847.88
1764763902.8549323,139.905,-1171.89,-27698.67,-6359.355,-18967.68,-26800.92,-6022.844999999999,1846.8
1764763902.8549323,139.32,-1170.54,-27696.915,-6358.59,-18968.715,-26802.315,-6024.375,1845.9
1764763902.8549323,141.345,-1167.48,-27692.82,-6354.719999999999,-18966.42,-26800.11,-6022.71,1848.105
1764763902.8549323,139.68,-1169.64,-27693.945,-6355.215,-18966.51,-26800.74,-6023.34,1846.98
1764763902.8549323,136.07999999999998,-1172.61,-27697.68,-6358.95,-18970.245,-26803.8,-6024.915,1843.74
1764763902.8549323,139.23,-1168.965,-27693.135,-6354.36,-18966.015,-26800.515,-6022.08,1847.34
1764763902.8549323,139.14,-1169.505,-27692.865,-6353.91,-18964.8,-26800.02,-6021.27,1847.565
1764763902.8549323,136.665,-1172.88,-27697.275,-6358.455,-18967.725,-26801.055,-6022.844999999999,1846.305
1764763902.9013133,134.91,-1175.04,-27700.605,-6362.145,-18972.0,-26804.52,-6024.15,1844.19
1764763902.9013133,138.32999999999998,-1170.63,-27696.87,-6358.094999999999,-18969.66,-26802.045,-6021.63,1846.845
1764763902.9013133,142.965,-1165.815,-27691.47,-6352.56,-18965.025,-26797.995,-6018.615,1850.85
1764763902.9013133,140.265,-1169.01,-27693.945,-6355.665,-18968.13,-26801.37,-6021.63,1848.285
1764763902.9013133,143.685,-1165.095,-27690.21,-6352.29,-18964.98,-26798.85,-6019.83,1851.84
1764763902.9013133,142.335,-1166.13,-27691.38,-6353.19,-18966.78,-26801.55,-6021.0,1849.23
1764763902.9013133,145.755,-1162.485,-27687.33,-6349.32,-18963.315,-26798.445,-6020.01,1852.11
1764763902.9013133,145.575,-1162.215,-27685.98,-6347.969999999999,-18962.46,-26797.95,-6019.83,1851.705
1764763902.9023216,144.405,-1163.745,-27686.88,-6347.655,-18962.73,-26798.13,-6019.469999999999,1850.67
1764763902.9023216,140.57999999999998,-1166.715,-27690.48,-6350.804999999999,-18964.44,-26799.93,-6020.325,1847.88
1764763902.9023216,140.89499999999998,-1167.255,-27691.47,-6351.389999999999,-18963.27,-26798.355,-6020.099999999999,1849.095
1764763902.9023216,138.64499999999998,-1170.99,-27695.88,-6355.62,-18964.8,-26798.715,-6020.73,1847.655
1764763902.9023216,135.855,-1174.995,-27700.425,-6360.84,-18970.515,-26803.35,-6023.969999999999,1844.505
1764763902.9023216,130.905,-1179.675,-27705.78,-6365.655,-18976.095,-26809.83,-6028.605,1838.52
1764763902.9023216,133.335,-1176.93,-27702.0,-6361.74,-18972.585,-26807.175,-6027.12,1840.32
1764763902.9023216,138.78,-1171.08,-27696.42,-6356.52,-18968.175,-26802.27,-6023.385,1844.955
1764763902.9023216,140.4,-1169.685,-27694.17,-6354.495,-18966.915,-26802.225,-6020.594999999999,1847.16
1764763902.9023216,138.555,-1171.305,-27695.97,-6356.429999999999,-18969.66,-26805.645,-6022.08,1844.82
1764763902.9023216,143.325,-1166.6699999999998,-27690.75,-6351.075,-18965.475,-26802.045,-6019.514999999999,1849.77
1764763902.9023216,142.47,-1166.715,-27690.3,-6350.985,-18965.34,-26801.82,-6020.37,1848.87
1764763902.9023216,143.19,-1165.815,-27689.625,-6350.895,-18965.07,-26800.155,-6019.425,1849.455
1764763902.9023216,141.795,-1169.145,-27694.8,-6354.585,-18966.195,-26800.515,-6019.2,1848.78
1764763902.9494016,139.635,-1171.44,-27696.915,-6356.115,-18967.275,-26801.55,-6020.775,1847.385
1764763902.9494016,136.71,-1173.915,-27698.58,-6358.635,-18971.01,-26804.61,-6023.79,1844.28
1764763902.9494016,135.225,-1174.68,-27699.255,-6360.03,-18974.205,-26808.345,-6025.724999999999,1841.76
1764763902.9494016,138.87,-1171.485,-27696.24,-6357.33,-18971.37,-26805.15,-6023.025,1845.63
1764763902.9494016,136.935,-1174.14,-27698.94,-6359.445,-18972.405,-26805.735,-6023.07,1845.045
1764763902.9494016,134.28,-1176.165,-27701.73,-6361.65,-18974.25,-26807.625,-6024.645,1843.515
1764763902.9494016,131.085,-1178.505,-27703.62,-6363.495,-18976.86,-26810.73,-6026.715,1839.87
1764763902.9494016,134.28,-1174.905,-27699.795,-6360.12,-18973.845,-26807.94,-6025.094999999999,1841.76
1764763902.9494016,139.005,-1169.595,-27694.035,-6354.0,-18968.355,-26803.17,-6022.035,1846.08
1764763902.9494016,141.345,-1167.48,-27690.795,-6351.344999999999,-18967.005,-26801.145,-6019.965,1847.835
1764763902.9494016,141.21,-1167.48,-27690.21,-6351.66,-18966.555,-26800.515,-6019.02,1848.06
1764763902.9494016,137.07,-1172.025,-27695.745,-6357.014999999999,-18971.595,-26804.43,-6022.215,1843.785
1764763902.9494016,139.005,-1171.665,-27695.565,-6355.98,-18969.03,-26802.45,-6020.415,1846.035
1764763902.9494016,137.385,-1173.78,-27697.905,-6358.005,-18970.335,-26803.62,-6020.054999999999,1844.37
1764763902.9494016,140.13,-1169.865,-27693.765,-6353.775,-18968.13,-26801.64,-6017.58,1847.025
1764763902.9494016,144.315,-1164.825,-27687.6,-6348.465,-18964.71,-26798.715,-6015.42,1849.905
1764763902.9494016,141.435,-1166.805,-27688.95,-6349.86,-18966.96,-26801.28,-6016.995,1847.295
1764763902.9494016,140.715,-1168.245,-27690.705,-6351.84,-18968.13,-26802.18,-6017.535,1846.035
1764763902.9494016,139.14,-1172.115,-27696.015,-6355.665,-18968.22,-26801.19,-6017.715,1845.63
1764763902.9494016,138.465,-1173.555,-27697.77,-6356.7,-18968.67,-26800.605,-6017.67,1845.135
1764763902.9494016,142.73999999999998,-1167.93,-27691.605,-6351.075,-18964.17,-26797.095,-6015.105,1849.23
1764763902.9494016,138.87,-1170.0,-27693.855,-6353.594999999999,-18967.23,-26801.19,-6018.929999999999,1844.73
1764763902.9494016,143.82,-1164.555,-27688.41,-6348.06,-18961.605,-26797.41,-6016.005,1849.635
1764763902.9494016,141.975,-1165.59,-27690.03,-6349.455,-18964.035,-26799.255,-6017.175,1848.78
1764763902.9494016,139.14,-1168.245,-27693.045,-6353.01,-18967.545,-26802.9,-6018.48,1846.665
1764763902.9494016,141.57,-1166.895,-27690.345,-6350.985,-18965.835,-26801.28,-6017.219999999999,1849.545
1764763902.9927838,139.59,-1169.055,-27692.955,-6353.865,-18969.39,-26803.935,-6018.48,1848.195
1764763902.9927838,137.655,-1171.395,-27696.465,-6357.014999999999,-18972.315,-26805.735,-6020.505,1845.54
1764763902.9933052,138.06,-1172.34,-27697.815,-6358.005,-18971.955,-26804.61,-6019.965,1845.72
1764763902.9933052,144.54,-1166.94,-27692.415,-6352.02,-18965.385,-26798.67,-6014.79,1852.56
1764763902.9933052,145.39499999999998,-1166.085,-27692.055,-6351.21,-18964.62,-26797.725,-6012.99,1854.135
1764763902.9933052,143.415,-1168.245,-27692.955,-6353.325,-18967.545,-26799.84,-6015.105,1851.705
1764763902.9933052,140.085,-1171.215,-27696.195,-6357.014999999999,-18971.055,-26804.52,-6018.03,1848.42
1764763902.9933052,141.21,-1170.72,-27696.24,-6357.06,-18971.01,-26803.98,-6017.445,1848.915
1764763902.9933052,144.63,-1167.48,-27692.28,-6354.0,-18968.535,-26801.505,-6016.139999999999,1851.48
1764763902.9933052,143.37,-1167.84,-27692.1,-6354.179999999999,-18969.93,-26804.07,-6017.04,1849.995
1764763902.9933052,146.07,-1164.015,-27687.69,-6349.59,-18965.205,-26800.155,-6014.429999999999,1852.2
1764763902.9933052,141.21,-1168.965,-27693.72,-6354.719999999999,-18969.255,-26803.395,-6017.219999999999,1848.105
1764763902.9933052,141.12,-1170.27,-27696.42,-6356.52,-18968.58,-26801.325,-6016.679999999999,1849.365
1764763902.9933052,140.89499999999998,-1171.53,-27697.545,-6356.295,-18967.59,-26800.605,-6016.32,1848.78
1764763902.9933052,147.64499999999998,-1164.51,-27689.04,-6347.925,-18960.795,-26795.61,-6012.224999999999,1854.63
1764763902.9933052,146.61,-1164.6,-27688.005,-6346.935,-18960.255,-26796.78,-6013.08,1853.145
1764763902.9933052,146.34,-1163.79,-27686.79,-6345.945,-18959.625,-26796.69,-6012.09,1853.37
1764763902.9933052,143.46,-1166.985,-27690.165,-6350.04,-18963.81,-26799.345,-6013.889999999999,1850.895
1764763902.9933052,145.305,-1165.32,-27687.6,-6347.88,-18961.965,-26797.815,-6012.36,1852.92
1764763902.9933052,145.17,-1165.725,-27688.905,-6349.185,-18962.865,-26798.895,-6011.37,1852.83
1764763902.9933052,147.42,-1165.095,-27690.03,-6350.445,-18962.325,-26797.095,-6010.65,1855.125
1764763902.9933052,144.45,-1168.11,-27693.63,-6353.685,-18965.385,-26800.515,-6013.8,1851.57
1764763903.0393994,142.335,-1170.585,-27695.97,-6355.889999999999,-18968.175,-26803.125,-6015.78,1848.105
1764763903.039903,145.17,-1168.515,-27693.9,-6353.28,-18964.71,-26799.3,-6013.71,1851.57
1764763903.039903,146.385,-1167.255,-27692.505,-6351.525,-18963.63,-26797.995,-6012.764999999999,1852.47
1764763903.039903,144.405,-1168.11,-27692.37,-6351.48,-18964.8,-26800.155,-6013.844999999999,1850.67
1764763903.039903,146.16,-1166.22,-27689.985,-6348.33,-18963.09,-26798.625,-6012.719999999999,1850.94
1764763903.039903,145.89,-1165.95,-27689.13,-6346.665,-18961.605,-26797.32,-6013.08,1851.48
1764763903.039903,145.935,-1166.355,-27689.895,-6347.429999999999,-18961.785,-26796.78,-6013.17,1852.11
1764763903.039903,143.775,-1168.515,-27693.045,-6350.849999999999,-18964.89,-26799.39,-6014.61,1849.995
1764763903.039903,141.93,-1169.91,-27694.8,-6353.594999999999,-18967.86,-26801.415,-6015.735,1848.78
1764763903.039903,138.64499999999998,-1173.4199999999998,-27698.175,-6358.005,-18973.035,-26805.375,-6018.344999999999,1845.405
1764763903.039903,140.535,-1171.215,-27696.51,-6355.215,-18970.515,-26802.54,-6016.77,1847.385
1764763903.039903,137.51999999999998,-1174.995,-27700.335,-6358.77,-18971.37,-26803.89,-6017.31,1845.63
1764763903.039903,143.14499999999998,-1168.83,-27693.585,-6352.74,-18965.07,-26798.085,-6013.035,1851.165
1764763903.039903,143.54999999999998,-1168.605,-27692.73,-6352.02,-18965.295,-26798.49,-6013.665,1850.715
1764763903.039903,139.995,-1172.2949999999998,-27696.555,-6355.395,-18968.94,-26803.395,-6016.365,1846.935
1764763903.039903,137.97,-1173.735,-27698.49,-6357.33,-18971.415,-26805.24,-6018.344999999999,1845.405
1764763903.039903,137.07,-1174.905,-27699.975,-6358.905,-18973.485,-26806.095,-6019.83,1844.82
1764763903.039903,136.755,-1174.5,-27700.245,-6358.679999999999,-18973.305,-26805.915,-6019.875,1845.765
1764763903.0404122,140.985,-1169.19,-27695.385,-6354.9,-18970.515,-26803.395,-6017.94,1849.545
1764763903.0404122,138.32999999999998,-1172.115,-27697.365,-6356.565,-18972.855,-26806.545,-6020.01,1845.81
1764763903.0404122,138.915,-1171.755,-27697.32,-6355.17,-18970.065,-26804.115,-6018.165,1846.71
1764763903.0404122,140.57999999999998,-1170.18,-27696.105,-6352.785,-18966.465,-26799.93,-6015.915,1849.185
1764763903.0404122,140.85,-1169.73,-27695.88,-6352.29,-18965.97,-26799.39,-6015.014999999999,1849.32
1764763903.0404122,137.88,-1172.655,-27698.895,-6355.8,-18969.39,-26802.81,-6016.95,1846.17
1764763903.0865595,140.76,-1170.18,-27695.205,-6353.145,-18967.095,-26800.515,-6015.69,1848.105
1764763903.0865595,140.22,-1170.99,-27697.545,-6355.755,-18970.335,-26803.89,-6017.58,1846.755
1764763903.0865595,136.79999999999998,-1173.825,-27701.82,-6360.615,-18976.14,-26809.29,-6020.19,1843.335
1764763903.0865595,136.485,-1174.5449999999998,-27701.325,-6359.895,-18975.69,-26809.245,-6020.37,1843.695
1764763903.0865595,136.845,-1173.285,-27699.435,-6358.005,-18974.385,-26808.84,-6019.965,1844.055
1764763903.0865595,136.485,-1172.61,-27698.49,-6356.474999999999,-18973.215,-26808.165,-6019.965,1843.335
1764763903.0870905,136.485,-1172.385,-27698.985,-6356.385,-18972.045,-26807.22,-6019.38,1843.56
1764763903.0870905,138.06,-1171.53,-27698.175,-6355.395,-18970.335,-26805.15,-6016.365,1846.08
1764763903.0870905,143.235,-1166.715,-27692.64,-6350.58,-18966.06,-26800.83,-6013.08,1850.49
1764763903.0870905,144.045,-1165.32,-27691.695,-6349.094999999999,-18966.24,-26800.38,-6013.755,1851.21
1764763903.0870905,144.495,-1164.51,-27690.66,-6347.429999999999,-18964.98,-26798.58,-6012.945,1852.155
1764763903.0870905,141.165,-1167.345,-27691.605,-6348.24,-18965.43,-26799.66,-6014.429999999999,1849.455
1764763903.0870905,138.285,-1171.755,-27696.465,-6352.02,-18969.255,-26804.205,-6017.04,1846.035
1764763903.0870905,137.20499999999998,-1174.77,-27699.435,-6354.764999999999,-18970.065,-26805.015,-6017.219999999999,1844.505
1764763903.0870905,138.195,-1174.23,-27699.21,-6355.575,-18970.74,-26806.14,-6016.995,1845.18
1764763903.0870905,139.41,-1172.52,-27698.13,-6355.215,-18972.225,-26807.175,-6017.67,1845.945
1764763903.0870905,142.605,-1170.135,-27695.565,-6353.28,-18970.605,-26803.755,-6015.78,1849.365
1764763903.0870905,141.21,-1171.755,-27697.095,-6354.585,-18972.765,-26804.97,-6015.465,1848.015
1764763903.0870905,143.14499999999998,-1169.505,-27694.98,-6351.929999999999,-18967.815,-26801.55,-6013.349999999999,1850.67
1764763903.0870905,138.735,-1173.78,-27697.95,-6354.36,-18970.11,-26805.87,-6017.355,1846.125
1764763903.0870905,142.29,-1169.55,-27693.63,-6349.005,-18966.24,-26803.125,-6015.195,1848.42
1764763903.0870905,140.625,-1169.775,-27693.9,-6349.32,-18967.905,-26805.015,-6015.87,1846.305
1764763903.1368296,142.245,-1168.155,-27691.92,-6346.844999999999,-18964.98,-26802.36,-6014.385,1848.96
1764763903.1368296,137.295,-1174.905,-27698.76,-6353.73,-18969.795,-26805.015,-6016.635,1844.19
1764763903.1368296,137.88,-1174.5449999999998,-27699.165,-6353.865,-18968.4,-26803.71,-6016.905,1845.81
1764763903.1368296,138.735,-1174.41,-27699.21,-6354.855,-18969.75,-26806.05,-6017.985,1845.945
1764763903.1368296,137.43,-1177.155,-27702.765,-6357.87,-18972.99,-26807.715,-6018.21,1844.955
1764763903.1368296,133.38,-1180.845,-27707.13,-6362.099999999999,-18976.815,-26810.595,-6019.065,1842.12
1764763903.1368296,136.98,-1177.56,-27703.44,-6358.815,-18973.89,-26807.58,-6016.455,1845.945
1764763903.1368296,135.585,-1178.28,-27703.755,-6359.13,-18974.97,-26808.795,-6017.804999999999,1845.18
1764763903.1368296,133.785,-1179.99,-27704.97,-6359.355,-18976.545,-26810.955,-6018.615,1842.705
1764763903.1368296,135.135,-1177.83,-27702.18,-6356.745,-18974.25,-26809.29,-6017.58,1844.37
1764763903.1368296,134.14499999999998,-1178.82,-27703.305,-6358.365,-18975.915,-26810.73,-6018.255,1842.615
1764763903.1368296,136.17,-1177.02,-27701.145,-6356.61,-18973.755,-26808.345,-6018.03,1843.965
1764763903.1368296,133.01999999999998,-1179.675,-27703.845,-6359.4,-18976.005,-26810.685,-6019.38,1841.22
1764763903.1368296,134.01,-1178.37,-27702.63,-6358.005,-18975.015,-26809.92,-6018.12,1842.48
1764763903.1368296,138.285,-1174.095,-27698.22,-6353.415,-18971.64,-26806.095,-6015.285,1846.755
1764763903.1368296,140.625,-1170.9,-27693.99,-6349.905,-18968.13,-26802.72,-6011.91,1850.085
1764763903.1368296,142.155,-1169.955,-27693.585,-6349.815,-18967.68,-26802.45,-6011.054999999999,1850.49
1764763903.1368296,138.51,-1174.365,-27697.905,-6354.179999999999,-18971.865,-26806.5,-6013.935,1846.395
1764763903.1368296,141.795,-1170.855,-27694.53,-6351.03,-18970.56,-26804.34,-6012.405,1849.995
1764763903.1368296,139.86,-1172.925,-27696.24,-6352.74,-18973.44,-26807.355,-6013.755,1847.745
1764763903.1368296,139.95,-1173.06,-27695.97,-6352.02,-18971.82,-26806.545,-6012.945,1847.61
1764763903.1368296,141.70499999999998,-1170.765,-27694.62,-6350.355,-18969.93,-26805.15,-6012.179999999999,1848.735
1764763903.1368296,143.01,-1169.82,-27694.08,-6349.86,-18968.22,-26802.315,-6011.505,1850.895
1764763903.1368296,137.385,-1176.7949999999998,-27700.83,-6356.925,-18973.89,-26806.635,-6014.7,1845.315
1764763903.1799662,138.32999999999998,-1175.22,-27699.345,-6356.429999999999,-18974.205,-26807.13,-6015.285,1845.225
1764763903.1799662,141.03,-1171.71,-27695.925,-6353.325,-18972.315,-26805.465,-6013.71,1846.98
1764763903.1799662,144.36,-1167.66,-27691.92,-6347.79,-18967.365,-26801.64,-6010.83,1850.625
1764763903.1799662,140.57999999999998,-1171.08,-27695.745,-6351.929999999999,-18970.92,-26805.195,-6013.62,1847.97
1764763903.1799662,137.07,-1176.03,-27701.595,-6358.86,-18975.87,-26809.47,-6016.139999999999,1844.28
1764763903.1799662,137.97,-1175.175,-27701.505,-6358.139999999999,-18974.925,-26807.04,-6015.465,1846.62
1764763903.1799662,138.6,-1174.455,-27700.92,-6357.87,-18975.555,-26806.68,-6014.969999999999,1847.745
1764763903.1809788,138.555,-1174.32,-27701.055,-6358.005,-18975.78,-26807.265,-6014.655,1847.565
1764763903.1809788,135.36,-1176.84,-27703.44,-6361.155,-18979.605,-26811.18,-6017.67,1843.605
1764763903.1809788,136.035,-1176.12,-27702.675,-6360.03,-18978.615,-26810.82,-6017.804999999999,1843.785
1764763903.1809788,136.62,-1174.59,-27701.1,-6358.094999999999,-18976.905,-26809.92,-6016.77,1843.92
1764763903.1809788,139.005,-1171.305,-27697.005,-6353.505,-18973.305,-26806.185,-6014.25,1846.89
1764763903.1809788,146.16,-1165.32,-27689.58,-6346.53,-18966.06,-26799.345,-6008.445,1853.505
1764763903.1809788,144.18,-1167.615,-27693.9,-6350.355,-18970.11,-26802.675,-6010.83,1850.67
1764763903.1809788,140.94,-1171.26,-27697.545,-6354.27,-18973.98,-26806.23,-6013.035,1848.465
1764763903.1809788,142.695,-1168.965,-27695.205,-6353.235,-18972.72,-26804.88,-6012.63,1850.175
1764763903.1809788,142.38,-1168.605,-27693.765,-6352.245,-18973.935,-26807.175,-6012.764999999999,1848.915
1764763903.1809788,143.685,-1166.13,-27690.21,-6348.42,-18971.325,-26805.015,-6011.865,1850.76
1764763903.1809788,144.81,-1164.33,-27688.5,-6345.719999999999,-18969.255,-26801.82,-6010.965,1852.11
1764763903.1809788,147.555,-1163.655,-27687.465,-6344.054999999999,-18966.195,-26798.67,-6008.715,1854.135
1764763903.1809788,146.16,-1165.77,-27690.48,-6346.665,-18967.05,-26798.13,-6008.94,1852.335
1764763903.1809788,144.045,-1166.13,-27690.795,-6347.205,-18967.815,-26800.065,-6009.885,1850.085
1764763903.1809788,148.68,-1161.27,-27685.17,-6341.715,-18963.99,-26796.015,-6006.33,1854.72
1764763903.1809788,143.37,-1167.705,-27691.605,-6348.15,-18969.255,-26800.11,-6008.94,1851.48
1764763903.227482,144.09,-1168.74,-27693.765,-6349.32,-18967.14,-26797.365,-6007.77,1853.235
1764763903.227482,141.12,-1171.98,-27697.68,-6352.38,-18969.615,-26799.57,-6008.94,1850.67
1764763903.227482,138.105,-1175.04,-27702.09,-6357.78,-18975.78,-26804.97,-6011.955,1848.375
1764763903.227482,141.03,-1171.125,-27698.58,-6356.07,-18975.06,-26804.43,-6011.145,1850.715
1764763903.227482,140.04,-1171.305,-27697.05,-6355.44,-18975.915,-26806.59,-6011.865,1849.41
1764763903.2280135,141.975,-1169.685,-27693.945,-6352.2,-18972.225,-26804.565,-6011.054999999999,1850.355
1764763903.2280135,143.28,-1169.055,-27693.09,-6351.12,-18969.615,-26801.415,-6009.705,1851.48
1764763903.2280135,139.005,-1173.78,-27699.615,-6357.51,-18974.34,-26804.16,-6012.045,1847.385
1764763903.2280135,140.76,-1172.925,-27698.67,-6355.755,-18972.45,-26802.09,-6011.775,1849.455
1764763903.2280135,135.225,-1179.0449999999998,-27704.07,-6360.75,-18977.85,-26807.58,-6015.645,1844.145
1764763903.2280135,135.045,-1179.27,-27704.34,-6360.929999999999,-18978.975,-26809.155,-6016.32,1843.155
1764763903.2280135,135.36,-1178.685,-27703.8,-6361.065,-18980.325,-26810.73,-6016.995,1843.245
1764763903.2280135,136.845,-1177.425,-27703.44,-6361.965,-18982.215,-26812.08,-6016.455,1844.19
1764763903.2280135,137.745,-1176.345,-27702.0,-6361.02,-18981.09,-26811.135,-6016.635,1845.945
1764763903.2280135,139.23,-1174.14,-27699.66,-6356.655,-18976.815,-26807.94,-6015.195,1847.97
1764763903.2280135,136.62,-1176.345,-27701.685,-6359.58,-18978.795,-26809.74,-6016.139999999999,1845.495
1764763903.2280135,138.42,-1174.995,-27700.065,-6357.24,-18976.77,-26807.76,-6015.195,1846.485
1764763903.2280135,135.855,-1178.595,-27703.44,-6360.525,-18979.74,-26810.73,-6016.905,1844.235
1764763903.2280135,139.545,-1175.715,-27699.345,-6356.34,-18976.275,-26806.77,-6014.61,1847.52
1764763903.2280135,139.36499999999998,-1175.6699999999998,-27697.995,-6355.8,-18976.86,-26808.12,-6015.645,1844.64
1764763903.2280135,143.46,-1169.19,-27691.245,-6348.42,-18971.325,-26803.665,-6012.045,1849.23
1764763903.2280135,145.26,-1166.94,-27690.435,-6346.62,-18969.525,-26801.595,-6009.885,1851.48
1764763903.2280135,143.91,-1171.035,-27695.745,-6350.31,-18970.74,-26801.325,-6008.76,1851.39
1764763903.2280135,141.525,-1175.715,-27700.155,-6354.09,-18972.45,-26802.405,-6010.02,1850.22
1764763903.2765596,140.76,-1175.22,-27698.985,-6353.865,-18973.08,-26803.215,-6010.695,1849.68
1764763903.2765596,138.78,-1176.075,-27699.84,-6354.45,-18974.565,-26805.15,-6012.135,1847.61
1764763903.2765596,139.815,-1174.185,-27697.77,-6353.73,-18973.755,-26805.105,-6011.505,1848.33
1764763903.2765596,139.45499999999998,-1174.275,-27698.67,-6355.125,-18975.735,-26806.095,-6012.54,1848.735
1764763903.2765596,140.805,-1172.43,-27696.195,-6353.28,-18974.43,-26805.825,-6011.955,1849.455
1764763903.2765596,137.20499999999998,-1176.435,-27699.795,-6355.98,-18976.455,-26808.795,-6014.925,1844.73
1764763903.2765596,137.7,-1176.75,-27699.93,-6355.755,-18974.475,-26806.68,-6013.304999999999,1845.045
1764763903.2765596,137.565,-1177.155,-27699.975,-6355.755,-18972.765,-26804.745,-6011.865,1846.485
1764763903.2765596,134.73,-1180.53,-27704.025,-6359.895,-18977.58,-26808.03,-6014.925,1842.93
1764763903.2765596,134.865,-1180.98,-27705.51,-6361.335,-18979.11,-26809.56,-6015.42,1842.885
1764763903.2765596,139.04999999999998,-1176.75,-27701.46,-6357.645,-18976.455,-26807.13,-6013.08,1846.305
1764763903.2765596,138.51,-1176.93,-27700.83,-6357.105,-18977.535,-26808.03,-6013.44,1845.18
1764763903.2765596,138.465,-1176.435,-27699.93,-6355.304999999999,-18976.95,-26807.58,-6012.945,1845.27
1764763903.2765596,141.66,-1173.24,-27696.195,-6352.335,-18972.585,-26804.43,-6010.514999999999,1848.825
1764763903.2765596,143.775,-1170.855,-27693.72,-6350.4,-18971.415,-26803.17,-6008.895,1850.355
1764763903.2765596,140.445,-1172.43,-27695.52,-6352.11,-18975.915,-26807.265,-6012.9,1846.035
1764763903.2765596,142.38,-1170.09,-27692.64,-6348.915,-18973.98,-26806.14,-6012.315,1846.845
1764763903.2765596,142.875,-1170.945,-27693.54,-6348.33,-18971.46,-26803.845,-6010.02,1847.34
1764763903.2765596,141.795,-1173.375,-27696.195,-6350.67,-18970.965,-26802.135,-6009.435,1847.925
1764763903.2765596,142.065,-1173.87,-27697.365,-6351.48,-18971.1,-26801.595,-6009.255,1849.23
1764763903.2765596,138.195,-1178.865,-27702.675,-6356.16,-18974.34,-26804.52,-6011.505,1846.125
1764763903.2765596,139.76999999999998,-1176.84,-27700.245,-6354.09,-18972.45,-26802.99,-6011.594999999999,1847.07
1764763903.320208,140.535,-1174.59,-27697.365,-6352.155,-18972.27,-26804.25,-6011.955,1846.35
1764763903.320208,145.485,-1169.37,-27691.38,-6346.17,-18966.645,-26799.12,-6008.715,1850.31
1764763903.320208,146.51999999999998,-1169.19,-27690.03,-6344.73,-18964.305,-26796.78,-6007.094999999999,1851.48
1764763903.320208,143.28,-1173.735,-27695.79,-6349.724999999999,-18970.2,-26800.875,-6010.155,1848.51
1764763903.320208,141.75,-1175.58,-27699.66,-6353.865,-18973.665,-26802.315,-6011.505,1847.43
1764763903.320208,141.70499999999998,-1176.255,-27700.785,-6355.395,-18973.755,-26802.045,-6011.145,1847.43
1764763903.320208,142.38,-1176.12,-27700.65,-6355.125,-18973.62,-26802.045,-6010.065,1848.42
1764763903.320208,141.795,-1176.48,-27700.515,-6355.395,-18975.06,-26804.07,-6011.325,1848.42
1764763903.320208,142.01999999999998,-1175.625,-27700.065,-6355.665,-18976.77,-26805.915,-6012.36,1848.87
1764763903.320208,141.70499999999998,-1175.04,-27698.895,-6354.54,-18975.915,-26805.645,-6012.135,1847.88
1764763903.320208,142.38,-1173.4199999999998,-27696.915,-6352.469999999999,-18973.53,-26803.755,-6010.469999999999,1848.15
1764763903.320208,144.135,-1171.1699999999998,-27695.835,-6350.58,-18971.685,-26801.37,-6008.804999999999,1849.41
1764763903.320208,145.485,-1170.27,-27694.125,-6348.15,-18969.3,-26798.805,-6007.365,1850.94
1764763903.320208,143.595,-1173.33,-27696.42,-6350.985,-18971.91,-26801.55,-6009.435,1848.87
1764763903.320208,144.81,-1172.205,-27695.025,-6349.905,-18971.145,-26800.965,-6008.58,1850.085
1764763903.320208,146.07,-1170.63,-27693.405,-6348.599999999999,-18971.055,-26801.55,-6008.04,1851.39
1764763903.321732,144.495,-1172.7,-27694.26,-6350.264999999999,-18973.215,-26803.845,-6008.04,1849.14
1764763903.321732,147.105,-1171.755,-27692.55,-6348.69,-18970.74,-26800.785,-6006.285,1852.11
1764763903.321732,145.305,-1174.5449999999998,-27696.735,-6351.165,-18971.955,-26801.145,-6008.175,1850.895
1764763903.321732,143.01,-1176.705,-27697.995,-6353.054999999999,-18973.935,-26803.44,-6009.03,1849.005
1764763903.321732,139.5,-1180.215,-27702.18,-6357.465,-18978.93,-26807.94,-6012.315,1844.955
1764763903.321732,142.965,-1175.355,-27697.995,-6353.145,-18975.15,-26803.62,-6009.12,1848.78
1764763903.369212,147.375,-1170.09,-27691.785,-6346.8,-18969.21,-26798.58,-6005.474999999999,1852.785
1764763903.369212,145.035,-1171.665,-27692.775,-6347.565,-18972.09,-26802.63,-6008.58,1850.31
1764763903.369212,142.965,-1172.565,-27692.73,-6347.655,-18973.845,-26804.79,-6010.245,1847.88
1764763903.369212,145.935,-1169.505,-27689.04,-6344.505,-18970.11,-26800.875,-6007.23,1852.065
1764763903.369212,144.54,-1172.88,-27694.53,-6349.05,-18971.505,-26801.955,-6007.635,1851.21
1764763903.369212,139.815,-1177.9199999999998,-27700.38,-6354.09,-18975.78,-26805.555,-6010.155,1847.205
1764763903.369212,141.975,-1176.3,-27698.265,-6351.255,-18973.305,-26802.675,-6008.219999999999,1849.68
1764763903.369212,140.13,-1179.09,-27701.055,-6353.82,-18975.465,-26804.745,-6010.02,1846.395
1764763903.369212,142.065,-1177.02,-27699.48,-6352.65,-18974.295,-26804.07,-6008.94,1847.385
1764763903.369212,140.715,-1177.29,-27699.84,-6353.82,-18976.275,-26805.915,-6009.165,1846.395
1764763903.369212,144.945,-1172.925,-27694.98,-6348.735,-18972.315,-26802.585,-6006.195,1850.985
1764763903.369212,140.89499999999998,-1176.255,-27698.985,-6352.695,-18977.085,-26807.04,-6009.974999999999,1846.755
1764763903.369212,141.66,-1176.255,-27698.805,-6352.245,-18976.455,-26806.86,-6010.469999999999,1846.305
1764763903.369212,142.92,-1175.49,-27697.635,-6351.705,-18974.295,-26805.645,-6009.12,1847.97
1764763903.369212,144.67499999999998,-1173.465,-27694.8,-6349.905,-18972.405,-26803.71,-6007.59,1850.76
1764763903.369212,147.105,-1171.845,-27693.63,-6347.7,-18969.975,-26801.1,-6005.115,1853.235
1764763903.369212,146.16,-1174.635,-27696.015,-6349.545,-18971.325,-26802.135,-6005.565,1851.93
1764763903.369212,143.595,-1176.57,-27696.915,-6352.02,-18973.53,-26804.205,-6007.724999999999,1849.32
1764763903.369212,147.555,-1170.99,-27690.705,-6346.215,-18968.805,-26800.155,-6004.304999999999,1853.28
1764763903.369212,146.97,-1170.855,-27690.705,-6345.045,-18968.355,-26800.155,-6003.675,1852.92
1764763903.370223,145.98,-1172.16,-27693.765,-6346.53,-18969.48,-26800.2,-6003.945,1852.56
1764763903.370223,143.28,-1174.995,-27697.32,-6349.679999999999,-18972.18,-26801.955,-6006.24,1850.355
1764763903.370223,144.045,-1174.59,-27696.24,-6348.96,-18972.9,-26802.405,-6005.52,1851.255
1764763903.370223,141.29999999999998,-1176.7949999999998,-27696.6,-6350.94,-18976.32,-26806.68,-6008.219999999999,1848.15
1764763903.370223,143.28,-1175.085,-27694.305,-6348.78,-18974.385,-26805.375,-6007.23,1848.69
1764763903.370223,145.79999999999998,-1174.23,-27693.945,-6347.655,-18971.28,-26801.37,-6004.98,1852.515
1764763903.4167235,142.42499999999998,-1178.235,-27698.805,-6352.38,-18973.035,-26803.035,-6006.014999999999,1850.265
1764763903.4167235,138.96,-1180.44,-27701.73,-6356.115,-18977.715,-26807.715,-6008.625,1846.575
1764763903.4167235,140.085,-1179.225,-27700.47,-6355.395,-18977.445,-26807.805,-6009.389999999999,1847.07
1764763903.4167235,142.01999999999998,-1177.65,-27699.705,-6354.179999999999,-18975.87,-26805.555,-6008.445,1849.77
1764763903.4167235,146.20499999999998,-1174.275,-27696.42,-6350.355,-18972.09,-26801.55,-6005.429999999999,1853.235
1764763903.4167235,142.01999999999998,-1177.605,-27699.39,-6354.27,-18975.825,-26804.97,-6008.625,1848.825
1764763903.4167235,139.185,-1180.665,-27702.27,-6356.925,-18979.38,-26808.39,-6010.29,1845.72
1764763903.4167235,140.715,-1178.82,-27699.84,-6354.54,-18978.255,-26807.985,-6010.2,1846.395
1764763903.4167235,144.135,-1173.87,-27694.53,-6349.5,-18974.16,-26804.07,-6008.445,1849.59
1764763903.4167235,141.70499999999998,-1175.6699999999998,-27696.195,-6350.4,-18975.24,-26805.645,-6008.94,1846.71
1764763903.4167235,144.36,-1174.23,-27694.845,-6348.915,-18972.72,-26803.395,-6007.23,1848.96
1764763903.4167235,143.235,-1175.895,-27696.96,-6351.615,-18975.015,-26804.655,-6007.59,1848.24
1764763903.4167235,140.985,-1179.495,-27701.505,-6356.115,-18978.93,-26807.445,-6009.795,1846.575
1764763903.4167235,140.625,-1179.99,-27701.73,-6356.835,-18979.515,-26807.715,-6009.705,1847.07
1764763903.4167235,142.01999999999998,-1177.29,-27698.49,-6354.045,-18977.715,-26805.915,-6007.995,1847.745
1764763903.4177356,141.57,-1177.2,-27696.69,-6352.965,-18977.895,-26806.59,-6008.715,1847.07
1764763903.4177356,142.38,-1175.94,-27693.765,-6350.04,-18977.13,-26807.04,-6008.13,1846.755
1764763903.4177356,146.745,-1170.405,-27687.915,-6345.09,-18973.17,-26803.89,-6005.429999999999,1850.895
1764763903.4177356,142.605,-1174.59,-27691.65,-6348.915,-18976.23,-26806.59,-6007.139999999999,1847.385
1764763903.4177356,141.255,-1177.425,-27696.015,-6352.2,-18975.69,-26806.23,-6006.51,1846.665
1764763903.4605007,140.67,-1178.46,-27697.995,-6353.145,-18975.105,-26806.05,-6006.69,1846.53
1764763903.4605007,140.94,-1177.56,-27697.14,-6351.48,-18973.665,-26804.34,-6007.23,1846.845
1764763903.4610393,144.18,-1174.23,-27693.9,-6348.06,-18971.325,-26802.54,-6005.474999999999,1849.32
1764763903.4610393,143.1,-1176.21,-27695.205,-6349.545,-18971.82,-26802.54,-6005.07,1848.825
1764763903.4610393,145.845,-1175.49,-27695.61,-6349.635,-18970.74,-26799.075,-6002.19,1851.66
1764763903.4610393,139.725,-1182.4199999999998,-27703.125,-6357.105,-18977.76,-26806.005,-6007.635,1845.855
1764763903.4610393,141.21,-1180.08,-27702.405,-6355.844999999999,-18975.465,-26804.52,-6006.69,1848.735
1764763903.4610393,136.71,-1183.77,-27706.275,-6361.335,-18981.855,-26810.55,-6010.29,1844.235
1764763903.4610393,137.92499999999998,-1182.69,-27704.565,-6359.94,-18982.755,-26812.215,-6011.054999999999,1844.19
1764763903.4610393,137.835,-1182.195,-27703.485,-6358.094999999999,-18981.315,-26811.09,-6010.514999999999,1844.145
1764763903.4615543,142.42499999999998,-1178.325,-27699.435,-6353.415,-18977.04,-26807.04,-6007.5,1848.555
1764763903.4615543,140.57999999999998,-1179.18,-27699.795,-6354.27,-18978.705,-26809.065,-6007.455,1846.665
1764763903.4615543,142.47,-1177.245,-27698.4,-6353.594999999999,-18979.11,-26808.3,-6007.005,1847.43
1764763903.4615543,144.855,-1174.995,-27695.7,-6349.995,-18975.69,-26805.69,-6004.53,1850.31
1764763903.4615543,150.12,-1169.91,-27689.58,-6344.325,-18969.39,-26799.48,-6000.165,1855.575
1764763903.4615543,147.42,-1172.025,-27691.605,-6346.304999999999,-18972.0,-26802.63,-6002.55,1852.47
1764763903.4615543,144.72,-1173.915,-27693.72,-6348.42,-18975.51,-26806.14,-6004.62,1849.23
1764763903.4615543,147.825,-1170.27,-27688.86,-6343.514999999999,-18971.865,-26803.845,-6003.0,1851.795
1764763903.463565,146.655,-1172.34,-27691.74,-6346.485,-18972.99,-26805.105,-6003.495,1850.04
1764763903.463565,140.4,-1181.61,-27702.63,-6355.304999999999,-18977.22,-26807.04,-6004.889999999999,1846.935
1764763903.463565,140.715,-1182.195,-27703.575,-6355.575,-18976.005,-26804.52,-6004.17,1847.835
1764763903.463565,136.845,-1185.21,-27705.735,-6358.23,-18979.92,-26809.47,-6006.78,1843.605
1764763903.463565,136.035,-1186.29,-27706.545,-6359.219999999999,-18981.045,-26811.045,-6008.13,1842.93
1764763903.463565,138.735,-1182.78,-27703.125,-6355.844999999999,-18978.93,-26809.02,-6007.05,1844.325
1764763903.5101929,143.14499999999998,-1176.84,-27698.04,-6350.49,-18974.205,-26804.52,-6004.755,1848.42
1764763903.5101929,139.23,-1179.27,-27700.695,-6353.415,-18977.265,-26807.445,-6007.32,1845.45
1764763903.5101929,143.46,-1174.995,-27695.97,-6347.79,-18972.495,-26803.215,-6004.304999999999,1849.23
1764763903.5101929,143.595,-1175.49,-27694.755,-6347.565,-18971.595,-26802.765,-6002.82,1850.355
1764763903.5105855,142.82999999999998,-1177.11,-27695.745,-6349.455,-18972.9,-26803.89,-6001.965,1849.95
1764763903.5105855,140.805,-1180.08,-27699.57,-6352.92,-18975.87,-26806.725,-6003.719999999999,1846.665
1764763903.5105855,144.405,-1176.615,-27697.095,-6349.545,-18973.08,-26803.845,-6001.469999999999,1850.22
1764763903.5105855,143.37,-1177.785,-27698.625,-6350.94,-18976.005,-26805.87,-6002.865,1848.645
1764763903.5105855,145.62,-1175.58,-27696.015,-6349.139999999999,-18973.98,-26804.115,-6001.74,1850.49
1764763903.5105855,144.26999999999998,-1177.695,-27697.905,-6350.804999999999,-18975.375,-26804.79,-6001.38,1849.815
1764763903.5105855,146.07,-1175.805,-27696.69,-6349.05,-18972.585,-26801.865,-6000.03,1851.12
1764763903.5105855,141.03,-1180.395,-27701.28,-6354.27,-18977.265,-26806.365,-6004.665,1846.17
1764763903.5105855,143.01,-1178.73,-27700.155,-6353.415,-18976.815,-26805.465,-6003.63,1848.69
1764763903.5105855,143.54999999999998,-1177.605,-27699.705,-6353.28,-18976.68,-26805.735,-6003.63,1849.23
1764763903.5105855,143.505,-1176.84,-27698.58,-6351.615,-18975.69,-26804.79,-6003.09,1849.365
1764763903.5105855,141.21,-1179.405,-27700.695,-6354.764999999999,-18977.625,-26806.905,-6004.889999999999,1846.215
1764763903.5105855,138.285,-1182.465,-27703.98,-6358.139999999999,-18980.64,-26809.92,-6006.554999999999,1842.885
1764763903.5105855,139.76999999999998,-1180.485,-27702.09,-6355.53,-18979.425,-26809.245,-6006.06,1844.235
1764763903.5105855,141.525,-1178.235,-27699.705,-6353.73,-18977.805,-26806.725,-6004.62,1846.755
1764763903.5105855,143.14499999999998,-1176.885,-27697.635,-6351.75,-18975.195,-26804.025,-6002.775,1848.33
1764763903.5105855,147.32999999999998,-1172.61,-27692.19,-6345.99,-18969.75,-26799.345,-5998.95,1852.515
1764763903.5105855,145.305,-1173.6,-27692.1,-6346.62,-18972.27,-26801.775,-6000.795,1849.77
1764763903.5105855,145.17,-1173.645,-27691.605,-6346.395,-18973.755,-26803.89,-6001.965,1848.78
1764763903.5105855,146.97,-1170.225,-27688.05,-6342.344999999999,-18970.47,-26801.73,-6000.974999999999,1851.57
1764763903.5105855,145.305,-1171.485,-27689.22,-6343.29,-18970.875,-26801.64,-6001.02,1850.985
1764763903.5105855,140.985,-1179.0,-27698.265,-6350.94,-18974.205,-26803.845,-6002.639999999999,1847.88
1764763903.5572505,136.44,-1184.85,-27706.05,-6358.59,-18979.29,-26806.68,-6005.295,1843.875
1764763903.5572505,140.625,-1180.665,-27701.145,-6355.53,-18977.58,-26805.015,-6003.764999999999,1846.575
1764763903.5572505,139.185,-1180.8,-27701.955,-6357.645,-18981.99,-26809.38,-6005.61,1844.595
1764763903.5572505,141.255,-1178.46,-27699.57,-6356.295,-18981.9,-26809.515,-6005.115,1846.845
1764763903.5572505,146.88,-1173.4199999999998,-27693.99,-6349.815,-18976.095,-26804.655,-6000.48,1851.345
1764763903.5572505,141.885,-1177.965,-27699.48,-6355.53,-18981.27,-26809.92,-6004.485,1846.575
1764763903.5572505,141.57,-1177.875,-27699.48,-6354.9,-18981.72,-26810.82,-6005.655,1847.115
1764763903.5572505,143.14499999999998,-1176.57,-27697.14,-6352.92,-18980.28,-26808.615,-6004.62,1848.645
1764763903.5572505,141.525,-1179.405,-27700.695,-6356.025,-18981.81,-26808.795,-6004.575,1847.61
1764763903.5572505,139.04999999999998,-1183.14,-27705.42,-6360.165,-18983.115,-26809.695,-6004.8,1845.945
1764763903.5572505,141.93,-1180.935,-27701.82,-6356.835,-18979.29,-26805.96,-6002.685,1849.185
1764763903.5572505,139.995,-1181.79,-27701.865,-6357.33,-18980.64,-26808.39,-6003.45,1846.98
1764763903.5572505,143.14499999999998,-1178.73,-27698.715,-6353.865,-18979.29,-26806.05,-6000.389999999999,1849.815
1764763903.5572505,148.5,-1173.4199999999998,-27693.9,-6349.545,-18975.645,-26801.595,-5996.655,1854.045
1764763903.5572505,148.095,-1173.465,-27693.855,-6349.905,-18974.97,-26800.065,-5995.62,1853.91
1764763903.5572505,143.73,-1178.28,-27697.59,-6353.639999999999,-18977.76,-26803.395,-5999.13,1849.095
1764763903.5572505,146.835,-1174.995,-27695.115,-6351.615,-18975.33,-26801.28,-5998.545,1851.255
1764763903.5572505,143.14499999999998,-1177.965,-27698.625,-6355.485,-18980.82,-26806.32,-6001.469999999999,1846.71
1764763903.5572505,143.82,-1176.84,-27695.655,-6352.245,-18980.055,-26806.95,-6001.56,1846.26
1764763903.5572505,147.465,-1172.565,-27688.905,-6346.575,-18975.915,-26803.8,-6000.21,1849.32
1764763903.5572505,148.185,-1170.855,-27687.33,-6343.74,-18973.89,-26801.73,-5999.445,1849.95
1764763903.5572505,147.105,-1172.205,-27688.995,-6345.36,-18972.99,-26800.965,-5999.355,1850.13
1764763903.6003015,144.855,-1176.57,-27695.115,-6349.77,-18975.51,-26802.45,-6000.389999999999,1848.735
1764763903.6003015,142.29,-1179.0,-27698.985,-6352.83,-18978.345,-26804.295,-6001.92,1846.845
1764763903.6003015,141.93,-1179.495,-27698.67,-6353.505,-18978.615,-26804.34,-6002.415,1846.305
1764763903.6003015,138.64499999999998,-1182.825,-27701.325,-6355.98,-18980.73,-26806.995,-6004.575,1843.11
1764763903.6003015,139.76999999999998,-1181.925,-27702.495,-6356.7,-18981.045,-26806.005,-6003.719999999999,1844.145
1764763903.6003015,144.98999999999998,-1176.39,-27696.645,-6350.535,-18976.365,-26801.55,-5999.67,1848.78
1764763903.6003015,144.63,-1175.895,-27695.295,-6349.094999999999,-18976.185,-26803.035,-5999.58,1848.33
1764763903.6003015,147.825,-1173.24,-27692.46,-6346.304999999999,-18973.665,-26800.38,-5997.645,1851.705
1764763903.6003015,146.475,-1177.29,-27697.995,-6350.67,-18975.735,-26801.1,-5998.545,1850.22
1764763903.6003015,142.245,-1181.79,-27702.99,-6355.71,-18979.425,-26804.25,-6000.615,1847.385
1764763903.6003015,144.72,-1178.55,-27699.165,-6353.054999999999,-18977.265,-26802.54,-5998.815,1850.31
1764763903.6003015,142.155,-1179.855,-27701.19,-6355.17,-18980.865,-26805.87,-6001.155,1846.98
1764763903.6003015,145.485,-1176.93,-27697.275,-6351.255,-18976.095,-26802.27,-5999.219999999999,1849.725
1764763903.6003015,144.405,-1177.605,-27697.635,-6351.525,-18977.13,-26803.575,-5999.94,1848.825
1764763903.6003015,141.03,-1181.34,-27701.28,-6355.665,-18981.315,-26807.31,-6001.605,1844.685
1764763903.6003015,139.36499999999998,-1182.465,-27701.685,-6356.115,-18981.945,-26809.245,-6003.54,1843.11
1764763903.6003015,142.785,-1179.765,-27699.615,-6353.955,-18980.37,-26807.535,-6002.145,1845.585
1764763903.6003015,148.095,-1175.22,-27695.745,-6349.094999999999,-18976.995,-26803.305,-5998.724999999999,1850.58
1764763903.6003015,145.305,-1177.605,-27697.455,-6351.075,-18979.695,-26805.06,-6000.165,1848.555
1764763903.6003015,147.87,-1174.59,-27693.315,-6347.25,-18976.32,-26802.27,-5998.094999999999,1851.3
1764763903.6013143,147.32999999999998,-1174.32,-27692.865,-6346.26,-18977.535,-26803.89,-5998.905,1849.5
1764763903.6013143,150.66,-1171.26,-27689.895,-6343.65,-18973.17,-26798.94,-5995.755,1852.92
1764763903.6013143,147.96,-1175.265,-27696.15,-6347.969999999999,-18974.115,-26799.075,-5996.115,1851.39
1764763903.6013143,143.01,-1181.25,-27703.08,-6354.495,-18979.02,-26803.305,-6000.3,1848.06
1764763903.6468372,143.82,-1180.125,-27701.145,-6352.83,-18978.12,-26803.035,-5999.76,1848.015
1764763903.6468372,143.055,-1180.395,-27700.29,-6352.514999999999,-18978.75,-26804.34,-6001.065,1845.765
1764763903.6468372,140.445,-1183.59,-27703.485,-6355.8,-18982.35,-26807.76,-6003.0,1843.245
1764763903.6468372,140.22,-1183.455,-27703.98,-6356.655,-18982.845,-26807.67,-6002.505,1844.145
1764763903.6468372,140.89499999999998,-1183.815,-27705.24,-6359.175,-18985.365,-26809.56,-6003.495,1843.83
1764763903.6468372,141.255,-1183.32,-27705.375,-6360.165,-18985.995,-26810.19,-6004.215,1844.235
1764763903.6468372,144.45,-1179.855,-27701.19,-6356.07,-18981.72,-26806.635,-6002.37,1846.71
1764763903.6468372,143.055,-1180.305,-27700.47,-6355.844999999999,-18981.585,-26806.77,-6002.73,1844.955
1764763903.6468372,143.54999999999998,-1178.595,-27698.175,-6352.92,-18978.93,-26804.205,-6001.38,1846.44
1764763903.6468372,140.13,-1182.735,-27702.945,-6356.79,-18982.26,-26808.435,-6004.08,1843.02
1764763903.6468372,142.92,-1180.26,-27700.56,-6355.035,-18980.37,-26806.32,-6002.28,1845.27
1764763903.6468372,143.595,-1179.27,-27699.93,-6354.0,-18979.965,-26805.87,-6001.29,1845.27
1764763903.6468372,144.36,-1178.28,-27698.67,-6352.29,-18979.29,-26805.015,-6000.84,1846.53
1764763903.6468372,143.95499999999998,-1178.37,-27699.57,-6353.55,-18979.56,-26805.465,-6001.155,1846.62
1764763903.6468372,145.17,-1178.37,-27699.03,-6352.56,-18979.155,-26805.06,-6000.57,1847.745
1764763903.6468372,143.325,-1179.855,-27699.57,-6353.054999999999,-18980.01,-26806.635,-6000.795,1846.44
1764763903.6468372,141.345,-1181.43,-27701.415,-6354.719999999999,-18980.64,-26807.805,-6002.505,1843.74
1764763903.6468372,146.295,-1175.94,-27696.015,-6350.715,-18976.545,-26803.845,-5999.535,1848.195
1764763903.6468372,145.845,-1176.705,-27697.635,-6351.165,-18978.075,-26803.98,-5998.77,1848.42
1764763903.6468372,140.715,-1182.645,-27704.61,-6357.33,-18984.33,-26810.415,-6003.585,1842.975
1764763903.6468372,143.055,-1181.475,-27703.215,-6355.755,-18981.405,-26807.67,-6002.685,1845.135
1764763903.6468372,140.76,-1183.05,-27705.06,-6356.88,-18983.655,-26809.425,-6003.764999999999,1842.21
1764763903.6938648,142.2,-1181.205,-27702.225,-6354.855,-18983.25,-26809.38,-6002.639999999999,1842.885
1764763903.6938648,144.26999999999998,-1178.235,-27699.03,-6352.785,-18981.405,-26808.165,-6001.02,1845.0
1764763903.6938648,141.61499999999998,-1181.475,-27702.27,-6355.98,-18984.195,-26810.955,-6003.045,1842.345
1764763903.6938648,143.54999999999998,-1181.16,-27701.415,-6354.764999999999,-18982.395,-26809.02,-6001.785,1844.91
1764763903.6938648,141.03,-1183.905,-27704.7,-6357.51,-18984.51,-26810.505,-6002.639999999999,1843.155
1764763903.6938648,142.82999999999998,-1182.69,-27703.53,-6355.71,-18980.595,-26806.455,-6000.344999999999,1845.81
1764763903.6938648,143.19,-1182.195,-27702.135,-6354.045,-18980.28,-26805.555,-5999.535,1846.53
1764763903.6938648,143.73,-1181.835,-27701.73,-6353.55,-18980.91,-26806.635,-5999.895,1845.45
1764763903.6938648,144.0,-1181.025,-27702.045,-6354.405,-18980.865,-26806.815,-5999.804999999999,1844.955
1764763903.6938648,143.01,-1181.88,-27702.765,-6355.44,-18981.54,-26808.03,-6000.48,1843.11
1764763903.6938648,141.21,-1183.14,-27704.475,-6355.889999999999,-18983.43,-26810.64,-6002.235,1840.41
1764763903.6938648,144.81,-1179.945,-27700.56,-6352.2,-18979.515,-26807.715,-6000.3,1845.0
1764763903.6938648,144.9,-1180.44,-27701.415,-6352.695,-18980.37,-26807.895,-6000.57,1845.045
1764763903.6938648,143.73,-1181.34,-27702.225,-6353.19,-18981.405,-26807.04,-5999.67,1844.595
1764763903.694384,139.545,-1185.615,-27707.625,-6358.32,-18985.32,-26810.82,-6001.965,1839.465
1764763903.694384,141.70499999999998,-1183.41,-27705.51,-6356.16,-18983.835,-26809.065,-6000.929999999999,1840.545
1764763903.694384,146.16,-1178.955,-27700.245,-6351.615,-18981.27,-26806.095,-5998.679999999999,1845.675
1764763903.694384,142.965,-1182.645,-27704.34,-6356.655,-18986.355,-26811.495,-6002.46,1842.345
1764763903.694384,143.055,-1183.14,-27706.005,-6358.455,-18986.58,-26811.765,-6001.469999999999,1842.03
1764763903.694384,142.785,-1183.5,-27705.915,-6358.32,-18986.355,-26811.315,-6000.389999999999,1843.29
1764763903.694384,147.285,-1178.37,-27699.885,-6352.92,-18981.81,-26806.995,-5998.094999999999,1847.16
1764763903.694384,148.185,-1177.155,-27698.445,-6351.705,-18981.18,-26805.825,-5997.195,1847.385
1764763903.694384,148.14,-1175.985,-27697.815,-6351.21,-18981.63,-26806.68,-5996.79,1847.205
1764763903.694384,144.495,-1179.855,-27701.775,-6355.349999999999,-18985.815,-26810.865,-5999.085,1843.515
1764763903.7405324,145.125,-1178.37,-27700.02,-6354.045,-18984.78,-26810.415,-5999.085,1843.38
1764763903.7405324,147.87,-1174.68,-27696.06,-6350.625,-18982.26,-26809.065,-5997.69,1845.72
1764763903.7405324,149.535,-1173.69,-27696.465,-6350.535,-18979.56,-26804.295,-5996.025,1849.635
1764763903.7405324,147.105,-1177.29,-27699.93,-6353.37,-18982.53,-26806.59,-5997.554999999999,1847.655
1764763903.7405324,144.045,-1180.98,-27703.395,-6357.465,-18986.58,-26810.325,-5998.995,1844.28
1764763903.7405324,144.72,-1180.845,-27702.9,-6357.51,-18986.13,-26810.73,-5999.58,1843.875
1764763903.7405324,148.185,-1176.165,-27697.365,-6351.795,-18981.045,-26806.005,-5996.88,1847.79
1764763903.7405324,145.07999999999998,-1178.82,-27700.965,-6354.675,-18983.565,-26807.76,-5997.33,1845.9
1764763903.741045,146.20499999999998,-1178.955,-27701.685,-6354.675,-18981.0,-26804.565,-5995.98,1847.565
1764763903.741045,144.81,-1181.07,-27703.71,-6356.474999999999,-18982.35,-26805.24,-5996.52,1845.945
1764763903.741045,142.875,-1182.015,-27704.295,-6358.139999999999,-18986.04,-26808.255,-5998.815,1842.66
1764763903.741045,145.845,-1178.37,-27700.65,-6355.304999999999,-18983.115,-26806.545,-5996.52,1845.27
1764763903.741045,148.995,-1175.13,-27697.725,-6352.02,-18980.505,-26803.395,-5994.495,1848.285
1764763903.741045,146.61,-1178.055,-27700.335,-6354.9,-18983.79,-26806.725,-5996.88,1845.855
1764763903.741045,143.95499999999998,-1181.115,-27704.385,-6359.535,-18988.155,-26811.72,-5999.715,1843.065
1764763903.741045,144.26999999999998,-1180.035,-27703.62,-6358.679999999999,-18986.58,-26811.54,-5998.995,1844.01
1764763903.741045,145.215,-1179.27,-27701.28,-6356.295,-18983.97,-26809.515,-5998.139999999999,1845.675
1764763903.741045,146.88,-1178.325,-27698.895,-6353.91,-18981.54,-26806.635,-5997.105,1847.025
1764763903.741045,142.965,-1182.33,-27703.53,-6358.724999999999,-18985.59,-26809.29,-5998.905,1843.245
1764763903.741045,143.235,-1181.88,-27703.395,-6358.23,-18985.365,-26808.66,-5997.735,1843.74
1764763903.741045,144.0,-1181.025,-27703.305,-6357.285,-18984.24,-26807.31,-5996.565,1844.325
1764763903.741045,148.005,-1176.39,-27699.255,-6353.415,-18981.27,-26804.43,-5995.035,1847.97
1764763903.741045,150.525,-1173.4199999999998,-27695.88,-6351.255,-18979.515,-26803.845,-5995.08,1848.87
1764763903.741045,147.06,-1176.525,-27698.76,-6354.045,-18982.62,-26806.995,-5997.87,1845.9
1764763903.7868462,144.315,-1179.72,-27702.9,-6356.969999999999,-18984.42,-26807.895,-5999.445,1844.64
1764763903.7868462,142.965,-1180.845,-27703.98,-6358.05,-18983.925,-26807.58,-5999.355,1844.055
1764763903.7868462,143.46,-1180.53,-27703.395,-6357.735,-18984.915,-26808.795,-5998.95,1844.145
1764763903.7868462,142.245,-1180.845,-27704.16,-6359.175,-18986.535,-26810.955,-5999.13,1842.93
1764763903.7868462,142.47,-1179.9,-27703.53,-6357.825,-18986.94,-26810.64,-6000.57,1842.93
1764763903.7868462,144.045,-1180.35,-27704.115,-6357.87,-18985.005,-26807.625,-5999.535,1844.235
1764763903.7868462,141.795,-1183.995,-27709.02,-6362.505,-18987.075,-26808.48,-5999.31,1842.795
1764763903.7873683,139.76999999999998,-1185.7949999999998,-27710.505,-6363.764999999999,-18989.505,-26811.72,-6000.885,1840.365
1764763903.7873683,142.785,-1182.645,-27706.455,-6359.985,-18987.075,-26809.92,-5998.905,1843.83
1764763903.7873683,138.915,-1186.065,-27709.38,-6363.27,-18991.395,-26814.285,-6002.19,1839.645
1764763903.7873683,142.73999999999998,-1181.475,-27704.385,-6358.005,-18985.995,-26809.74,-5999.085,1843.47
1764763903.7873683,142.335,-1181.2949999999998,-27703.8,-6357.105,-18986.22,-26810.955,-5999.4,1842.93
1764763903.7873683,147.06,-1176.525,-27698.715,-6352.155,-18982.845,-26807.67,-5996.385,1847.34
1764763903.7873683,147.555,-1176.12,-27696.87,-6351.705,-18982.395,-26806.815,-5995.755,1846.935
1764763903.7873683,146.745,-1177.56,-27698.265,-6353.37,-18982.62,-26806.14,-5995.62,1846.17
1764763903.7873683,144.045,-1181.52,-27702.09,-6356.52,-18984.51,-26808.345,-5996.88,1843.02
1764763903.7873683,146.88,-1178.55,-27700.425,-6353.55,-18979.785,-26803.62,-5995.08,1846.755
1764763903.7873683,148.41,-1176.03,-27697.365,-6349.724999999999,-18976.455,-26799.795,-5993.325,1848.96
1764763903.7873683,148.23,-1176.03,-27697.635,-6350.535,-18978.795,-26801.82,-5994.045,1847.205
1764763903.7873683,142.73999999999998,-1181.43,-27704.385,-6357.014999999999,-18986.355,-26809.065,-5998.545,1842.345
1764763903.7873683,139.32,-1185.39,-27708.66,-6361.514999999999,-18991.44,-26813.385,-6000.795,1840.68
1764763903.7873683,142.11,-1182.87,-27706.095,-6359.535,-18988.83,-26811.36,-5999.219999999999,1842.21
1764763903.8340926,147.195,-1177.965,-27700.245,-6354.315,-18984.15,-26806.995,-5996.115,1846.17
1764763903.8340926,145.98,-1179.72,-27701.775,-6355.665,-18984.555,-26807.04,-5995.53,1845.945
1764763903.8340926,144.09,-1181.25,-27703.89,-6357.33,-18984.96,-26808.21,-5996.655,1843.92
1764763903.8340926,142.29,-1182.24,-27704.205,-6357.96,-18986.22,-26810.28,-5998.455,1841.715
1764763903.8340926,146.61,-1178.01,-27699.03,-6352.425,-18981.72,-26806.005,-5995.889999999999,1845.54
1764763903.8340926,148.185,-1176.57,-27697.185,-6350.94,-18981.45,-26805.42,-5993.955,1846.935
1764763903.8340926,151.82999999999998,-1173.69,-27695.025,-6348.24,-18978.435,-26802.045,-5991.21,1849.95
1764763903.8340926,144.36,-1181.52,-27703.755,-6357.195,-18985.5,-26807.805,-5995.98,1843.245
1764763903.8340926,143.46,-1183.455,-27707.58,-6360.66,-18987.12,-26808.12,-5997.014999999999,1843.605
1764763903.8340926,139.005,-1188.315,-27712.53,-6364.98,-18991.305,-26812.53,-5999.67,1839.285
1764763903.8340926,140.535,-1186.245,-27710.505,-6362.775,-18989.955,-26812.215,-5998.724999999999,1840.68
1764763903.8340926,141.75,-1184.355,-27708.705,-6361.02,-18989.64,-26812.125,-5999.175,1841.13
1764763903.8340926,145.62,-1179.675,-27702.99,-6356.88,-18985.365,-26808.345,-5996.79,1845.495
1764763903.8340926,144.81,-1179.99,-27702.27,-6356.385,-18985.095,-26809.38,-5996.429999999999,1844.685
1764763903.8340926,141.345,-1182.195,-27704.295,-6358.32,-18987.345,-26811.945,-5998.139999999999,1840.5
1764763903.8340926,143.1,-1180.305,-27702.54,-6355.304999999999,-18984.69,-26809.29,-5996.745,1842.435
1764763903.8340926,146.745,-1176.93,-27699.525,-6352.02,-18981.36,-26805.78,-5994.27,1845.945
1764763903.8340926,140.535,-1183.905,-27706.995,-6359.67,-18987.3,-26811.0,-5997.014999999999,1841.13
1764763903.8340926,141.61499999999998,-1184.085,-27707.535,-6359.58,-18986.94,-26810.28,-5995.98,1842.66
1764763903.8340926,146.745,-1179.27,-27703.44,-6356.429999999999,-18983.745,-26808.03,-5993.82,1846.845
1764763903.8340926,145.79999999999998,-1180.35,-27703.98,-6357.465,-18986.445,-26810.595,-5994.99,1845.585
1764763903.8340926,141.345,-1183.5449999999998,-27707.445,-6360.344999999999,-18989.91,-26813.745,-5997.78,1841.94
1764763903.8340926,142.82999999999998,-1181.61,-27706.32,-6358.365,-18987.3,-26811.18,-5996.835,1843.335
1764763903.8340926,144.855,-1180.665,-27706.005,-6357.105,-18983.565,-26807.355,-5994.045,1845.54
1764763903.8807294,141.66,-1183.77,-27709.92,-6360.3,-18986.625,-26809.875,-5996.025,1842.975
1764763903.8807294,145.26,-1178.73,-27704.565,-6356.34,-18983.205,-26806.95,-5994.54,1846.08
1764763903.8807294,146.295,-1177.065,-27701.91,-6354.63,-18981.405,-26804.835,-5992.469999999999,1847.565
1764763903.8807294,144.765,-1179.405,-27704.115,-6356.655,-18984.015,-26807.445,-5994.224999999999,1844.685
1764763903.8807294,140.805,-1183.5449999999998,-27708.165,-6360.344999999999,-18987.84,-26812.395,-5997.51,1840.68
1764763903.8807294,144.09,-1180.44,-27704.655,-6357.014999999999,-18984.195,-26809.29,-5995.8,1843.11
1764763903.882267,149.535,-1174.68,-27698.445,-6351.21,-18979.695,-26804.025,-5991.389999999999,1848.87
1764763903.882267,151.605,-1172.565,-27696.15,-6348.915,-18977.58,-26802.99,-5989.545,1850.265
1764763903.882267,153.045,-1171.53,-27694.395,-6346.44,-18976.185,-26801.775,-5987.7,1851.255
1764763903.882267,150.70499999999998,-1171.845,-27694.035,-6346.935,-18977.715,-26804.7,-5989.139999999999,1849.455
