Timestamp,Channel1,Channel2,Channel3,Channel4,Channel5,Channel6,Channel7,Channel8
1764764525.2009842,525.6,-396.63,-28499.31,-5588.55,-20159.73,-27957.195,-6153.795,2908.215
1764764525.2009842,528.12,-392.67,-28495.26,-5583.51,-20153.115,-27950.985,-6150.15,2911.635
1764764525.2009842,527.13,-393.93,-28496.88,-5585.355,-20154.42,-27952.065,-6151.094999999999,2910.555
1764764525.2009842,521.73,-400.14,-28502.955,-5593.455,-20162.115,-27960.705,-6156.63,2904.795
1764764525.2009842,520.11,-400.005,-28502.595,-5593.815,-20162.475,-27960.705,-6156.764999999999,2904.03
1764764525.2009842,520.6949999999999,-400.32,-28501.965,-5592.87,-20161.26,-27960.345,-6156.675,2903.76
1764764525.2009842,523.89,-396.855,-28499.58,-5589.179999999999,-20157.48,-27957.645,-6155.19,2907.315
1764764525.2009842,524.385,-396.72,-28500.345,-5590.349999999999,-20158.74,-27957.87,-6155.054999999999,2907.27
1764764525.2009842,521.01,-400.14,-28504.215,-5594.219999999999,-20163.69,-27962.19,-6157.304999999999,2903.13
1764764525.2009842,523.935,-397.44,-28500.84,-5590.844999999999,-20161.125,-27959.445,-6155.775,2905.695
1764764525.2009842,522.855,-399.42,-28501.245,-5591.07,-20159.775,-27958.815,-6155.91,2904.57
1764764525.2009842,520.92,-401.49,-28503.225,-5592.105,-20160.18,-27959.355,-6156.315,2901.555
1764764525.2009842,524.97,-397.215,-28498.32,-5586.75,-20154.87,-27953.64,-6152.895,2904.93
1764764525.2009842,522.9449999999999,-398.16,-28499.4,-5587.83,-20156.94,-27955.17,-6154.245,2903.445
1764764525.2009842,525.645,-395.955,-28497.555,-5585.625,-20154.105,-27952.515,-6152.49,2906.73
1764764525.2009842,523.485,-398.97,-28499.895,-5587.83,-20155.455,-27953.595,-6153.795,2904.57
1764764525.2009842,526.23,-395.19,-28497.105,-5585.445,-20154.465,-27952.065,-6152.13,2907.765
1764764525.2009842,524.745,-396.18,-28500.075,-5589.675,-20160.315,-27956.745,-6153.929999999999,2906.955
1764764525.2009842,520.515,-400.995,-28504.8,-5594.49,-20165.175,-27960.48,-6156.54,2904.03
1764764525.2026424,520.74,-401.445,-28505.115,-5593.59,-20163.42,-27959.22,-6156.315,2903.76
1764764525.2026424,522.4499999999999,-399.24,-28502.415,-5591.52,-20161.17,-27957.465,-6155.639999999999,2905.425
1764764525.2026424,522.9449999999999,-399.285,-28502.775,-5591.969999999999,-20161.665,-27957.375,-6155.505,2905.515
1764764525.2486868,523.035,-399.6,-28503.18,-5592.24,-20162.43,-27957.915,-6155.55,2904.705
1764764525.2486868,519.255,-402.03,-28505.655,-5595.525,-20165.76,-27961.65,-6157.665,2901.15
1764764525.2486868,521.505,-398.97,-28502.46,-5592.645,-20162.475,-27959.13,-6155.73,2903.67
1764764525.2486868,525.51,-395.415,-28498.59,-5588.865,-20158.2,-27955.035,-6152.76,2907.81
1764764525.2486868,526.59,-394.695,-28498.005,-5587.29,-20157.615,-27954.54,-6152.085,2908.17
1764764525.2486868,525.51,-393.795,-28497.465,-5587.11,-20156.625,-27955.665,-6151.815,2907.09
1764764525.249921,523.935,-394.56,-28498.77,-5587.469999999999,-20156.805,-27955.53,-6152.04,2906.01
1764764525.249921,524.0699999999999,-395.145,-28498.095,-5586.12,-20154.87,-27952.74,-6150.78,2907.045
1764764525.249921,521.775,-398.52,-28501.38,-5588.099999999999,-20156.625,-27954.18,-6152.085,2905.47
1764764525.249921,520.02,-400.455,-28503.855,-5591.565,-20160.315,-27958.14,-6154.875,2903.04
1764764525.249921,523.62,-396.765,-28499.445,-5587.83,-20155.95,-27953.955,-6152.264999999999,2906.82
1764764525.249921,521.595,-398.205,-28501.65,-5590.08,-20158.515,-27955.62,-6153.885,2905.2
1764764525.249921,522.855,-397.44,-28501.74,-5590.395,-20160.09,-27956.745,-6153.344999999999,2906.19
1764764525.249921,522.045,-398.565,-28503.54,-5592.33,-20162.88,-27959.31,-6154.965,2904.57
1764764525.249921,520.6949999999999,-398.835,-28504.17,-5592.78,-20164.23,-27961.065,-6155.955,2903.805
1764764525.249921,518.985,-400.5,-28505.745,-5594.535,-20165.58,-27962.955,-6156.54,2901.645
1764764525.249921,516.285,-404.325,-28509.03,-5597.639999999999,-20167.74,-27965.97,-6158.52,2898.09
1764764525.249921,517.4549999999999,-403.065,-28507.23,-5595.165,-20165.085,-27963.675,-6158.25,2898.63
1764764525.249921,521.505,-398.115,-28502.28,-5589.405,-20158.785,-27958.23,-6154.83,2902.32
1764764525.249921,521.235,-398.43,-28501.38,-5588.639999999999,-20157.345,-27956.07,-6153.84,2902.635
1764764525.25093,516.87,-402.21,-28506.33,-5594.085,-20162.88,-27960.165,-6157.17,2899.35
1764764525.25093,513.675,-406.215,-28510.74,-5599.215,-20169.09,-27965.475,-6160.77,2896.605
1764764525.25093,517.5,-403.83,-28508.715,-5598.315,-20169.0,-27965.7,-6158.969999999999,2899.98
1764764525.25093,516.51,-404.955,-28510.515,-5600.79,-20172.105,-27967.905,-6159.825,2897.91
1764764525.2978866,518.265,-403.38,-28510.02,-5600.925,-20172.96,-27968.22,-6160.455,2899.755
1764764525.2978866,516.42,-405.27,-28513.17,-5603.715,-20175.57,-27971.235,-6161.76,2897.955
1764764525.2978866,512.865,-407.835,-28514.97,-5604.929999999999,-20177.505,-27972.9,-6163.11,2895.12
1764764525.2978866,516.1949999999999,-404.775,-28510.74,-5599.62,-20172.51,-27968.355,-6160.094999999999,2897.595
1764764525.2978866,519.5699999999999,-402.12,-28508.58,-5596.83,-20168.955,-27964.53,-6157.215,2900.655
1764764525.298423,517.9499999999999,-404.1,-28510.29,-5598.405,-20168.415,-27964.44,-6156.36,2899.305
1764764525.298423,521.1899999999999,-400.275,-28504.98,-5592.554999999999,-20163.195,-27959.625,-6153.389999999999,2902.905
1764764525.298423,517.635,-402.345,-28505.655,-5594.31,-20165.355,-27962.91,-6156.0,2899.08
1764764525.298423,518.31,-401.58,-28504.845,-5593.86,-20164.725,-27962.415,-6155.639999999999,2899.53
1764764525.298423,521.73,-397.665,-28502.415,-5591.655,-20163.69,-27960.93,-6154.11,2903.715
1764764525.298423,523.17,-397.71,-28503.495,-5593.185,-20165.49,-27963.045,-6153.929999999999,2904.165
1764764525.298423,520.785,-400.815,-28506.195,-5595.48,-20167.47,-27965.205,-6154.469999999999,2901.6
1764764525.298423,521.28,-400.365,-28506.78,-5594.219999999999,-20165.94,-27963.135,-6153.929999999999,2902.095
1764764525.298423,523.035,-397.845,-28503.09,-5591.385,-20162.295,-27959.175,-6152.445,2904.75
1764764525.298423,521.8199999999999,-399.015,-28504.98,-5593.005,-20163.33,-27959.535,-6152.804999999999,2903.805
1764764525.298423,525.87,-394.47,-28500.705,-5588.099999999999,-20158.065,-27954.495,-6149.565,2907.0
1764764525.298423,526.185,-393.48,-28499.445,-5587.469999999999,-20156.58,-27953.73,-6148.575,2906.91
1764764525.298423,522.045,-395.865,-28501.065,-5590.035,-20158.785,-27956.52,-6151.455,2903.805
1764764525.298423,521.01,-397.62,-28503.99,-5592.195,-20162.115,-27959.715,-6152.67,2901.6
1764764525.298423,519.03,-399.915,-28506.015,-5594.04,-20164.86,-27962.73,-6154.02,2899.98
1764764525.298423,522.585,-396.63,-28502.73,-5591.565,-20161.71,-27959.13,-6152.58,2903.22
1764764525.298423,524.16,-395.19,-28502.055,-5590.755,-20160.36,-27957.6,-6150.69,2905.83
1764764525.298423,524.295,-395.865,-28502.37,-5591.025,-20160.945,-27957.78,-6150.195,2906.28
1764764525.298423,523.665,-397.215,-28503.765,-5591.745,-20161.485,-27958.86,-6151.59,2904.93
1764764525.3439054,522.27,-398.07,-28504.935,-5593.094999999999,-20162.07,-27959.895,-6153.21,2904.12
1764764525.3439054,522.36,-397.395,-28504.575,-5593.455,-20163.015,-27960.48,-6152.67,2903.85
1764764525.3439054,523.035,-397.53,-28504.395,-5592.465,-20162.115,-27958.455,-6151.32,2904.345
1764764525.3439054,522.4499999999999,-396.945,-28504.53,-5591.655,-20161.08,-27958.635,-6150.465,2903.805
1764764525.3439054,520.56,-398.43,-28506.465,-5593.005,-20162.43,-27960.21,-6151.77,2901.87
1764764525.3439054,521.9549999999999,-397.845,-28504.845,-5592.599999999999,-20161.8,-27959.805,-6151.59,2903.22
1764764525.3439054,524.61,-395.505,-28503.99,-5591.52,-20160.9,-27958.635,-6150.915,2905.695
1764764525.3439054,521.415,-397.53,-28506.015,-5593.545,-20164.23,-27961.515,-6152.175,2902.815
1764764525.3449223,518.5799999999999,-400.455,-28509.48,-5597.505,-20168.235,-27965.25,-6154.38,2899.935
1764764525.3449223,520.335,-399.285,-28507.77,-5596.065,-20167.605,-27964.44,-6153.03,2901.285
1764764525.3449223,521.685,-397.8,-28504.89,-5593.679999999999,-20165.265,-27962.415,-6152.31,2902.77
1764764525.3449223,525.06,-394.515,-28501.245,-5590.08,-20161.98,-27958.77,-6149.07,2906.01
1764764525.3449223,531.27,-388.44,-28496.97,-5585.76,-20158.2,-27954.09,-6145.605,2912.31
1764764525.3449223,529.155,-389.88,-28497.69,-5587.29,-20159.82,-27956.025,-6147.179999999999,2910.6
1764764525.3449223,526.005,-392.805,-28500.03,-5589.495,-20160.63,-27957.42,-6147.855,2907.27
1764764525.3449223,523.35,-395.64,-28502.325,-5591.34,-20160.765,-27958.32,-6148.08,2905.92
1764764525.3449223,524.43,-395.01,-28502.37,-5590.62,-20159.235,-27956.385,-6146.19,2908.08
1764764525.3449223,527.625,-391.77,-28500.345,-5588.37,-20157.21,-27955.08,-6144.435,2910.06
1764764525.3449223,527.4449999999999,-392.58,-28500.795,-5588.685,-20157.525,-27955.44,-6145.605,2908.845
1764764525.3449223,525.06,-394.785,-28502.37,-5590.755,-20159.82,-27957.555,-6147.63,2906.1
1764764525.3449223,521.46,-397.665,-28505.205,-5593.59,-20164.005,-27961.515,-6149.79,2901.825
1764764525.3449223,524.6999999999999,-394.29,-28502.73,-5591.385,-20163.06,-27959.715,-6148.665,2904.66
1764764525.3449223,525.555,-393.705,-28500.48,-5589.9,-20160.54,-27957.87,-6148.125,2905.695
1764764525.3449223,523.98,-394.785,-28501.74,-5590.755,-20161.035,-27958.275,-6148.53,2904.48
1764764525.390839,522.855,-396.54,-28504.8,-5593.455,-20163.42,-27960.03,-6149.745,2902.995
1764764525.390839,523.485,-396.225,-28503.495,-5592.15,-20162.25,-27958.68,-6148.889999999999,2904.615
1764764525.390839,521.1899999999999,-399.105,-28506.78,-5594.58,-20164.545,-27961.335,-6150.69,2902.185
1764764525.390839,522.18,-398.925,-28507.05,-5594.264999999999,-20163.78,-27961.02,-6150.195,2902.995
1764764525.390839,522.675,-398.34,-28506.42,-5594.264999999999,-20164.635,-27961.83,-6150.42,2902.635
1764764525.390839,522.135,-398.745,-28506.375,-5594.445,-20164.095,-27961.92,-6150.105,2902.41
1764764525.390839,522.675,-397.44,-28504.62,-5593.545,-20161.8,-27959.58,-6148.889999999999,2902.68
1764764525.390839,526.4549999999999,-392.715,-28500.03,-5588.415,-20158.11,-27954.72,-6146.19,2907.045
1764764525.390839,527.4449999999999,-392.085,-28499.175,-5587.38,-20158.02,-27954.225,-6145.65,2907.945
1764764525.390839,523.035,-396.405,-28503.9,-5593.455,-20164.545,-27960.705,-6150.465,2903.085
1764764525.390839,522.9449999999999,-396.045,-28504.125,-5594.355,-20165.805,-27962.73,-6151.094999999999,2902.455
1764764525.390839,523.485,-396.63,-28504.665,-5594.04,-20165.49,-27961.965,-6150.285,2902.5
1764764525.3921907,522.135,-398.97,-28508.04,-5597.235,-20168.73,-27963.405,-6152.264999999999,2901.735
1764764525.3921907,523.4399999999999,-397.53,-28507.68,-5596.875,-20168.955,-27962.55,-6151.995,2903.31
1764764525.3921907,521.595,-399.465,-28509.255,-5598.179999999999,-20169.0,-27963.945,-6152.355,2901.285
1764764525.392704,524.835,-396.855,-28505.7,-5594.04,-20163.555,-27959.22,-6149.925,2904.075
1764764525.392704,520.47,-401.355,-28510.605,-5598.945,-20169.09,-27963.9,-6152.625,2900.115
1764764525.392704,521.91,-399.915,-28508.895,-5598.179999999999,-20168.775,-27964.215,-6152.13,2901.105
1764764525.392704,525.06,-396.27,-28505.475,-5594.804999999999,-20165.04,-27961.065,-6149.835,2904.345
1764764525.392704,520.605,-399.735,-28508.355,-5598.045,-20168.46,-27964.035,-6152.58,2900.43
1764764525.392704,521.775,-398.16,-28506.6,-5595.66,-20166.84,-27962.1,-6151.724999999999,2901.78
1764764525.392704,525.96,-393.975,-28502.505,-5591.205,-20162.61,-27957.735,-6149.34,2905.83
1764764525.436247,524.88,-394.875,-28504.035,-5592.645,-20163.465,-27959.58,-6150.24,2904.03
1764764525.436247,521.775,-398.97,-28508.175,-5596.83,-20166.57,-27961.785,-6152.264999999999,2900.655
1764764525.436247,520.11,-400.77,-28509.48,-5597.82,-20168.01,-27962.73,-6152.94,2899.08
1764764525.436247,517.5,-402.435,-28510.155,-5598.945,-20168.955,-27964.665,-6154.56,2896.335
1764764525.436247,519.435,-400.32,-28507.545,-5595.929999999999,-20165.94,-27963.0,-6153.21,2898.945
1764764525.436247,518.22,-401.265,-28509.435,-5597.82,-20166.84,-27963.99,-6153.75,2897.28
1764764525.436247,519.66,-399.555,-28507.455,-5596.695,-20165.67,-27962.82,-6152.715,2898.99
1764764525.436247,518.805,-402.075,-28510.695,-5599.304999999999,-20168.73,-27964.845,-6153.84,2898.09
1764764525.436247,520.245,-401.085,-28510.38,-5598.945,-20168.91,-27963.54,-6152.715,2899.62
1764764525.436247,521.505,-399.42,-28508.31,-5598.045,-20167.515,-27962.865,-6152.085,2900.925
1764764525.436247,521.28,-399.69,-28507.905,-5598.045,-20167.155,-27963.495,-6152.67,2900.7
1764764525.436247,519.5699999999999,-401.49,-28509.345,-5599.17,-20168.55,-27965.205,-6153.705,2898.36
1764764525.436247,522.9449999999999,-398.295,-28506.555,-5595.705,-20165.175,-27961.47,-6151.5,2901.42
1764764525.436247,522.855,-398.07,-28505.7,-5595.389999999999,-20164.77,-27960.93,-6150.465,2901.825
1764764525.436247,520.8299999999999,-400.275,-28507.14,-5597.054999999999,-20166.03,-27962.595,-6151.365,2899.485
1764764525.436247,518.76,-402.255,-28509.48,-5599.44,-20168.145,-27964.44,-6152.76,2897.64
1764764525.436247,522.54,-399.51,-28507.23,-5597.594999999999,-20166.57,-27962.055,-6151.77,2901.375
1764764525.436247,521.235,-401.265,-28508.265,-5599.304999999999,-20169.54,-27964.98,-6153.615,2899.215
1764764525.436247,518.76,-402.66,-28510.11,-5602.139999999999,-20173.32,-27968.58,-6155.685,2896.695
1764764525.436247,518.49,-402.705,-28510.83,-5602.815,-20173.05,-27968.715,-6155.37,2897.28
1764764525.436247,519.345,-401.895,-28510.74,-5601.554999999999,-20171.295,-27967.725,-6154.155,2898.18
1764764525.436247,519.93,-402.3,-28511.55,-5600.565,-20170.395,-27966.24,-6153.389999999999,2898.36
1764764525.4820733,520.74,-402.03,-28511.28,-5600.07,-20169.315,-27964.755,-6152.355,2898.63
1764764525.4820733,521.235,-400.23,-28509.615,-5599.889999999999,-20169.315,-27965.07,-6151.545,2899.35
1764764525.4820733,521.775,-398.88,-28508.355,-5600.07,-20170.395,-27965.97,-6151.77,2901.015
1764764525.4820733,523.125,-397.62,-28506.915,-5597.55,-20168.28,-27963.63,-6150.51,2901.87
1764764525.4820733,522.9449999999999,-397.89,-28507.32,-5597.28,-20167.92,-27963.945,-6149.88,2901.33
1764764525.4820733,521.1899999999999,-399.42,-28508.31,-5598.675,-20168.955,-27964.755,-6151.635,2900.295
1764764525.4820733,520.38,-398.655,-28507.095,-5597.19,-20166.975,-27964.575,-6151.05,2900.52
1764764525.4820733,517.68,-400.545,-28509.84,-5599.53,-20169.045,-27966.375,-6152.13,2897.505
1764764525.4820733,520.1999999999999,-398.115,-28507.41,-5596.875,-20167.335,-27964.08,-6150.06,2899.35
1764764525.4820733,519.255,-400.41,-28509.615,-5599.889999999999,-20170.35,-27967.635,-6152.13,2897.1
1764764525.4820733,523.26,-396.675,-28505.565,-5596.514999999999,-20168.28,-27964.35,-6150.915,2901.15
1764764525.4820733,522.855,-397.8,-28506.555,-5597.955,-20169.855,-27965.43,-6151.32,2901.51
1764764525.4820733,520.47,-399.96,-28510.11,-5600.295,-20171.295,-27967.05,-6152.895,2899.53
1764764525.4820733,520.425,-399.69,-28510.38,-5601.014999999999,-20171.07,-27966.195,-6151.679999999999,2899.125
1764764525.4820733,519.48,-400.455,-28510.695,-5601.51,-20171.52,-27966.645,-6152.625,2897.685
1764764525.4820733,514.395,-404.91,-28514.79,-5606.639999999999,-20176.515,-27972.405,-6156.719999999999,2892.735
1764764525.4820733,514.845,-404.55,-28514.16,-5606.37,-20176.695,-27972.765,-6156.719999999999,2892.51
1764764525.4825792,515.61,-403.515,-28512.765,-5604.705,-20175.21,-27970.92,-6156.495,2893.905
1764764525.4825792,516.87,-403.02,-28511.64,-5603.625,-20174.58,-27969.93,-6156.54,2895.3
1764764525.4825792,513.585,-406.98,-28516.365,-5606.955,-20178.315,-27972.27,-6157.889999999999,2892.87
1764764525.4825792,514.665,-405.495,-28515.78,-5606.594999999999,-20176.83,-27970.245,-6156.63,2894.31
1764764525.4825792,515.52,-404.73,-28514.43,-5605.56,-20175.66,-27970.065,-6156.495,2894.31
1764764525.4825792,513.495,-406.755,-28516.77,-5607.405,-20177.055,-27972.09,-6158.205,2892.285
1764764525.4825792,514.0799999999999,-406.71,-28516.77,-5607.945,-20178.09,-27972.405,-6157.98,2891.97
1764764525.5287018,514.125,-406.035,-28515.825,-5606.685,-20177.73,-27972.0,-6157.395,2892.285
1764764525.5287018,511.02,-408.015,-28516.14,-5606.19,-20178.36,-27972.54,-6159.33,2888.91
1764764525.5287018,508.32,-410.22,-28518.255,-5607.764999999999,-20179.08,-27974.25,-6161.445,2885.895
1764764525.5287018,510.93,-406.845,-28514.97,-5605.469999999999,-20175.795,-27972.63,-6159.33,2888.28
1764764525.5292108,509.67,-408.645,-28516.905,-5607.54,-20177.91,-27973.485,-6159.915,2888.235
1764764525.5292108,513.18,-406.935,-28514.925,-5605.875,-20175.93,-27970.965,-6157.53,2891.835
1764764525.5292108,511.605,-408.51,-28517.22,-5608.844999999999,-20179.08,-27974.34,-6158.79,2890.44
1764764525.5292108,512.28,-406.935,-28514.88,-5606.91,-20177.955,-27973.395,-6158.205,2891.88
1764764525.5292108,516.465,-402.66,-28512.18,-5603.58,-20174.94,-27971.055,-6156.405,2895.84
1764764525.5292108,517.905,-401.445,-28512.675,-5603.355,-20174.805,-27969.84,-6154.92,2896.92
1764764525.5292108,519.255,-400.86,-28510.695,-5601.42,-20172.6,-27966.69,-6152.31,2898.27
1764764525.5292108,518.67,-402.255,-28511.865,-5602.185,-20173.005,-27966.915,-6152.4,2897.415
1764764525.5757082,518.76,-401.22,-28510.74,-5600.835,-20172.33,-27966.78,-6152.13,2897.505
1764764525.5757082,514.755,-404.595,-28513.845,-5604.929999999999,-20175.84,-27970.335,-6154.29,2893.59
1764764525.5757082,513.495,-405.63,-28514.34,-5605.469999999999,-20175.57,-27970.695,-6155.28,2893.32
1764764525.5757082,515.475,-403.38,-28511.28,-5601.87,-20172.645,-27968.49,-6154.83,2894.94
1764764525.5757082,515.2049999999999,-403.65,-28512.27,-5602.815,-20174.85,-27970.515,-6156.675,2893.95
1764764525.5757082,516.285,-402.705,-28512.225,-5602.905,-20174.895,-27970.515,-6155.955,2894.31
1764764525.5757082,516.6,-402.39,-28513.395,-5603.94,-20176.065,-27970.605,-6154.695,2894.085
1764764525.5757082,516.285,-402.975,-28514.07,-5604.075,-20175.48,-27970.245,-6154.514999999999,2894.58
1764764525.5757082,515.655,-403.965,-28515.24,-5604.885,-20176.695,-27970.425,-6155.46,2893.905
1764764525.5757082,512.235,-406.215,-28517.85,-5607.719999999999,-20178.63,-27972.54,-6158.429999999999,2890.935
1764764525.5757082,510.93,-407.475,-28517.94,-5607.945,-20178.99,-27973.98,-6158.295,2889.135
1764764525.5757082,512.235,-406.755,-28517.085,-5606.505,-20177.865,-27972.945,-6156.945,2889.945
1764764525.5757082,510.66,-407.655,-28519.02,-5607.63,-20179.125,-27974.34,-6157.304999999999,2888.82
1764764525.5757082,509.175,-409.095,-28520.82,-5609.745,-20181.015,-27975.915,-6158.79,2887.965
1764764525.5757082,511.785,-406.89,-28518.93,-5608.08,-20179.485,-27974.115,-6158.295,2890.17
1764764525.5757082,511.335,-408.285,-28519.47,-5609.34,-20180.97,-27975.015,-6158.52,2889.81
1764764525.576223,512.01,-406.755,-28518.345,-5608.44,-20179.935,-27973.89,-6158.115,2890.98
1764764525.576223,511.155,-407.295,-28517.445,-5608.395,-20179.845,-27973.08,-6158.34,2890.26
1764764525.576223,510.345,-408.735,-28519.38,-5610.42,-20182.185,-27975.15,-6160.455,2888.19
1764764525.576223,510.3,-408.69,-28520.415,-5611.455,-20182.905,-27977.13,-6160.815,2887.65
1764764525.576223,510.03,-408.42,-28520.37,-5610.825,-20182.59,-27976.77,-6160.365,2887.335
1764764525.576223,508.77,-410.04,-28521.045,-5611.23,-20184.03,-27976.95,-6161.4,2886.435
1764764525.576223,504.045,-414.72,-28524.87,-5615.099999999999,-20188.035,-27980.865,-6164.82,2881.44
1764764525.576223,504.09,-414.45,-28524.87,-5615.73,-20187.405,-27980.865,-6164.685,2881.53
1764764525.576223,506.88,-410.67,-28521.855,-5612.4,-20184.255,-27977.67,-6162.84,2885.31
1764764525.576223,508.185,-408.915,-28519.02,-5610.105,-20182.095,-27975.195,-6161.13,2886.57
1764764525.576223,509.895,-407.115,-28516.635,-5607.63,-20180.025,-27973.935,-6160.094999999999,2887.965
1764764525.576223,509.895,-406.305,-28516.32,-5607.045,-20178.81,-27973.44,-6159.87,2888.19
1764764525.576223,511.29,-404.865,-28515.105,-5605.02,-20177.145,-27971.64,-6158.565,2889.63
1764764525.576223,510.12,-406.215,-28515.645,-5606.639999999999,-20178.63,-27973.08,-6159.15,2888.73
1764764525.576223,510.255,-408.195,-28518.03,-5608.62,-20180.115,-27974.43,-6159.645,2888.28
1764764525.576223,511.02,-408.06,-28518.21,-5607.719999999999,-20179.395,-27973.575,-6158.7,2888.325
1764764525.576223,511.065,-406.98,-28516.815,-5605.56,-20177.325,-27970.74,-6156.764999999999,2889.585
1764764525.576223,509.31,-408.555,-28517.67,-5606.594999999999,-20177.1,-27971.235,-6156.63,2887.83
1764764525.6183906,510.66,-407.565,-28515.645,-5604.615,-20173.815,-27968.625,-6154.065,2889.63
1764764525.6183906,514.98,-403.695,-28512.54,-5601.15,-20170.755,-27965.25,-6151.455,2894.535
1764764525.6183906,513.405,-405.99,-28516.14,-5607.27,-20177.955,-27971.01,-6154.38,2893.23
1764764525.6183906,510.795,-408.33,-28520.64,-5613.344999999999,-20186.19,-27978.03,-6157.844999999999,2889.9
1764764525.6183906,515.115,-404.055,-28515.33,-5607.495,-20181.15,-27973.53,-6155.099999999999,2893.905
1764764525.6183906,513.405,-403.965,-28513.71,-5606.235,-20180.25,-27973.08,-6155.325,2893.41
1764764525.619068,511.335,-405.405,-28515.195,-5607.719999999999,-20182.23,-27976.05,-6156.36,2890.305
1764764525.619068,513.36,-402.84,-28513.62,-5605.065,-20179.26,-27973.845,-6155.955,2891.25
1764764525.619068,510.255,-405.45,-28516.995,-5608.485,-20181.465,-27975.78,-6158.52,2888.82
1764764525.619068,511.47,-405.765,-28518.03,-5608.304999999999,-20180.16,-27973.215,-6157.44,2890.71
1764764525.619068,510.435,-407.79,-28519.47,-5609.025,-20180.88,-27974.025,-6157.755,2890.395
1764764525.619068,509.94,-408.69,-28519.92,-5608.889999999999,-20181.105,-27973.395,-6157.125,2890.395
1764764525.619068,506.88,-411.03,-28522.35,-5610.69,-20182.5,-27974.97,-6157.755,2887.785
1764764525.619068,510.48,-406.845,-28517.4,-5605.469999999999,-20177.19,-27970.38,-6154.29,2890.98
1764764525.619068,515.2049999999999,-402.39,-28512.135,-5600.61,-20171.88,-27965.34,-6151.365,2894.985
1764764525.619068,512.9549999999999,-404.055,-28514.52,-5603.355,-20173.68,-27966.87,-6153.525,2892.06
1764764525.619068,511.695,-405.855,-28517.13,-5606.505,-20177.19,-27969.975,-6154.469999999999,2891.025
1764764525.619068,514.305,-403.965,-28515.195,-5605.83,-20177.1,-27970.155,-6154.02,2893.455
1764764525.619068,510.93,-406.395,-28516.815,-5608.215,-20180.25,-27972.54,-6154.785,2890.71
1764764525.619068,511.92,-405.09,-28516.455,-5608.62,-20180.97,-27973.935,-6154.605,2892.105
1764764525.619068,513.54,-403.92,-28515.645,-5607.945,-20181.015,-27973.62,-6154.92,2893.77
1764764525.619068,510.66,-406.665,-28519.02,-5611.59,-20183.895,-27976.14,-6156.63,2889.63
1764764525.619068,513.36,-404.64,-28516.41,-5608.98,-20180.655,-27972.63,-6154.83,2892.825
1764764525.619068,514.62,-403.11,-28514.07,-5606.91,-20178.495,-27970.11,-6153.615,2894.445
1764764525.6657815,515.295,-402.03,-28514.295,-5607.36,-20178.585,-27969.84,-6152.985,2894.355
1764764525.6667922,511.155,-406.35,-28518.345,-5610.645,-20181.78,-27973.395,-6155.594999999999,2890.215
1764764525.6667922,511.515,-405.81,-28518.03,-5609.565,-20180.925,-27973.35,-6155.82,2890.305
1764764525.6667922,509.31,-407.385,-28519.875,-5611.185,-20182.905,-27975.555,-6157.844999999999,2888.505
1764764525.6667922,508.05,-407.43,-28520.91,-5612.13,-20183.985,-27976.68,-6158.07,2887.875
1764764525.6667922,508.5,-406.53,-28519.335,-5610.014999999999,-20182.185,-27975.195,-6156.179999999999,2888.73
1764764525.6667922,509.985,-405.18,-28517.49,-5607.719999999999,-20180.43,-27973.35,-6155.145,2890.26
1764764525.6667922,514.755,-400.725,-28512.72,-5604.075,-20175.705,-27967.995,-6151.95,2895.03
1764764525.6667922,514.485,-401.67,-28513.575,-5605.2,-20176.92,-27968.985,-6152.445,2894.625
1764764525.6667922,515.295,-400.905,-28512.18,-5604.21,-20175.84,-27968.895,-6152.219999999999,2894.895
1764764525.6667922,514.62,-400.815,-28511.865,-5603.58,-20174.58,-27968.265,-6151.41,2893.815
1764764525.667837,509.22,-406.08,-28516.23,-5607.764999999999,-20178.27,-27972.27,-6154.02,2889.45
1764764525.667837,509.67,-405.9,-28516.365,-5608.44,-20178.99,-27972.765,-6154.92,2889.855
1764764525.6681683,513.0,-403.38,-28514.925,-5607.27,-20178.54,-27972.54,-6154.29,2892.33
1764764525.6681683,510.93,-405.495,-28516.68,-5609.205,-20180.43,-27974.25,-6154.695,2890.755
1764764525.6681683,512.775,-403.92,-28515.195,-5606.55,-20177.595,-27970.74,-6152.49,2892.06
1764764525.6686747,510.705,-405.765,-28516.725,-5608.44,-20178.54,-27971.55,-6153.389999999999,2890.53
1764764525.6686747,515.385,-401.895,-28512.405,-5604.165,-20174.04,-27967.095,-6149.88,2895.345
1764764525.6686747,516.285,-401.085,-28511.19,-5603.219999999999,-20174.355,-27967.05,-6149.205,2895.705
1764764525.6686747,513.63,-403.65,-28513.08,-5604.929999999999,-20176.515,-27969.075,-6150.195,2893.185
1764764525.6686747,514.845,-402.48,-28511.64,-5602.86,-20174.4,-27967.32,-6149.7,2893.95
1764764525.6686747,511.47,-405.72,-28515.69,-5606.775,-20178.0,-27971.37,-6152.58,2890.98
1764764525.7142131,515.655,-402.255,-28512.945,-5604.03,-20175.75,-27968.76,-6150.105,2895.255
1764764525.7142131,514.845,-402.885,-28513.44,-5604.75,-20176.83,-27969.66,-6150.285,2894.535
1764764525.715233,511.02,-406.53,-28517.805,-5610.014999999999,-20181.78,-27974.295,-6153.885,2890.62
1764764525.715233,512.235,-405.855,-28516.545,-5608.755,-20180.655,-27973.845,-6153.165,2891.25
1764764525.715233,516.285,-401.31,-28511.775,-5603.04,-20175.705,-27968.985,-6149.565,2895.66
1764764525.715233,517.995,-399.645,-28510.02,-5601.375,-20173.725,-27966.15,-6147.719999999999,2897.73
1764764525.715233,518.31,-399.645,-28510.515,-5602.365,-20175.12,-27966.555,-6148.125,2897.595
1764764525.715233,515.97,-401.535,-28511.595,-5603.219999999999,-20175.615,-27968.085,-6149.565,2895.435
1764764525.715233,512.145,-405.63,-28515.69,-5607.27,-20178.675,-27971.415,-6152.445,2892.06
1764764525.715233,508.14,-410.31,-28520.19,-5613.165,-20184.21,-27977.715,-6156.855,2887.47
1764764525.715233,510.345,-407.745,-28516.41,-5610.42,-20181.24,-27973.845,-6155.325,2889.54
1764764525.715233,511.695,-406.17,-28514.97,-5608.62,-20180.16,-27972.945,-6154.74,2890.71
1764764525.715233,513.81,-403.56,-28514.205,-5607.54,-20179.26,-27972.495,-6153.21,2892.24
1764764525.715233,514.17,-402.48,-28513.665,-5605.695,-20177.955,-27971.595,-6153.03,2893.32
1764764525.715233,513.72,-403.56,-28514.52,-5606.505,-20178.405,-27971.685,-6153.389999999999,2892.87
1764764525.715233,513.81,-405.135,-28515.915,-5607.855,-20178.585,-27971.37,-6153.21,2892.51
1764764525.715233,512.775,-406.08,-28517.22,-5608.53,-20178.72,-27971.01,-6153.344999999999,2891.43
1764764525.715233,513.99,-403.92,-28514.205,-5604.929999999999,-20175.165,-27967.815,-6150.42,2892.555
1764764525.715233,512.91,-404.1,-28513.665,-5603.219999999999,-20173.005,-27967.005,-6149.474999999999,2892.555
1764764525.715233,507.78,-409.23,-28518.165,-5608.08,-20177.055,-27971.055,-6153.12,2887.92
1764764525.715233,510.03,-407.7,-28517.265,-5608.08,-20176.515,-27970.11,-6152.13,2889.81
1764764525.715233,515.2049999999999,-403.425,-28514.205,-5606.865,-20175.93,-27968.4,-6149.295,2895.255
1764764525.715233,514.8,-403.515,-28516.14,-5609.295,-20179.89,-27971.55,-6150.87,2894.4
1764764525.715233,514.53,-403.965,-28517.355,-5611.139999999999,-20183.445,-27975.105,-6152.355,2892.33
1764764525.7615488,517.4549999999999,-400.77,-28515.015,-5608.575,-20181.105,-27973.935,-6152.355,2895.12
1764764525.7615488,516.285,-400.815,-28514.61,-5606.82,-20178.675,-27971.955,-6151.815,2895.255
1764764525.7615488,513.225,-402.975,-28515.825,-5607.54,-20178.99,-27971.865,-6151.59,2893.005
1764764525.7615488,510.12,-405.45,-28517.49,-5610.375,-20180.79,-27973.44,-6152.895,2890.395
1764764525.7615488,514.125,-402.075,-28513.62,-5606.325,-20176.605,-27969.345,-6149.835,2894.085
1764764525.7615488,510.435,-406.71,-28518.21,-5610.78,-20181.915,-27974.52,-6152.985,2889.81
1764764525.7615488,509.4,-407.52,-28517.895,-5610.87,-20182.095,-27975.15,-6154.02,2888.91
1764764525.7615488,513.765,-402.93,-28512.765,-5605.83,-20176.965,-27970.875,-6150.014999999999,2892.735
1764764525.7615488,512.46,-403.695,-28514.295,-5606.235,-20177.325,-27971.91,-6150.599999999999,2891.7
1764764525.7615488,510.84,-404.19,-28515.105,-5607.719999999999,-20178.27,-27973.395,-6151.275,2890.62
1764764525.7615488,515.61,-400.815,-28511.73,-5604.929999999999,-20175.3,-27969.93,-6149.07,2894.94
1764764525.7615488,515.025,-401.13,-28512.36,-5604.525,-20174.265,-27968.805,-6148.26,2894.805
1764764525.7615488,514.035,-402.39,-28514.205,-5605.92,-20176.74,-27970.605,-6148.755,2893.815
1764764525.7615488,511.83,-403.605,-28515.87,-5608.575,-20179.98,-27973.035,-6149.88,2891.745
1764764525.7615488,516.3299999999999,-398.79,-28512.045,-5604.344999999999,-20175.39,-27968.805,-6146.145,2896.29
1764764525.7615488,511.83,-403.515,-28516.59,-5608.304999999999,-20178.855,-27972.765,-6149.565,2892.06
1764764525.7615488,513.27,-402.075,-28514.475,-5605.56,-20174.94,-27969.84,-6148.98,2892.555
1764764525.7615488,510.84,-404.19,-28515.105,-5606.91,-20176.02,-27971.73,-6151.185,2889.72
1764764525.7615488,506.88,-408.33,-28520.19,-5611.77,-20182.32,-27977.22,-6154.065,2885.76
1764764525.7615488,510.66,-405.0,-28517.49,-5610.014999999999,-20180.925,-27976.005,-6152.895,2889.405
1764764525.7615488,509.985,-405.855,-28519.02,-5611.635,-20182.995,-27978.12,-6153.705,2888.64
1764764525.7615488,506.745,-408.33,-28522.44,-5616.315,-20188.98,-27983.43,-6155.955,2886.435
1764764525.7615488,510.93,-405.81,-28520.28,-5614.605,-20187.63,-27981.495,-6154.38,2889.585
1764764525.7615488,510.21,-406.98,-28520.91,-5614.65,-20187.225,-27980.955,-6154.514999999999,2888.505
1764764525.8088129,511.92,-405.225,-28518.705,-5612.535,-20184.075,-27977.4,-6151.815,2890.71
1764764525.8093164,507.6,-409.185,-28523.97,-5617.485,-20189.16,-27981.54,-6154.695,2885.985
1764764525.8093164,509.085,-408.06,-28522.845,-5616.945,-20188.44,-27981.135,-6155.054999999999,2887.38
1764764525.8093164,508.14,-409.14,-28523.88,-5618.385,-20190.69,-27983.07,-6155.19,2885.67
1764764525.8093164,509.49,-407.34,-28522.35,-5616.81,-20189.25,-27982.08,-6155.19,2887.38
1764764525.8093164,508.23,-408.78,-28523.205,-5616.81,-20188.755,-27981.99,-6155.054999999999,2887.245
1764764525.8093164,505.845,-410.445,-28526.085,-5619.78,-20192.22,-27984.69,-6157.304999999999,2884.77
1764764525.8093164,504.63,-411.345,-28526.67,-5621.264999999999,-20194.2,-27986.895,-6158.295,2882.835
1764764525.8093164,507.87,-408.015,-28522.215,-5616.99,-20189.295,-27982.485,-6155.325,2886.345
1764764525.8093164,508.185,-408.015,-28521.99,-5616.09,-20188.53,-27981.63,-6154.38,2886.615
1764764525.8093164,511.245,-405.09,-28518.165,-5612.13,-20184.705,-27978.48,-6152.31,2889.72
1764764525.8093164,508.095,-407.97,-28520.415,-5614.425,-20186.415,-27980.73,-6153.48,2886.84
1764764525.8093164,510.57,-405.72,-28517.625,-5611.59,-20184.03,-27978.345,-6152.715,2889.0
1764764525.8093164,511.29,-405.09,-28517.4,-5611.365,-20183.535,-27977.895,-6152.4,2889.405
1764764525.8093164,511.695,-404.415,-28516.635,-5609.565,-20182.005,-27977.22,-6151.545,2890.035
1764764525.8093164,511.11,-405.27,-28517.22,-5610.554999999999,-20183.625,-27978.615,-6151.995,2888.865
1764764525.8093164,511.47,-405.54,-28517.535,-5610.69,-20183.715,-27978.57,-6151.455,2888.73
1764764525.8093164,511.11,-405.9,-28518.12,-5610.915,-20182.32,-27977.175,-6151.005,2889.135
1764764525.8093164,512.595,-405.405,-28517.13,-5611.23,-20181.33,-27975.87,-6150.375,2890.71
1764764525.8093164,510.12,-406.845,-28518.93,-5613.03,-20183.22,-27976.05,-6150.78,2888.595
1764764525.8093164,513.27,-403.02,-28515.33,-5609.565,-20178.945,-27971.685,-6147.54,2891.925
1764764525.8093164,508.905,-407.07,-28519.245,-5612.715,-20181.195,-27975.015,-6150.554999999999,2887.245
1764764525.8093164,509.175,-407.565,-28519.695,-5613.255,-20181.555,-27975.78,-6151.185,2887.47
1764764525.8093164,509.715,-406.89,-28519.515,-5613.48,-20184.12,-27977.94,-6152.355,2887.47
1764764525.855897,511.65,-404.865,-28517.265,-5611.185,-20182.77,-27977.13,-6152.264999999999,2889.135
1764764525.855897,509.805,-406.845,-28520.55,-5614.65,-20186.235,-27979.74,-6153.795,2887.245
1764764525.855897,506.295,-409.77,-28525.77,-5619.554999999999,-20191.68,-27984.555,-6156.495,2883.555
1764764525.855897,507.825,-408.375,-28524.06,-5617.44,-20190.195,-27983.07,-6154.695,2885.67
1764764525.855897,507.24,-408.87,-28523.79,-5616.54,-20189.52,-27982.53,-6155.46,2885.67
1764764525.855897,509.805,-405.36,-28519.515,-5612.76,-20184.255,-27978.615,-6153.03,2888.595
1764764525.855897,509.355,-405.18,-28519.74,-5612.895,-20183.76,-27977.85,-6151.905,2887.695
1764764525.855897,505.665,-408.33,-28521.945,-5615.01,-20186.19,-27980.37,-6153.885,2884.005
1764764525.855897,505.215,-407.52,-28520.55,-5613.795,-20185.605,-27980.595,-6153.974999999999,2883.735
1764764525.855897,506.07,-407.79,-28521.18,-5615.82,-20189.07,-27983.97,-6155.19,2884.23
1764764525.855897,507.33,-407.7,-28522.17,-5616.179999999999,-20189.34,-27983.61,-6153.84,2886.21
1764764525.855897,510.435,-405.72,-28520.1,-5613.84,-20186.055,-27980.055,-6151.545,2888.865
1764764525.855897,511.2,-403.74,-28518.12,-5611.094999999999,-20183.715,-27978.255,-6149.969999999999,2889.27
1764764525.855897,509.94,-404.955,-28518.75,-5611.905,-20184.93,-27979.38,-6150.195,2887.38
1764764525.855897,510.885,-403.47,-28518.48,-5612.175,-20186.145,-27980.145,-6150.06,2888.46
1764764525.855897,510.93,-404.325,-28518.93,-5612.67,-20186.19,-27981.0,-6151.139999999999,2888.1
1764764525.855897,509.895,-405.135,-28520.46,-5614.065,-20186.28,-27979.875,-6150.825,2888.775
1764764525.855897,508.86,-406.845,-28522.035,-5615.099999999999,-20187.63,-27981.18,-6151.005,2887.245
1764764525.855897,506.205,-409.905,-28524.06,-5616.764999999999,-20188.98,-27983.295,-6152.58,2884.05
1764764525.855897,506.97,-409.77,-28521.945,-5614.38,-20186.415,-27981.585,-6151.635,2884.455
1764764525.855897,509.355,-407.205,-28519.425,-5611.815,-20182.995,-27978.615,-6149.969999999999,2886.975
1764764525.855897,507.105,-409.545,-28522.08,-5614.155,-20186.28,-27980.865,-6150.915,2885.265
1764764525.855897,507.375,-408.465,-28521.675,-5614.245,-20187.09,-27981.135,-6150.915,2885.355
1764764525.855897,507.42,-408.24,-28522.395,-5615.955,-20189.61,-27983.16,-6152.355,2885.805
1764764525.903303,509.58,-406.755,-28521.45,-5615.145,-20189.295,-27982.485,-6151.455,2888.37
1764764525.903303,511.335,-405.9,-28519.74,-5613.66,-20187.045,-27980.1,-6148.755,2889.36
1764764525.903303,513.855,-402.75,-28517.175,-5609.925,-20182.455,-27975.69,-6146.505,2891.97
1764764525.903833,513.495,-402.66,-28516.365,-5609.16,-20181.69,-27975.105,-6146.505,2892.33
1764764525.903833,512.64,-404.505,-28516.68,-5609.34,-20181.78,-27975.33,-6147.09,2891.385
1764764525.903833,510.57,-406.575,-28518.255,-5611.139999999999,-20183.265,-27977.805,-6148.755,2889.63
1764764525.903833,509.22,-407.79,-28520.64,-5614.469999999999,-20188.215,-27982.305,-6151.23,2887.335
1764764525.903833,509.58,-407.07,-28521.09,-5615.37,-20190.42,-27983.16,-6152.04,2887.83
1764764525.903833,506.565,-410.355,-28524.96,-5619.24,-20193.075,-27985.905,-6154.335,2884.995
1764764525.903833,508.545,-408.51,-28522.575,-5616.945,-20190.69,-27983.475,-6152.49,2887.02
1764764525.903833,505.935,-410.49,-28523.565,-5617.62,-20191.23,-27984.465,-6153.21,2884.635
1764764525.903833,509.535,-406.665,-28519.11,-5612.715,-20185.56,-27979.515,-6150.915,2887.74
1764764525.903833,509.67,-407.205,-28518.615,-5612.04,-20184.345,-27978.12,-6149.88,2887.515
1764764525.903833,506.16,-411.165,-28523.34,-5616.179999999999,-20188.62,-27982.17,-6152.895,2883.87
1764764525.903833,503.325,-413.82,-28527.03,-5620.815,-20193.84,-27987.21,-6155.054999999999,2881.485
1764764525.903833,506.565,-409.95,-28524.285,-5619.105,-20192.94,-27986.355,-6153.75,2884.86
1764764525.903833,505.755,-409.995,-28524.24,-5618.835,-20192.58,-27987.21,-6154.38,2882.655
1764764525.903833,507.33,-407.925,-28521.045,-5615.37,-20188.62,-27984.285,-6152.804999999999,2885.22
1764764525.903833,504.72,-409.95,-28522.755,-5617.889999999999,-20190.87,-27985.95,-6154.155,2883.195
1764764525.903833,506.925,-407.88,-28521.09,-5616.0,-20187.495,-27982.71,-6151.815,2885.355
1764764525.903833,503.955,-412.065,-28524.915,-5618.79,-20188.755,-27983.61,-6152.58,2883.06
1764764525.903833,505.395,-410.04,-28521.45,-5615.955,-20186.46,-27981.99,-6151.455,2885.175
1764764525.9516356,508.995,-406.305,-28518.39,-5612.445,-20183.625,-27978.75,-6149.07,2888.01
1764764525.9516356,504.405,-411.3,-28525.995,-5619.42,-20191.68,-27984.645,-6154.02,2882.835
1764764525.9516356,505.53,-410.13,-28526.22,-5620.86,-20193.435,-27985.23,-6154.695,2884.68
1764764525.9516356,503.91,-410.445,-28526.22,-5619.87,-20192.58,-27985.365,-6154.514999999999,2883.24
1764764525.9516356,507.06,-405.99,-28521.18,-5615.19,-20187.045,-27981.18,-6151.679999999999,2885.895
1764764525.9516356,507.78,-405.54,-28520.19,-5614.02,-20185.245,-27980.145,-6150.014999999999,2885.85
1764764525.9516356,504.405,-409.5,-28525.095,-5618.925,-20190.555,-27984.195,-6153.12,2882.475
1764764525.9516356,506.97,-407.655,-28522.44,-5616.719999999999,-20188.89,-27981.27,-6150.78,2885.04
1764764525.9516356,503.91,-411.48,-28525.23,-5619.69,-20191.815,-27985.23,-6152.985,2882.7
1764764525.9516356,507.87,-407.97,-28522.89,-5616.764999999999,-20190.24,-27983.655,-6151.59,2885.535
1764764525.9516356,507.735,-408.825,-28523.43,-5617.755,-20190.465,-27984.375,-6151.95,2884.68
1764764525.9516356,502.2,-413.775,-28528.47,-5622.03,-20194.29,-27987.93,-6155.01,2879.82
1764764525.9516356,504.045,-411.84,-28526.715,-5619.375,-20190.6,-27984.375,-6153.21,2881.755
1764764525.9516356,503.055,-412.605,-28526.715,-5620.545,-20192.175,-27985.815,-6154.065,2881.395
1764764525.9516356,498.33,-417.825,-28532.655,-5627.115,-20199.555,-27993.195,-6158.295,2876.805
1764764525.9516356,499.32,-417.42,-28531.485,-5626.44,-20199.195,-27993.015,-6157.665,2876.76
1764764525.9516356,502.335,-414.09,-28527.48,-5622.705,-20195.775,-27989.595,-6155.054999999999,2878.92
1764764525.9516356,506.61,-409.23,-28522.44,-5616.945,-20189.07,-27982.62,-6151.275,2883.465
1764764525.9516356,504.135,-411.75,-28524.915,-5618.295,-20189.61,-27982.98,-6151.77,2881.395
1764764525.9516356,500.715,-415.8,-28528.695,-5621.715,-20191.59,-27985.14,-6153.389999999999,2878.38
1764764525.9516356,503.28,-412.38,-28526.895,-5620.5,-20190.375,-27983.205,-6152.264999999999,2881.755
1764764525.9521563,502.605,-412.605,-28527.3,-5621.625,-20192.49,-27985.275,-6152.849999999999,2881.26
1764764525.9521563,503.64,-412.515,-28527.615,-5621.76,-20192.94,-27985.59,-6152.715,2881.44
1764764525.9521563,508.23,-408.24,-28523.385,-5618.205,-20189.475,-27982.8,-6150.69,2885.445
1764764525.9988394,508.095,-408.24,-28525.005,-5620.815,-20192.805,-27986.265,-6151.59,2885.49
1764764525.9988394,506.655,-409.41,-28525.95,-5621.985,-20194.83,-27988.38,-6152.4,2883.51
1764764525.9988394,508.995,-406.98,-28522.215,-5617.71,-20189.565,-27983.745,-6150.33,2885.31
1764764525.9988394,510.48,-406.215,-28521.18,-5615.505,-20187.495,-27981.765,-6149.16,2885.805
1764764525.9988394,509.445,-407.34,-28521.63,-5614.514999999999,-20186.46,-27980.82,-6148.44,2884.41
1764764525.9988394,507.51,-408.24,-28523.385,-5616.179999999999,-20188.17,-27982.125,-6149.205,2882.97
1764764525.9988394,512.685,-402.93,-28519.515,-5612.76,-20185.83,-27978.84,-6146.145,2888.1
1764764525.9988394,511.92,-404.01,-28520.82,-5614.83,-20187.945,-27980.82,-6146.865,2888.01
1764764525.9988394,510.075,-405.405,-28523.07,-5617.665,-20189.97,-27983.835,-6148.53,2886.705
1764764525.9988394,508.905,-407.52,-28524.915,-5618.745,-20191.455,-27985.14,-6149.925,2885.175
1764764525.9988394,504.81,-410.895,-28528.695,-5622.389999999999,-20195.055,-27989.055,-6152.175,2881.215
1764764525.9988394,505.44,-410.265,-28527.615,-5621.04,-20194.38,-27988.38,-6151.005,2882.385
1764764525.9988394,506.97,-408.645,-28525.05,-5617.8,-20192.085,-27986.355,-6149.205,2883.735
1764764525.9988394,508.41,-407.205,-28522.8,-5615.099999999999,-20188.665,-27984.06,-6147.224999999999,2885.085
1764764525.9988394,507.285,-408.78,-28524.24,-5616.045,-20188.665,-27984.555,-6148.08,2883.555
1764764525.9988394,508.41,-407.61,-28523.34,-5614.56,-20187.09,-27982.53,-6147.54,2884.815
1764764525.9988394,509.985,-406.08,-28521.675,-5613.03,-20185.965,-27980.415,-6146.415,2886.66
1764764525.9988394,505.44,-411.795,-28527.525,-5619.33,-20192.22,-27985.455,-6151.32,2881.755
1764764525.9988394,508.995,-407.295,-28523.52,-5615.685,-20189.52,-27983.025,-6149.115,2885.58
1764764525.9988394,509.67,-405.99,-28523.34,-5615.37,-20189.565,-27983.745,-6148.035,2885.715
1764764525.9988394,512.145,-403.605,-28520.505,-5612.58,-20187.09,-27981.135,-6146.19,2887.875
1764764525.9988394,509.22,-406.575,-28523.025,-5615.099999999999,-20189.52,-27983.25,-6147.585,2884.59
1764764525.9988394,507.51,-408.195,-28524.375,-5616.495,-20189.97,-27983.43,-6148.44,2883.06
1764764525.9988394,509.94,-405.765,-28521.945,-5613.255,-20186.595,-27979.92,-6146.415,2885.535
1764764526.0451908,509.67,-405.135,-28521.945,-5612.67,-20186.55,-27979.92,-6146.82,2885.49
1764764526.0451908,506.655,-407.745,-28525.545,-5618.025,-20191.68,-27984.42,-6149.474999999999,2883.465
1764764526.0451908,511.74,-402.84,-28521.27,-5613.615,-20187.585,-27981.225,-6146.505,2888.595
1764764526.0451908,508.365,-407.07,-28525.635,-5617.935,-20190.78,-27984.78,-6148.575,2884.455
1764764526.0466602,508.41,-407.115,-28525.95,-5617.889999999999,-20191.59,-27984.69,-6148.44,2884.86
1764764526.0466602,509.22,-405.945,-28524.42,-5615.37,-20188.845,-27982.35,-6147.09,2885.535
1764764526.0466602,509.76,-405.54,-28524.06,-5614.469999999999,-20186.46,-27980.46,-6147.45,2886.03
1764764526.0466602,507.33,-407.52,-28526.085,-5615.55,-20186.505,-27981.72,-6148.755,2883.375
1764764526.0466602,510.03,-404.595,-28522.305,-5612.085,-20183.445,-27978.57,-6146.594999999999,2885.445
1764764526.0466602,507.735,-406.035,-28523.97,-5614.785,-20187.27,-27982.17,-6147.99,2883.96
1764764526.0466602,510.075,-404.19,-28522.665,-5613.974999999999,-20187.45,-27982.8,-6147.764999999999,2885.355
1764764526.0466602,513.135,-402.39,-28520.145,-5611.139999999999,-20185.11,-27979.785,-6145.514999999999,2888.28
1764764526.0466602,514.0799999999999,-401.49,-28520.73,-5612.804999999999,-20186.91,-27980.595,-6145.785,2889.405
1764764526.0466602,510.255,-405.27,-28525.05,-5617.125,-20191.005,-27984.195,-6148.889999999999,2886.12
1764764526.0466602,507.645,-408.645,-28528.02,-5619.87,-20193.12,-27986.715,-6150.014999999999,2882.61
1764764526.0466602,510.93,-404.73,-28524.33,-5616.54,-20189.205,-27982.485,-6147.045,2886.345
1764764526.0466602,509.985,-404.505,-28525.32,-5616.855,-20190.06,-27983.565,-6147.63,2886.165
1764764526.0466602,505.755,-409.185,-28529.415,-5620.905,-20194.65,-27987.975,-6150.014999999999,2882.43
1764764526.0466602,508.86,-406.62,-28527.12,-5617.71,-20192.355,-27986.49,-6148.395,2884.455
1764764526.0466602,513.045,-403.245,-28521.72,-5611.995,-20186.415,-27981.72,-6144.885,2887.92
1764764526.0466602,511.335,-404.46,-28522.44,-5612.94,-20187.405,-27981.72,-6145.11,2886.48
1764764526.0466602,515.0699999999999,-401.13,-28517.76,-5608.665,-20183.04,-27977.715,-6142.455,2889.54
1764764526.0466602,514.26,-401.805,-28518.39,-5609.385,-20184.12,-27978.39,-6143.13,2889.405
1764764526.0466602,511.02,-405.27,-28522.305,-5613.929999999999,-20187.99,-27981.27,-6146.28,2886.525
1764764526.0934863,506.16,-409.995,-28527.57,-5618.835,-20192.715,-27985.59,-6149.429999999999,2881.53
1764764526.0934863,505.71,-410.22,-28527.165,-5617.755,-20191.635,-27986.265,-6150.105,2881.08
1764764526.0934863,510.66,-405.045,-28522.755,-5612.04,-20186.82,-27981.63,-6146.505,2885.31
1764764526.0934863,511.875,-404.145,-28521.945,-5611.094999999999,-20185.92,-27980.37,-6145.2,2886.12
1764764526.0934863,510.93,-405.09,-28522.215,-5611.995,-20184.84,-27980.055,-6144.84,2885.94
1764764526.0934863,510.21,-406.755,-28525.005,-5614.65,-20187.675,-27983.295,-6146.46,2884.905
1764764526.0934863,508.77,-408.33,-28527.615,-5618.7,-20193.165,-27986.94,-6148.844999999999,2883.6
1764764526.0934863,506.205,-409.905,-28528.65,-5619.69,-20193.48,-27987.39,-6149.25,2880.855
1764764526.0934863,508.995,-406.17,-28524.69,-5615.639999999999,-20189.43,-27983.34,-6146.955,2884.32
1764764526.0934863,505.935,-409.41,-28527.75,-5617.844999999999,-20191.275,-27985.995,-6148.98,2881.035
1764764526.0934863,508.77,-407.565,-28525.905,-5615.594999999999,-20188.125,-27982.575,-6147.405,2883.195
1764764526.0934863,506.745,-409.095,-28527.255,-5617.304999999999,-20189.7,-27985.455,-6148.215,2881.98
1764764526.0934863,508.455,-408.105,-28526.535,-5616.9,-20189.43,-27985.14,-6147.179999999999,2883.33
1764764526.0934863,512.46,-405.09,-28523.115,-5613.84,-20187.27,-27982.35,-6144.615,2886.3
1764764526.0934863,512.055,-405.315,-28523.025,-5614.335,-20188.26,-27982.665,-6144.255,2886.255
1764764526.0934863,510.255,-406.53,-28523.655,-5614.38,-20188.17,-27983.115,-6145.469999999999,2884.41
1764764526.0934863,506.61,-410.13,-28527.705,-5617.26,-20190.915,-27985.725,-6148.08,2880.63
1764764526.0945086,509.04,-407.475,-28526.175,-5615.73,-20189.925,-27983.52,-6146.37,2883.69
1764764526.0945086,508.365,-408.915,-28527.255,-5616.495,-20190.555,-27984.285,-6146.955,2883.195
1764764526.0945086,504.225,-412.065,-28530.99,-5620.5,-20193.705,-27987.795,-6149.969999999999,2880.09
1764764526.1379082,502.515,-414.18,-28532.115,-5621.94,-20195.73,-27989.055,-6151.139999999999,2877.93
1764764526.1379082,506.655,-409.815,-28527.975,-5617.665,-20191.545,-27985.815,-6148.71,2882.025
1764764526.1379082,506.34,-410.49,-28528.2,-5619.105,-20193.39,-27988.065,-6149.429999999999,2881.53
1764764526.1379082,503.19,-413.415,-28530.54,-5622.12,-20196.54,-27991.665,-6151.41,2877.975
1764764526.1379082,503.685,-412.155,-28528.74,-5620.139999999999,-20193.75,-27990.27,-6150.42,2878.605
1764764526.1379082,499.455,-416.565,-28533.51,-5623.65,-20197.08,-27993.78,-6152.94,2874.735
1764764526.1379082,499.77,-415.755,-28532.52,-5622.57,-20195.595,-27991.62,-6152.13,2874.96
1764764526.1379082,503.46,-412.155,-28529.19,-5620.094999999999,-20192.355,-27986.85,-6148.44,2878.92
1764764526.1379082,508.995,-406.53,-28524.735,-5616.45,-20189.97,-27983.385,-6145.785,2884.32
1764764526.1379082,506.43,-408.645,-28527.12,-5619.06,-20191.545,-27986.445,-6147.945,2882.34
1764764526.1379082,505.845,-408.96,-28527.615,-5618.7,-20191.41,-27987.3,-6147.81,2882.385
1764764526.1379082,507.735,-407.835,-28525.95,-5617.575,-20191.14,-27986.13,-6146.19,2883.105
1764764526.1379082,505.08,-411.705,-28529.19,-5619.69,-20192.49,-27987.03,-6146.46,2880.855
1764764526.1379082,505.665,-411.48,-28529.595,-5618.88,-20190.06,-27984.69,-6145.155,2880.81
1764764526.1379082,506.745,-409.725,-28528.2,-5618.115,-20189.34,-27983.745,-6144.84,2881.215
1764764526.1379082,509.445,-406.98,-28525.365,-5615.82,-20187.0,-27981.585,-6143.445,2884.275
1764764526.1379082,507.285,-409.185,-28527.39,-5617.889999999999,-20189.34,-27984.24,-6144.075,2882.43
1764764526.1379082,509.04,-408.15,-28527.48,-5618.429999999999,-20191.14,-27985.5,-6145.02,2883.105
1764764526.1379082,511.2,-406.305,-28525.14,-5616.36,-20189.565,-27985.14,-6145.02,2884.77
1764764526.1379082,506.16,-411.255,-28530.09,-5621.13,-20193.615,-27989.055,-6148.304999999999,2880.315
1764764526.1379082,507.105,-409.635,-28528.29,-5618.565,-20191.995,-27987.03,-6146.325,2881.485
1764764526.1379082,503.82,-412.695,-28530.225,-5620.815,-20194.65,-27989.73,-6148.44,2879.055
1764764526.1379082,502.605,-413.73,-28531.485,-5622.165,-20195.91,-27991.125,-6149.655,2877.795
1764764526.1379082,502.695,-413.415,-28530.81,-5621.219999999999,-20195.19,-27990.18,-6149.25,2877.57
1764764526.1854186,503.19,-413.37,-28531.755,-5622.165,-20195.19,-27989.775,-6148.844999999999,2878.02
1764764526.1854186,506.835,-409.005,-28529.055,-5618.88,-20191.23,-27985.455,-6146.505,2882.52
1764764526.1854186,505.08,-411.3,-28531.08,-5621.04,-20192.625,-27987.345,-6147.9,2880.495
1764764526.1854186,504.945,-410.4,-28530.0,-5619.87,-20192.265,-27986.94,-6146.955,2880.63
1764764526.1854186,505.44,-409.32,-28528.785,-5619.33,-20191.455,-27986.805,-6146.775,2880.585
1764764526.1854186,505.26,-410.04,-28529.685,-5620.32,-20192.13,-27987.795,-6147.764999999999,2879.55
1764764526.1854186,502.785,-412.47,-28531.305,-5622.165,-20194.02,-27990.09,-6149.25,2877.705
1764764526.1854186,505.35,-410.445,-28527.66,-5618.655,-20190.915,-27986.94,-6146.73,2880.495
1764764526.1854186,501.975,-413.865,-28532.25,-5622.84,-20195.1,-27990.36,-6149.115,2876.85
1764764526.1854186,503.055,-412.92,-28531.89,-5621.849999999999,-20193.795,-27988.965,-6149.025,2878.11
1764764526.1854186,506.925,-408.42,-28527.975,-5617.575,-20190.24,-27985.5,-6146.505,2881.71
1764764526.1854186,507.105,-408.375,-28527.795,-5617.215,-20189.475,-27984.96,-6146.054999999999,2882.25
1764764526.1854186,506.52,-409.14,-28528.38,-5618.115,-20189.475,-27985.77,-6145.83,2881.845
1764764526.1854186,504.855,-410.85,-28529.595,-5619.33,-20190.24,-27986.445,-6146.505,2880.9
1764764526.1854186,504.36,-411.75,-28530.36,-5620.185,-20190.645,-27985.455,-6146.099999999999,2880.72
1764764526.1854186,504.315,-411.12,-28530.45,-5620.545,-20191.725,-27986.535,-6146.82,2880.63
1764764526.1854186,505.305,-410.895,-28529.91,-5619.78,-20190.87,-27985.905,-6146.145,2881.44
1764764526.1859338,506.565,-409.995,-28529.415,-5618.969999999999,-20190.33,-27985.815,-6145.514999999999,2882.07
1764764526.1859338,506.43,-409.5,-28527.57,-5617.53,-20189.52,-27985.14,-6145.875,2881.935
1764764526.1859338,506.52,-408.015,-28526.445,-5615.639999999999,-20188.125,-27984.69,-6145.155,2881.98
1764764526.1859338,503.145,-410.4,-28528.785,-5618.115,-20190.285,-27988.38,-6147.045,2879.325
1764764526.1859338,505.53,-409.23,-28527.21,-5615.505,-20187.495,-27985.095,-6145.605,2880.765
1764764526.1859338,501.75,-414.045,-28533.555,-5621.804999999999,-20193.57,-27989.19,-6149.52,2876.94
1764764526.1859338,503.01,-413.37,-28533.33,-5623.38,-20195.145,-27989.55,-6148.304999999999,2879.28
1764764526.1859338,508.185,-408.24,-28528.785,-5619.645,-20190.915,-27985.455,-6144.929999999999,2884.68
1764764526.1859338,507.42,-409.59,-28531.215,-5621.13,-20193.615,-27988.56,-6146.73,2883.69
1764764526.231555,506.88,-410.535,-28532.7,-5622.795,-20196.09,-27989.955,-6147.315,2883.51
1764764526.231555,508.23,-409.23,-28530.765,-5620.545,-20193.075,-27987.885,-6145.56,2884.995
1764764526.231555,506.835,-410.49,-28531.485,-5620.77,-20193.075,-27988.29,-6145.695,2883.6
1764764526.231555,503.505,-412.965,-28533.87,-5622.885,-20196.315,-27990.765,-6147.495,2880.945
1764764526.231555,505.215,-411.12,-28532.925,-5621.445,-20194.74,-27989.055,-6146.01,2881.845
1764764526.231555,503.325,-414.09,-28535.22,-5623.56,-20195.955,-27990.54,-6146.73,2879.865
1764764526.231555,503.73,-413.91,-28534.365,-5623.469999999999,-20195.775,-27990.18,-6147.045,2880.72
1764764526.231555,505.305,-411.795,-28532.07,-5621.76,-20193.705,-27988.65,-6145.965,2882.25
1764764526.231555,509.265,-407.835,-28528.155,-5617.755,-20189.115,-27984.78,-6143.04,2885.805
1764764526.232089,506.745,-409.545,-28529.955,-5618.52,-20191.365,-27986.04,-6143.849999999999,2884.095
1764764526.232089,502.965,-414.18,-28534.05,-5622.165,-20195.1,-27989.955,-6146.19,2879.64
1764764526.232089,503.64,-413.82,-28532.52,-5621.31,-20193.39,-27988.695,-6145.74,2879.955
1764764526.232089,506.925,-409.365,-28528.83,-5617.17,-20190.105,-27985.05,-6143.94,2883.33
1764764526.232089,504.54,-411.66,-28531.44,-5619.15,-20192.805,-27987.345,-6146.37,2881.53
1764764526.232089,506.61,-409.455,-28529.28,-5616.9,-20190.465,-27984.69,-6144.66,2883.375
1764764526.232089,507.51,-408.825,-28528.695,-5616.495,-20189.61,-27984.465,-6143.355,2883.465
1764764526.232089,504.63,-412.155,-28532.16,-5620.094999999999,-20192.985,-27987.615,-6145.469999999999,2879.73
1764764526.232089,506.745,-409.68,-28530.765,-5618.205,-20191.23,-27984.825,-6143.264999999999,2882.16
1764764526.232089,507.69,-407.565,-28528.695,-5616.764999999999,-20189.475,-27983.835,-6143.264999999999,2883.78
1764764526.232089,504.9,-410.49,-28531.17,-5618.969999999999,-20192.22,-27986.175,-6145.74,2880.495
1764764526.232089,503.37,-411.795,-28532.16,-5619.735,-20193.39,-27987.345,-6145.469999999999,2879.28
1764764526.232089,503.235,-411.795,-28532.745,-5620.59,-20193.615,-27987.93,-6145.875,2879.145
1764764526.2782693,504.45,-409.995,-28531.575,-5619.465,-20192.04,-27986.58,-6145.92,2880.99
1764764526.2782693,502.785,-411.075,-28532.295,-5620.59,-20193.705,-27988.47,-6146.73,2879.01
1764764526.2782693,505.935,-407.7,-28528.155,-5616.495,-20190.195,-27984.555,-6144.255,2882.475
1764764526.2782693,506.7,-406.71,-28527.57,-5615.82,-20189.115,-27983.97,-6143.58,2882.61
1764764526.2782693,503.91,-409.455,-28529.505,-5618.205,-20191.905,-27987.165,-6145.56,2879.145
1764764526.2782693,507.78,-406.17,-28526.265,-5614.695,-20188.35,-27983.79,-6142.455,2882.925
1764764526.2782693,505.215,-409.365,-28529.865,-5617.575,-20190.78,-27984.645,-6143.264999999999,2880.945
1764764526.2782693,499.365,-415.8,-28536.525,-5623.83,-20196.99,-27990.945,-6147.945,2875.995
1764764526.2782693,499.41,-414.405,-28534.635,-5622.21,-20195.73,-27990.045,-6146.91,2877.435
1764764526.2782693,499.815,-413.505,-28533.87,-5621.715,-20194.38,-27989.1,-6147.224999999999,2877.57
1764764526.2782693,502.11,-411.705,-28531.845,-5619.465,-20192.085,-27987.525,-6145.38,2878.695
1764764526.2782693,507.42,-406.62,-28526.355,-5613.929999999999,-20186.145,-27983.295,-6141.465,2883.96
1764764526.2782693,505.845,-408.285,-28528.29,-5615.415,-20188.215,-27985.815,-6142.815,2881.62
1764764526.2782693,507.69,-406.08,-28526.13,-5613.21,-20186.73,-27982.71,-6140.835,2884.095
1764764526.2782693,507.285,-407.385,-28527.345,-5614.65,-20189.295,-27983.61,-6141.42,2883.51
1764764526.2782693,505.44,-409.545,-28529.82,-5616.719999999999,-20190.915,-27985.545,-6142.995,2881.08
1764764526.2782693,508.995,-405.99,-28526.67,-5612.895,-20187.0,-27981.54,-6139.755,2884.32
1764764526.2782693,506.52,-407.7,-28528.83,-5615.054999999999,-20188.305,-27982.755,-6140.565,2883.015
1764764526.2782693,504.495,-409.5,-28530.36,-5617.215,-20192.13,-27987.03,-6143.355,2880.36
1764764526.2782693,502.155,-413.1,-28532.79,-5619.33,-20194.245,-27989.28,-6145.155,2877.12
1764764526.2782693,505.485,-411.12,-28530.27,-5615.505,-20189.205,-27983.88,-6141.735,2881.35
1764764526.2797992,506.25,-410.67,-28530.135,-5616.45,-20190.06,-27984.555,-6141.33,2882.385
1764764526.2797992,506.79,-410.49,-28529.505,-5617.035,-20192.04,-27985.77,-6141.375,2882.79
1764764526.2797992,505.935,-412.695,-28532.565,-5621.67,-20198.025,-27990.045,-6144.3,2881.125
1764764526.3233695,508.995,-409.41,-28532.295,-5622.795,-20200.14,-27991.845,-6144.075,2883.33
1764764526.3233695,508.545,-409.23,-28532.295,-5621.445,-20198.88,-27990.855,-6143.849999999999,2882.79
1764764526.3233695,509.265,-409.32,-28530.54,-5619.87,-20195.595,-27987.75,-6142.995,2884.185
1764764526.3233695,504.045,-413.28,-28535.085,-5625.0,-20200.905,-27992.52,-6147.179999999999,2879.1
1764764526.3233695,501.21,-415.71,-28537.2,-5626.53,-20203.065,-27995.265,-6148.889999999999,2875.365
1764764526.3233695,504.405,-412.56,-28533.375,-5622.12,-20198.07,-27991.755,-6146.28,2879.28
1764764526.3233695,500.85,-415.665,-28535.085,-5624.235,-20200.545,-27994.59,-6147.99,2876.67
1764764526.3233695,502.56,-413.64,-28533.69,-5622.48,-20198.79,-27993.15,-6147.224999999999,2877.795
1764764526.3233695,502.56,-413.775,-28534.23,-5622.705,-20198.97,-27993.105,-6147.45,2876.985
1764764526.3233695,498.87,-417.375,-28537.515,-5625.945,-20201.22,-27995.04,-6149.34,2873.835
1764764526.3233695,498.015,-419.265,-28538.28,-5626.304999999999,-20201.175,-27993.915,-6149.429999999999,2872.845
1764764526.3249092,499.5,-417.24,-28535.805,-5623.2,-20198.88,-27991.35,-6147.315,2875.005
1764764526.3258128,503.91,-413.415,-28533.06,-5620.139999999999,-20195.73,-27988.245,-6144.03,2879.28
1764764526.3258128,500.625,-416.295,-28535.715,-5623.245,-20199.015,-27992.34,-6146.55,2875.995
1764764526.3258128,504.585,-413.145,-28531.53,-5618.52,-20194.29,-27988.695,-6143.804999999999,2878.695
1764764526.3258128,503.1,-414.72,-28533.195,-5621.264999999999,-20196.945,-27991.395,-6145.38,2876.895
1764764526.3258128,501.885,-415.44,-28534.545,-5623.02,-20199.465,-27993.915,-6147.0,2874.96
1764764526.3258128,501.93,-415.575,-28534.77,-5623.065,-20199.06,-27994.23,-6147.54,2874.645
1764764526.3258128,501.12,-416.61,-28535.76,-5623.2,-20198.115,-27992.52,-6146.685,2875.455
1764764526.3258128,495.36,-422.01,-28541.43,-5628.105,-20202.615,-27995.67,-6149.565,2870.46
1764764526.3258128,495.18,-422.73,-28541.25,-5626.889999999999,-20201.355,-27994.14,-6149.52,2870.28
1764764526.3258128,500.85,-416.655,-28535.76,-5620.59,-20194.695,-27988.83,-6145.965,2875.68
1764764526.3258128,503.55,-413.64,-28531.755,-5617.53,-20192.265,-27987.03,-6144.255,2878.02
1764764526.3258128,501.48,-415.215,-28534.365,-5620.545,-20196.225,-27990.63,-6146.685,2876.085
1764764526.3729408,499.68,-416.88,-28537.785,-5624.235,-20200.32,-27994.14,-6149.16,2874.24
1764764526.3729408,496.935,-420.435,-28541.61,-5628.195,-20204.955,-27998.145,-6151.635,2871.495
1764764526.3729408,499.32,-418.005,-28539.45,-5626.17,-20202.48,-27996.12,-6149.429999999999,2873.34
1764764526.3729408,498.87,-418.545,-28538.82,-5625.54,-20200.725,-27995.13,-6148.17,2873.52
1764764526.3729408,501.66,-415.755,-28534.59,-5620.815,-20196.135,-27990.675,-6146.099999999999,2877.12
1764764526.3729408,501.705,-416.205,-28535.22,-5620.86,-20195.955,-27990.18,-6145.425,2876.445
1764764526.3729408,500.445,-417.96,-28537.695,-5623.74,-20198.565,-27991.935,-6146.82,2874.825
1764764526.3729408,498.555,-420.795,-28540.935,-5626.844999999999,-20201.94,-27995.175,-6148.62,2872.485
1764764526.3729408,497.52,-421.605,-28542.87,-5629.365,-20205.27,-27998.46,-6151.724999999999,2871.36
1764764526.3729408,492.3,-425.745,-28547.775,-5634.99,-20211.255,-28005.165,-6155.955,2866.815
1764764526.3729408,495.0,-423.0,-28544.76,-5632.425,-20208.555,-28003.905,-6154.74,2869.92
1764764526.3729408,494.73,-424.26,-28545.165,-5632.695,-20208.87,-28003.68,-6154.335,2868.93
1764764526.3729408,497.97,-421.56,-28542.33,-5630.175,-20206.53,-28000.665,-6152.49,2871.45
1764764526.3729408,498.285,-420.705,-28543.455,-5631.3,-20207.16,-28001.43,-6152.04,2871.99
1764764526.3729408,498.285,-420.435,-28543.41,-5630.445,-20206.62,-28001.565,-6151.32,2872.17
1764764526.3729408,498.915,-419.805,-28542.465,-5628.24,-20204.865,-28000.485,-6149.925,2873.115
1764764526.3729408,497.565,-420.93,-28542.735,-5628.599999999999,-20205.45,-28000.665,-6149.745,2872.395
1764764526.3729408,494.82,-423.405,-28544.355,-5630.76,-20206.98,-28002.375,-6152.085,2868.57
1764764526.3729408,498.105,-418.995,-28539.405,-5626.08,-20202.84,-27997.47,-6150.014999999999,2871.72
1764764526.3729408,498.33,-418.59,-28538.19,-5624.415,-20200.68,-27996.21,-6149.969999999999,2871.855
1764764526.3729408,498.735,-418.905,-28538.775,-5624.37,-20199.96,-27995.895,-6150.105,2871.54
1764764526.3729408,497.835,-419.49,-28540.17,-5626.665,-20201.76,-27998.37,-6150.15,2871.315
1764764526.41551,499.995,-418.005,-28538.91,-5625.945,-20201.4,-27997.695,-6148.44,2873.43
1764764526.41551,497.835,-420.12,-28542.87,-5628.915,-20205.405,-28000.53,-6150.33,2871.45
1764764526.41551,500.49,-416.88,-28539.72,-5625.945,-20201.985,-27998.28,-6149.295,2874.645
1764764526.41551,501.57,-416.52,-28537.92,-5623.875,-20200.05,-27996.435,-6147.764999999999,2875.095
1764764526.41551,496.71,-420.84,-28542.465,-5628.105,-20204.46,-28000.17,-6150.645,2870.145
1764764526.41551,496.71,-419.76,-28540.62,-5626.844999999999,-20203.695,-27999.0,-6150.195,2870.64
1764764526.41551,502.335,-414.315,-28535.22,-5621.13,-20197.665,-27993.555,-6146.325,2876.22
1764764526.41551,503.865,-414.18,-28534.815,-5620.679999999999,-20197.8,-27992.79,-6145.02,2877.93
1764764526.41551,503.37,-414.495,-28535.355,-5621.67,-20197.62,-27992.7,-6144.929999999999,2877.255
1764764526.41551,501.345,-416.43,-28536.84,-5623.155,-20198.07,-27993.33,-6146.145,2875.77
1764764526.41551,498.555,-419.4,-28539.855,-5625.81,-20200.725,-27995.94,-6147.495,2872.8
1764764526.41551,501.66,-415.215,-28536.525,-5622.929999999999,-20199.105,-27993.375,-6145.92,2876.67
1764764526.41551,500.535,-416.43,-28537.74,-5623.875,-20201.085,-27994.41,-6146.505,2876.22
1764764526.41551,498.6,-418.095,-28539.495,-5626.304999999999,-20203.29,-27996.84,-6148.71,2874.06
1764764526.41551,498.915,-418.005,-28538.685,-5624.639999999999,-20201.76,-27995.22,-6148.665,2873.475
1764764526.41551,500.895,-416.115,-28536.255,-5621.94,-20198.97,-27993.105,-6147.179999999999,2874.555
1764764526.4169056,501.75,-416.25,-28534.23,-5620.365,-20197.305,-27992.7,-6146.73,2874.42
1764764526.4169056,497.565,-419.535,-28537.155,-5623.065,-20199.6,-27995.85,-6148.935,2871.0
1764764526.4169056,500.49,-417.465,-28535.85,-5621.445,-20197.755,-27992.79,-6146.145,2874.96
1764764526.4169056,502.875,-416.655,-28535.94,-5621.715,-20198.205,-27992.79,-6146.01,2876.265
1764764526.4169056,503.19,-416.25,-28536.885,-5622.3,-20199.375,-27993.645,-6146.099999999999,2876.13
1764764526.4169056,501.39,-419.04,-28539.765,-5624.55,-20201.265,-27995.31,-6146.325,2874.195
1764764526.4169056,502.83,-418.275,-28539.225,-5624.37,-20199.735,-27993.78,-6145.29,2876.04
1764764526.4169056,498.555,-421.335,-28542.96,-5628.33,-20204.235,-27997.83,-6148.125,2872.485
1764764526.464447,500.265,-419.04,-28540.08,-5625.27,-20201.715,-27995.58,-6147.09,2874.78
1764764526.464447,499.23,-419.94,-28540.215,-5625.27,-20201.715,-27996.435,-6148.08,2873.565
1764764526.4649518,500.265,-418.995,-28537.38,-5621.445,-20196.945,-27993.015,-6146.054999999999,2874.06
1764764526.4649518,497.475,-422.325,-28539.315,-5622.435,-20197.575,-27992.97,-6146.82,2870.91
1764764526.4649518,499.86,-419.895,-28537.02,-5620.185,-20194.74,-27990.18,-6145.469999999999,2875.32
1764764526.4649518,498.915,-420.12,-28538.415,-5621.715,-20197.305,-27992.79,-6147.09,2875.05
1764764526.4649518,500.13,-419.625,-28539.0,-5624.01,-20201.22,-27996.345,-6148.08,2874.6
1764764526.4649518,501.48,-419.175,-28540.305,-5627.385,-20207.115,-28001.07,-6149.295,2875.635
1764764526.4649518,499.68,-419.715,-28542.735,-5629.95,-20209.995,-28003.14,-6150.78,2873.79
1764764526.4649518,494.865,-423.675,-28546.155,-5632.514999999999,-20210.94,-28004.715,-6152.94,2869.695
1764764526.4649518,495.72,-422.55,-28545.3,-5631.165,-20209.23,-28003.005,-6153.03,2870.73
1764764526.4649518,492.435,-425.745,-28547.415,-5633.505,-20210.805,-28004.58,-6154.245,2867.13
1764764526.4649518,495.315,-422.415,-28543.365,-5629.005,-20206.305,-27999.855,-6151.905,2870.01
1764764526.4649518,495.18,-421.965,-28543.59,-5627.835,-20205.27,-27999.315,-6152.264999999999,2870.37
1764764526.4649518,495.585,-422.595,-28543.68,-5628.825,-20206.62,-28000.08,-6152.58,2870.37
1764764526.4649518,494.865,-423.72,-28543.77,-5628.87,-20206.53,-28000.53,-6152.13,2870.46
1764764526.4649518,494.01,-423.945,-28544.13,-5628.825,-20206.62,-28001.295,-6152.49,2870.37
1764764526.4649518,492.885,-425.565,-28545.795,-5629.5,-20207.655,-28002.645,-6153.885,2867.94
1764764526.4649518,493.38,-425.475,-28546.515,-5630.219999999999,-20207.88,-28002.51,-6152.804999999999,2867.985
1764764526.4649518,493.38,-425.835,-28546.92,-5631.075,-20208.735,-28002.555,-6152.445,2868.075
1764764526.4649518,491.31,-429.12,-28550.115,-5635.08,-20213.01,-28006.29,-6154.83,2864.835
1764764526.4649518,493.92,-427.41,-28548.0,-5632.875,-20211.435,-28005.345,-6153.48,2867.22
1764764526.4649518,495.045,-425.52,-28546.11,-5631.255,-20209.905,-28003.68,-6153.344999999999,2868.075
1764764526.4649518,493.065,-426.87,-28546.47,-5632.425,-20209.68,-28004.13,-6153.705,2866.455
1764764526.5093071,489.78,-429.525,-28547.46,-5633.37,-20210.67,-28005.84,-6154.74,2863.53
1764764526.5093071,491.985,-427.59,-28546.38,-5630.175,-20207.835,-28003.68,-6153.12,2865.42
1764764526.5093071,495.585,-423.54,-28542.735,-5626.349999999999,-20203.785,-27999.045,-6149.79,2869.335
1764764526.5093071,496.17,-423.09,-28542.015,-5626.53,-20203.38,-27998.28,-6148.485,2870.775
1764764526.5093071,493.785,-426.555,-28544.715,-5629.679999999999,-20206.125,-28000.8,-6150.15,2868.255
1764764526.5093071,494.91,-426.24,-28545.12,-5629.5,-20206.395,-28000.755,-6150.51,2868.3
1764764526.5093071,497.475,-423.045,-28541.925,-5626.665,-20204.28,-27998.955,-6148.665,2871.495
1764764526.5093071,502.83,-416.925,-28535.085,-5619.87,-20196.99,-27991.575,-6143.264999999999,2876.85
1764764526.5093071,503.865,-416.07,-28533.96,-5617.935,-20194.245,-27988.74,-6141.06,2877.3
1764764526.5093071,502.965,-417.24,-28535.895,-5620.094999999999,-20197.395,-27990.855,-6142.275,2877.21
1764764526.5093071,503.01,-418.68,-28537.29,-5621.58,-20200.095,-27993.555,-6142.455,2877.525
1764764526.5093071,503.055,-419.175,-28539.765,-5625.63,-20204.685,-27996.975,-6143.445,2876.67
1764764526.5093071,501.39,-420.795,-28542.42,-5628.78,-20209.095,-28000.89,-6145.514999999999,2873.97
1764764526.5093071,505.17,-416.97,-28537.335,-5623.74,-20204.055,-27997.38,-6143.49,2878.02
1764764526.5093071,506.88,-414.495,-28533.555,-5619.645,-20198.565,-27993.24,-6141.375,2879.55
1764764526.5093071,508.32,-411.93,-28530.09,-5615.145,-20194.74,-27989.1,-6138.945,2882.115
1764764526.5093071,506.565,-414.495,-28532.79,-5617.844999999999,-20197.89,-27990.945,-6140.565,2879.595
1764764526.5093071,503.595,-418.005,-28536.93,-5622.615,-20201.94,-27994.14,-6142.094999999999,2877.12
1764764526.5093071,506.655,-415.17,-28534.995,-5620.094999999999,-20199.015,-27990.72,-6139.53,2880.945
1764764526.5093071,506.115,-414.945,-28535.13,-5620.635,-20200.23,-27991.89,-6140.07,2880.36
1764764526.5093071,505.17,-416.205,-28535.445,-5622.075,-20201.67,-27993.42,-6140.969999999999,2879.415
1764764526.5093071,507.24,-414.405,-28533.915,-5620.679999999999,-20200.725,-27992.52,-6139.575,2881.755
1764764526.5093071,504.63,-417.465,-28537.065,-5623.875,-20203.56,-27996.165,-6140.52,2879.01
1764764526.5093071,505.305,-416.34,-28536.255,-5622.12,-20200.725,-27993.42,-6139.575,2879.685
1764764526.5564797,509.13,-413.145,-28533.105,-5618.07,-20196.405,-27988.38,-6136.83,2883.285
1764764526.5564797,507.96,-413.865,-28532.79,-5617.98,-20196.855,-27988.74,-6137.775,2881.395
1764764526.5564797,507.78,-412.83,-28530.9,-5616.9,-20196.18,-27988.65,-6138.09,2881.305
1764764526.5564797,511.335,-408.645,-28526.22,-5611.545,-20190.42,-27983.61,-6134.445,2883.825
1764764526.5564797,518.13,-401.58,-28519.74,-5604.255,-20182.815,-27976.005,-6128.37,2890.665
1764764526.5564797,512.775,-408.33,-28527.84,-5612.76,-20191.59,-27983.97,-6133.59,2885.76
1764764526.5564797,512.145,-409.905,-28530.225,-5614.469999999999,-20192.67,-27984.6,-6134.175,2885.265
1764764526.5564797,516.42,-405.495,-28524.96,-5608.53,-20187.18,-27978.93,-6129.764999999999,2890.53
1764764526.5564797,513.585,-407.7,-28527.39,-5611.05,-20189.745,-27982.215,-6130.575,2888.595
1764764526.5564797,512.8199999999999,-407.88,-28527.93,-5612.13,-20190.915,-27983.025,-6131.385,2888.64
1764764526.5564797,508.545,-412.515,-28533.105,-5617.62,-20196.45,-27988.515,-6135.12,2884.095
1764764526.5564797,510.93,-410.04,-28530.18,-5615.145,-20193.525,-27986.355,-6133.545,2886.48
1764764526.5564797,510.795,-409.905,-28529.28,-5614.065,-20191.77,-27985.23,-6132.735,2885.805
1764764526.5564797,514.53,-406.845,-28525.365,-5611.005,-20188.44,-27981.36,-6130.26,2889.27
1764764526.5564797,515.295,-406.575,-28524.87,-5610.915,-20187.765,-27980.955,-6130.26,2889.405
1764764526.5564797,513.63,-407.835,-28526.76,-5611.815,-20188.845,-27982.215,-6131.655,2887.92
1764764526.5564797,511.92,-409.14,-28528.38,-5614.469999999999,-20191.95,-27984.33,-6132.78,2886.21
1764764526.5564797,514.71,-406.62,-28525.23,-5611.545,-20189.565,-27983.565,-6130.844999999999,2888.82
1764764526.5564797,514.8,-406.71,-28525.41,-5611.05,-20189.565,-27984.33,-6130.844999999999,2888.73
1764764526.5564797,515.79,-406.26,-28524.69,-5609.835,-20189.205,-27983.88,-6130.395,2888.595
1764764526.558106,514.5749999999999,-407.565,-28525.995,-5610.735,-20190.105,-27984.015,-6131.565,2887.74
1764764526.558106,510.03,-411.75,-28530.18,-5614.38,-20194.065,-27987.66,-6133.95,2883.78
1764764526.605826,512.145,-408.87,-28527.435,-5610.599999999999,-20190.285,-27983.745,-6131.52,2887.02
1764764526.605826,511.56,-409.275,-28527.615,-5610.645,-20188.62,-27981.99,-6130.71,2886.75
1764764526.605826,512.775,-408.6,-28526.265,-5609.835,-20187.855,-27980.775,-6129.54,2886.525
1764764526.605826,508.05,-412.74,-28531.575,-5615.37,-20193.93,-27986.895,-6134.355,2882.295
1764764526.605826,505.53,-415.44,-28535.265,-5619.24,-20198.25,-27991.53,-6136.245,2880.405
1764764526.605826,506.205,-414.99,-28534.095,-5618.7,-20197.395,-27991.665,-6136.155,2881.44
1764764526.605826,506.88,-413.955,-28531.71,-5616.719999999999,-20195.415,-27990.54,-6136.11,2882.115
1764764526.605826,509.58,-410.625,-28528.47,-5613.57,-20192.94,-27988.83,-6134.4,2884.185
1764764526.605826,507.645,-412.02,-28529.145,-5614.56,-20194.965,-27990.675,-6135.03,2882.295
1764764526.605826,509.175,-411.39,-28529.145,-5614.83,-20195.055,-27990.315,-6134.355,2883.69
1764764526.605826,509.58,-413.1,-28529.865,-5615.594999999999,-20195.19,-27989.91,-6134.715,2884.635
1764764526.605826,512.145,-411.525,-28529.19,-5613.929999999999,-20191.905,-27986.67,-6132.645,2886.75
1764764526.605826,511.065,-411.345,-28529.28,-5614.02,-20191.905,-27986.22,-6131.925,2885.715
1764764526.605826,509.67,-413.82,-28531.665,-5614.92,-20192.985,-27988.56,-6133.545,2883.105
1764764526.605826,507.33,-415.08,-28532.43,-5615.415,-20193.39,-27989.73,-6133.905,2880.855
1764764526.605826,509.31,-411.885,-28528.38,-5610.825,-20189.61,-27986.13,-6131.745,2882.88
1764764526.605826,512.46,-408.42,-28523.7,-5605.83,-20184.57,-27981.945,-6128.55,2885.58
1764764526.605826,515.61,-405.54,-28521.495,-5603.355,-20180.565,-27977.22,-6125.219999999999,2889.405
1764764526.605826,513.36,-410.535,-28527.615,-5610.014999999999,-20187.0,-27980.865,-6127.65,2888.01
1764764526.605826,507.555,-417.195,-28534.905,-5618.429999999999,-20195.415,-27989.1,-6133.995,2881.575
1764764526.605826,508.635,-415.395,-28533.465,-5618.115,-20195.955,-27990.09,-6134.13,2882.88
1764764526.605826,507.6,-416.7,-28534.995,-5618.969999999999,-20197.26,-27991.8,-6134.985,2881.53
1764764526.605826,510.345,-413.145,-28531.98,-5615.685,-20194.515,-27988.605,-6132.915,2884.635
1764764526.605826,508.77,-414.72,-28533.465,-5617.44,-20196.18,-27990.045,-6134.49,2883.42
1764764526.6524773,507.24,-416.79,-28535.265,-5618.79,-20196.45,-27990.99,-6135.075,2880.9
1764764526.653209,511.785,-411.885,-28530.09,-5612.76,-20189.655,-27985.455,-6131.79,2884.185
1764764526.653209,510.57,-412.38,-28530.18,-5612.085,-20188.62,-27985.545,-6132.014999999999,2883.105
1764764526.653209,506.16,-417.24,-28534.32,-5617.755,-20194.155,-27989.955,-6135.525,2878.92
1764764526.653209,507.555,-415.35,-28533.51,-5617.755,-20194.56,-27989.73,-6134.804999999999,2880.9
1764764526.653209,512.3249999999999,-411.165,-28529.28,-5613.03,-20190.285,-27985.365,-6132.33,2885.22
1764764526.653209,513.495,-409.905,-28528.065,-5611.365,-20188.17,-27983.43,-6130.53,2885.985
1764764526.653209,513.27,-409.995,-28527.885,-5611.545,-20187.9,-27983.34,-6129.719999999999,2886.21
1764764526.653209,514.71,-408.555,-28527.345,-5610.78,-20187.27,-27982.305,-6128.55,2887.29
1764764526.653209,513.18,-410.265,-28529.73,-5614.065,-20191.185,-27986.715,-6131.565,2885.355
1764764526.653209,510.57,-412.65,-28532.565,-5618.295,-20196.45,-27991.35,-6134.67,2883.24
1764764526.653209,508.005,-414.855,-28534.23,-5619.014999999999,-20197.485,-27993.105,-6135.705,2881.17
1764764526.6542394,512.235,-411.075,-28528.92,-5614.695,-20193.03,-27989.145,-6132.87,2884.995
1764764526.6542394,512.1899999999999,-411.57,-28529.505,-5614.785,-20193.165,-27989.28,-6133.679999999999,2884.545
1764764526.6542394,508.86,-415.755,-28533.51,-5617.8,-20196.135,-27992.43,-6135.255,2880.18
1764764526.6542394,509.895,-414.675,-28532.385,-5616.99,-20194.425,-27990.27,-6133.86,2881.305
1764764526.6542394,512.55,-411.165,-28529.685,-5613.48,-20191.905,-27986.715,-6132.014999999999,2884.68
1764764526.6542394,510.435,-412.335,-28530.315,-5614.514999999999,-20193.21,-27987.795,-6132.105,2882.97
1764764526.6542394,513.855,-408.915,-28526.895,-5610.42,-20188.08,-27983.79,-6129.315,2886.615
1764764526.6542394,512.595,-411.345,-28528.2,-5611.32,-20187.99,-27985.095,-6130.17,2885.58
1764764526.6542394,510.48,-414.0,-28530.765,-5613.795,-20190.51,-27987.3,-6131.205,2882.7
1764764526.6542394,512.055,-411.795,-28529.055,-5611.635,-20188.89,-27984.735,-6129.9,2885.085
1764764526.697895,511.56,-411.525,-28529.055,-5611.77,-20190.015,-27985.23,-6130.215,2884.725
1764764526.697895,511.92,-411.84,-28529.865,-5613.12,-20190.87,-27987.12,-6129.63,2884.41
1764764526.697895,513.9449999999999,-411.525,-28529.685,-5612.94,-20190.96,-27986.04,-6128.865,2885.76
1764764526.697895,517.3199999999999,-407.88,-28526.715,-5610.105,-20187.27,-27982.98,-6127.02,2889.405
1764764526.697895,516.1949999999999,-408.42,-28526.445,-5610.014999999999,-20187.27,-27983.88,-6127.785,2888.91
1764764526.697895,513.27,-410.715,-28527.795,-5611.59,-20188.845,-27985.32,-6128.415,2886.345
1764764526.697895,514.845,-408.735,-28526.04,-5609.835,-20186.37,-27983.115,-6127.469999999999,2888.01
1764764526.697895,510.39,-413.055,-28530.045,-5613.615,-20190.555,-27986.58,-6130.889999999999,2883.735
1764764526.697895,514.035,-409.365,-28526.805,-5609.385,-20186.82,-27983.205,-6127.785,2887.38
1764764526.697895,512.37,-411.48,-28529.055,-5611.815,-20189.565,-27985.5,-6129.36,2885.4
1764764526.6991868,514.98,-409.14,-28526.445,-5610.105,-20188.26,-27983.655,-6129.27,2888.145
1764764526.6991868,512.685,-411.12,-28528.02,-5612.715,-20192.265,-27986.85,-6131.429999999999,2885.265
1764764526.6991868,508.41,-416.34,-28532.34,-5617.8,-20198.025,-27992.52,-6134.264999999999,2880.81
1764764526.6991868,508.5,-416.115,-28531.845,-5618.07,-20198.205,-27992.88,-6134.04,2881.395
1764764526.6991868,509.22,-415.845,-28532.295,-5617.44,-20196.135,-27990.675,-6133.275,2882.925
1764764526.6991868,506.115,-418.995,-28535.58,-5620.365,-20197.755,-27992.61,-6134.985,2879.685
1764764526.6991868,510.435,-414.18,-28529.91,-5614.965,-20192.49,-27988.47,-6132.15,2883.735
1764764526.699718,508.005,-417.645,-28531.305,-5616.764999999999,-20194.515,-27990.945,-6133.23,2880.405
1764764526.699718,507.195,-417.285,-28531.755,-5617.08,-20194.38,-27990.765,-6132.554999999999,2880.225
1764764526.699718,506.16,-418.095,-28533.24,-5617.8,-20194.74,-27991.44,-6133.679999999999,2879.055
1764764526.7002451,505.62,-418.995,-28534.455,-5620.05,-20196.72,-27993.42,-6135.12,2878.38
1764764526.7002451,507.33,-417.105,-28532.385,-5618.205,-20195.595,-27992.295,-6134.31,2879.775
1764764526.7002451,510.255,-413.055,-28528.515,-5612.804999999999,-20190.645,-27986.94,-6131.295,2882.88
1764764526.7002451,507.645,-416.88,-28532.52,-5616.945,-20192.895,-27988.74,-6131.79,2880.585
1764764526.7431865,507.915,-417.555,-28533.69,-5618.655,-20193.615,-27989.415,-6132.33,2881.08
1764764526.7431865,507.15,-418.815,-28535.445,-5619.465,-20195.505,-27991.71,-6133.905,2879.91
1764764526.7431865,509.895,-414.765,-28531.395,-5615.099999999999,-20191.365,-27988.245,-6131.969999999999,2882.655
1764764526.7431865,508.095,-417.015,-28533.15,-5616.764999999999,-20192.94,-27990.18,-6133.32,2880.045
1764764526.7442057,503.685,-422.37,-28538.595,-5623.2,-20198.745,-27996.03,-6137.054999999999,2875.14
1764764526.7442057,503.055,-422.595,-28537.605,-5623.29,-20198.79,-27996.12,-6137.865,2875.05
1764764526.7442057,508.23,-417.015,-28533.645,-5618.295,-20195.37,-27992.205,-6134.219999999999,2879.91
1764764526.7442057,508.815,-415.935,-28533.24,-5617.44,-20194.965,-27992.43,-6133.5,2880.63
1764764526.7442057,508.365,-416.115,-28531.98,-5616.179999999999,-20192.895,-27991.125,-6133.365,2880.495
1764764526.7442057,508.77,-415.44,-28529.865,-5614.335,-20191.14,-27989.1,-6131.79,2881.305
1764764526.7442057,507.465,-417.015,-28531.89,-5616.764999999999,-20194.155,-27991.17,-6133.275,2879.64
1764764526.7442057,508.365,-415.845,-28531.755,-5617.485,-20194.155,-27991.62,-6133.32,2880.72
1764764526.7442057,509.715,-415.62,-28531.71,-5617.304999999999,-20193.57,-27990.135,-6133.275,2882.925
1764764526.7442057,506.385,-419.04,-28535.715,-5621.355,-20195.775,-27991.71,-6134.804999999999,2880.135
1764764526.7442057,502.11,-423.495,-28539.945,-5625.45,-20200.095,-27995.94,-6136.875,2875.185
1764764526.7442057,501.255,-424.305,-28541.745,-5626.349999999999,-20202.345,-27996.93,-6138.27,2874.33
1764764526.7442057,502.605,-422.955,-28541.52,-5625.9,-20202.57,-27997.695,-6138.495,2875.095
1764764526.7442057,505.8,-419.85,-28538.865,-5623.74,-20200.455,-27996.03,-6136.695,2878.515
1764764526.7442057,501.66,-424.035,-28541.295,-5626.17,-20202.795,-27998.55,-6138.09,2873.745
1764764526.7442057,500.67,-425.025,-28541.43,-5625.99,-20201.895,-27997.83,-6138.315,2872.665
1764764526.7442057,500.715,-425.88,-28540.935,-5625.719999999999,-20200.86,-27997.605,-6138.54,2872.08
1764764526.7442057,501.75,-423.63,-28539.225,-5623.83,-20199.375,-27995.58,-6136.74,2873.565
1764764526.791479,503.145,-420.615,-28536.93,-5621.31,-20196.81,-27993.375,-6135.705,2875.725
1764764526.791479,499.41,-424.845,-28541.295,-5625.719999999999,-20200.905,-27998.055,-6138.764999999999,2871.54
1764764526.791479,499.455,-424.935,-28541.34,-5626.304999999999,-20202.03,-27999.36,-6138.54,2871.675
1764764526.791479,503.415,-421.83,-28538.055,-5622.525,-20198.61,-27996.255,-6136.83,2875.635
1764764526.791479,500.715,-424.62,-28540.215,-5623.56,-20200.77,-27997.83,-6137.19,2873.88
1764764526.791479,502.695,-422.415,-28538.46,-5621.804999999999,-20199.105,-27995.58,-6136.245,2874.645
1764764526.791479,504.945,-419.715,-28536.12,-5620.815,-20196.99,-27994.275,-6135.615,2876.355
1764764526.791479,500.22,-423.72,-28539.36,-5624.099999999999,-20200.32,-27998.55,-6137.865,2872.17
1764764526.791479,500.715,-422.595,-28538.01,-5621.94,-20198.88,-27996.48,-6137.325,2872.53
1764764526.791479,505.935,-417.06,-28532.88,-5616.81,-20193.84,-27991.125,-6134.4,2877.93
1764764526.791479,505.26,-417.465,-28532.565,-5617.44,-20194.65,-27991.44,-6134.085,2877.57
1764764526.7925217,502.515,-420.48,-28534.995,-5619.15,-20194.47,-27992.07,-6135.48,2874.645
1764764526.7925217,500.805,-423.495,-28537.605,-5621.895,-20197.665,-27995.355,-6136.785,2873.295
1764764526.7925217,497.61,-428.04,-28544.715,-5629.455,-20206.98,-28004.22,-6141.24,2869.245
1764764526.7925217,497.295,-427.545,-28542.24,-5627.474999999999,-20205.945,-28002.825,-6140.88,2868.975
1764764526.7925217,498.825,-426.015,-28540.17,-5624.19,-20202.165,-28000.17,-6139.755,2870.37
1764764526.7925217,498.285,-426.465,-28541.07,-5624.82,-20202.03,-27999.9,-6139.889999999999,2871.27
1764764526.7925217,499.86,-426.42,-28542.78,-5626.035,-20201.67,-27997.65,-6138.405,2873.61
1764764526.7925217,500.985,-426.015,-28543.095,-5626.395,-20203.155,-27998.46,-6138.045,2873.7
1764764526.7925217,503.28,-423.54,-28540.17,-5625.495,-20203.83,-27999.405,-6137.82,2875.095
1764764526.7925217,504.9,-421.245,-28537.29,-5623.605,-20202.3,-27998.145,-6136.065,2876.76
1764764526.7925217,502.11,-423.54,-28540.035,-5625.764999999999,-20204.82,-28001.475,-6137.73,2873.7
1764764526.7925217,505.035,-421.56,-28537.965,-5623.335,-20202.165,-27999.18,-6136.65,2876.22
1764764526.7925217,505.215,-421.74,-28537.74,-5623.605,-20202.165,-27998.82,-6136.155,2877.345
1764764526.8386545,503.28,-424.89,-28540.26,-5625.945,-20204.91,-28000.665,-6137.775,2874.96
1764764526.8386545,499.86,-428.625,-28543.995,-5630.58,-20208.555,-28004.85,-6141.195,2871.45
1764764526.8386545,502.335,-425.97,-28541.43,-5628.465,-20206.62,-28003.23,-6140.88,2873.385
1764764526.8386545,501.885,-426.825,-28542.06,-5627.79,-20206.395,-28002.33,-6140.745,2871.99
1764764526.8386545,498.06,-430.83,-28545.525,-5631.12,-20208.825,-28005.165,-6143.804999999999,2868.21
1764764526.8386545,500.445,-428.13,-28543.77,-5628.78,-20208.24,-28003.995,-6143.355,2870.595
1764764526.8386545,501.75,-426.6,-28543.095,-5628.06,-20207.79,-28003.275,-6141.285,2871.54
1764764526.8386545,498.33,-430.83,-28546.065,-5631.66,-20210.13,-28006.47,-6143.49,2868.345
1764764526.8386545,499.14,-429.705,-28544.355,-5629.995,-20208.06,-28004.76,-6142.545,2869.38
1764764526.8386545,494.91,-433.17,-28548.54,-5633.775,-20211.57,-28008.63,-6146.145,2865.78
1764764526.8386545,497.385,-431.145,-28546.155,-5631.389999999999,-20208.96,-28005.705,-6144.84,2867.85
1764764526.8386545,499.005,-429.3,-28543.5,-5627.565,-20205.99,-28003.23,-6142.094999999999,2868.795
1764764526.8386545,498.375,-429.12,-28543.995,-5626.755,-20205.855,-28003.275,-6141.735,2868.705
1764764526.8386545,496.26,-430.695,-28546.56,-5629.905,-20209.23,-28006.425,-6143.58,2866.635
1764764526.8386545,496.125,-429.525,-28545.03,-5628.51,-20206.755,-28004.67,-6142.455,2867.445
1764764526.8391745,498.195,-427.995,-28543.275,-5626.215,-20204.28,-28001.88,-6141.105,2869.11
1764764526.8391745,500.805,-425.205,-28541.385,-5623.92,-20201.49,-27998.37,-6139.53,2871.18
1764764526.8391745,499.14,-427.095,-28543.275,-5625.719999999999,-20202.165,-27999.315,-6139.844999999999,2870.235
1764764526.8391745,499.005,-428.265,-28544.31,-5627.115,-20204.82,-28001.835,-6140.07,2870.28
1764764526.8391745,496.89,-431.055,-28547.1,-5630.13,-20209.14,-28006.02,-6142.905,2867.13
1764764526.8391745,500.13,-427.23,-28542.33,-5626.53,-20204.55,-28002.69,-6141.24,2870.19
1764764526.8391745,500.04,-426.42,-28541.79,-5625.855,-20204.415,-28003.005,-6141.599999999999,2869.74
1764764526.8391745,499.14,-426.69,-28541.43,-5625.495,-20203.92,-28002.915,-6142.139999999999,2868.705
1764764526.8391745,495.675,-430.785,-28544.445,-5628.195,-20207.16,-28005.03,-6144.12,2865.735
1764764526.8848968,492.795,-434.835,-28550.34,-5633.73,-20211.39,-28008.045,-6145.56,2863.215
1764764526.8848968,495.9,-431.01,-28548.0,-5631.12,-20210.22,-28006.11,-6143.715,2866.95
1764764526.8848968,501.03,-425.205,-28542.78,-5626.125,-20205.9,-28002.24,-6140.79,2871.63
1764764526.8848968,499.95,-426.42,-28544.22,-5626.889999999999,-20205.9,-28002.915,-6141.06,2870.73
1764764526.8848968,498.06,-428.265,-28545.93,-5628.375,-20205.54,-28002.87,-6141.33,2869.065
1764764526.8848968,498.195,-428.445,-28545.75,-5627.429999999999,-20205.36,-28002.33,-6141.105,2869.335
1764764526.8848968,494.415,-432.27,-28547.73,-5629.545,-20208.195,-28006.29,-6143.849999999999,2865.375
1764764526.8848968,494.82,-432.045,-28547.37,-5629.005,-20207.295,-28005.84,-6143.67,2865.195
1764764526.8848968,496.935,-428.94,-28544.94,-5626.98,-20206.215,-28004.22,-6141.014999999999,2867.58
1764764526.8848968,499.275,-426.51,-28542.87,-5625.855,-20205.27,-28002.42,-6140.025,2869.785
1764764526.8848968,501.255,-426.195,-28542.24,-5625.045,-20204.73,-28001.25,-6140.16,2870.955
1764764526.8848968,500.355,-427.995,-28543.365,-5626.395,-20206.44,-28002.555,-6140.34,2868.975
1764764526.8848968,502.515,-426.015,-28542.825,-5624.37,-20204.73,-28000.53,-6138.719999999999,2871.045
1764764526.8848968,496.755,-431.28,-28548.0,-5630.04,-20209.77,-28004.985,-6142.455,2866.77
1764764526.8848968,497.61,-429.93,-28546.2,-5629.05,-20208.735,-28003.995,-6141.78,2867.175
1764764526.8848968,499.41,-427.725,-28542.78,-5626.395,-20206.17,-28001.295,-6140.34,2869.38
1764764526.8848968,495.63,-430.605,-28546.02,-5629.139999999999,-20209.32,-28005.12,-6142.815,2867.13
1764764526.8848968,498.645,-429.48,-28544.22,-5626.889999999999,-20206.62,-28003.32,-6141.78,2869.2
1764764526.8848968,498.78,-429.75,-28544.13,-5626.62,-20205.63,-28002.87,-6142.094999999999,2868.66
1764764526.8848968,498.105,-430.56,-28544.04,-5627.16,-20206.395,-28002.96,-6142.005,2868.03
1764764526.8848968,497.61,-431.145,-28544.535,-5627.969999999999,-20207.07,-28003.95,-6142.724999999999,2867.76
1764764526.8848968,496.98,-431.505,-28544.94,-5627.565,-20206.62,-28003.995,-6143.04,2866.455
1764764526.8860283,496.53,-431.865,-28544.355,-5627.07,-20206.575,-28003.455,-6142.77,2866.86
1764764526.8860283,494.64,-433.53,-28547.415,-5630.58,-20210.85,-28007.235,-6144.525,2865.465
1764764526.937184,497.835,-430.695,-28545.255,-5628.42,-20209.14,-28005.75,-6142.365,2867.625
1764764526.937184,494.415,-434.295,-28548.18,-5631.705,-20212.245,-28008.9,-6143.895,2864.43
1764764526.937184,496.755,-432.225,-28546.695,-5630.355,-20210.265,-28007.01,-6142.815,2866.005
1764764526.937184,500.22,-429.615,-28543.725,-5627.429999999999,-20207.205,-28004.085,-6140.925,2869.335
1764764526.937184,496.26,-433.395,-28546.965,-5630.76,-20210.49,-28007.28,-6143.67,2865.78
1764764526.937184,496.62,-432.585,-28546.065,-5630.445,-20209.32,-28006.605,-6143.04,2866.41
1764764526.937184,500.94,-427.995,-28541.43,-5625.99,-20204.415,-28002.285,-6139.98,2870.865
1764764526.937184,502.47,-426.24,-28539.045,-5623.695,-20202.84,-28000.215,-6137.865,2872.575
1764764526.937184,502.695,-425.25,-28538.28,-5622.525,-20202.165,-27999.09,-6136.245,2873.565
1764764526.937184,499.32,-429.345,-28542.78,-5626.26,-20206.89,-28003.815,-6140.115,2868.975
1764764526.937184,500.265,-428.22,-28540.8,-5625.315,-20206.08,-28003.32,-6139.304999999999,2868.66
1764764526.937184,502.38,-425.52,-28537.02,-5622.255,-20203.29,-28000.98,-6137.37,2871.135
1764764526.937184,504.36,-423.18,-28534.635,-5621.264999999999,-20201.76,-27999.045,-6136.74,2874.285
1764764526.937184,500.49,-427.77,-28539.495,-5625.315,-20205.945,-28001.79,-6138.99,2870.64
1764764526.937184,498.645,-430.65,-28543.5,-5628.87,-20207.385,-28002.195,-6138.945,2868.885
1764764526.937184,501.66,-428.085,-28542.33,-5626.485,-20205.18,-27999.945,-6137.639999999999,2871.405
1764764526.937184,499.59,-428.94,-28542.465,-5626.889999999999,-20206.44,-28002.015,-6138.945,2869.38
1764764526.937184,499.995,-428.535,-28540.53,-5624.955,-20205.945,-28001.475,-6138.09,2869.47
1764764526.937184,502.92,-425.745,-28537.92,-5622.75,-20203.425,-27998.775,-6137.235,2872.08
1764764526.937184,501.21,-427.14,-28540.575,-5625.495,-20205.405,-28000.665,-6139.08,2870.01
1764764526.9800448,499.23,-429.075,-28543.365,-5627.385,-20207.52,-28002.195,-6140.025,2868.66
1764764526.9800448,498.33,-429.615,-28543.815,-5627.385,-20207.34,-28001.97,-6139.71,2868.345
1764764526.9800448,495.315,-433.755,-28547.775,-5631.795,-20210.895,-28004.715,-6141.69,2866.005
1764764526.9800448,490.77,-439.83,-28553.715,-5638.139999999999,-20216.655,-28010.52,-6145.469999999999,2860.47
1764764526.9814637,491.895,-438.12,-28552.185,-5636.205,-20214.99,-28009.395,-6145.02,2861.01
1764764526.9814637,497.115,-433.665,-28547.28,-5630.76,-20209.77,-28004.58,-6142.094999999999,2866.185
1764764526.9814637,496.35,-433.395,-28546.605,-5630.355,-20208.69,-28004.49,-6141.42,2866.86
1764764526.9814637,494.685,-433.98,-28547.01,-5631.03,-20209.41,-28006.065,-6142.41,2865.24
1764764526.9814637,498.465,-429.3,-28542.33,-5625.945,-20205.405,-28002.195,-6139.44,2868.255
1764764526.9814637,498.33,-430.38,-28542.51,-5625.9,-20205.765,-28003.32,-6139.62,2868.075
1764764526.9814637,495.81,-432.045,-28544.58,-5628.195,-20207.97,-28006.155,-6140.88,2865.645
1764764526.9814637,498.69,-428.58,-28541.25,-5624.82,-20205.495,-28003.86,-6138.135,2868.12
1764764526.9814637,500.535,-426.915,-28538.82,-5622.57,-20204.73,-28002.375,-6137.73,2868.705
1764764526.9814637,501.975,-424.53,-28536.795,-5620.724999999999,-20202.57,-28001.34,-6138.045,2869.83
1764764526.9814637,497.07,-430.065,-28543.59,-5627.52,-20206.89,-28006.155,-6141.465,2865.735
1764764526.9814637,495.45,-433.305,-28548.54,-5631.255,-20208.195,-28005.165,-6142.77,2865.555
1764764526.9814637,491.085,-437.715,-28553.04,-5634.945,-20210.94,-28007.145,-6144.48,2862.495
1764764526.9814637,494.685,-434.07,-28548.09,-5630.04,-20207.115,-28003.86,-6141.51,2865.105
1764764526.9828942,499.455,-428.805,-28541.7,-5623.92,-20202.255,-28000.17,-6138.81,2868.255
1764764526.9828942,497.52,-429.84,-28540.8,-5623.155,-20203.245,-28002.915,-6140.655,2865.51
1764764526.9828942,498.87,-427.905,-28538.325,-5620.545,-20200.365,-28000.665,-6139.575,2867.085
1764764526.9828942,502.335,-423.855,-28535.895,-5619.285,-20199.42,-27998.82,-6137.37,2870.28
1764764526.9828942,498.105,-427.455,-28541.655,-5625.63,-20206.26,-28003.725,-6139.889999999999,2867.31
1764764526.9828942,496.755,-429.93,-28544.715,-5628.195,-20207.34,-28003.815,-6140.745,2868.075
1764764526.9828942,493.83,-434.205,-28549.89,-5633.19,-20211.03,-28006.83,-6142.724999999999,2865.6
1764764526.9828942,490.995,-437.715,-28553.715,-5636.7,-20215.305,-28011.24,-6145.425,2861.505
1764764527.0269957,493.02,-435.555,-28551.15,-5634.179999999999,-20214.045,-28010.115,-6145.155,2863.665
1764764527.0269957,494.325,-434.16,-28548.225,-5632.29,-20213.28,-28009.17,-6144.525,2863.98
1764764527.0269957,501.66,-426.645,-28541.205,-5625.045,-20205.405,-28000.935,-6138.315,2870.28
1764764527.0269957,500.265,-427.365,-28542.555,-5626.26,-20205.63,-28001.25,-6138.315,2868.885
1764764527.0269957,499.095,-427.005,-28541.205,-5625.36,-20205.315,-28003.365,-6138.495,2867.85
1764764527.0269957,497.7,-427.995,-28542.375,-5625.9,-20206.215,-28005.975,-6139.575,2865.735
1764764527.0269957,502.02,-423.585,-28537.83,-5621.715,-20202.39,-28003.005,-6137.73,2869.38
1764764527.0269957,500.895,-423.765,-28536.66,-5621.219999999999,-20202.975,-28003.275,-6138.855,2868.39
1764764527.0269957,506.52,-415.89,-28527.345,-5612.355,-20196.18,-27998.415,-6135.48,2872.305
1764764527.0269957,509.175,-411.84,-28521.945,-5606.82,-20192.49,-27996.66,-6133.995,2873.61
1764764527.0281756,503.01,-419.67,-28530.0,-5614.38,-20197.395,-28000.26,-6137.28,2869.02
1764764527.0281756,499.23,-428.67,-28540.98,-5624.37,-20200.905,-28000.08,-6138.45,2867.94
1764764527.0281756,495.99,-433.665,-28548.045,-5630.804999999999,-20204.28,-28001.43,-6139.304999999999,2866.275
1764764527.0281756,496.62,-432.135,-28546.605,-5628.78,-20204.775,-28002.915,-6139.08,2867.31
1764764527.0281756,499.095,-428.58,-28541.295,-5625.315,-20205.36,-28004.445,-6138.54,2868.075
1764764527.0281756,504.945,-421.47,-28533.42,-5618.115,-20201.715,-28001.43,-6135.12,2872.53
1764764527.0281756,504.045,-420.12,-28529.865,-5615.415,-20201.04,-28002.15,-6135.48,2871.0
1764764527.0281756,508.32,-414.765,-28522.755,-5608.53,-20196.36,-27998.955,-6133.815,2874.015
1764764527.0281756,507.06,-415.485,-28522.17,-5608.98,-20198.34,-28001.115,-6136.02,2871.9
1764764527.0281756,503.01,-421.92,-28528.92,-5614.965,-20200.77,-28003.005,-6138.585,2867.895
1764764527.0281756,499.545,-429.615,-28539.81,-5625.63,-20205.405,-28004.625,-6140.61,2866.86
1764764527.0281756,497.52,-432.72,-28543.005,-5628.375,-20207.835,-28005.3,-6139.755,2865.645
1764764527.0281756,502.425,-426.465,-28535.895,-5619.87,-20199.915,-27999.36,-6135.705,2869.335
1764764527.0281756,501.12,-423.765,-28530.495,-5615.235,-20199.87,-28002.195,-6137.594999999999,2866.32
1764764527.0755217,502.92,-421.155,-28527.39,-5613.165,-20199.825,-28002.645,-6137.37,2867.22
1764764527.0755217,498.15,-430.605,-28542.735,-5626.755,-20206.08,-28003.995,-6139.215,2866.14
1764764527.0755217,491.445,-442.305,-28558.215,-5640.615,-20214.45,-28008.945,-6143.264999999999,2862.45
1764764527.0755217,494.01,-439.155,-28552.815,-5636.07,-20214.045,-28009.89,-6143.849999999999,2862.585
1764764527.0755217,498.51,-429.975,-28540.215,-5624.594999999999,-20209.14,-28008.405,-6142.905,2863.98
1764764527.0755217,497.88,-429.255,-28538.955,-5622.929999999999,-20207.295,-28007.73,-6142.5,2863.755
1764764527.0755217,498.15,-430.74,-28542.645,-5626.304999999999,-20207.79,-28006.425,-6140.25,2865.51
1764764527.0755217,496.575,-434.88,-28548.315,-5631.795,-20210.805,-28008.495,-6140.295,2863.26
1764764527.0755217,495.63,-437.22,-28552.23,-5634.36,-20210.265,-28006.65,-6139.889999999999,2864.34
1764764527.0755217,491.4,-442.71,-28558.755,-5639.31,-20213.595,-28009.035,-6142.679999999999,2861.37
1764764527.0765407,491.67,-442.17,-28557.405,-5638.23,-20213.64,-28009.215,-6142.679999999999,2861.82
1764764527.0765407,494.955,-435.465,-28549.305,-5630.715,-20209.995,-28008.36,-6141.69,2862.495
1764764527.0765407,500.22,-425.34,-28535.85,-5619.014999999999,-20203.695,-28005.795,-6138.495,2864.88
1764764527.0765407,502.56,-420.885,-28529.595,-5613.435,-20201.04,-28004.04,-6136.469999999999,2866.635
1764764527.0765407,503.28,-420.66,-28531.08,-5615.325,-20201.49,-28003.59,-6135.615,2867.805
1764764527.0765407,496.44,-429.93,-28542.915,-5627.205,-20210.76,-28010.16,-6140.25,2862.0
1764764527.0765407,496.26,-431.82,-28544.49,-5628.24,-20210.22,-28008.585,-6139.889999999999,2862.72
1764764527.0765407,497.97,-431.64,-28543.5,-5626.08,-20205.81,-28004.13,-6138.27,2864.925
1764764527.0765407,501.3,-425.295,-28536.165,-5620.41,-20204.325,-28004.715,-6137.145,2865.915
1764764527.0765407,500.13,-423.09,-28532.7,-5618.655,-20207.79,-28010.25,-6139.215,2863.665
1764764527.0765407,491.445,-437.58,-28551.195,-5636.34,-20218.32,-28016.46,-6143.849999999999,2857.77
1764764527.0765407,480.825,-456.075,-28575.315,-5657.67,-20228.85,-28020.6,-6148.8,2852.235
1764764527.0765407,483.48,-453.78,-28572.525,-5654.115,-20225.61,-28018.44,-6147.63,2855.25
1764764527.0765407,484.695,-451.215,-28567.17,-5649.389999999999,-20223.27,-28018.035,-6146.37,2855.655
1764764527.1199274,489.42,-444.69,-28560.87,-5642.73,-20219.265,-28014.48,-6143.625,2858.985
1764764527.1199274,487.62,-445.365,-28561.32,-5642.73,-20221.11,-28017.765,-6145.74,2856.33
1764764527.1199274,489.645,-443.7,-28558.125,-5640.12,-20218.995,-28016.64,-6144.525,2858.13
1764764527.1199274,494.055,-439.74,-28553.715,-5635.755,-20214.99,-28012.14,-6141.42,2861.955
1764764527.1199274,494.145,-439.155,-28551.69,-5633.865,-20213.955,-28012.005,-6141.78,2862.09
1764764527.1199274,493.65,-439.38,-28551.78,-5633.505,-20214.54,-28013.355,-6142.5,2860.695
1764764527.1199274,497.205,-434.565,-28547.19,-5628.465,-20210.49,-28009.53,-6139.304999999999,2863.71
1764764527.121227,495.045,-436.635,-28548.63,-5630.31,-20212.02,-28011.195,-6139.304999999999,2862.0
1764764527.121227,498.285,-433.89,-28544.895,-5626.62,-20207.925,-28008.0,-6136.74,2865.51
1764764527.121227,501.57,-430.65,-28540.845,-5622.525,-20203.74,-28004.58,-6134.04,2868.48
1764764527.121227,501.885,-428.94,-28538.955,-5620.5,-20202.885,-28003.05,-6133.139999999999,2869.335
1764764527.121227,499.86,-432.18,-28542.915,-5624.955,-20207.07,-28006.92,-6135.974999999999,2867.22
1764764527.121227,494.775,-438.12,-28550.97,-5632.38,-20213.505,-28013.04,-6139.844999999999,2862.63
1764764527.121227,497.745,-434.88,-28548.54,-5628.87,-20210.715,-28010.295,-6137.594999999999,2865.96
1764764527.121227,500.31,-432.225,-28545.255,-5626.44,-20209.095,-28008.63,-6136.38,2867.76
1764764527.121227,498.735,-433.755,-28545.84,-5627.969999999999,-20210.985,-28010.52,-6138.0,2866.275
1764764527.121227,498.06,-436.14,-28548.045,-5630.804999999999,-20213.73,-28012.32,-6138.27,2865.78
1764764527.121227,496.44,-438.39,-28551.33,-5634.719999999999,-20217.24,-28014.75,-6140.07,2864.43
1764764527.121227,499.545,-434.97,-28547.415,-5630.219999999999,-20212.74,-28010.88,-6138.36,2867.04
1764764527.121227,498.735,-434.205,-28545.705,-5628.69,-20212.2,-28010.79,-6138.495,2866.59
1764764527.121227,499.32,-433.26,-28544.04,-5627.205,-20212.11,-28010.34,-6138.179999999999,2866.185
1764764527.121227,498.735,-434.34,-28544.85,-5627.07,-20212.155,-28011.6,-6139.304999999999,2865.33
1764764527.1679468,494.73,-437.13,-28547.145,-5629.365,-20214.36,-28014.705,-6142.185,2860.83
1764764527.1679468,497.88,-434.52,-28545.525,-5626.98,-20211.93,-28011.465,-6140.429999999999,2863.575
1764764527.1679468,496.26,-437.31,-28549.305,-5630.849999999999,-20213.73,-28012.77,-6140.429999999999,2863.17
1764764527.1679468,492.165,-441.09,-28553.58,-5634.9,-20216.655,-28015.335,-6142.77,2859.57
1764764527.1679468,495.855,-436.23,-28548.495,-5629.094999999999,-20211.165,-28010.88,-6140.34,2863.305
1764764527.1679468,495.18,-436.41,-28548.09,-5628.42,-20211.12,-28011.69,-6140.07,2862.945
1764764527.1679468,492.21,-440.01,-28551.6,-5632.425,-20215.35,-28015.785,-6142.365,2858.85
1764764527.1679468,494.595,-436.32,-28548.135,-5629.679999999999,-20214.405,-28015.785,-6141.735,2860.785
1764764527.1679468,499.23,-430.92,-28542.69,-5625.315,-20212.11,-28014.255,-6140.295,2864.52
1764764527.1679468,495.585,-433.935,-28545.84,-5628.24,-20215.26,-28016.235,-6142.23,2860.83
1764764527.1679468,494.685,-436.455,-28549.53,-5630.985,-20216.205,-28016.37,-6143.175,2860.83
1764764527.1679468,493.11,-440.685,-28554.39,-5634.99,-20218.545,-28017.405,-6144.389999999999,2859.795
1764764527.1679468,491.22,-443.745,-28558.125,-5637.645,-20219.535,-28016.865,-6143.085,2858.76
1764764527.1679468,488.925,-445.455,-28558.305,-5637.87,-20220.885,-28019.475,-6145.155,2855.97
1764764527.1679468,493.515,-439.29,-28550.835,-5630.804999999999,-20215.53,-28015.38,-6143.219999999999,2860.335
1764764527.1679468,495.36,-435.15,-28544.535,-5624.73,-20212.065,-28012.905,-6141.105,2862.405
1764764527.1679468,495.405,-433.98,-28542.285,-5622.57,-20211.075,-28012.815,-6140.295,2861.595
1764764527.169261,497.52,-431.28,-28540.08,-5621.264999999999,-20211.075,-28013.13,-6139.44,2863.17
1764764527.169261,499.995,-429.165,-28538.64,-5621.445,-20212.065,-28014.345,-6139.53,2864.565
1764764527.169261,500.175,-429.795,-28539.585,-5622.165,-20211.615,-28013.715,-6139.44,2864.97
1764764527.169261,493.425,-438.12,-28550.295,-5630.76,-20217.915,-28018.53,-6143.31,2859.885
1764764527.169261,491.85,-442.53,-28556.235,-5636.25,-20217.24,-28016.055,-6141.554999999999,2861.19
1764764527.169261,491.04,-445.32,-28559.07,-5638.41,-20217.51,-28015.335,-6141.285,2860.56
1764764527.169261,492.48,-442.665,-28554.075,-5631.66,-20213.685,-28013.355,-6140.52,2861.235
1764764527.212172,492.525,-441.09,-28552.275,-5627.969999999999,-20209.59,-28009.89,-6138.855,2861.55
1764764527.212172,491.94,-440.37,-28550.655,-5626.035,-20209.455,-28010.52,-6138.855,2860.47
1764764527.212172,495.09,-436.23,-28546.695,-5623.065,-20207.79,-28010.385,-6138.495,2863.17
1764764527.212172,496.98,-435.15,-28547.28,-5625.675,-20210.67,-28012.23,-6138.179999999999,2863.935
1764764527.212172,493.875,-440.055,-28554.66,-5634.9,-20218.545,-28017.945,-6141.285,2861.64
1764764527.212172,490.77,-443.745,-28558.53,-5640.165,-20222.82,-28021.005,-6142.86,2858.94
1764764527.212172,495.27,-438.57,-28551.915,-5632.74,-20216.88,-28015.155,-6139.844999999999,2862.63
1764764527.2126958,497.25,-435.69,-28548.585,-5626.395,-20212.11,-28010.97,-6137.775,2863.98
1764764527.2126958,498.645,-434.565,-28547.73,-5625.179999999999,-20209.995,-28009.17,-6135.389999999999,2865.555
1764764527.2126958,496.44,-437.715,-28552.815,-5630.715,-20214.405,-28012.815,-6136.695,2863.575
1764764527.2126958,491.715,-443.205,-28559.745,-5640.795,-20222.865,-28018.62,-6139.575,2859.705
1764764527.2126958,493.695,-440.865,-28557.54,-5642.28,-20225.205,-28019.295,-6138.945,2861.91
1764764527.2126958,493.92,-441.765,-28558.755,-5644.755,-20226.645,-28020.555,-6139.71,2862.315
1764764527.2126958,494.28,-442.62,-28561.23,-5646.735,-20226.33,-28017.9,-6139.08,2862.855
1764764527.2126958,488.52,-446.265,-28563.66,-5649.03,-20228.895,-28021.095,-6142.77,2857.815
1764764527.2126958,490.545,-440.955,-28557.225,-5640.255,-20222.505,-28019.07,-6141.87,2858.445
1764764527.2126958,495.405,-433.485,-28547.775,-5628.78,-20213.775,-28014.93,-6138.855,2861.145
1764764527.2126958,499.95,-427.455,-28537.83,-5618.52,-20208.06,-28011.69,-6136.605,2864.655
1764764527.2126958,499.95,-427.23,-28535.985,-5615.594999999999,-20207.295,-28011.645,-6137.054999999999,2864.835
1764764527.2126958,493.11,-436.14,-28547.1,-5625.27,-20215.215,-28017.585,-6141.285,2858.85
1764764527.2126958,493.47,-436.275,-28548.45,-5626.71,-20217.195,-28018.035,-6141.599999999999,2859.57
1764764527.2126958,495.855,-435.465,-28547.73,-5626.26,-20215.215,-28015.38,-6139.17,2862.72
1764764527.2585154,493.335,-440.685,-28553.4,-5630.49,-20215.98,-28014.165,-6139.215,2861.415
1764764527.2585154,493.245,-439.695,-28552.455,-5629.679999999999,-20214.765,-28013.805,-6138.764999999999,2861.46
1764764527.2585154,493.695,-436.86,-28550.34,-5630.219999999999,-20217.735,-28017.855,-6139.62,2860.335
1764764527.259025,493.965,-437.58,-28551.87,-5634.135,-20220.21,-28018.53,-6140.565,2859.93
1764764527.259025,489.24,-443.43,-28557.945,-5640.57,-20224.35,-28021.545,-6143.04,2856.33
1764764527.259025,494.685,-438.48,-28552.005,-5634.09,-20218.995,-28016.145,-6139.08,2861.955
1764764527.259025,495.09,-436.995,-28549.89,-5631.615,-20218.365,-28015.695,-6138.45,2861.73
1764764527.259025,493.335,-438.615,-28550.97,-5631.84,-20220.615,-28018.44,-6140.655,2858.31
1764764527.259025,497.7,-433.62,-28544.355,-5625.855,-20216.97,-28015.92,-6138.764999999999,2861.415
1764764527.259025,494.64,-437.22,-28548.27,-5630.085,-20218.95,-28017.45,-6139.8,2860.785
1764764527.259025,488.025,-446.04,-28559.79,-5639.985,-20224.8,-28021.77,-6142.995,2856.15
1764764527.259025,487.845,-446.265,-28560.24,-5640.075,-20224.98,-28020.87,-6143.445,2856.105
1764764527.259025,488.16,-447.12,-28560.15,-5640.255,-20223.495,-28018.035,-6142.32,2856.87
1764764527.259025,484.2,-449.865,-28563.21,-5643.179999999999,-20225.52,-28019.97,-6144.12,2853.54
1764764527.259025,490.32,-442.755,-28556.415,-5636.07,-20219.985,-28015.11,-6141.33,2857.68
1764764527.259025,493.875,-438.885,-28551.33,-5631.705,-20216.745,-28012.545,-6139.17,2859.795
1764764527.259025,495.405,-436.995,-28548.855,-5630.264999999999,-20215.98,-28012.05,-6137.865,2861.235
1764764527.259025,490.5,-441.18,-28554.48,-5636.52,-20222.55,-28018.62,-6140.565,2856.78
1764764527.259025,489.96,-441.405,-28555.38,-5638.455,-20224.89,-28020.96,-6142.23,2856.645
1764764527.259025,494.01,-436.635,-28550.52,-5633.235,-20221.785,-28019.295,-6140.429999999999,2860.29
1764764527.259025,491.355,-438.84,-28552.455,-5634.405,-20222.775,-28020.69,-6141.285,2858.31
1764764527.259025,495.945,-435.96,-28548.99,-5629.59,-20216.115,-28014.165,-6137.639999999999,2862.585
1764764527.259025,496.755,-433.575,-28545.525,-5627.295,-20214.855,-28013.715,-6136.514999999999,2862.63
1764764527.259025,492.345,-437.715,-28550.295,-5632.02,-20218.86,-28016.595,-6139.08,2858.805
1764764527.3083346,493.38,-437.94,-28550.745,-5632.155,-20216.835,-28013.715,-6137.19,2860.83
1764764527.3083346,494.145,-437.265,-28549.125,-5631.344999999999,-20217.42,-28014.345,-6137.19,2860.155
1764764527.3083346,494.505,-437.58,-28551.555,-5632.875,-20217.195,-28012.545,-6136.695,2861.775
1764764527.3083346,488.88,-442.755,-28558.26,-5638.23,-20220.885,-28015.605,-6139.08,2857.59
1764764527.3083346,490.005,-439.92,-28553.76,-5634.0,-20217.915,-28014.66,-6138.495,2858.265
1764764527.3088462,494.73,-435.645,-28548.945,-5628.465,-20213.73,-28011.42,-6135.03,2862.495
1764764527.3088462,492.03,-438.48,-28552.23,-5631.525,-20216.565,-28014.615,-6136.2,2859.66
1764764527.3088462,492.03,-438.615,-28552.68,-5632.469999999999,-20216.835,-28014.39,-6136.74,2860.155
1764764527.3088462,494.865,-436.68,-28551.51,-5630.985,-20215.17,-28012.14,-6134.804999999999,2863.035
1764764527.3088462,493.38,-437.94,-28551.735,-5631.03,-20216.295,-28012.545,-6134.76,2861.1
1764764527.3088462,493.155,-437.67,-28548.99,-5629.005,-20215.215,-28012.365,-6135.48,2859.885
1764764527.3088462,497.925,-431.28,-28542.78,-5623.469999999999,-20209.815,-28007.46,-6132.15,2864.16
1764764527.3088462,498.87,-429.165,-28540.8,-5622.57,-20210.715,-28008.72,-6132.825,2864.07
1764764527.3088462,495.945,-432.765,-28544.67,-5626.889999999999,-20215.71,-28013.22,-6136.335,2861.01
1764764527.3088462,492.93,-437.175,-28549.17,-5629.995,-20216.925,-28014.255,-6137.28,2858.985
1764764527.3088462,490.23,-441.945,-28554.165,-5634.719999999999,-20218.995,-28015.29,-6138.045,2856.645
1764764527.3088462,485.955,-446.67,-28560.15,-5642.325,-20225.655,-28020.195,-6141.375,2853.36
1764764527.3088462,484.605,-449.865,-28565.19,-5645.429999999999,-20226.42,-28020.69,-6141.78,2853.135
1764764527.3088462,486.675,-448.38,-28564.335,-5643.855,-20223.54,-28018.125,-6141.014999999999,2855.25
1764764527.3088462,483.885,-450.765,-28567.305,-5646.15,-20226.015,-28019.97,-6142.59,2853.18
1764764527.3088462,486.495,-447.21,-28562.265,-5641.38,-20223.045,-28017.99,-6142.545,2854.935
1764764527.3088462,487.53,-444.555,-28559.52,-5639.67,-20221.92,-28018.215,-6142.365,2855.61
1764764527.3522046,489.195,-441.99,-28557.63,-5638.23,-20220.255,-28016.73,-6140.655,2856.735
1764764527.3522046,489.06,-441.99,-28556.73,-5637.195,-20221.02,-28017.09,-6140.7,2856.555
1764764527.3522046,487.98,-442.53,-28557.0,-5637.554999999999,-20221.65,-28018.53,-6140.88,2854.53
1764764527.3522046,490.005,-440.64,-28553.625,-5633.82,-20217.195,-28015.92,-6138.09,2855.745
1764764527.3522046,493.335,-437.715,-28550.07,-5629.455,-20213.82,-28012.365,-6135.84,2858.535
1764764527.3522046,490.77,-440.28,-28552.815,-5632.605,-20218.05,-28015.605,-6137.46,2856.645
1764764527.3522046,490.86,-440.775,-28553.715,-5634.179999999999,-20220.03,-28016.955,-6138.045,2857.095
1764764527.3522046,492.03,-439.47,-28552.275,-5634.179999999999,-20221.155,-28017.99,-6137.37,2858.445
1764764527.3522046,492.075,-439.92,-28553.49,-5635.665,-20222.91,-28019.655,-6138.27,2857.995
1764764527.3522046,492.48,-439.335,-28552.68,-5634.045,-20219.76,-28017.765,-6137.73,2857.635
1764764527.3522046,495.405,-435.42,-28548.45,-5629.5,-20217.06,-28014.48,-6136.245,2859.93
1764764527.3522046,488.16,-443.385,-28557.945,-5638.59,-20225.07,-28020.69,-6141.375,2853.45
1764764527.3527124,488.925,-444.105,-28558.98,-5639.04,-20222.955,-28018.395,-6139.889999999999,2856.06
1764764527.3527124,489.96,-444.33,-28558.44,-5639.355,-20222.505,-28018.305,-6138.224999999999,2857.995
1764764527.3527124,486.675,-448.245,-28563.66,-5644.62,-20226.87,-28021.14,-6140.25,2854.98
1764764527.3527124,485.595,-448.74,-28563.93,-5644.71,-20226.555,-28021.5,-6140.07,2853.63
1764764527.3527124,492.48,-439.92,-28552.86,-5633.37,-20218.095,-28015.155,-6135.84,2859.435
1764764527.3527124,495.495,-434.97,-28545.705,-5625.99,-20213.55,-28011.195,-6133.275,2862.0
1764764527.3527124,494.325,-435.87,-28545.705,-5626.349999999999,-20213.37,-28011.42,-6133.77,2859.57
1764764527.3527124,495.315,-435.015,-28546.155,-5626.125,-20212.11,-28008.99,-6132.014999999999,2862.27
1764764527.3527124,492.21,-439.875,-28553.985,-5631.885,-20216.25,-28011.195,-6133.77,2860.785
1764764527.3527124,489.6,-442.305,-28555.155,-5633.145,-20217.915,-28013.76,-6136.92,2856.24
1764764527.3527124,491.49,-439.2,-28549.89,-5627.835,-20214.405,-28012.365,-6135.705,2856.015
1764764527.3527124,497.7,-433.125,-28544.715,-5621.94,-20208.51,-28006.875,-6131.7,2861.91
1764764527.3985891,492.885,-440.64,-28553.445,-5629.5,-20212.155,-28009.62,-6133.094999999999,2859.165
1764764527.3985891,491.265,-443.205,-28556.865,-5632.38,-20213.055,-28009.17,-6133.679999999999,2858.985
1764764527.3985891,487.845,-446.85,-28561.545,-5637.78,-20218.365,-28013.22,-6135.84,2855.25
1764764527.3985891,489.375,-444.24,-28558.53,-5636.295,-20216.97,-28012.365,-6135.12,2856.735
1764764527.3985891,491.535,-441.855,-28555.605,-5633.145,-20215.08,-28010.97,-6134.58,2858.355
1764764527.3985891,490.275,-442.71,-28555.47,-5633.415,-20217.555,-28013.49,-6136.29,2856.6
1764764527.3985891,494.28,-437.625,-28550.07,-5629.094999999999,-20214.765,-28012.365,-6135.075,2860.335
1764764527.3985891,493.335,-437.895,-28550.52,-5629.5,-20216.565,-28014.165,-6135.255,2859.525
1764764527.399096,491.625,-440.37,-28553.85,-5630.58,-20217.015,-28014.615,-6135.705,2857.185
1764764527.399096,494.01,-437.13,-28547.91,-5625.0,-20211.165,-28010.205,-6132.69,2858.355
1764764527.399096,495.135,-435.105,-28546.245,-5623.875,-20210.985,-28009.575,-6131.429999999999,2860.245
1764764527.399096,493.335,-440.145,-28554.255,-5630.849999999999,-20214.63,-28010.565,-6131.565,2860.38
1764764527.399096,493.38,-440.73,-28556.28,-5632.83,-20215.44,-28010.655,-6131.925,2859.975
1764764527.399096,493.65,-440.55,-28555.785,-5633.099999999999,-20215.8,-28010.43,-6133.139999999999,2860.155
1764764527.399096,486.36,-449.64,-28567.35,-5643.179999999999,-20223.36,-28016.055,-6137.19,2854.755
1764764527.399096,487.485,-448.29,-28566.72,-5641.469999999999,-20221.74,-28014.705,-6135.929999999999,2856.33
1764764527.399096,492.255,-442.305,-28559.565,-5634.27,-20216.025,-28009.845,-6133.05,2860.38
1764764527.399096,491.085,-442.845,-28558.845,-5634.45,-20216.97,-28011.24,-6135.3,2858.985
1764764527.399096,489.6,-444.24,-28559.745,-5635.844999999999,-20218.185,-28013.58,-6136.469999999999,2856.645
1764764527.399096,487.08,-446.085,-28560.87,-5637.735,-20220.435,-28016.19,-6138.405,2853.27
1764764527.399096,489.195,-443.655,-28558.395,-5636.025,-20219.76,-28015.29,-6137.55,2854.665
1764764527.399096,493.65,-439.605,-28553.22,-5630.085,-20216.79,-28012.59,-6134.94,2858.355
1764764527.4453745,490.455,-441.9,-28555.92,-5632.875,-20218.635,-28014.885,-6135.435,2855.7
1764764527.4453745,491.22,-441.855,-28556.865,-5634.63,-20219.265,-28014.84,-6135.21,2855.79
1764764527.4453745,492.795,-440.145,-28556.055,-5633.46,-20217.33,-28012.365,-6133.815,2857.86
1764764527.4453745,491.58,-441.495,-28557.495,-5633.325,-20217.015,-28011.87,-6135.03,2857.32
1764764527.4453745,492.075,-439.515,-28554.165,-5630.49,-20216.07,-28012.095,-6135.705,2856.33
1764764527.4453745,492.12,-438.435,-28551.195,-5628.554999999999,-20214.45,-28011.87,-6135.525,2854.98
1764764527.4453745,492.12,-437.175,-28549.17,-5626.755,-20213.505,-28011.87,-6134.715,2855.43
1764764527.4453745,489.105,-441.045,-28553.895,-5632.425,-20216.61,-28014.48,-6135.57,2854.395
1764764527.4453745,485.37,-448.695,-28565.145,-5642.639999999999,-20222.505,-28017.18,-6137.415,2851.38
1764764527.4453745,481.005,-454.32,-28570.635,-5647.59,-20226.87,-28020.555,-6140.7,2847.42
1764764527.4453745,485.505,-448.695,-28564.605,-5641.605,-20222.145,-28016.595,-6137.91,2852.01
1764764527.4453745,487.53,-445.545,-28560.465,-5637.735,-20220.165,-28014.705,-6135.48,2853.54
1764764527.4453745,488.295,-445.095,-28559.16,-5636.07,-20219.94,-28014.255,-6135.344999999999,2854.485
1764764527.4463992,490.095,-442.26,-28556.325,-5633.82,-20218.14,-28013.085,-6134.264999999999,2856.195
1764764527.4463992,488.97,-443.475,-28557.135,-5635.62,-20219.58,-28015.065,-6134.76,2855.16
1764764527.4463992,483.795,-448.74,-28561.995,-5638.95,-20222.73,-28018.485,-6138.63,2850.075
1764764527.4463992,488.07,-441.945,-28553.355,-5630.94,-20216.34,-28014.75,-6137.19,2851.875
1764764527.4463992,488.61,-439.11,-28548.765,-5626.755,-20214.945,-28015.695,-6137.865,2850.03
1764764527.4463992,492.705,-433.755,-28542.285,-5620.365,-20211.345,-28012.545,-6135.21,2853.045
1764764527.4463992,497.385,-429.795,-28538.505,-5617.755,-20209.005,-28009.035,-6131.115,2857.905
1764764527.4463992,490.86,-440.415,-28552.995,-5632.785,-20219.805,-28016.595,-6134.58,2853.63
1764764527.4463992,486.72,-448.74,-28565.685,-5643.179999999999,-20225.025,-28018.8,-6137.145,2851.875
1764764527.4463992,489.105,-445.545,-28562.355,-5638.905,-20219.67,-28014.255,-6134.76,2854.215
1764764527.4463992,485.955,-447.795,-28563.615,-5640.165,-20221.785,-28016.505,-6136.469999999999,2851.605
1764764527.4463992,485.73,-448.245,-28563.57,-5639.67,-20221.83,-28016.595,-6136.514999999999,2851.74
1764764527.4463992,479.565,-455.04,-28570.68,-5646.78,-20227.275,-28020.78,-6140.88,2845.935
1764764527.4926555,481.77,-453.15,-28570.005,-5644.215,-20225.79,-28018.89,-6140.115,2846.97
1764764527.4926555,480.42,-453.825,-28569.645,-5644.98,-20226.285,-28021.5,-6141.195,2844.99
1764764527.4926555,485.145,-449.235,-28563.21,-5640.3,-20221.965,-28017.405,-6137.73,2850.255
1764764527.4926555,485.055,-449.19,-28563.03,-5640.389999999999,-20223.99,-28018.98,-6138.09,2849.895
1764764527.4931846,483.57,-450.225,-28564.11,-5642.19,-20227.23,-28022.265,-6139.844999999999,2847.285
1764764527.4931846,483.75,-450.405,-28565.415,-5644.035,-20228.22,-28022.715,-6138.719999999999,2848.23
1764764527.4931846,481.05,-454.23,-28571.355,-5648.94,-20231.28,-28024.11,-6139.98,2847.24
1764764527.4931846,483.885,-452.115,-28568.565,-5645.34,-20227.185,-28020.375,-6138.224999999999,2849.625
1764764527.4931846,484.695,-450.135,-28564.74,-5641.785,-20226.15,-28020.195,-6137.01,2849.805
1764764527.4931846,480.105,-453.69,-28569.465,-5646.105,-20231.46,-28025.325,-6140.34,2845.035
1764764527.4931846,481.005,-452.835,-28568.88,-5645.52,-20230.38,-28024.29,-6139.8,2845.71
1764764527.4931846,481.545,-451.845,-28567.08,-5644.125,-20228.49,-28022.67,-6140.025,2846.655
1764764527.4931846,483.165,-449.91,-28564.83,-5641.605,-20226.915,-28021.455,-6138.945,2848.5
1764764527.4931846,481.86,-450.45,-28565.595,-5642.82,-20229.705,-28024.605,-6140.205,2846.205
1764764527.4931846,485.325,-446.715,-28560.78,-5638.05,-20224.845,-28021.14,-6137.639999999999,2848.995
1764764527.4931846,482.445,-449.955,-28563.705,-5640.075,-20226.825,-28022.04,-6138.719999999999,2846.88
1764764527.4931846,482.04,-449.865,-28563.93,-5640.12,-20226.33,-28020.915,-6139.17,2846.79
1764764527.4931846,487.575,-443.565,-28558.08,-5633.775,-20220.12,-28016.055,-6135.03,2851.83
1764764527.4931846,490.635,-440.28,-28554.165,-5630.49,-20217.375,-28013.805,-6132.285,2854.89
1764764527.4931846,488.745,-442.08,-28556.28,-5632.38,-20219.265,-28015.155,-6133.275,2853.225
1764764527.4931846,485.55,-445.905,-28560.87,-5637.24,-20222.955,-28017.405,-6135.165,2850.795
1764764527.4931846,480.825,-450.495,-28566.27,-5643.045,-20228.13,-28023.21,-6138.405,2845.71
1764764527.4931846,480.06,-450.675,-28566.765,-5643.405,-20228.805,-28024.965,-6139.665,2845.125
1764764527.4931846,483.66,-446.985,-28562.355,-5638.139999999999,-20223.405,-28020.015,-6136.605,2849.22
1764764527.542301,483.345,-446.22,-28559.655,-5635.44,-20221.695,-28020.42,-6137.054999999999,2847.285
1764764527.542301,486.72,-440.64,-28554.12,-5630.13,-20216.79,-28016.865,-6134.94,2850.255
1764764527.542301,484.425,-442.62,-28556.55,-5632.605,-20219.715,-28019.16,-6136.74,2847.78
1764764527.542301,485.955,-442.305,-28556.37,-5632.56,-20219.4,-28016.955,-6135.03,2849.805
1764764527.542301,485.91,-445.14,-28559.34,-5634.675,-20219.265,-28015.02,-6134.175,2850.975
1764764527.542301,479.88,-454.005,-28569.915,-5645.07,-20227.995,-28021.59,-6137.865,2846.295
1764764527.542301,477.81,-457.245,-28575.315,-5650.92,-20233.305,-28024.92,-6139.53,2845.575
1764764527.542301,479.16,-455.895,-28573.155,-5648.445,-20231.415,-28023.795,-6138.63,2846.61
1764764527.542301,482.535,-451.485,-28566.045,-5641.83,-20226.915,-28021.275,-6136.695,2849.04
1764764527.542301,487.035,-443.745,-28555.83,-5632.83,-20220.48,-28017.09,-6134.445,2852.325
1764764527.542301,488.52,-438.885,-28550.34,-5627.565,-20218.68,-28016.73,-6134.49,2850.795
1764764527.542301,489.195,-435.33,-28545.75,-5623.965,-20218.005,-28018.305,-6134.49,2850.12
1764764527.542301,490.095,-435.42,-28546.29,-5624.55,-20218.05,-28016.82,-6133.275,2851.83
1764764527.542301,489.285,-440.64,-28554.885,-5632.02,-20219.445,-28014.705,-6131.52,2853.99
1764764527.5433116,482.22,-452.07,-28570.23,-5645.429999999999,-20226.78,-28018.935,-6135.344999999999,2849.67
1764764527.5433116,478.305,-457.425,-28577.295,-5651.325,-20231.145,-28021.23,-6137.82,2846.475
1764764527.5433116,479.205,-457.695,-28577.34,-5651.235,-20230.38,-28021.095,-6136.29,2846.385
1764764527.5433116,477.27,-458.1,-28576.845,-5651.505,-20231.865,-28024.65,-6138.09,2843.82
1764764527.5433116,479.205,-454.41,-28572.255,-5646.87,-20229.93,-28023.255,-6137.37,2845.305
1764764527.5433116,483.705,-449.955,-28567.89,-5642.19,-20227.14,-28020.735,-6135.344999999999,2848.68
1764764527.5433116,481.995,-450.405,-28568.295,-5641.92,-20228.13,-28021.77,-6135.929999999999,2847.555
1764764527.5433116,484.155,-446.94,-28563.705,-5637.825,-20223.945,-28018.575,-6134.715,2849.67
1764764527.5433116,481.815,-449.595,-28565.865,-5639.445,-20226.33,-28021.05,-6136.245,2846.07
1764764527.5433116,484.965,-446.265,-28562.355,-5636.025,-20222.685,-28017.99,-6133.455,2849.58
1764764527.5859842,487.845,-442.755,-28558.98,-5632.785,-20219.13,-28014.705,-6131.07,2852.235
1764764527.5859842,484.515,-446.805,-28562.85,-5636.429999999999,-20221.245,-28017.225,-6132.554999999999,2848.95
1764764527.5859842,480.735,-450.63,-28566.54,-5641.02,-20225.34,-28020.735,-6134.895,2845.845
1764764527.5859842,484.38,-446.49,-28562.49,-5637.33,-20224.89,-28019.385,-6134.264999999999,2848.545
1764764527.5859842,482.985,-447.975,-28565.64,-5640.165,-20228.4,-28023.12,-6136.065,2846.88
1764764527.5859842,485.37,-445.77,-28563.03,-5638.365,-20226.105,-28021.05,-6134.04,2849.175
1764764527.5859842,486.315,-445.5,-28562.49,-5637.87,-20225.295,-28019.205,-6132.78,2850.48
1764764527.5859842,482.625,-449.055,-28565.955,-5640.75,-20227.455,-28020.87,-6134.13,2847.42
1764764527.5859842,483.93,-447.705,-28564.695,-5639.49,-20224.8,-28018.44,-6134.625,2848.545
1764764527.5859842,483.525,-447.21,-28564.2,-5639.04,-20225.295,-28018.305,-6135.389999999999,2847.69
1764764527.5859842,482.4,-448.515,-28565.55,-5639.895,-20225.97,-28019.43,-6136.2,2846.565
1764764527.5859842,478.44,-453.645,-28570.95,-5645.429999999999,-20231.145,-28025.055,-6140.474999999999,2841.93
1764764527.5859842,475.83,-455.895,-28572.66,-5646.645,-20232.54,-28028.07,-6142.275,2838.96
1764764527.5859842,481.275,-451.305,-28565.82,-5639.355,-20226.105,-28022.445,-6137.91,2843.91
1764764527.5859842,482.805,-449.415,-28564.74,-5638.365,-20225.07,-28021.275,-6136.245,2846.07
1764764527.5859842,483.435,-449.955,-28565.505,-5639.49,-20225.745,-28020.465,-6134.715,2847.96
1764764527.5859842,484.02,-448.245,-28563.885,-5637.554999999999,-20224.44,-28019.205,-6133.365,2848.995
1764764527.5859842,483.66,-448.02,-28563.57,-5637.42,-20225.655,-28020.42,-6133.635,2847.69
1764764527.5859842,480.285,-451.35,-28567.035,-5642.19,-20229.84,-28025.28,-6136.965,2843.73
1764764527.5859842,482.76,-449.955,-28565.415,-5640.615,-20228.355,-28022.355,-6136.29,2846.7
1764764527.5859842,481.95,-451.755,-28568.655,-5643.09,-20229.3,-28021.455,-6135.57,2847.285
1764764527.5859842,479.025,-454.905,-28572.03,-5645.61,-20231.28,-28023.66,-6137.82,2844.81
1764764527.6337278,476.28,-457.02,-28573.47,-5647.635,-20233.17,-28026.45,-6139.125,2841.705
1764764527.6337278,479.43,-454.14,-28570.86,-5644.98,-20230.695,-28024.065,-6137.775,2844.135
1764764527.6337278,477.72,-455.175,-28572.435,-5647.59,-20233.305,-28026.99,-6139.395,2842.515
1764764527.6337278,477.045,-454.995,-28572.165,-5647.815,-20234.655,-28028.205,-6139.71,2841.705
1764764527.6337278,477.63,-453.915,-28570.32,-5645.745,-20232.18,-28027.845,-6139.17,2841.795
1764764527.6337278,480.42,-451.17,-28567.08,-5641.514999999999,-20228.22,-28024.74,-6136.785,2843.865
1764764527.6337278,482.895,-448.74,-28564.695,-5638.59,-20224.98,-28021.5,-6134.13,2845.485
1764764527.6337278,483.66,-446.895,-28563.21,-5637.375,-20224.17,-28020.87,-6134.04,2846.295
1764764527.6337278,485.505,-444.24,-28560.42,-5634.179999999999,-20222.505,-28018.755,-6133.275,2847.69
1764764527.6337278,479.565,-450.18,-28565.685,-5640.21,-20229.12,-28024.965,-6137.594999999999,2841.705
1764764527.6337278,481.77,-447.525,-28562.76,-5637.735,-20227.545,-28024.515,-6138.045,2843.235
1764764527.6337278,477.045,-452.205,-28568.61,-5643.405,-20231.37,-28029.465,-6141.15,2839.275
1764764527.6337278,472.77,-459.09,-28577.34,-5650.605,-20234.655,-28031.355,-6142.77,2836.26
1764764527.6337278,476.28,-454.77,-28571.22,-5645.745,-20232.045,-28028.34,-6140.429999999999,2839.095
1764764527.6337278,484.155,-445.545,-28560.375,-5635.26,-20224.575,-28022.175,-6134.94,2845.71
1764764527.6337278,484.92,-444.015,-28557.855,-5631.75,-20222.055,-28021.095,-6133.635,2845.26
1764764527.6337278,486.36,-442.89,-28556.955,-5630.175,-20219.94,-28019.43,-6132.96,2846.745
1764764527.6337278,481.185,-450.405,-28566.315,-5638.95,-20224.575,-28021.365,-6134.715,2843.685
1764764527.6337278,473.94,-459.495,-28577.88,-5649.75,-20231.145,-28025.19,-6138.764999999999,2839.455
1764764527.6337278,466.875,-466.785,-28587.375,-5659.605,-20240.415,-28033.29,-6144.21,2833.515
