Timestamp,Channel1,Channel2,Channel3,Channel4,Channel5,Channel6,Channel7,Channel8
1764762965.5842853,-149.85,-2009.52,-26032.995,-8774.324999999999,-17635.364999999998,-25148.79,-5137.965,-123.165
1764762965.5848074,-149.48999999999998,-2009.025,-26030.925,-8773.02,-17637.21,-25150.365,-5138.505,-123.03
1764762965.5848074,-147.375,-2007.18,-26027.37,-8770.095,-17635.5,-25149.465,-5138.639999999999,-122.265
1764762965.5848074,-142.82999999999998,-2001.69,-26022.015,-8765.82,-17630.415,-25145.82,-5135.985,-118.8
1764762965.5848074,-143.415,-2001.06,-26021.07,-8763.705,-17625.465,-25143.345,-5134.23,-119.79
1764762965.5848074,-142.065,-1998.045,-26018.145,-8761.68,-17623.62,-25142.4,-5134.545,-117.9
1764762965.5848074,-145.305,-2001.69,-26021.565,-8765.414999999999,-17625.555,-25144.38,-5137.2,-119.295
1764762965.5848074,-146.34,-2004.03,-26023.995,-8766.72,-17623.17,-25142.76,-5136.66,-120.87
1764762965.5848074,-149.4,-2007.945,-26028.045,-8770.005,-17626.32,-25144.92,-5137.11,-122.805
1764762965.5848074,-145.89,-2004.795,-26026.245,-8768.789999999999,-17625.195,-25143.03,-5135.849999999999,-119.385
1764762965.5848074,-149.265,-2007.585,-26028.99,-8772.074999999999,-17630.64,-25148.34,-5138.685,-123.615
1764762965.5848074,-150.61499999999998,-2008.71,-26028.45,-8771.13,-17630.595,-25147.98,-5139.045,-125.145
1764762965.5848074,-149.985,-2007.855,-26027.82,-8770.5,-17628.84,-25146.495,-5138.325,-124.38
1764762965.5848074,-148.32,-2006.235,-26026.11,-8768.654999999999,-17627.265,-25145.145,-5136.929999999999,-122.625
1764762965.5848074,-143.415,-2001.24,-26020.845,-8763.75,-17623.53,-25140.645,-5133.33,-118.665
1764762965.5848074,-142.29,-2000.025,-26019.135,-8762.805,-17624.34,-25139.115,-5132.52,-118.305
1764762965.5848074,-146.565,-2003.805,-26023.815,-8767.26,-17630.145,-25145.415,-5135.895,-121.95
1764762965.5848074,-146.97,-2005.245,-26026.29,-8768.835,-17630.55,-25148.655,-5136.03,-121.68
1764762965.5848074,-143.19,-2001.15,-26021.07,-8764.425,-17626.545,-25147.62,-5134.005,-118.44
1764762965.5848074,-142.56,-1999.395,-26017.785,-8762.58,-17625.329999999998,-25146.45,-5133.69,-117.63
1764762965.5848074,-141.075,-1997.415,-26015.895,-8761.275,-17624.745,-25145.145,-5133.87,-116.595
1764762965.5848074,-140.715,-1997.82,-26015.76,-8760.24,-17622.765,-25142.265,-5132.52,-115.785
1764762965.5848074,-145.845,-2003.94,-26021.745,-8765.1,-17625.78,-25144.155,-5133.915,-119.97
1764762965.6310005,-143.01,-2000.79,-26017.38,-8760.06,-17620.605,-25138.08,-5130.63,-118.26
1764762965.6310005,-139.45499999999998,-1997.415,-26014.23,-8757.135,-17618.94,-25135.02,-5127.389999999999,-114.345
1764762965.6310005,-139.23,-1997.19,-26015.76,-8761.095,-17628.885,-25139.07,-5128.38,-114.21
1764762965.6310005,-142.875,-2002.59,-26023.005,-8771.535,-17644.14,-25143.975,-5131.665,-117.9
1764762965.6310005,-137.565,-1999.8,-26025.21,-8780.94,-17652.735,-25141.455,-5128.83,-112.455
1764762965.6310005,-131.57999999999998,-1992.825,-26021.43,-8790.164999999999,-17672.04,-25150.455,-5127.795,-107.19
1764762965.6310005,-128.7,-1988.865,-26018.235,-8793.585,-17697.915,-25170.525,-5127.389999999999,-105.3
1764762965.6310005,-123.48,-1983.465,-26012.115,-8788.14,-17706.195,-25189.02,-5127.615,-101.88
1764762965.6319072,-126.18,-1987.605,-26018.28,-8790.39,-17702.325,-25201.215,-5131.98,-103.095
1764762965.6319072,-129.96,-1994.175,-26028.945,-8798.76,-17700.12,-25200.27,-5136.12,-105.615
1764762965.6319072,-132.795,-1996.785,-26033.355,-8806.005,-17690.085,-25184.07,-5138.82,-109.53
1764762965.6319072,-131.49,-1993.995,-26029.98,-8801.324999999999,-17671.095,-25163.415,-5136.345,-107.73
1764762965.6319072,-130.23,-1993.095,-26028.18,-8793.99,-17670.96,-25158.15,-5131.215,-105.345
1764762965.6319072,-138.555,-2002.005,-26035.785,-8791.83,-17682.614999999998,-25173.72,-5133.78,-111.915
1764762965.6319072,-144.405,-2005.56,-26037.09,-8785.35,-17691.795,-25197.12,-5137.785,-116.82
1764762965.6319072,-145.44,-2005.065,-26033.04,-8775.9,-17681.445,-25209.315,-5141.745,-118.17
1764762965.6319072,-142.245,-1999.215,-26023.905,-8763.255,-17655.524999999998,-25197.93,-5141.97,-116.595
1764762965.6319072,-144.72,-1998.72,-26020.845,-8760.33,-17637.434999999998,-25180.785,-5143.995,-119.385
1764762965.6319072,-151.38,-2002.545,-26022.87,-8761.32,-17615.43,-25155.27,-5144.715,-126.675
1764762965.6319072,-155.295,-2004.03,-26019.72,-8755.289999999999,-17587.53,-25124.04,-5138.91,-130.185
1764762965.6319072,-159.12,-2009.34,-26024.265,-8758.305,-17580.735,-25107.03,-5132.925,-131.22
1764762965.6319072,-158.57999999999998,-2013.435,-26031.78,-8766.494999999999,-17593.38,-25104.105,-5128.875,-128.43
1764762965.6319072,-152.37,-2010.33,-26031.915,-8772.345,-17617.995,-25111.935,-5125.455,-121.68
1764762965.6319072,-143.505,-2003.625,-26030.52,-8794.664999999999,-17670.6,-25124.445,-5122.62,-114.435
1764762965.678677,-135.765,-1996.92,-26029.125,-8816.895,-17712.315,-25143.48,-5120.82,-108.18
1764762965.678677,-133.74,-1993.68,-26027.055,-8814.914999999999,-17728.739999999998,-25175.205,-5124.915,-107.82
1764762965.678677,-130.23,-1989.225,-26023.815,-8798.355,-17710.155,-25190.055,-5127.795,-104.49
1764762965.678677,-135.18,-1992.78,-26025.39,-8785.215,-17681.265,-25196.49,-5135.264999999999,-110.205
1764762965.678677,-139.32,-1993.23,-26020.62,-8766.225,-17645.94,-25188.03,-5140.665,-115.875
1764762965.678677,-149.57999999999998,-2000.79,-26022.015,-8754.615,-17615.565,-25172.055,-5145.255,-125.055
1764762965.678677,-156.32999999999998,-2006.595,-26025.075,-8748.9,-17590.14,-25148.52,-5144.535,-129.915
1764762965.678677,-159.975,-2013.12,-26029.44,-8748.315,-17579.024999999998,-25124.49,-5137.875,-130.545
1764762965.678677,-158.13,-2011.455,-26025.39,-8740.44,-17563.005,-25098.975,-5127.84,-126.495
1764762965.678677,-163.26,-2015.1,-26025.12,-8736.48,-17555.76,-25092.63,-5125.275,-132.795
1764762965.678677,-162.81,-2016.09,-26024.94,-8734.545,-17554.23,-25096.005,-5125.23,-132.075
1764762965.678677,-161.505,-2015.415,-26023.32,-8736.21,-17566.2,-25104.87,-5126.04,-130.725
1764762965.678677,-157.59,-2009.565,-26019.09,-8736.48,-17575.515,-25110.99,-5125.905,-127.35
1764762965.678677,-153.45,-2004.705,-26016.705,-8738.505,-17582.445,-25114.725,-5125.365,-124.605
1764762965.678677,-149.57999999999998,-2001.69,-26016.39,-8741.654999999999,-17588.295,-25117.695,-5124.645,-121.275
1764762965.678677,-155.475,-2009.43,-26025.255,-8753.58,-17601.434999999998,-25126.605,-5128.605,-126.18
1764762965.678677,-154.07999999999998,-2007.72,-26023.095,-8753.265,-17602.515,-25125.705,-5127.345,-124.38
1764762965.678677,-146.025,-1997.64,-26012.52,-8743.455,-17597.114999999998,-25122.33,-5123.34,-118.395
1764762965.678677,-145.125,-1995.705,-26009.37,-8741.88,-17599.59,-25125.345,-5124.195,-119.52
1764762965.678677,-148.86,-1999.395,-26013.78,-8747.865,-17606.88,-25132.185,-5127.84,-122.445
1764762965.7246516,-146.11499999999998,-1998.855,-26014.41,-8750.43,-17607.69,-25131.015,-5126.445,-118.755
1764762965.7246516,-150.795,-2006.055,-26024.265,-8758.35,-17613.0,-25134.255,-5127.974999999999,-121.995
1764762965.7246516,-154.17,-2011.995,-26033.355,-8766.135,-17618.445,-25137.09,-5129.505,-124.065
1764762965.7246516,-155.7,-2014.965,-26035.83,-8769.645,-17621.55,-25139.34,-5131.215,-125.145
1764762965.7246516,-153.63,-2011.815,-26031.78,-8766.27,-17620.47,-25139.34,-5130.36,-123.39
1764762965.7246516,-149.715,-2006.46,-26025.345,-8761.23,-17618.579999999998,-25138.395,-5129.505,-120.645
1764762965.7246516,-146.295,-2001.645,-26019.72,-8756.73,-17615.43,-25136.37,-5128.065,-117.99
1764762965.7246516,-146.25,-1999.845,-26018.19,-8755.47,-17614.44,-25135.47,-5126.264999999999,-118.44
1764762965.7246516,-140.89499999999998,-1994.94,-26013.555,-8749.98,-17608.995,-25129.53,-5121.855,-113.58
1764762965.7246516,-145.125,-1998.63,-26016.345,-8752.545,-17611.29,-25132.14,-5124.465,-117.54
1764762965.7246516,-149.355,-2004.21,-26023.59,-8759.385,-17618.13,-25137.99,-5128.74,-120.465
1764762965.7246516,-152.91,-2008.53,-26028.765,-8766.0,-17624.88,-25143.75,-5133.06,-124.02
1764762965.7246516,-153.36,-2007.855,-26028.0,-8766.63,-17628.48,-25147.98,-5134.95,-126.72
1764762965.7246516,-151.155,-2005.83,-26027.415,-8766.449999999999,-17626.68,-25145.73,-5133.69,-123.525
1764762965.7246516,-152.86499999999998,-2008.53,-26029.845,-8767.215,-17625.735,-25143.84,-5132.97,-123.975
1764762965.7246516,-155.745,-2011.095,-26030.745,-8768.115,-17627.85,-25146.945,-5134.455,-127.08
1764762965.7246516,-154.485,-2010.15,-26029.755,-8767.619999999999,-17628.3,-25147.215,-5134.545,-125.73
1764762965.7246516,-149.57999999999998,-2003.76,-26023.365,-8761.32,-17622.989999999998,-25143.075,-5131.755,-121.905
1764762965.7246516,-150.885,-2004.165,-26023.68,-8762.85,-17625.555,-25145.325,-5132.88,-123.03
1764762965.7246516,-156.465,-2009.745,-26030.43,-8770.904999999999,-17633.7,-25152.615,-5138.235,-128.79
1764762965.7246516,-153.495,-2008.395,-26029.395,-8769.195,-17630.55,-25149.105,-5136.21,-126.09
1764762965.7246516,-154.935,-2010.555,-26031.645,-8771.22,-17630.37,-25148.925,-5135.715,-126.405
1764762965.7246516,-156.105,-2011.14,-26032.95,-8771.85,-17631.09,-25149.96,-5135.13,-126.72
1764762965.7246516,-158.89499999999998,-2014.47,-26037.9,-8775.585,-17635.905,-25153.56,-5137.695,-130.41
1764762965.7714293,-153.765,-2009.295,-26032.185,-8771.22,-17631.809999999998,-25149.51,-5135.085,-126.09
1764762965.7719374,-151.875,-2007.18,-26029.44,-8768.52,-17629.92,-25148.97,-5134.185,-124.65
1764762965.7719374,-150.66,-2005.785,-26026.38,-8764.83,-17627.265,-25147.125,-5132.655,-123.84
1764762965.7719374,-149.31,-2003.31,-26023.95,-8762.94,-17626.05,-25145.505,-5131.665,-122.22
1764762965.7719374,-152.595,-2005.47,-26026.02,-8765.055,-17628.75,-25148.97,-5134.995,-125.73
1764762965.7719374,-154.575,-2007.315,-26026.425,-8764.875,-17628.975,-25150.545,-5136.165,-128.34
1764762965.7719374,-154.39499999999998,-2007.405,-26025.975,-8764.47,-17627.805,-25148.925,-5134.679999999999,-128.34
1764762965.7719374,-156.015,-2010.195,-26029.89,-8768.07,-17628.795,-25149.465,-5134.05,-128.295
1764762965.7719374,-159.21,-2014.83,-26036.37,-8773.965,-17630.91,-25150.545,-5134.59,-129.6
1764762965.7719374,-158.94,-2013.39,-26033.805,-8772.255,-17632.215,-25152.705,-5135.04,-130.86
1764762965.7719374,-151.47,-2004.705,-26023.05,-8762.49,-17625.51,-25146.765,-5129.865,-123.795
1764762965.7719374,-152.595,-2005.605,-26024.67,-8764.65,-17626.725,-25148.205,-5130.585,-124.065
1764762965.7719374,-158.355,-2013.03,-26035.02,-8774.19,-17633.475,-25152.48,-5133.33,-128.295
1764762965.7719374,-157.095,-2013.435,-26035.965,-8775.855,-17633.745,-25151.31,-5132.474999999999,-127.395
1764762965.7719374,-153.0,-2008.125,-26029.485,-8770.005,-17631.045,-25147.89,-5131.395,-125.64
1764762965.7719374,-154.305,-2008.035,-26028.0,-8769.465,-17632.53,-25152.885,-5132.97,-127.98
1764762965.7719374,-148.995,-2000.97,-26019.945,-8761.005,-17626.14,-25151.265,-5128.74,-121.905
1764762965.7719374,-149.265,-2002.365,-26022.465,-8762.715,-17629.11,-25153.47,-5128.38,-121.365
1764762965.7719374,-152.505,-2007.36,-26029.755,-8770.77,-17638.605,-25158.645,-5131.53,-124.515
1764762965.7719374,-150.12,-2003.04,-26024.355,-8766.9,-17635.68,-25155.99,-5130.585,-123.21
1764762965.7719374,-147.69,-2000.475,-26019.72,-8762.355,-17628.12,-25150.23,-5127.48,-120.87
1764762965.7719374,-144.54,-1997.91,-26018.595,-8760.105,-17622.855,-25145.055,-5124.825,-117.765
1764762965.7719374,-146.385,-1998.855,-26019.54,-8759.97,-17619.93,-25142.175,-5124.915,-119.79
1764762965.7719374,-150.03,-2002.815,-26022.285,-8761.77,-17620.245,-25142.76,-5125.275,-122.805
1764762965.7719374,-148.725,-2003.94,-26025.435,-8763.164999999999,-17618.22,-25140.555,-5122.98,-120.15
1764762965.7719374,-153.54,-2010.15,-26032.905,-8770.949999999999,-17625.735,-25146.135,-5127.255,-124.92
1764762965.8150766,-148.095,-2003.04,-26025.48,-8763.795,-17621.73,-25142.58,-5124.51,-119.61
1764762965.8150766,-146.745,-1999.215,-26021.43,-8759.789999999999,-17620.245,-25141.815,-5123.565,-118.98
1764762965.8150766,-144.63,-1997.73,-26020.215,-8759.789999999999,-17622.045,-25142.49,-5123.34,-118.035
1764762965.8150766,-145.07999999999998,-1998.18,-26019.945,-8759.744999999999,-17622.54,-25142.715,-5123.385,-118.35
1764762965.8150766,-146.43,-1998.27,-26019.27,-8760.375,-17626.364999999998,-25145.775,-5123.16,-120.195
1764762965.8150766,-146.11499999999998,-1999.71,-26023.95,-8765.055,-17632.8,-25145.595,-5122.98,-118.665
1764762965.8160913,-150.70499999999998,-2005.74,-26030.7,-8771.805,-17640.63,-25150.23,-5126.49,-122.58
1764762965.8160913,-147.915,-2001.915,-26025.21,-8765.324999999999,-17635.86,-25148.34,-5125.59,-120.42
1764762965.8160913,-142.515,-1994.175,-26015.67,-8756.64,-17627.265,-25144.47,-5123.52,-115.92
1764762965.8160913,-143.82,-1994.445,-26014.365,-8755.605,-17622.989999999998,-25144.83,-5125.32,-117.81
1764762965.8160913,-146.295,-1999.17,-26019.9,-8758.529999999999,-17619.93,-25143.255,-5124.51,-119.79
1764762965.8160913,-149.17499999999998,-2005.56,-26028.63,-8765.279999999999,-17621.37,-25143.03,-5125.139999999999,-121.095
1764762965.8160913,-151.92,-2009.205,-26032.275,-8766.63,-17620.515,-25141.815,-5125.815,-122.58
1764762965.8160913,-153.72,-2009.745,-26032.095,-8767.08,-17622.405,-25142.805,-5126.715,-124.335
1764762965.8160913,-149.94,-2005.965,-26027.955,-8763.525,-17620.829999999998,-25140.375,-5124.69,-120.015
1764762965.8160913,-153.63,-2010.105,-26032.41,-8769.105,-17628.255,-25146.18,-5128.065,-124.065
1764762965.8160913,-154.665,-2010.69,-26032.905,-8771.805,-17633.79,-25149.96,-5130.45,-125.82
1764762965.8160913,-153.18,-2008.8,-26030.745,-8770.23,-17633.07,-25149.42,-5129.054999999999,-124.065
1764762965.8160913,-151.965,-2006.82,-26028.36,-8768.16,-17630.055,-25147.305,-5128.065,-122.49
1764762965.8160913,-156.105,-2009.7,-26032.05,-8773.02,-17635.59,-25151.805,-5131.17,-126.72
1764762965.8160913,-152.685,-2006.505,-26028.315,-8769.285,-17632.035,-25146.99,-5128.875,-123.39
1764762965.8160913,-151.82999999999998,-2005.74,-26028.45,-8768.295,-17629.829999999998,-25147.485,-5127.165,-123.345
1764762965.8630848,-152.37,-2005.785,-26029.17,-8769.555,-17631.045,-25151.715,-5127.615,-123.795
1764762965.8630848,-153.765,-2005.695,-26027.64,-8769.105,-17633.655,-25156.53,-5129.73,-126.495
1764762965.8630848,-152.37,-2003.445,-26024.04,-8766.494999999999,-17632.62,-25155.765,-5130.54,-125.775
1764762965.8630848,-148.815,-2000.565,-26020.44,-8763.84,-17632.62,-25153.92,-5128.74,-122.04
1764762965.8630848,-148.86,-2002.59,-26025.93,-8769.914999999999,-17641.665,-25153.65,-5127.21,-120.24
1764762965.8630848,-145.89,-2002.275,-26026.83,-8770.05,-17645.265,-25149.195,-5123.655,-116.685
1764762965.8630848,-146.25,-2001.825,-26025.075,-8769.555,-17645.895,-25150.095,-5123.745,-117.765
1764762965.8630848,-153.09,-2008.62,-26031.42,-8775.225,-17646.524999999998,-25156.8,-5129.28,-125.19
1764762965.8630848,-152.95499999999998,-2007.855,-26031.33,-8773.47,-17636.895,-25153.74,-5129.054999999999,-125.46
1764762965.8630848,-150.84,-2005.65,-26029.035,-8770.455,-17628.524999999998,-25148.34,-5127.705,-122.175
1764762965.8630848,-153.36,-2007.855,-26030.295,-8769.555,-17623.575,-25145.865,-5128.065,-123.93
1764762965.8630848,-158.85,-2011.905,-26033.85,-8772.93,-17628.48,-25148.835,-5130.179999999999,-128.97
1764762965.8630848,-153.54,-2007.855,-26028.63,-8768.34,-17625.555,-25143.66,-5126.804999999999,-124.785
1764762965.8630848,-152.01,-2004.345,-26023.725,-8762.265,-17620.155,-25139.25,-5123.97,-122.715
1764762965.8630848,-152.82,-2003.715,-26022.195,-8761.365,-17621.864999999998,-25141.185,-5123.385,-124.29
1764762965.8630848,-148.86,-1999.17,-26016.795,-8756.414999999999,-17618.985,-25138.935,-5121.045,-121.815
1764762965.8630848,-143.64,-1994.895,-26013.915,-8754.705,-17620.605,-25137.945,-5119.2,-117.855
1764762965.8630848,-150.885,-2003.67,-26025.48,-8769.42,-17637.21,-25147.62,-5124.105,-122.985
1764762965.8630848,-151.695,-2004.615,-26027.865,-8774.73,-17643.645,-25149.465,-5124.735,-122.625
1764762965.8630848,-151.785,-2005.83,-26029.215,-8777.295,-17644.77,-25149.87,-5124.69,-121.995
1764762965.8630848,-149.94,-2003.445,-26026.245,-8775.18,-17639.415,-25148.565,-5122.71,-119.655
1764762965.8630848,-148.45499999999998,-1999.395,-26020.26,-8768.34,-17633.745,-25150.365,-5124.06,-120.465
1764762965.8630848,-147.015,-1996.425,-26016.705,-8762.805,-17630.235,-25151.4,-5124.15,-121.05
1764762965.8630848,-149.805,-2002.005,-26022.375,-8765.685,-17629.065,-25149.78,-5124.42,-122.22
1764762965.9100437,-148.14,-2000.115,-26020.62,-8761.455,-17622.315,-25145.145,-5123.745,-119.745
1764762965.9100437,-147.555,-1998.405,-26018.055,-8757.225,-17616.645,-25139.97,-5120.685,-118.62
1764762965.9100437,-148.32,-1998.585,-26019.855,-8756.505,-17614.755,-25137.18,-5119.425,-117.9
1764762965.9100437,-152.055,-2002.455,-26023.365,-8761.725,-17620.605,-25141.545,-5123.25,-121.23
1764762965.91121,-153.945,-2007.135,-26028.405,-8766.135,-17623.485,-25141.095,-5122.62,-122.535
1764762965.91121,-154.665,-2009.115,-26031.87,-8770.32,-17631.765,-25143.525,-5122.26,-122.49
1764762965.91121,-153.26999999999998,-2008.305,-26031.555,-8773.785,-17644.5,-25149.735,-5123.52,-122.085
1764762965.91121,-149.535,-2005.065,-26027.865,-8774.055,-17652.6,-25151.76,-5123.295,-119.115
1764762965.91121,-151.965,-2007.18,-26030.205,-8777.025,-17652.329999999998,-25157.79,-5124.465,-121.545
1764762965.91121,-151.065,-2005.605,-26028.0,-8773.83,-17640.855,-25158.42,-5124.554999999999,-122.13
1764762965.91121,-148.76999999999998,-2002.14,-26024.94,-8768.52,-17630.46,-25152.12,-5122.665,-120.51
1764762965.91121,-144.18,-1997.685,-26019.495,-8761.41,-17621.01,-25143.21,-5119.514999999999,-115.47
1764762965.91121,-144.18,-1998.405,-26020.17,-8762.94,-17623.395,-25142.805,-5120.595,-115.83
1764762965.91121,-147.69,-2003.22,-26023.905,-8764.335,-17622.54,-25141.815,-5121.764999999999,-119.07
1764762965.91121,-148.14,-2003.49,-26023.275,-8761.68,-17616.329999999998,-25135.155,-5118.795,-119.25
1764762965.91121,-146.385,-2000.61,-26019.09,-8758.395,-17615.16,-25134.165,-5118.48,-118.305
1764762965.91121,-146.25,-1999.53,-26017.83,-8756.865,-17618.265,-25136.91,-5119.065,-118.125
1764762965.91121,-149.4,-2002.275,-26019.99,-8759.835,-17621.415,-25140.78,-5120.19,-121.14
1764762965.91121,-146.655,-2001.69,-26020.08,-8761.32,-17622.765,-25141.095,-5119.335,-119.115
1764762965.91121,-146.655,-2003.58,-26023.365,-8763.345,-17626.454999999998,-25142.355,-5119.965,-118.755
1764762965.91121,-151.29,-2007.765,-26028.54,-8767.845,-17634.51,-25148.61,-5121.45,-122.76
1764762965.91121,-149.04,-2004.93,-26026.065,-8766.855,-17634.239999999998,-25148.655,-5119.65,-119.565
1764762965.9546094,-145.665,-2002.14,-26022.555,-8764.335,-17628.524999999998,-25144.875,-5117.76,-115.74
1764762965.9546094,-150.165,-2005.965,-26027.01,-8768.115,-17631.315,-25148.925,-5122.08,-120.78
1764762965.9546094,-144.585,-2000.25,-26021.565,-8764.02,-17628.704999999998,-25142.76,-5119.02,-115.92
1764762965.9546094,-145.35,-2001.96,-26023.5,-8766.855,-17628.795,-25139.97,-5119.245,-116.46
1764762965.9546094,-145.845,-2002.77,-26024.67,-8769.555,-17634.465,-25144.29,-5119.38,-116.595
1764762965.9546094,-144.765,-1999.98,-26020.8,-8766.765,-17640.945,-25150.815,-5118.165,-116.415
1764762965.9546094,-145.845,-1998.225,-26017.065,-8764.47,-17643.015,-25155.945,-5118.57,-118.08
1764762965.9546094,-142.875,-1994.445,-26013.015,-8764.11,-17639.19,-25155.81,-5118.615,-115.245
1764762965.9546094,-143.1,-1996.83,-26017.83,-8772.525,-17637.21,-25151.625,-5119.245,-114.39
1764762965.9546094,-149.22,-2003.49,-26026.245,-8780.22,-17640.09,-25153.245,-5122.17,-119.34
1764762965.9546094,-147.915,-2003.22,-26026.29,-8776.619999999999,-17633.88,-25148.295,-5121.179999999999,-117.99
1764762965.9546094,-150.435,-2004.48,-26026.02,-8771.715,-17627.805,-25144.425,-5122.44,-120.33
1764762965.9546094,-149.22,-2002.095,-26022.285,-8763.57,-17620.92,-25138.26,-5119.605,-119.88
1764762965.9546094,-149.04,-2002.23,-26021.565,-8759.205,-17617.545,-25137.27,-5118.795,-120.42
1764762965.9546094,-148.14,-2000.97,-26019.675,-8756.145,-17614.305,-25136.01,-5117.22,-120.06
1764762965.9546094,-149.355,-2002.23,-26020.845,-8756.595,-17614.485,-25135.875,-5116.455,-120.15
1764762965.9546094,-153.98999999999998,-2008.71,-26029.08,-8765.369999999999,-17621.864999999998,-25139.61,-5118.345,-122.535
1764762965.9546094,-156.285,-2011.14,-26032.05,-8769.015,-17624.114999999998,-25139.655,-5118.84,-123.885
1764762965.9546094,-156.64499999999998,-2009.205,-26027.46,-8763.93,-17621.28,-25139.97,-5118.435,-124.92
1764762965.9546094,-153.135,-2005.02,-26022.645,-8760.15,-17618.579999999998,-25137.945,-5115.42,-121.545
1764762965.9546094,-148.04999999999998,-2001.6,-26020.44,-8759.34,-17617.14,-25134.345,-5112.405,-116.37
1764762965.9546094,-154.17,-2009.25,-26029.35,-8768.88,-17626.32,-25142.04,-5117.94,-122.265
1764762965.9546094,-150.21,-2004.165,-26025.165,-8765.64,-17624.024999999998,-25140.735,-5117.085,-119.61
1764762965.9546094,-151.29,-2003.895,-26026.065,-8766.765,-17627.985,-25142.58,-5117.58,-121.365
1764762966.0012956,-146.61,-1999.665,-26021.925,-8764.02,-17627.355,-25142.13,-5115.599999999999,-117.63
1764762966.0012956,-150.12,-2002.5,-26023.815,-8766.675,-17632.53,-25149.375,-5118.48,-120.87
1764762966.0012956,-147.69,-2000.52,-26021.745,-8763.345,-17629.965,-25148.115,-5117.4,-117.855
1764762966.0012956,-147.96,-2000.025,-26020.755,-8762.85,-17631.45,-25149.645,-5119.38,-119.34
1764762966.0012956,-149.89499999999998,-2001.825,-26021.97,-8764.92,-17633.385,-25151.265,-5122.08,-123.075
1764762966.0012956,-149.89499999999998,-2002.68,-26023.23,-8764.92,-17629.065,-25144.83,-5119.785,-120.6
1764762966.0012956,-151.92,-2006.55,-26028.0,-8768.115,-17627.13,-25141.635,-5118.3,-121.005
1764762966.0012956,-156.105,-2011.545,-26034.435,-8773.47,-17628.704999999998,-25142.13,-5120.775,-123.93
1764762966.0012956,-157.905,-2011.905,-26033.94,-8773.02,-17630.91,-25145.055,-5122.349999999999,-125.91
1764762966.0012956,-155.475,-2009.25,-26029.53,-8768.385,-17627.895,-25144.245,-5122.215,-124.155
1764762966.0012956,-155.61,-2009.745,-26029.71,-8768.43,-17628.255,-25145.055,-5122.304999999999,-124.47
1764762966.0012956,-155.43,-2008.845,-26029.215,-8768.43,-17628.795,-25147.485,-5122.304999999999,-125.19
1764762966.0012956,-149.355,-2001.24,-26021.16,-8761.23,-17622.27,-25143.03,-5118.435,-120.465
1764762966.0012956,-150.12,-2001.06,-26020.755,-8761.635,-17623.305,-25143.255,-5117.804999999999,-120.555
1764762966.0012956,-154.125,-2005.83,-26026.245,-8767.8,-17630.325,-25147.71,-5120.955,-124.695
1764762966.0012956,-151.515,-2004.615,-26026.47,-8768.654999999999,-17631.765,-25147.44,-5119.29,-121.545
1764762966.0012956,-151.38,-2005.155,-26029.215,-8770.949999999999,-17630.55,-25145.19,-5118.165,-120.645
1764762966.0012956,-157.995,-2012.625,-26036.865,-8778.6,-17638.829999999998,-25153.065,-5123.52,-127.17
1764762966.0012956,-154.39499999999998,-2008.26,-26032.14,-8775.18,-17642.024999999998,-25153.155,-5122.575,-124.65
1764762966.0012956,-148.545,-2001.555,-26024.445,-8768.025,-17641.035,-25150.005,-5120.415,-119.025
1764762966.0012956,-146.655,-1996.65,-26017.605,-8762.715,-17636.13,-25148.655,-5119.965,-118.035
1764762966.0012956,-150.66,-1998.45,-26018.64,-8763.795,-17634.69,-25152.12,-5122.53,-122.94
1764762966.0479524,-149.535,-1998.54,-26018.505,-8763.48,-17631.225,-25150.545,-5121.224999999999,-121.815
1764762966.0479524,-148.545,-2000.16,-26020.89,-8766.63,-17629.335,-25148.385,-5119.155,-118.62
1764762966.0479524,-155.11499999999998,-2010.15,-26034.255,-8777.25,-17633.565,-25150.725,-5121.72,-122.805
1764762966.0479524,-152.14499999999998,-2007.675,-26032.5,-8773.02,-17628.885,-25145.055,-5118.21,-118.98
1764762966.0479524,-147.51,-2002.32,-26026.38,-8768.654999999999,-17628.255,-25141.23,-5114.115,-115.02
1764762966.04896,-146.745,-2001.24,-26025.525,-8769.96,-17635.5,-25144.74,-5116.275,-115.605
1764762966.04896,-145.665,-1998.63,-26022.555,-8767.664999999999,-17638.38,-25146.405,-5115.554999999999,-115.2
1764762966.04896,-147.23999999999998,-1999.8,-26020.71,-8766.0,-17635.364999999998,-25146.99,-5114.925,-117.045
1764762966.04896,-143.415,-1996.605,-26017.38,-8761.23,-17626.454999999998,-25141.455,-5111.639999999999,-113.49
1764762966.04896,-148.635,-2004.705,-26026.605,-8770.005,-17630.505,-25145.1,-5113.889999999999,-117.27
1764762966.04896,-147.195,-2005.2,-26028.765,-8772.57,-17633.52,-25143.03,-5113.889999999999,-115.92
1764762966.04896,-144.81,-2001.465,-26024.49,-8767.98,-17632.079999999998,-25142.22,-5113.08,-114.84
1764762966.04896,-143.415,-1997.865,-26019.27,-8763.39,-17629.425,-25144.92,-5112.36,-113.04
1764762966.04896,-142.38,-1996.065,-26016.39,-8761.68,-17627.895,-25148.115,-5111.19,-111.6
1764762966.04896,-144.045,-1997.415,-26017.65,-8761.41,-17624.61,-25146.495,-5111.415,-113.31
1764762966.04896,-148.905,-2002.32,-26022.24,-8764.289999999999,-17622.765,-25143.255,-5115.24,-117.99
1764762966.04896,-146.34,-1998.63,-26017.605,-8759.925,-17619.165,-25138.485,-5113.17,-116.73
1764762966.04896,-145.17,-1996.065,-26013.375,-8757.09,-17619.075,-25136.775,-5111.865,-115.83
1764762966.04896,-146.295,-1997.55,-26015.13,-8757.539999999999,-17617.095,-25133.715,-5110.92,-115.83
1764762966.04896,-149.89499999999998,-2002.995,-26022.195,-8763.795,-17618.22,-25131.78,-5110.47,-116.865
1764762966.04896,-153.495,-2009.475,-26030.97,-8773.244999999999,-17624.745,-25136.37,-5112.54,-119.34
1764762966.04896,-156.465,-2012.895,-26034.075,-8778.914999999999,-17632.71,-25145.01,-5117.31,-124.335
1764762966.04896,-153.495,-2007.81,-26029.035,-8773.875,-17632.53,-25145.1,-5117.445,-122.715
1764762966.04896,-153.855,-2006.82,-26028.99,-8774.235,-17637.84,-25147.17,-5117.535,-122.715
1764762966.0949235,-149.715,-2002.05,-26024.76,-8769.285,-17636.175,-25144.065,-5114.385,-118.575
1764762966.0949235,-155.385,-2008.035,-26031.15,-8774.145,-17639.595,-25149.285,-5118.929999999999,-124.605
1764762966.0949235,-155.43,-2007.225,-26030.115,-8771.49,-17634.6,-25148.07,-5119.065,-124.695
1764762966.0949235,-154.665,-2006.37,-26027.325,-8768.16,-17629.155,-25145.955,-5117.76,-123.84
1764762966.0949235,-151.65,-2003.4,-26024.58,-8764.289999999999,-17625.42,-25143.66,-5115.375,-120.555
1764762966.0949235,-151.065,-2002.905,-26022.825,-8761.77,-17623.395,-25141.905,-5114.745,-119.88
1764762966.0949235,-157.32,-2009.88,-26028.405,-8767.755,-17629.695,-25148.115,-5119.695,-126.27
1764762966.0949235,-154.17,-2006.505,-26025.075,-8765.73,-17628.57,-25148.565,-5120.415,-124.02
1764762966.0949235,-152.73,-2003.985,-26023.5,-8765.1,-17629.02,-25149.195,-5119.83,-122.265
1764762966.0949235,-151.73999999999998,-2003.49,-26023.365,-8765.055,-17629.245,-25147.44,-5117.94,-121.14
1764762966.0949235,-149.715,-2002.32,-26022.15,-8763.795,-17630.46,-25145.73,-5115.42,-119.43
1764762966.0949235,-152.325,-2006.505,-26026.83,-8768.61,-17634.465,-25147.89,-5116.59,-121.095
1764762966.0949235,-153.54,-2008.89,-26028.765,-8770.68,-17634.735,-25148.655,-5117.13,-122.58
1764762966.096142,-156.015,-2011.14,-26030.97,-8773.02,-17635.77,-25150.23,-5118.929999999999,-125.685
1764762966.096142,-151.42499999999998,-2005.335,-26024.265,-8766.539999999999,-17629.02,-25145.595,-5116.545,-121.14
1764762966.096142,-152.14499999999998,-2004.255,-26021.115,-8763.119999999999,-17625.239999999998,-25146.135,-5116.185,-123.03
1764762966.096142,-149.57999999999998,-2002.635,-26020.71,-8762.49,-17622.945,-25142.895,-5114.474999999999,-119.385
1764762966.096142,-152.505,-2008.44,-26030.79,-8773.83,-17632.035,-25147.035,-5116.59,-120.78
1764762966.096142,-155.51999999999998,-2012.04,-26033.895,-8776.71,-17635.005,-25149.735,-5118.57,-123.795
1764762966.096142,-149.715,-2005.155,-26025.39,-8766.81,-17628.075,-25143.435,-5114.429999999999,-118.98
1764762966.096142,-147.69,-2002.77,-26021.835,-8763.705,-17626.14,-25142.265,-5112.99,-118.395
1764762966.096142,-149.715,-2004.255,-26021.655,-8764.289999999999,-17627.76,-25143.75,-5114.07,-119.79
1764762966.096142,-151.47,-2004.39,-26021.79,-8765.01,-17629.29,-25145.19,-5113.44,-120.78
1764762966.096142,-146.51999999999998,-1998.99,-26016.345,-8759.789999999999,-17624.88,-25140.915,-5110.695,-116.595
1764762966.1427276,-146.655,-2000.745,-26019.36,-8763.75,-17628.3,-25142.715,-5110.875,-116.505
1764762966.1427276,-152.64,-2008.845,-26028.0,-8772.029999999999,-17637.704999999998,-25147.665,-5114.295,-122.13
1764762966.1427276,-150.29999999999998,-2005.785,-26024.355,-8768.52,-17637.885,-25146.315,-5112.54,-119.385
1764762966.1427276,-145.665,-2000.295,-26017.29,-8762.265,-17630.954999999998,-25143.57,-5110.965,-115.29
1764762966.1427276,-149.94,-2006.19,-26024.085,-8769.195,-17631.405,-25146.225,-5113.44,-119.25
1764762966.1427276,-149.445,-2007.63,-26028.0,-8771.67,-17629.29,-25142.31,-5111.955,-117.09
1764762966.1427276,-146.97,-2005.47,-26025.615,-8768.654999999999,-17628.614999999998,-25143.75,-5110.74,-115.695
1764762966.1427276,-148.68,-2005.83,-26025.165,-8767.98,-17629.02,-25150.365,-5113.44,-118.845
1764762966.1427276,-152.86499999999998,-2008.98,-26028.855,-8771.58,-17633.925,-25156.62,-5116.095,-121.905
1764762966.1427276,-153.98999999999998,-2010.69,-26030.295,-8773.74,-17636.715,-25157.07,-5117.355,-122.94
1764762966.1427276,-150.795,-2006.505,-26025.255,-8769.555,-17634.015,-25151.805,-5116.32,-121.005
1764762966.1427276,-147.42,-2002.365,-26020.8,-8765.324999999999,-17631.855,-25147.395,-5114.115,-117.765
1764762966.1427276,-152.505,-2007.99,-26027.055,-8771.4,-17635.14,-25147.575,-5115.554999999999,-121.95
1764762966.1427276,-154.215,-2009.295,-26028.18,-8771.805,-17631.405,-25142.715,-5114.565,-122.445
1764762966.1427276,-153.67499999999998,-2009.115,-26028.675,-8770.41,-17627.085,-25138.575,-5112.764999999999,-120.87
1764762966.1427276,-154.665,-2010.915,-26030.43,-8772.615,-17629.425,-25142.94,-5114.565,-123.66
1764762966.1427276,-150.57,-2006.415,-26026.38,-8769.42,-17630.055,-25141.32,-5113.665,-118.845
1764762966.1427276,-152.54999999999998,-2007.09,-26027.01,-8770.949999999999,-17634.329999999998,-25144.56,-5115.06,-119.52
1764762966.1427276,-154.35,-2008.8,-26029.215,-8772.75,-17635.454999999998,-25146.585,-5115.195,-121.995
1764762966.1427276,-152.01,-2007.225,-26028.0,-8771.85,-17633.114999999998,-25144.74,-5114.115,-118.935
1764762966.1901207,-152.46,-2008.89,-26029.44,-8775.539999999999,-17637.66,-25149.78,-5116.139999999999,-120.915
1764762966.1901207,-150.885,-2006.145,-26026.38,-8771.94,-17634.825,-25149.825,-5115.195,-120.105
1764762966.1901207,-152.37,-2006.28,-26026.92,-8770.994999999999,-17630.954999999998,-25147.62,-5115.375,-121.14
1764762966.1901207,-153.67499999999998,-2008.755,-26030.655,-8773.785,-17629.47,-25144.245,-5114.34,-120.69
1764762966.1901207,-149.13,-2005.02,-26027.64,-8771.58,-17628.075,-25141.14,-5110.47,-115.605
1764762966.1901207,-146.43,-2000.79,-26022.645,-8765.055,-17623.62,-25138.53,-5107.905,-113.535
1764762966.1901207,-145.71,-1998.585,-26018.145,-8759.565,-17618.895,-25136.46,-5105.61,-113.76
1764762966.1901207,-147.69,-1999.395,-26018.19,-8760.15,-17622.405,-25141.095,-5108.895,-117.495
1764762966.1901207,-142.965,-1992.24,-26009.37,-8750.699999999999,-17613.765,-25135.38,-5105.655,-113.265
1764762966.1901207,-146.88,-1995.705,-26011.44,-8752.994999999999,-17614.98,-25136.82,-5107.23,-116.595
1764762966.1901207,-150.61499999999998,-2002.005,-26018.505,-8761.23,-17621.73,-25139.385,-5108.175,-117.99
1764762966.1901207,-157.095,-2011.68,-26032.14,-8773.965,-17630.055,-25144.02,-5111.82,-122.94
1764762966.1901207,-155.88,-2011.095,-26033.355,-8775.09,-17634.059999999998,-25145.82,-5112.764999999999,-121.815
1764762966.1901207,-153.63,-2007.9,-26031.375,-8776.125,-17641.395,-25151.13,-5113.62,-121.365
1764762966.1901207,-153.045,-2007.045,-26031.375,-8777.88,-17648.415,-25156.215,-5114.835,-122.04
1764762966.1901207,-149.715,-2002.905,-26025.255,-8772.48,-17644.68,-25152.84,-5111.415,-118.305
1764762966.1901207,-145.53,-1999.305,-26022.015,-8767.98,-17638.155,-25147.62,-5107.905,-113.31
1764762966.1901207,-150.57,-2004.93,-26026.47,-8771.13,-17639.19,-25151.22,-5112.27,-119.34
1764762966.1901207,-147.78,-2001.69,-26021.385,-8765.82,-17632.8,-25145.505,-5111.054999999999,-116.955
1764762966.1901207,-149.355,-2003.4,-26022.915,-8765.64,-17628.39,-25145.775,-5110.92,-118.755
1764762966.1901207,-154.07999999999998,-2006.82,-26026.335,-8765.685,-17626.635,-25152.03,-5114.295,-123.525
1764762966.1901207,-152.775,-2004.255,-26021.115,-8760.645,-17625.239999999998,-25153.245,-5115.105,-123.03
1764762966.1901207,-152.37,-2004.525,-26021.745,-8761.545,-17624.745,-25150.005,-5114.385,-122.13
1764762966.1901207,-152.01,-2005.695,-26024.805,-8763.75,-17622.63,-25144.155,-5112.045,-119.295
1764762966.2332203,-152.86499999999998,-2007.0,-26027.28,-8766.855,-17627.13,-25144.83,-5112.27,-120.465
1764762966.2332203,-156.015,-2009.7,-26029.755,-8770.545,-17631.63,-25146.09,-5112.224999999999,-123.345
1764762966.2332203,-155.07,-2010.33,-26030.385,-8769.824999999999,-17625.87,-25137.945,-5109.525,-121.545
1764762966.2337368,-161.055,-2016.09,-26035.515,-8774.145,-17630.325,-25142.445,-5112.945,-126.855
1764762966.2337368,-158.48999999999998,-2011.77,-26029.755,-8770.275,-17631.675,-25143.795,-5112.855,-126.45
1764762966.2337368,-154.755,-2006.055,-26023.05,-8765.055,-17628.165,-25141.59,-5110.74,-124.38
1764762966.2337368,-149.085,-2000.97,-26017.29,-8760.195,-17624.925,-25138.755,-5107.724999999999,-118.395
1764762966.2337368,-153.26999999999998,-2008.575,-26027.685,-8770.41,-17631.18,-25142.805,-5110.02,-120.78
1764762966.2337368,-158.265,-2013.84,-26035.02,-8776.395,-17635.545,-25146.72,-5112.764999999999,-124.605
1764762966.2337368,-153.63,-2007.225,-26027.235,-8769.015,-17631.315,-25144.65,-5111.91,-121.05
1764762966.2337368,-156.06,-2011.32,-26032.185,-8773.065,-17635.725,-25148.295,-5113.755,-123.93
1764762966.2337368,-152.64,-2008.35,-26028.72,-8769.24,-17631.54,-25143.75,-5111.01,-120.735
1764762966.2337368,-150.975,-2003.76,-26023.635,-8764.425,-17627.535,-25141.905,-5109.3,-119.52
1764762966.2337368,-155.385,-2009.07,-26029.71,-8769.645,-17631.855,-25146.405,-5111.73,-123.615
1764762966.2337368,-153.45,-2009.43,-26030.43,-8770.185,-17631.045,-25144.065,-5111.28,-121.59
1764762966.2337368,-157.14,-2012.04,-26032.23,-8772.345,-17633.07,-25146.99,-5113.395,-123.705
1764762966.2337368,-154.665,-2009.97,-26030.295,-8770.545,-17630.595,-25144.695,-5111.325,-120.78
1764762966.2337368,-156.555,-2011.32,-26030.7,-8770.77,-17632.845,-25145.82,-5112.63,-123.12
1764762966.2337368,-150.61499999999998,-2004.165,-26022.465,-8762.4,-17625.915,-25141.095,-5108.895,-118.305
1764762966.2349732,-150.21,-2003.67,-26020.755,-8762.085,-17625.87,-25142.04,-5108.264999999999,-118.17
1764762966.2349732,-155.295,-2008.845,-26027.64,-8770.05,-17636.309999999998,-25147.665,-5110.83,-121.95
1764762966.2349732,-151.73999999999998,-2006.28,-26025.93,-8767.395,-17641.845,-25143.3,-5107.41,-117.27
1764762966.2349732,-151.11,-2006.685,-26026.83,-8769.779999999999,-17646.48,-25144.92,-5106.915,-117.18
1764762966.2349732,-151.29,-2005.74,-26026.02,-8770.005,-17641.53,-25147.17,-5109.57,-119.07
1764762966.282899,-149.805,-2003.22,-26022.195,-8766.315,-17632.62,-25145.19,-5109.345,-117.945
1764762966.282899,-151.38,-2005.785,-26025.57,-8768.699999999999,-17628.434999999998,-25144.965,-5110.38,-118.8
1764762966.282899,-155.07,-2011.005,-26031.42,-8773.65,-17628.84,-25147.305,-5112.495,-122.4
1764762966.282899,-152.055,-2007.09,-26026.92,-8768.115,-17623.89,-25145.505,-5111.73,-119.925
1764762966.282899,-153.765,-2008.08,-26026.38,-8768.115,-17628.704999999998,-25148.205,-5112.045,-120.915
1764762966.282899,-158.13,-2011.14,-26028.225,-8770.14,-17633.204999999998,-25151.22,-5113.665,-124.74
1764762966.282899,-160.29,-2013.93,-26030.565,-8771.94,-17630.73,-25148.385,-5114.115,-127.08
1764762966.282899,-158.22,-2013.93,-26030.07,-8769.779999999999,-17624.565,-25140.915,-5110.92,-123.93
1764762966.282899,-156.69,-2012.805,-26029.575,-8770.095,-17625.645,-25140.105,-5109.165,-121.905
1764762966.282899,-157.36499999999998,-2013.66,-26031.825,-8773.605,-17631.315,-25143.975,-5110.695,-123.3
1764762966.282899,-158.715,-2014.02,-26033.49,-8775.585,-17635.095,-25146.405,-5112.09,-125.505
1764762966.282899,-155.07,-2010.24,-26029.845,-8771.13,-17630.64,-25143.21,-5109.615,-122.49
1764762966.282899,-153.54,-2008.08,-26027.28,-8768.115,-17630.1,-25146.81,-5107.815,-121.41
1764762966.282899,-148.725,-2002.5,-26019.405,-8761.41,-17626.274999999998,-25146.18,-5105.745,-116.595
1764762966.282899,-147.465,-1999.35,-26015.355,-8757.765,-17625.195,-25145.82,-5105.16,-115.92
1764762966.282899,-148.905,-1999.71,-26016.075,-8759.565,-17628.704999999998,-25147.62,-5106.33,-117.855
1764762966.282899,-145.665,-1996.785,-26013.42,-8756.324999999999,-17623.53,-25141.725,-5103.855,-113.985
1764762966.282899,-148.005,-1998.9,-26015.49,-8757.63,-17623.305,-25140.285,-5102.82,-115.92
1764762966.282899,-143.54999999999998,-1995.975,-26013.06,-8755.83,-17619.614999999998,-25132.95,-5098.32,-110.745
1764762966.282899,-150.48,-2006.145,-26026.56,-8770.77,-17631.989999999998,-25141.68,-5104.44,-116.865
1764762966.282899,-156.87,-2012.355,-26033.67,-8777.34,-17637.255,-25147.89,-5108.94,-122.4
1764762966.282899,-157.32,-2012.94,-26034.93,-8777.654999999999,-17638.785,-25148.475,-5109.929999999999,-123.21
1764762966.3295324,-156.465,-2014.02,-26037.18,-8779.725,-17637.975,-25147.35,-5109.615,-121.23
1764762966.3295324,-155.11499999999998,-2012.265,-26034.795,-8777.34,-17635.32,-25147.17,-5109.165,-120.105
1764762966.3295324,-155.11499999999998,-2011.05,-26032.05,-8774.505,-17633.34,-25148.025,-5109.48,-121.68
1764762966.3295324,-157.76999999999998,-2012.94,-26034.435,-8777.115,-17636.535,-25151.58,-5110.965,-124.38
1764762966.3295324,-154.39499999999998,-2008.17,-26030.025,-8773.605,-17634.149999999998,-25148.115,-5108.895,-119.745
1764762966.3295324,-152.73,-2006.775,-26028.405,-8773.154999999999,-17635.364999999998,-25148.52,-5108.04,-119.43
1764762966.3295324,-152.37,-2007.0,-26028.9,-8775.765,-17639.01,-25149.735,-5107.77,-119.385
1764762966.3295324,-155.295,-2008.98,-26030.385,-8779.05,-17644.635,-25151.58,-5109.389999999999,-120.87
1764762966.3295324,-157.725,-2011.815,-26032.86,-8778.96,-17647.335,-25153.065,-5110.11,-124.11
1764762966.3295324,-152.82,-2007.27,-26029.35,-8774.235,-17643.059999999998,-25148.43,-5107.05,-119.52
1764762966.3295324,-152.54999999999998,-2007.315,-26028.81,-8774.685,-17641.89,-25148.88,-5107.455,-119.34
1764762966.3295324,-152.95499999999998,-2007.27,-26027.505,-8772.93,-17638.29,-25148.07,-5108.085,-120.555
1764762966.3295324,-153.315,-2004.93,-26024.04,-8768.07,-17633.114999999998,-25146.09,-5107.05,-120.465
1764762966.3295324,-153.045,-2002.545,-26019.54,-8762.805,-17629.739999999998,-25146.855,-5106.33,-121.68
1764762966.3295324,-150.75,-1999.845,-26016.615,-8759.43,-17624.79,-25144.695,-5105.115,-120.195
1764762966.3295324,-151.155,-2002.635,-26020.845,-8760.33,-17621.325,-25141.095,-5103.585,-118.305
1764762966.3295324,-152.86499999999998,-2006.685,-26025.84,-8763.75,-17622.989999999998,-25141.32,-5104.304999999999,-119.655
1764762966.3295324,-157.32,-2013.255,-26032.68,-8770.994999999999,-17629.155,-25146.045,-5107.32,-123.885
1764762966.3295324,-157.23,-2014.245,-26033.805,-8771.535,-17628.66,-25144.83,-5106.51,-123.93
1764762966.3295324,-153.9,-2009.61,-26027.64,-8765.73,-17624.114999999998,-25141.5,-5103.63,-121.14
1764762966.3295324,-148.36499999999998,-2003.715,-26022.06,-8762.22,-17625.285,-25138.98,-5100.84,-115.695
1764762966.3295324,-146.79,-2001.96,-26020.98,-8763.795,-17635.77,-25142.085,-5101.605,-115.965
1764762966.3295324,-148.995,-2003.265,-26024.04,-8767.845,-17644.905,-25149.78,-5103.63,-118.53
1764762966.3295324,-149.265,-2002.905,-26024.805,-8768.744999999999,-17642.79,-25153.695,-5104.395,-117.72
1764762966.3295324,-144.9,-1997.055,-26017.515,-8761.275,-17630.864999999998,-25148.205,-5102.415,-113.445
1764762966.3295324,-143.505,-1994.4,-26012.88,-8756.91,-17624.61,-25143.795,-5101.38,-112.14
1764762966.3727424,-144.98999999999998,-1996.965,-26017.245,-8759.295,-17623.079999999998,-25141.095,-5100.84,-113.4
1764762966.3727424,-150.12,-2003.985,-26025.21,-8763.119999999999,-17620.739999999998,-25138.98,-5102.55,-118.17
1764762966.3727424,-153.54,-2009.07,-26031.375,-8767.215,-17622.225,-25136.055,-5101.65,-120.015
1764762966.3727424,-155.835,-2013.39,-26034.93,-8773.785,-17630.954999999998,-25140.69,-5103.09,-121.545
1764762966.3727424,-158.805,-2016.18,-26036.325,-8776.755,-17632.485,-25143.165,-5105.565,-125.82
1764762966.3727424,-156.23999999999998,-2012.22,-26031.555,-8773.425,-17629.29,-25140.87,-5103.855,-123.57
1764762966.3727424,-150.165,-2004.48,-26024.94,-8767.08,-17628.075,-25139.79,-5101.785,-117.855
1764762966.3727424,-150.255,-2003.175,-26023.5,-8765.505,-17628.614999999998,-25141.005,-5102.639999999999,-118.755
1764762966.3727424,-155.51999999999998,-2007.09,-26026.83,-8769.735,-17633.295,-25145.46,-5105.925,-122.76
1764762966.3727424,-155.655,-2009.07,-26029.035,-8772.255,-17633.745,-25145.415,-5105.025,-121.14
1764762966.3727424,-150.93,-2007.09,-26027.775,-8769.42,-17628.39,-25139.295,-5100.705,-116.82
1764762966.3727424,-151.92,-2005.695,-26025.3,-8767.215,-17629.155,-25141.23,-5102.37,-118.62
1764762966.3727424,-149.04,-2000.655,-26019.585,-8760.24,-17625.555,-25139.655,-5100.615,-117.36
1764762966.3727424,-146.43,-1996.695,-26015.04,-8755.695,-17621.37,-25137.54,-5098.59,-115.605
1764762966.3727424,-151.01999999999998,-2002.77,-26021.61,-8762.355,-17624.565,-25139.43,-5100.389999999999,-118.53
1764762966.3727424,-158.085,-2012.67,-26033.715,-8773.335,-17635.815,-25145.955,-5104.17,-123.66
1764762966.3727424,-153.09,-2007.36,-26028.585,-8769.779999999999,-17635.905,-25144.965,-5103.045,-119.79
1764762966.3727424,-152.28,-2004.57,-26023.77,-8766.045,-17632.079999999998,-25143.57,-5101.83,-118.665
1764762966.3737693,-152.86499999999998,-2004.75,-26024.715,-8766.63,-17630.73,-25142.94,-5101.514999999999,-119.115
1764762966.3737693,-152.86499999999998,-2006.82,-26029.44,-8770.949999999999,-17631.09,-25142.985,-5100.389999999999,-119.205
1764762966.420443,-149.13,-2004.255,-26026.2,-8767.89,-17626.995,-25140.33,-5098.139999999999,-115.02
1764762966.420443,-152.95499999999998,-2006.73,-26028.405,-8769.869999999999,-17629.245,-25145.055,-5101.74,-118.53
1764762966.4209497,-149.04,-2000.79,-26023.545,-8765.145,-17627.67,-25142.895,-5100.21,-114.84
1764762966.4209497,-147.015,-1999.8,-26022.105,-8763.164999999999,-17626.095,-25140.24,-5097.645,-113.04
1764762966.4209497,-145.07999999999998,-1997.325,-26018.37,-8759.61,-17622.989999999998,-25139.655,-5095.935,-112.59
1764762966.4209497,-143.64,-1993.14,-26013.375,-8754.164999999999,-17620.065,-25137.855,-5094.585,-111.465
1764762966.4209497,-142.785,-1991.61,-26010.315,-8752.14,-17620.065,-25137.225,-5094.54,-111.195
1764762966.4209497,-146.43,-1996.965,-26016.165,-8758.845,-17626.005,-25141.23,-5097.735,-114.975
1764762966.4209497,-153.855,-2008.26,-26031.015,-8772.3,-17632.215,-25145.685,-5100.48,-119.34
1764762966.4209497,-159.48,-2015.73,-26040.105,-8780.265,-17637.03,-25149.465,-5104.44,-123.615
1764762966.4209497,-155.475,-2010.24,-26033.805,-8774.145,-17632.89,-25146.54,-5102.595,-121.14
1764762966.4209497,-158.4,-2011.905,-26033.94,-8775.315,-17635.41,-25148.745,-5104.44,-125.055
1764762966.4209497,-154.44,-2007.81,-26029.17,-8770.77,-17634.059999999998,-25145.865,-5102.775,-122.265
1764762966.4209497,-155.34,-2007.99,-26028.9,-8772.255,-17640.09,-25149.69,-5104.98,-123.885
1764762966.4214563,-157.32,-2009.475,-26031.105,-8773.065,-17640.809999999998,-25149.78,-5104.845,-124.83
1764762966.4214563,-157.725,-2009.745,-26031.78,-8773.289999999999,-17639.145,-25147.98,-5104.349999999999,-124.425
1764762966.4214563,-155.16,-2008.665,-26031.24,-8771.445,-17635.59,-25145.685,-5102.054999999999,-121.365
1764762966.4214563,-158.94,-2013.93,-26035.965,-8775.945,-17638.695,-25152.255,-5104.17,-125.28
1764762966.4214563,-156.32999999999998,-2010.735,-26033.265,-8774.73,-17638.785,-25154.055,-5103.63,-123.615
1764762966.4214563,-149.89499999999998,-2003.67,-26025.795,-8768.88,-17634.69,-25148.565,-5099.49,-117.405
1764762966.4214563,-149.67,-2002.815,-26025.345,-8769.015,-17634.78,-25147.935,-5099.13,-116.91
1764762966.4214563,-155.79,-2008.845,-26030.52,-8774.505,-17638.515,-25152.48,-5103.405,-122.985
1764762966.4214563,-153.855,-2006.505,-26027.73,-8771.4,-17634.735,-25149.465,-5102.865,-121.68
1764762966.4214563,-156.465,-2008.53,-26029.17,-8772.3,-17635.364999999998,-25149.87,-5103.945,-124.11
1764762966.4214563,-152.505,-2004.165,-26024.94,-8767.98,-17631.09,-25146.27,-5101.965,-121.095
1764762966.4214563,-150.93,-2001.42,-26021.79,-8764.56,-17629.875,-25146.405,-5100.795,-119.79
1764762966.4214563,-151.785,-2001.42,-26021.745,-8765.82,-17635.95,-25151.355,-5101.065,-121.005
1764762966.4214563,-147.465,-1996.605,-26015.04,-8759.295,-17634.915,-25146.63,-5097.24,-117.135
1764762966.4684343,-153.045,-2003.13,-26023.455,-8766.99,-17645.355,-25152.03,-5100.075,-121.23
1764762966.4684343,-156.285,-2008.44,-26031.69,-8775.494999999999,-17650.98,-25154.73,-5103.179999999999,-123.39
1764762966.4684343,-155.655,-2010.465,-26034.93,-8780.039999999999,-17648.145,-25153.155,-5102.685,-121.005
1764762966.4684343,-158.4,-2013.885,-26037.675,-8784.09,-17646.885,-25153.02,-5103.855,-124.29
1764762966.4689655,-159.57,-2013.57,-26034.705,-8781.119999999999,-17640.899999999998,-25149.105,-5104.08,-127.17
1764762966.4689655,-154.845,-2008.845,-26028.9,-8771.445,-17631.135,-25141.455,-5100.255,-121.995
1764762966.4689655,-153.98999999999998,-2007.945,-26027.865,-8770.095,-17631.899999999998,-25144.29,-5100.12,-120.645
1764762966.4689655,-158.31,-2013.21,-26033.76,-8774.82,-17635.364999999998,-25148.97,-5101.74,-124.155
1764762966.4689655,-157.905,-2014.605,-26035.245,-8774.145,-17633.25,-25148.52,-5101.065,-123.795
1764762966.4689655,-156.825,-2010.915,-26029.845,-8768.789999999999,-17628.345,-25145.73,-5101.245,-123.75
1764762966.4689655,-157.68,-2010.6,-26029.395,-8767.08,-17623.35,-25142.175,-5101.47,-123.93
1764762966.4689655,-153.09,-2007.225,-26025.84,-8762.94,-17622.0,-25139.115,-5097.78,-118.26
1764762966.4689655,-148.32,-2002.455,-26019.675,-8759.07,-17630.325,-25144.695,-5095.395,-115.245
1764762966.4689655,-148.36499999999998,-2000.61,-26018.28,-8761.41,-17643.329999999998,-25158.285,-5097.375,-115.74
1764762966.4689655,-146.34,-1998.045,-26016.21,-8764.425,-17650.44,-25167.06,-5100.165,-116.55
1764762966.4689655,-139.86,-1992.105,-26011.53,-8767.485,-17655.39,-25162.335,-5098.095,-110.43
1764762966.4689655,-139.76999999999998,-1993.005,-26014.545,-8777.025,-17663.805,-25160.265,-5097.554999999999,-110.16
1764762966.4689655,-148.23,-2004.39,-26029.17,-8789.22,-17666.774999999998,-25161.39,-5101.875,-115.785
1764762966.4689655,-158.31,-2016.855,-26043.345,-8797.005,-17668.53,-25162.92,-5106.465,-122.265
1764762966.4689655,-162.63,-2020.725,-26045.82,-8796.914999999999,-17665.38,-25162.29,-5107.905,-126.585
1764762966.4689655,-159.03,-2014.47,-26037.045,-8785.755,-17652.059999999998,-25156.53,-5105.07,-124.605
1764762966.4689655,-155.295,-2008.89,-26028.765,-8771.625,-17634.329999999998,-25146.9,-5099.804999999999,-121.005
1764762966.5153477,-154.17,-2009.565,-26030.88,-8769.465,-17632.215,-25143.705,-5098.32,-119.205
1764762966.5153477,-158.985,-2016.54,-26039.025,-8775.99,-17636.715,-25147.08,-5100.075,-123.525
1764762966.5153477,-155.43,-2013.12,-26036.685,-8776.305,-17634.645,-25144.92,-5097.78,-120.555
1764762966.5153477,-152.01,-2010.465,-26035.74,-8779.904999999999,-17644.095,-25152.345,-5098.139999999999,-118.665
1764762966.5153477,-149.445,-2008.125,-26033.625,-8780.85,-17659.62,-25163.46,-5099.085,-116.685
1764762966.5153477,-146.565,-2003.58,-26028.405,-8779.904999999999,-17672.805,-25173.135,-5099.49,-114.345
1764762966.5153477,-143.54999999999998,-1998.315,-26023.005,-8775.9,-17674.515,-25176.555,-5099.625,-112.995
1764762966.5153477,-140.445,-1993.68,-26018.055,-8774.955,-17680.815,-25183.44,-5100.345,-110.79
1764762966.5153477,-138.195,-1990.89,-26017.47,-8785.44,-17683.11,-25183.35,-5099.175,-108.045
1764762966.5153477,-136.35,-1988.82,-26015.76,-8786.88,-17668.26,-25166.25,-5094.81,-106.02
1764762966.5153477,-143.325,-1997.595,-26025.57,-8787.96,-17646.704999999998,-25151.355,-5094.09,-110.52
1764762966.5153477,-153.405,-2010.285,-26035.695,-8785.35,-17637.39,-25154.055,-5097.51,-117.945
1764762966.5153477,-156.87,-2011.77,-26033.94,-8774.01,-17629.785,-25155.63,-5099.04,-120.96
1764762966.5158532,-156.23999999999998,-2008.53,-26028.405,-8765.279999999999,-17629.335,-25158.87,-5100.795,-121.86
1764762966.5158532,-151.82999999999998,-2002.095,-26019.18,-8755.425,-17625.78,-25150.59,-5098.545,-118.755
1764762966.5158532,-151.42499999999998,-2000.07,-26015.535,-8751.779999999999,-17624.52,-25144.74,-5097.96,-119.52
1764762966.5158532,-158.535,-2008.485,-26024.265,-8759.97,-17623.62,-25140.645,-5099.67,-125.595
1764762966.5158532,-162.405,-2013.255,-26028.045,-8759.43,-17610.84,-25131.195,-5099.445,-127.125
1764762966.5158532,-170.28,-2020.725,-26035.47,-8764.65,-17601.75,-25124.715,-5101.245,-133.785
1764762966.5158532,-169.065,-2020.365,-26035.74,-8766.585,-17607.195,-25123.275,-5097.915,-131.535
1764762966.5158532,-161.37,-2011.365,-26025.615,-8758.71,-17609.76,-25118.055,-5092.83,-124.605
1764762966.5158532,-163.485,-2012.445,-26026.155,-8758.305,-17606.34,-25121.745,-5094.315,-127.755
1764762966.5158532,-160.515,-2009.565,-26024.04,-8756.414999999999,-17604.405,-25122.96,-5091.03,-125.19
1764762966.5158532,-160.29,-2010.915,-26027.955,-8762.355,-17610.57,-25129.98,-5093.19,-124.56
1764762966.5623634,-155.25,-2006.37,-26024.805,-8760.15,-17611.605,-25132.68,-5093.91,-120.015
1764762966.5623634,-153.405,-2003.58,-26021.79,-8757.404999999999,-17612.595,-25136.235,-5094.09,-119.025
1764762966.5623634,-156.015,-2007.405,-26027.055,-8763.84,-17621.954999999998,-25144.155,-5096.52,-122.58
1764762966.5623634,-158.17499999999998,-2011.365,-26032.095,-8769.465,-17626.545,-25144.83,-5097.375,-123.39
1764762966.5623634,-155.745,-2009.43,-26029.89,-8768.475,-17626.005,-25141.68,-5095.935,-120.87
1764762966.5623634,-154.44,-2006.64,-26028.495,-8768.52,-17629.29,-25143.39,-5095.349999999999,-120.555
1764762966.5623634,-156.465,-2008.89,-26031.195,-8773.02,-17634.915,-25147.305,-5096.88,-122.355
1764762966.5623634,-162.54,-2014.515,-26035.515,-8777.789999999999,-17640.855,-25154.64,-5102.91,-129.24
1764762966.5623634,-160.155,-2012.04,-26033.085,-8774.595,-17636.579999999998,-25150.815,-5102.28,-127.71
1764762966.5623634,-157.635,-2011.545,-26032.275,-8771.31,-17629.425,-25144.245,-5098.995,-124.83
1764762966.5623634,-158.57999999999998,-2013.39,-26033.805,-8772.255,-17630.145,-25144.56,-5097.33,-124.74
1764762966.5623634,-158.715,-2013.345,-26033.355,-8773.47,-17636.895,-25148.88,-5098.32,-124.38
1764762966.5623634,-157.68,-2011.725,-26032.095,-8773.965,-17643.149999999998,-25152.795,-5098.86,-123.48
1764762966.5623634,-158.17499999999998,-2010.87,-26031.465,-8775.0,-17647.245,-25157.565,-5101.38,-125.19
1764762966.5623634,-160.245,-2012.85,-26033.625,-8777.97,-17648.774999999998,-25161.795,-5104.53,-127.53
1764762966.5623634,-158.625,-2012.085,-26032.14,-8776.35,-17645.355,-25158.42,-5102.91,-126.27
1764762966.5623634,-156.375,-2009.07,-26028.54,-8771.94,-17640.36,-25152.12,-5100.57,-123.93
1764762966.5628676,-158.355,-2012.13,-26030.88,-8773.065,-17638.425,-25149.51,-5100.885,-124.875
1764762966.5628676,-160.785,-2016.45,-26034.795,-8775.36,-17636.309999999998,-25148.88,-5099.58,-125.595
1764762966.5628676,-166.905,-2022.975,-26040.915,-8781.39,-17639.64,-25153.92,-5100.84,-130.365
1764762966.5628676,-163.755,-2018.745,-26036.865,-8777.88,-17637.93,-25155.72,-5099.58,-127.395
1764762966.5628676,-160.38,-2014.245,-26032.635,-8773.695,-17635.14,-25156.395,-5099.264999999999,-125.505
1764762966.6092353,-159.255,-2011.815,-26030.205,-8770.5,-17631.045,-25154.325,-5099.445,-125.415
1764762966.6092353,-159.70499999999998,-2011.68,-26030.025,-8771.175,-17633.25,-25154.28,-5100.929999999999,-126.27
1764762966.6092353,-156.465,-2009.43,-26029.305,-8771.535,-17636.399999999998,-25153.65,-5099.715,-123.93
1764762966.6092353,-152.95499999999998,-2006.37,-26026.47,-8767.755,-17630.55,-25145.325,-5095.845,-119.34
1764762966.6092353,-156.78,-2009.61,-26028.495,-8768.07,-17628.255,-25142.355,-5096.835,-122.22
1764762966.6092353,-160.875,-2014.47,-26033.805,-8771.49,-17630.73,-25143.3,-5098.5,-125.145
1764762966.6092353,-161.46,-2014.965,-26034.93,-8772.705,-17633.34,-25145.19,-5098.365,-126.405
1764762966.6092353,-163.62,-2016.72,-26035.695,-8774.369999999999,-17638.649999999998,-25151.13,-5100.345,-129.69
1764762966.6092353,-157.14,-2008.8,-26026.2,-8766.72,-17635.32,-25152.795,-5097.554999999999,-125.73
1764762966.6092353,-148.36499999999998,-1998.225,-26014.095,-8756.505,-17628.57,-25148.79,-5092.83,-117.765
1764762966.6092353,-149.535,-1999.89,-26016.57,-8758.529999999999,-17630.01,-25149.42,-5093.28,-118.485
1764762966.6092353,-156.735,-2008.575,-26027.28,-8770.14,-17640.045,-25154.505,-5097.15,-123.48
1764762966.6092353,-159.61499999999998,-2014.92,-26036.82,-8779.185,-17642.52,-25154.01,-5098.139999999999,-124.695
1764762966.610638,-158.48999999999998,-2013.795,-26036.01,-8777.97,-17638.065,-25148.34,-5096.565,-122.355
1764762966.610638,-162.9,-2017.44,-26040.78,-8783.055,-17639.145,-25148.205,-5098.59,-127.17
1764762966.610638,-169.56,-2024.595,-26047.395,-8786.789999999999,-17641.17,-25150.905,-5102.235,-133.695
1764762966.610638,-164.295,-2018.025,-26037.9,-8777.295,-17636.579999999998,-25147.845,-5098.77,-128.655
1764762966.610638,-167.805,-2020.455,-26038.89,-8779.095,-17642.52,-25154.775,-5100.795,-132.21
1764762966.610638,-166.59,-2020.275,-26039.115,-8777.97,-17640.18,-25154.145,-5099.76,-131.13
1764762966.610638,-160.155,-2015.28,-26035.695,-8773.335,-17635.545,-25150.005,-5097.105,-124.92
1764762966.610638,-158.13,-2012.85,-26035.29,-8774.775,-17640.945,-25153.065,-5097.375,-122.85
1764762966.610638,-157.32,-2012.13,-26035.335,-8777.43,-17648.415,-25157.07,-5097.96,-123.255
1764762966.610638,-158.04,-2012.085,-26033.94,-8777.475,-17652.329999999998,-25159.5,-5099.085,-124.515
1764762966.610638,-160.47,-2013.84,-26034.885,-8777.52,-17650.755,-25160.49,-5100.615,-127.485
1764762966.6571271,-158.57999999999998,-2011.32,-26032.455,-8773.515,-17642.295,-25156.845,-5099.985,-125.91
1764762966.6571271,-162.855,-2014.515,-26035.02,-8776.17,-17642.52,-25159.095,-5102.099999999999,-129.735
1764762966.6571271,-160.82999999999998,-2012.895,-26032.365,-8772.75,-17637.57,-25155.045,-5099.895,-126.99
1764762966.6571271,-165.375,-2017.89,-26038.62,-8777.88,-17641.395,-25158.195,-5101.875,-131.31
1764762966.6571271,-163.44,-2016.54,-26038.305,-8778.33,-17640.675,-25155.765,-5100.12,-127.845
1764762966.6571271,-164.20499999999998,-2017.575,-26039.745,-8778.824999999999,-17643.105,-25156.935,-5099.49,-127.98
1764762966.6571271,-163.44,-2016.855,-26037.36,-8776.44,-17643.105,-25156.485,-5097.24,-128.25
1764762966.6571271,-157.23,-2009.97,-26030.115,-8769.465,-17637.39,-25151.13,-5094.405,-123.03
1764762966.6571271,-155.655,-2007.855,-26027.73,-8766.855,-17635.05,-25150.455,-5094.27,-122.715
1764762966.6571271,-154.89,-2006.055,-26025.12,-8765.73,-17633.565,-25151.265,-5093.639999999999,-121.905
1764762966.6571271,-155.97,-2007.45,-26026.56,-8768.025,-17634.78,-25152.93,-5094.36,-122.805
1764762966.6571271,-163.485,-2015.685,-26035.875,-8777.07,-17641.934999999998,-25159.14,-5099.445,-129.42
1764762966.6571271,-162.045,-2015.19,-26034.345,-8776.08,-17641.305,-25157.16,-5098.275,-128.295
1764762966.6571271,-160.73999999999998,-2015.64,-26034.885,-8775.945,-17639.415,-25154.28,-5096.565,-125.685
1764762966.6571271,-164.745,-2020.23,-26040.015,-8779.994999999999,-17643.239999999998,-25157.295,-5098.95,-129.69
1764762966.6571271,-165.32999999999998,-2019.69,-26038.305,-8778.869999999999,-17642.52,-25156.44,-5099.58,-130.41
1764762966.6571271,-159.165,-2011.905,-26029.89,-8770.77,-17635.77,-25151.04,-5095.889999999999,-125.37
1764762966.6571271,-155.835,-2005.155,-26023.05,-8764.785,-17633.79,-25150.59,-5094.585,-124.245
1764762966.6571271,-154.305,-2002.05,-26017.83,-8760.914999999999,-17633.07,-25151.625,-5094.495,-124.065
1764762966.6571271,-156.42,-2004.255,-26020.215,-8764.92,-17637.21,-25155.63,-5095.304999999999,-125.415
1764762966.6571271,-158.76,-2010.42,-26027.865,-8771.67,-17640.72,-25156.755,-5096.88,-126.54
1764762966.6571271,-165.015,-2018.385,-26037.315,-8780.265,-17646.614999999998,-25162.065,-5100.84,-132.29999999999998
1764762966.6571271,-165.735,-2021.715,-26043.12,-8784.18,-17645.67,-25157.745,-5099.085,-130.68
1764762966.6571271,-165.915,-2023.92,-26045.415,-8783.955,-17643.059999999998,-25154.055,-5097.06,-129.64499999999998
1764762966.7032712,-164.43,-2020.545,-26041.14,-8780.85,-17642.61,-25155.0,-5097.554999999999,-128.745
1764762966.7032712,-166.68,-2021.85,-26041.815,-8783.865,-17647.875,-25160.805,-5100.885,-132.39
1764762966.7032712,-165.23999999999998,-2019.78,-26039.97,-8782.154999999999,-17647.695,-25160.94,-5099.355,-131.625
1764762966.7032712,-162.585,-2016.81,-26037.585,-8780.265,-17647.335,-25160.13,-5097.96,-128.565
1764762966.7032712,-164.11499999999998,-2018.88,-26039.97,-8782.605,-17649.63,-25162.47,-5098.545,-129.87
1764762966.7032712,-163.755,-2017.17,-26038.395,-8780.67,-17646.975,-25159.95,-5096.25,-128.565
1764762966.7032712,-160.065,-2012.13,-26032.86,-8774.414999999999,-17641.125,-25154.64,-5093.325,-124.695
1764762966.7032712,-164.745,-2016.585,-26036.595,-8777.97,-17645.355,-25160.265,-5097.915,-130.905
1764762966.7032712,-166.815,-2019.825,-26039.205,-8780.49,-17645.535,-25160.085,-5098.95,-132.39
1764762966.7032712,-165.825,-2020.23,-26040.465,-8780.265,-17643.735,-25158.015,-5097.554999999999,-130.905
1764762966.7032712,-161.775,-2015.28,-26036.64,-8776.845,-17641.26,-25155.54,-5095.035,-126.99
1764762966.7032712,-164.295,-2016.18,-26038.575,-8780.13,-17646.704999999998,-25160.265,-5096.925,-128.88
1764762966.7032712,-159.21,-2012.265,-26034.255,-8776.215,-17644.59,-25158.42,-5095.304999999999,-125.055
1764762966.7032712,-157.59,-2011.365,-26033.625,-8776.305,-17645.445,-25158.555,-5094.99,-124.515
1764762966.7032712,-160.515,-2015.1,-26036.865,-8780.22,-17649.809999999998,-25161.48,-5095.395,-128.115
1764762966.7032712,-159.70499999999998,-2015.415,-26035.56,-8778.375,-17649.45,-25158.33,-5093.19,-126.45
1764762966.7032712,-157.905,-2012.445,-26032.77,-8774.955,-17647.965,-25157.43,-5092.245,-123.93
1764762966.7032712,-160.01999999999998,-2013.255,-26033.715,-8776.08,-17648.325,-25163.46,-5094.81,-126.27
1764762966.7032712,-159.12,-2012.445,-26032.86,-8775.63,-17645.579999999998,-25164.855,-5094.99,-125.595
1764762966.7032712,-160.01999999999998,-2013.12,-26033.22,-8776.664999999999,-17644.815,-25165.08,-5097.105,-126.45
1764762966.7032712,-165.78,-2019.465,-26040.645,-8782.47,-17646.524999999998,-25165.35,-5100.48,-131.89499999999998
1764762966.7032712,-163.215,-2017.35,-26038.26,-8779.365,-17642.25,-25160.715,-5097.554999999999,-128.97
1764762966.7032712,-164.655,-2018.25,-26038.395,-8780.039999999999,-17647.2,-25163.595,-5098.365,-130.45499999999998
1764762966.7032712,-164.11499999999998,-2017.44,-26037.855,-8780.715,-17648.28,-25162.83,-5098.139999999999,-129.6
1764762966.7510262,-167.22,-2020.365,-26042.22,-8784.945,-17651.204999999998,-25165.305,-5099.895,-133.01999999999998
1764762966.7510262,-162.855,-2015.91,-26036.685,-8779.14,-17645.895,-25161.525,-5097.24,-129.555
1764762966.7510262,-163.39499999999998,-2015.28,-26036.955,-8781.345,-17650.71,-25163.865,-5098.455,-130.905
1764762966.7510262,-169.38,-2020.545,-26041.77,-8787.33,-17663.04,-25170.345,-5102.595,-137.43
1764762966.7510262,-167.805,-2020.005,-26040.555,-8785.664999999999,-17663.579999999998,-25169.445,-5100.929999999999,-135.99
1764762966.7510262,-166.45499999999998,-2020.995,-26041.725,-8784.99,-17654.265,-25163.595,-5098.095,-132.48
1764762966.7510262,-164.88,-2019.645,-26041.005,-8782.875,-17648.325,-25160.49,-5095.889999999999,-130.545
1764762966.7510262,-163.935,-2018.88,-26039.79,-8780.715,-17647.785,-25159.545,-5095.26,-129.915
1764762966.7510262,-164.835,-2020.365,-26040.78,-8780.805,-17647.155,-25159.77,-5095.304999999999,-131.49
1764762966.7510262,-163.62,-2018.655,-26038.26,-8778.24,-17643.915,-25158.915,-5095.08,-130.185
1764762966.7510262,-159.57,-2014.605,-26035.245,-8777.52,-17646.524999999998,-25161.885,-5094.09,-125.91
1764762966.7510262,-161.055,-2016.09,-26036.505,-8779.275,-17650.035,-25168.905,-5094.675,-126.405
1764762966.7510262,-156.195,-2011.095,-26030.475,-8770.545,-17639.774999999998,-25161.93,-5090.804999999999,-121.95
1764762966.7510262,-159.12,-2012.895,-26031.915,-8771.715,-17638.785,-25160.49,-5091.66,-124.785
1764762966.7510262,-154.935,-2008.35,-26027.235,-8768.205,-17637.795,-25156.62,-5089.815,-121.14
1764762966.7510262,-157.45499999999998,-2010.33,-26028.36,-8770.14,-17641.755,-25159.14,-5092.155,-124.47
1764762966.7510262,-155.16,-2008.26,-26025.39,-8766.539999999999,-17635.364999999998,-25152.66,-5090.264999999999,-122.67
1764762966.7510262,-156.465,-2010.375,-26028.315,-8766.494999999999,-17631.989999999998,-25147.665,-5089.005,-122.13
1764762966.7510262,-156.87,-2011.14,-26028.675,-8766.449999999999,-17631.405,-25147.44,-5088.24,-121.68
1764762966.7510262,-159.12,-2014.965,-26032.905,-8772.119999999999,-17637.48,-25152.12,-5089.545,-124.065
1764762966.795295,-158.85,-2015.46,-26033.265,-8775.18,-17642.07,-25155.9,-5090.94,-124.38
1764762966.795295,-159.57,-2014.47,-26032.68,-8776.08,-17645.805,-25159.14,-5092.2,-125.145
1764762966.795295,-159.39,-2013.255,-26031.87,-8775.765,-17645.895,-25157.34,-5091.929999999999,-125.145
1764762966.795295,-164.655,-2018.205,-26036.28,-8779.005,-17650.62,-25161.615,-5095.755,-132.03
1764762966.7963908,-163.215,-2017.665,-26033.715,-8775.945,-17647.739999999998,-25159.095,-5093.37,-131.04
1764762966.7963908,-159.165,-2013.075,-26028.045,-8770.14,-17641.53,-25153.605,-5089.365,-126.45
1764762966.7963908,-159.84,-2014.74,-26031.285,-8772.885,-17641.62,-25153.155,-5089.59,-126.09
1764762966.7963908,-165.015,-2021.58,-26039.385,-8779.77,-17644.68,-25155.81,-5091.66,-129.915
1764762966.7963908,-166.41,-2022.975,-26040.33,-8781.66,-17646.885,-25158.33,-5092.47,-131.22
1764762966.7963908,-167.715,-2022.03,-26039.745,-8784.27,-17653.68,-25164.045,-5095.08,-133.245
1764762966.7963908,-163.755,-2017.98,-26036.37,-8784.27,-17656.515,-25162.965,-5093.37,-129.735
1764762966.7963908,-165.23999999999998,-2020.41,-26038.89,-8786.205,-17658.989999999998,-25161.48,-5093.19,-131.17499999999998
1764762966.7973888,-160.47,-2013.75,-26032.815,-8778.645,-17654.445,-25157.565,-5090.715,-126.72
1764762966.7973888,-161.28,-2013.3,-26031.195,-8776.98,-17653.905,-25165.305,-5092.695,-129.465
1764762966.7973888,-158.17499999999998,-2010.105,-26028.045,-8773.02,-17647.425,-25165.62,-5090.895,-126.045
1764762966.7973888,-161.28,-2013.705,-26031.78,-8775.9,-17647.695,-25167.915,-5093.595,-129.78
1764762966.7973888,-161.28,-2014.245,-26031.105,-8774.19,-17644.545,-25163.1,-5092.56,-129.32999999999998
1764762966.7973888,-158.13,-2010.375,-26026.02,-8767.845,-17637.614999999998,-25155.81,-5089.365,-126.0
1764762966.7973888,-158.13,-2010.555,-26024.94,-8767.08,-17637.39,-25153.245,-5088.33,-125.55
1764762966.7973888,-162.225,-2017.17,-26035.425,-8777.97,-17642.295,-25153.425,-5088.554999999999,-126.855
1764762966.7973888,-167.48999999999998,-2025.27,-26045.73,-8788.455,-17648.1,-25156.71,-5091.57,-131.445
1764762966.7973888,-169.155,-2024.28,-26044.785,-8787.195,-17650.98,-25161.345,-5092.875,-133.47
1764762966.7973888,-160.695,-2013.75,-26031.87,-8773.92,-17644.095,-25155.18,-5088.15,-126.495
1764762966.7973888,-159.795,-2012.715,-26032.005,-8774.865,-17649.405,-25157.205,-5088.825,-126.63
1764762966.7973888,-162.135,-2015.325,-26036.955,-8780.76,-17655.165,-25160.805,-5090.58,-129.15
1764762966.7973888,-160.01999999999998,-2013.21,-26033.985,-8777.565,-17647.695,-25156.17,-5089.05,-126.855
1764762966.84333,-160.92,-2012.715,-26031.915,-8775.449999999999,-17643.105,-25155.945,-5089.185,-128.16
1764762966.84333,-167.13,-2019.915,-26039.34,-8780.85,-17646.165,-25159.815,-5091.885,-133.065
1764762966.84333,-167.57999999999998,-2022.57,-26043.3,-8783.64,-17644.95,-25156.89,-5089.724999999999,-131.13
1764762966.84333,-169.065,-2024.595,-26045.055,-8786.205,-17647.785,-25159.68,-5091.615,-133.38
1764762966.84333,-162.72,-2016.99,-26036.775,-8780.76,-17649.45,-25158.555,-5088.96,-127.395
1764762966.84333,-161.415,-2015.145,-26034.93,-8780.445,-17656.245,-25160.04,-5088.375,-126.405
1764762966.84333,-162.0,-2016.405,-26036.91,-8782.289999999999,-17661.645,-25161.705,-5089.05,-127.395
1764762966.84333,-168.57,-2022.75,-26042.76,-8787.869999999999,-17663.265,-25167.15,-5094.045,-133.82999999999998
1764762966.84333,-167.22,-2021.355,-26041.635,-8785.98,-17654.355,-25163.505,-5093.37,-132.345
1764762966.84333,-161.86499999999998,-2015.865,-26035.47,-8779.815,-17647.649999999998,-25160.04,-5089.545,-127.395
1764762966.84333,-163.845,-2017.215,-26036.145,-8780.4,-17649.27,-25163.1,-5090.985,-130.45499999999998
1764762966.84333,-163.305,-2015.46,-26032.095,-8773.875,-17641.26,-25158.465,-5090.31,-130.14
1764762966.84333,-159.66,-2010.015,-26025.885,-8766.945,-17636.445,-25154.64,-5087.565,-126.72
1764762966.84333,-152.775,-2002.275,-26017.92,-8759.25,-17630.235,-25147.845,-5081.67,-121.14
1764762966.84333,-153.18,-2004.03,-26020.98,-8761.725,-17633.114999999998,-25147.395,-5080.185,-120.87
1764762966.84333,-156.32999999999998,-2009.34,-26027.55,-8769.779999999999,-17639.19,-25149.555,-5081.175,-122.67
1764762966.84333,-155.88,-2010.645,-26029.44,-8771.58,-17637.704999999998,-25147.665,-5079.195,-121.59
1764762966.8438509,-156.78,-2010.735,-26028.45,-8770.32,-17637.345,-25148.97,-5080.32,-123.525
1764762966.8438509,-155.565,-2008.035,-26024.895,-8767.305,-17637.75,-25150.365,-5081.49,-124.245
1764762966.8438509,-155.745,-2007.225,-26023.995,-8768.34,-17641.89,-25155.09,-5082.389999999999,-124.875
1764762966.8438509,-154.89,-2005.38,-26021.97,-8767.395,-17642.16,-25155.495,-5082.255,-124.425
1764762966.8438509,-153.54,-2003.265,-26020.35,-8764.65,-17639.954999999998,-25153.335,-5079.915,-122.715
1764762966.8925345,-154.71,-2006.19,-26023.41,-8766.045,-17640.315,-25152.12,-5079.735,-122.22
1764762966.8925345,-156.015,-2009.295,-26028.495,-8769.779999999999,-17641.53,-25152.345,-5080.32,-122.67
1764762966.8925345,-151.92,-2006.64,-26025.345,-8766.315,-17636.13,-25147.665,-5076.72,-118.53
1764762966.8925345,-152.82,-2007.27,-26025.48,-8766.404999999999,-17635.815,-25146.495,-5075.73,-119.205
1764762966.8925345,-155.7,-2011.14,-26030.88,-8771.985,-17640.405,-25148.475,-5077.035,-121.5
1764762966.8925345,-160.155,-2016.09,-26036.91,-8777.835,-17645.94,-25154.28,-5080.275,-124.74
1764762966.8925345,-154.39499999999998,-2010.06,-26029.845,-8771.085,-17643.645,-25153.74,-5077.935,-119.16
1764762966.8925345,-150.795,-2005.02,-26023.95,-8766.404999999999,-17644.545,-25155.495,-5077.53,-117.495
1764762966.8925345,-151.73999999999998,-2007.855,-26026.695,-8769.24,-17644.545,-25153.875,-5077.845,-118.395
1764762966.8930588,-158.13,-2014.47,-26034.66,-8775.449999999999,-17646.704999999998,-25155.27,-5081.04,-124.38
1764762966.8930588,-157.095,-2011.59,-26031.285,-8772.615,-17644.364999999998,-25153.11,-5080.365,-123.345
1764762966.8930588,-154.665,-2009.655,-26028.72,-8769.824999999999,-17641.53,-25150.95,-5079.42,-121.5
1764762966.8930588,-155.88,-2009.79,-26028.54,-8769.375,-17642.34,-25152.975,-5081.04,-124.02
1764762966.8930588,-151.73999999999998,-2004.57,-26022.645,-8763.39,-17639.91,-25151.265,-5078.97,-120.105
1764762966.8930588,-152.415,-2005.38,-26022.735,-8764.605,-17641.62,-25154.595,-5079.87,-121.185
1764762966.8930588,-162.315,-2017.035,-26035.425,-8776.395,-17650.395,-25162.38,-5086.304999999999,-129.69
1764762966.8930588,-165.23999999999998,-2021.175,-26041.05,-8781.795,-17651.52,-25162.515,-5087.61,-131.22
1764762966.8930588,-158.48999999999998,-2014.155,-26034.255,-8775.72,-17645.265,-25156.125,-5083.695,-125.46
1764762966.8930588,-156.87,-2010.555,-26030.52,-8772.3,-17643.78,-25153.02,-5081.175,-122.715
1764762966.8930588,-157.095,-2009.34,-26028.27,-8770.455,-17644.454999999998,-25152.705,-5080.545,-123.075
1764762966.8930588,-158.355,-2010.375,-26027.865,-8769.779999999999,-17646.165,-25155.27,-5081.264999999999,-126.54
1764762966.8930588,-154.98,-2006.235,-26022.06,-8764.47,-17640.989999999998,-25151.895,-5079.645,-124.38
1764762966.9392948,-149.94,-2002.32,-26017.74,-8759.835,-17634.735,-25144.56,-5075.865,-119.295
1764762966.9392948,-153.855,-2008.125,-26024.49,-8765.865,-17636.399999999998,-25145.1,-5077.035,-122.04
1764762966.9392948,-157.76999999999998,-2012.445,-26029.62,-8770.68,-17639.73,-25148.61,-5079.24,-125.37
1764762966.9392948,-160.515,-2016.045,-26033.805,-8774.055,-17644.095,-25152.345,-5081.804999999999,-127.485
1764762966.9392948,-161.685,-2017.98,-26035.965,-8777.07,-17646.795,-25153.38,-5082.03,-128.92499999999998
1764762966.9392948,-163.575,-2018.79,-26037.405,-8779.23,-17650.98,-25155.855,-5083.29,-130.905
1764762966.9392948,-162.855,-2017.44,-26036.73,-8780.355,-17656.02,-25159.815,-5083.245,-129.87
1764762966.9392948,-161.415,-2014.785,-26034.615,-8780.13,-17660.835,-25165.62,-5084.415,-128.475
1764762966.9392948,-157.545,-2010.87,-26030.97,-8776.98,-17659.26,-25166.925,-5083.29,-125.01
1764762966.9392948,-160.92,-2013.75,-26034.12,-8779.68,-17661.239999999998,-25171.02,-5084.955,-127.845
1764762966.9392948,-159.03,-2012.58,-26032.32,-8777.07,-17655.12,-25166.745,-5083.92,-127.08
1764762966.9392948,-160.42499999999998,-2013.885,-26034.03,-8777.744999999999,-17653.725,-25165.755,-5084.145,-127.89
1764762966.9392948,-157.185,-2010.825,-26031.645,-8775.449999999999,-17649.45,-25160.895,-5082.66,-124.47
1764762966.9392948,-159.84,-2013.93,-26035.38,-8778.645,-17647.875,-25157.34,-5084.595,-127.395
1764762966.9392948,-160.695,-2013.84,-26034.03,-8777.07,-17644.995,-25153.38,-5083.245,-128.295
1764762966.9392948,-160.82999999999998,-2013.84,-26032.95,-8774.685,-17645.715,-25154.955,-5082.66,-129.465
1764762966.9392948,-160.47,-2012.805,-26031.015,-8771.13,-17642.07,-25152.3,-5080.995,-127.26
1764762966.9392948,-158.445,-2009.79,-26026.695,-8766.855,-17638.92,-25151.31,-5079.285,-126.405
1764762966.9392948,-155.475,-2006.64,-26023.14,-8763.48,-17637.255,-25150.635,-5077.889999999999,-123.795
1764762966.9392948,-158.985,-2009.25,-26026.02,-8767.755,-17644.5,-25158.105,-5081.804999999999,-128.34
1764762966.9392948,-159.93,-2009.205,-26026.02,-8769.105,-17647.92,-25160.445,-5083.605,-129.465
1764762966.9392948,-156.555,-2005.02,-26021.475,-8765.865,-17646.03,-25158.105,-5081.67,-124.965
1764762966.9392948,-159.93,-2012.085,-26031.24,-8775.539999999999,-17651.655,-25161.48,-5082.75,-127.845
1764762966.9392948,-169.605,-2026.26,-26048.79,-8793.36,-17666.37,-25168.815,-5087.97,-135.9
1764762966.982942,-168.03,-2024.415,-26048.07,-8795.205,-17670.915,-25167.645,-5087.97,-134.01
1764762966.982942,-162.945,-2018.655,-26043.03,-8791.965,-17668.8,-25165.395,-5085.945,-129.465
1764762966.982942,-162.54,-2017.755,-26040.69,-8790.255,-17669.925,-25169.58,-5085.945,-129.465
1764762966.982942,-166.76999999999998,-2021.715,-26042.805,-8790.795,-17673.075,-25175.925,-5088.285,-133.965
1764762966.982942,-167.355,-2021.76,-26042.22,-8787.33,-17668.215,-25174.17,-5088.195,-134.685
1764762966.982942,-164.88,-2017.8,-26037.63,-8780.895,-17657.684999999998,-25168.77,-5086.665,-132.66
1764762966.982942,-161.415,-2013.075,-26031.915,-8775.63,-17650.845,-25164.99,-5084.145,-129.42
1764762966.982942,-155.745,-2006.505,-26024.535,-8768.16,-17643.42,-25159.14,-5080.275,-124.02
1764762966.982942,-157.36499999999998,-2007.81,-26025.165,-8766.494999999999,-17638.065,-25154.55,-5079.42,-125.28
1764762966.982942,-162.72,-2013.525,-26031.555,-8770.815,-17640.27,-25154.145,-5082.255,-129.465
1764762966.982942,-165.51,-2017.395,-26036.1,-8775.0,-17644.095,-25155.72,-5082.345,-130.41
1764762966.982942,-171.98999999999998,-2026.215,-26045.91,-8783.865,-17652.285,-25161.075,-5085.99,-135.135
1764762966.982942,-167.355,-2021.265,-26039.97,-8779.185,-17649.315,-25157.97,-5083.335,-131.76
1764762966.982942,-168.70499999999998,-2019.78,-26038.53,-8778.914999999999,-17651.97,-25161.57,-5084.01,-133.605
1764762966.982942,-165.195,-2016.27,-26033.715,-8775.72,-17651.16,-25161.345,-5083.74,-130.995
1764762966.982942,-168.03,-2019.24,-26035.155,-8777.88,-17654.715,-25165.62,-5086.26,-134.82
1764762966.982942,-165.825,-2015.46,-26030.295,-8772.795,-17649.54,-25162.155,-5083.74,-133.065
1764762966.982942,-159.03,-2008.62,-26024.895,-8766.494999999999,-17641.98,-25155.72,-5078.79,-127.17
1764762966.982942,-159.165,-2010.78,-26028.855,-8769.779999999999,-17642.52,-25155.225,-5077.8,-126.18
1764762966.982942,-163.26,-2015.415,-26033.805,-8775.315,-17647.515,-25159.005,-5080.545,-128.745
1764762966.982942,-160.82999999999998,-2013.21,-26030.16,-8774.279999999999,-17649.045,-25161.12,-5080.32,-127.98
1764762966.982942,-161.505,-2014.065,-26030.52,-8775.27,-17651.655,-25163.955,-5082.075,-130.545
1764762966.982942,-158.31,-2009.655,-26026.065,-8769.779999999999,-17648.055,-25158.645,-5079.42,-127.035
1764762966.982942,-162.09,-2011.68,-26028.45,-8773.65,-17654.715,-25162.29,-5080.77,-130.905
1764762966.982942,-162.63,-2012.355,-26029.89,-8774.955,-17656.965,-25163.64,-5081.264999999999,-129.96
1764762966.982942,-164.20499999999998,-2016.225,-26036.01,-8781.3,-17659.845,-25164.585,-5082.21,-129.78
1764762967.0304868,-161.505,-2015.505,-26035.335,-8781.255,-17661.015,-25162.83,-5080.5,-127.17
1764762967.0304868,-161.415,-2015.775,-26035.74,-8781.705,-17662.5,-25162.065,-5079.195,-126.72
1764762967.0317094,-161.19,-2013.795,-26032.995,-8776.44,-17658.27,-25161.84,-5079.554999999999,-127.305
1764762967.0317094,-163.665,-2013.93,-26031.06,-8774.865,-17658.315,-25165.845,-5084.37,-131.49
1764762967.0317094,-166.45499999999998,-2017.62,-26034.39,-8777.88,-17657.28,-25165.71,-5084.325,-133.515
1764762967.0317094,-166.76999999999998,-2021.13,-26037.675,-8780.49,-17652.329999999998,-25161.12,-5082.435,-132.03
1764762967.0317094,-171.495,-2026.08,-26042.355,-8784.494999999999,-17651.925,-25161.66,-5083.965,-136.17
1764762967.0317094,-167.67,-2020.68,-26035.695,-8776.845,-17645.715,-25156.485,-5081.804999999999,-132.975
1764762967.0317094,-166.68,-2020.455,-26036.145,-8776.98,-17649.045,-25158.465,-5080.905,-131.985
1764762967.0317094,-173.88,-2028.15,-26044.74,-8784.315,-17655.57,-25164.27,-5084.28,-137.88
1764762967.0317094,-171.63,-2025.495,-26042.175,-8782.515,-17655.524999999998,-25164.72,-5084.685,-137.07
1764762967.0317094,-160.335,-2013.975,-26029.17,-8771.625,-17648.415,-25159.32,-5079.33,-129.15
1764762967.0317094,-158.4,-2007.495,-26021.745,-8764.785,-17643.149999999998,-25155.855,-5077.395,-126.9
1764762967.0317094,-158.715,-2005.695,-26020.08,-8761.994999999999,-17641.079999999998,-25154.19,-5078.07,-128.51999999999998
1764762967.0317094,-160.73999999999998,-2009.79,-26024.715,-8765.595,-17643.735,-25152.075,-5076.99,-129.285
1764762967.0317094,-165.015,-2017.17,-26033.04,-8773.244999999999,-17647.425,-25154.505,-5077.395,-131.76
1764762967.0317094,-169.47,-2022.705,-26039.475,-8781.029999999999,-17655.03,-25163.55,-5080.185,-135.26999999999998
1764762967.0317094,-165.64499999999998,-2019.87,-26037.99,-8781.119999999999,-17655.57,-25165.62,-5079.915,-131.265
1764762967.0317094,-165.23999999999998,-2019.015,-26038.035,-8781.255,-17655.48,-25165.665,-5080.32,-131.805
1764762967.0317094,-168.93,-2022.345,-26039.79,-8782.154999999999,-17657.82,-25167.465,-5082.615,-136.44
1764762967.0317094,-166.905,-2020.275,-26036.55,-8778.69,-17655.255,-25164.315,-5081.445,-134.64
1764762967.0317094,-163.79999999999998,-2016.045,-26032.5,-8774.46,-17649.54,-25158.24,-5079.24,-130.815
1764762967.0317094,-164.51999999999998,-2017.44,-26034.3,-8775.765,-17649.945,-25156.08,-5077.395,-130.86
1764762967.0317094,-167.85,-2021.04,-26037.99,-8779.994999999999,-17654.94,-25161.48,-5080.365,-135.09
1764762967.077979,-162.945,-2015.37,-26032.14,-8774.865,-17650.62,-25158.69,-5078.429999999999,-130.23
1764762967.077979,-162.63,-2015.415,-26032.635,-8775.18,-17650.17,-25158.15,-5078.34,-129.555
1764762967.077979,-163.62,-2015.73,-26034.075,-8776.845,-17652.645,-25160.31,-5078.97,-131.22
1764762967.077979,-165.465,-2016.585,-26036.595,-8780.67,-17659.665,-25166.025,-5081.58,-133.155
1764762967.077979,-161.64,-2013.48,-26033.58,-8777.835,-17658.765,-25164.765,-5079.915,-129.87
1764762967.077979,-162.495,-2013.345,-26031.42,-8775.27,-17657.64,-25165.17,-5079.375,-131.67
1764762967.077979,-159.03,-2007.9,-26026.155,-8770.14,-17653.095,-25162.245,-5078.07,-127.845
1764762967.077979,-159.435,-2009.34,-26027.19,-8772.3,-17655.614999999998,-25162.515,-5078.79,-127.98
1764762967.077979,-160.245,-2012.355,-26031.915,-8777.34,-17662.14,-25163.37,-5077.62,-127.395
1764762967.077979,-166.815,-2021.04,-26041.995,-8785.17,-17668.53,-25167.015,-5080.679999999999,-132.795
1764762967.077979,-171.045,-2025.63,-26045.91,-8788.095,-17669.16,-25170.795,-5083.695,-137.88
1764762967.077979,-170.45999999999998,-2022.84,-26042.22,-8784.99,-17664.255,-25169.94,-5084.325,-138.24
1764762967.077979,-164.655,-2017.44,-26035.605,-8778.06,-17653.68,-25162.74,-5080.139999999999,-132.21
1764762967.077979,-164.97,-2018.745,-26036.145,-8778.105,-17653.14,-25162.38,-5079.96,-132.255
1764762967.077979,-167.22,-2020.455,-26038.44,-8779.05,-17653.545,-25163.415,-5080.995,-134.685
1764762967.077979,-170.595,-2022.21,-26040.51,-8781.255,-17657.864999999998,-25165.71,-5082.345,-138.64499999999998
1764762967.077979,-166.545,-2016.855,-26035.74,-8778.195,-17657.954999999998,-25164.945,-5080.365,-135.72
1764762967.077979,-162.765,-2012.58,-26031.015,-8773.244999999999,-17654.715,-25161.21,-5077.755,-131.49
1764762967.077979,-158.31,-2008.215,-26025.39,-8765.235,-17645.67,-25153.695,-5073.66,-126.765
1764762967.0798206,-161.775,-2012.985,-26030.43,-8769.779999999999,-17646.66,-25154.055,-5075.865,-130.32
1764762967.0798206,-163.98,-2015.055,-26033.4,-8772.93,-17651.79,-25157.205,-5077.755,-132.345
1764762967.0798206,-158.985,-2008.08,-26024.58,-8766.09,-17652.015,-25159.545,-5076.045,-128.34
1764762967.0798206,-159.39,-2007.36,-26022.69,-8764.695,-17655.165,-25166.655,-5077.349999999999,-129.555
1764762967.0798206,-157.815,-2005.29,-26020.665,-8763.705,-17656.29,-25168.95,-5077.125,-127.845
1764762967.123217,-162.98999999999998,-2010.465,-26025.165,-8768.699999999999,-17660.655,-25172.415,-5079.24,-132.12
1764762967.123217,-165.69,-2015.19,-26031.555,-8773.605,-17661.42,-25170.975,-5080.545,-133.605
1764762967.123217,-168.29999999999998,-2021.895,-26042.445,-8782.605,-17661.87,-25167.15,-5079.87,-133.29
1764762967.123217,-176.715,-2031.705,-26053.11,-8793.27,-17666.28,-25169.985,-5084.865,-140.48999999999998
1764762967.123217,-176.355,-2030.535,-26050.275,-8790.705,-17661.915,-25165.35,-5085.045,-140.4
1764762967.123217,-177.93,-2031.03,-26049.78,-8789.445,-17659.215,-25162.965,-5086.125,-142.11
1764762967.123217,-175.725,-2027.025,-26044.695,-8784.225,-17658.945,-25164.045,-5085.27,-141.345
1764762967.123217,-173.7,-2022.975,-26039.07,-8779.545,-17659.35,-25164.855,-5085.179999999999,-139.45499999999998
1764762967.123217,-174.465,-2022.705,-26038.035,-8778.779999999999,-17661.015,-25167.15,-5086.26,-141.70499999999998
1764762967.123217,-176.4,-2025.495,-26042.94,-8783.955,-17664.075,-25169.715,-5087.115,-143.055
1764762967.123217,-180.0,-2032.47,-26052.57,-8792.414999999999,-17666.1,-25169.13,-5087.16,-143.73
1764762967.123217,-177.03,-2028.96,-26050.095,-8790.93,-17667.54,-25168.545,-5085.764999999999,-140.805
1764762967.123217,-170.595,-2021.4,-26041.86,-8783.865,-17666.37,-25169.22,-5082.345,-135.585
1764762967.123217,-172.26,-2021.22,-26040.825,-8784.18,-17670.42,-25175.565,-5082.75,-136.71
1764762967.123217,-167.89499999999998,-2016.855,-26035.965,-8780.175,-17670.329999999998,-25174.125,-5081.49,-132.255
1764762967.123217,-172.575,-2021.985,-26041.77,-8785.485,-17676.765,-25177.86,-5086.17,-137.16
1764762967.123217,-175.36499999999998,-2024.955,-26044.38,-8789.22,-17679.915,-25180.74,-5088.599999999999,-140.445
1764762967.123217,-172.935,-2020.77,-26039.655,-8783.73,-17669.835,-25176.24,-5087.835,-138.87
1764762967.123217,-175.725,-2023.245,-26041.365,-8782.74,-17660.835,-25171.65,-5087.07,-141.48
1764762967.123217,-174.015,-2022.93,-26040.6,-8779.86,-17653.14,-25163.73,-5083.155,-139.275
1764762967.123217,-174.15,-2024.415,-26041.77,-8779.725,-17653.14,-25164.045,-5082.57,-139.36499999999998
1764762967.123217,-177.795,-2027.295,-26042.085,-8779.77,-17653.545,-25165.53,-5083.38,-142.245
1764762967.1702943,-175.815,-2025.9,-26040.69,-8778.69,-17653.905,-25164.09,-5082.12,-140.805
1764762967.1702943,-170.775,-2021.445,-26036.595,-8776.935,-17654.715,-25163.28,-5080.185,-137.115
1764762967.1702943,-166.815,-2017.665,-26032.14,-8773.875,-17654.76,-25162.65,-5079.285,-134.64
1764762967.1702943,-169.875,-2019.87,-26032.59,-8774.55,-17656.829999999998,-25166.295,-5080.995,-137.61
1764762967.1702943,-166.23,-2015.595,-26029.215,-8771.445,-17652.465,-25161.84,-5078.205,-132.165
1764762967.1702943,-171.045,-2022.795,-26039.7,-8780.49,-17658.045,-25163.73,-5080.005,-134.82
1764762967.1702943,-175.68,-2029.77,-26047.665,-8787.105,-17665.155,-25166.79,-5081.13,-139.36499999999998
1764762967.1702943,-172.44,-2025.945,-26042.31,-8781.795,-17662.995,-25163.19,-5079.195,-137.25
1764762967.1702943,-172.53,-2024.505,-26040.915,-8780.985,-17664.255,-25165.44,-5078.925,-138.24
1764762967.1702943,-167.625,-2019.555,-26035.785,-8775.36,-17657.82,-25161.075,-5075.91,-133.515
1764762967.1702943,-167.85,-2020.14,-26036.055,-8775.27,-17656.515,-25160.94,-5076.99,-133.82999999999998
1764762967.1702943,-169.56,-2020.32,-26035.47,-8776.935,-17657.235,-25163.415,-5077.395,-135.09
1764762967.170802,-164.07,-2013.705,-26028.45,-8770.095,-17652.329999999998,-25160.265,-5074.2,-130.275
1764762967.170802,-164.79,-2012.985,-26026.65,-8769.914999999999,-17655.03,-25162.83,-5075.775,-131.85
1764762967.170802,-167.13,-2015.955,-26029.17,-8773.244999999999,-17657.954999999998,-25165.17,-5076.72,-134.28
1764762967.170802,-167.04,-2018.79,-26033.85,-8776.035,-17657.82,-25162.605,-5076.045,-132.29999999999998
1764762967.170802,-169.065,-2022.705,-26040.24,-8780.4,-17657.595,-25161.615,-5075.595,-132.84
1764762967.170802,-170.28,-2022.165,-26039.7,-8779.994999999999,-17659.305,-25163.415,-5077.53,-134.415
1764762967.170802,-169.245,-2019.555,-26035.11,-8776.98,-17659.62,-25164.18,-5076.99,-134.415
1764762967.170802,-168.435,-2017.215,-26033.13,-8776.17,-17659.755,-25165.845,-5077.44,-135.72
1764762967.170802,-167.67,-2015.595,-26031.555,-8777.07,-17660.295,-25166.115,-5077.17,-134.775
1764762967.170802,-165.42,-2016.0,-26033.895,-8779.635,-17660.204999999998,-25162.47,-5075.054999999999,-131.85
1764762967.216682,-170.19,-2023.47,-26044.245,-8788.635,-17670.105,-25165.305,-5078.52,-135.36
1764762967.216682,-171.54,-2025.315,-26045.64,-8790.21,-17676.63,-25168.59,-5079.554999999999,-137.25
1764762967.216682,-168.075,-2020.905,-26038.89,-8783.324999999999,-17668.98,-25164.18,-5076.495,-134.64
1764762967.216682,-168.29999999999998,-2020.095,-26037.45,-8779.32,-17662.545,-25164.315,-5077.035,-135.09
1764762967.216682,-167.535,-2018.16,-26034.66,-8775.585,-17658.54,-25166.295,-5077.08,-134.235
1764762967.216682,-167.085,-2016.99,-26031.375,-8772.21,-17656.605,-25168.095,-5076.99,-134.14499999999998
1764762967.216682,-170.95499999999998,-2020.545,-26033.31,-8773.11,-17657.19,-25168.995,-5078.655,-137.115
1764762967.216682,-173.295,-2023.965,-26036.64,-8776.845,-17659.35,-25168.635,-5079.87,-138.96
1764762967.216682,-173.88,-2026.35,-26041.14,-8781.119999999999,-17660.43,-25167.825,-5080.05,-139.04999999999998
1764762967.216682,-171.72,-2022.615,-26038.26,-8778.195,-17656.425,-25163.82,-5078.97,-136.39499999999998
1764762967.216682,-169.38,-2018.88,-26034.03,-8774.46,-17654.805,-25161.255,-5077.44,-135.67499999999998
1764762967.216682,-170.14499999999998,-2019.195,-26033.22,-8775.18,-17656.515,-25162.29,-5078.429999999999,-138.32999999999998
1764762967.216682,-171.0,-2022.66,-26037.675,-8777.115,-17655.48,-25160.13,-5078.07,-138.32999999999998
1764762967.216682,-170.01,-2022.84,-26040.105,-8777.88,-17653.5,-25156.755,-5075.28,-134.73
1764762967.216682,-168.165,-2020.095,-26037.18,-8775.72,-17653.095,-25157.34,-5073.705,-133.82999999999998
1764762967.216682,-165.015,-2015.955,-26032.365,-8773.154999999999,-17656.065,-25160.625,-5073.615,-132.12
1764762967.216682,-165.015,-2015.82,-26031.51,-8773.875,-17661.555,-25164.765,-5074.11,-131.94
1764762967.216682,-167.67,-2020.725,-26036.64,-8779.725,-17667.989999999998,-25169.805,-5076.855,-134.235
1764762967.216682,-168.66,-2021.355,-26038.62,-8781.57,-17669.204999999998,-25172.37,-5077.62,-134.82
1764762967.216682,-170.415,-2021.535,-26037.9,-8780.94,-17665.829999999998,-25171.92,-5079.014999999999,-136.935
1764762967.216682,-167.89499999999998,-2017.035,-26031.87,-8776.664999999999,-17661.239999999998,-25169.31,-5079.014999999999,-135.63
1764762967.216682,-169.155,-2017.395,-26032.005,-8776.98,-17662.14,-25170.93,-5079.87,-137.43
1764762967.216682,-166.995,-2013.615,-26027.595,-8772.119999999999,-17655.345,-25164.63,-5076.9,-134.235
1764762967.216682,-173.34,-2021.175,-26036.685,-8779.14,-17659.17,-25165.17,-5078.61,-138.69
1764762967.2635384,-180.27,-2030.04,-26046.945,-8787.779999999999,-17663.76,-25167.645,-5080.365,-143.325
1764762967.2635384,-175.545,-2024.955,-26039.565,-8780.895,-17658.945,-25164.135,-5077.71,-140.04
1764762967.2635384,-177.57,-2028.24,-26043.165,-8784.449999999999,-17663.805,-25167.915,-5079.78,-143.37
1764762967.2635384,-174.23999999999998,-2026.26,-26042.175,-8783.414999999999,-17661.69,-25166.205,-5079.06,-140.85
1764762967.2635384,-172.485,-2023.785,-26040.24,-8781.164999999999,-17659.035,-25163.955,-5077.485,-138.78
1764762967.2635384,-172.17,-2022.39,-26039.565,-8781.705,-17664.3,-25167.285,-5078.205,-139.005
1764762967.2635384,-173.655,-2022.39,-26039.07,-8781.615,-17666.415,-25169.85,-5079.78,-140.94
1764762967.2635384,-175.68,-2024.955,-26039.385,-8780.76,-17664.84,-25169.445,-5080.5,-143.01
1764762967.2635384,-171.54,-2022.57,-26037.99,-8777.88,-17659.395,-25163.46,-5077.62,-138.78
1764762967.2635384,-174.64499999999998,-2028.645,-26046.225,-8785.35,-17662.5,-25164.315,-5079.06,-140.625
1764762967.2635384,-176.445,-2031.3,-26049.825,-8788.949999999999,-17665.155,-25166.61,-5079.69,-141.795
1764762967.2635384,-178.01999999999998,-2031.255,-26049.105,-8789.265,-17667.945,-25170.795,-5080.32,-143.19
1764762967.2635384,-175.04999999999998,-2026.71,-26044.065,-8786.565,-17671.095,-25171.83,-5079.554999999999,-141.12
1764762967.2635384,-170.505,-2021.445,-26037.855,-8781.705,-17671.14,-25169.49,-5077.8,-137.79
1764762967.2635384,-168.525,-2020.59,-26035.785,-8779.68,-17668.755,-25165.575,-5075.505,-135.81
1764762967.2635384,-169.42499999999998,-2023.875,-26040.915,-8783.55,-17668.44,-25164.54,-5075.01,-135.72
1764762967.2635384,-172.935,-2027.52,-26045.28,-8787.465,-17671.32,-25170.39,-5076.99,-137.88
1764762967.264044,-175.725,-2029.365,-26046.63,-8789.445,-17674.605,-25180.47,-5081.31,-141.525
1764762967.264044,-175.32,-2028.465,-26045.37,-8787.824999999999,-17672.13,-25183.71,-5081.22,-141.255
1764762967.264044,-177.48,-2029.905,-26045.595,-8787.914999999999,-17670.78,-25183.26,-5082.165,-143.82
1764762967.264044,-171.765,-2023.92,-26037.99,-8780.895,-17664.48,-25174.71,-5078.745,-139.23
1764762967.264044,-165.375,-2016.72,-26029.755,-8773.244999999999,-17658.18,-25165.755,-5074.155,-133.92
1764762967.264044,-163.44,-2012.76,-26024.85,-8769.195,-17657.64,-25160.805,-5071.545,-132.345
1764762967.264044,-166.36499999999998,-2015.37,-26028.315,-8772.029999999999,-17658.45,-25157.34,-5071.95,-135.36
1764762967.264044,-171.09,-2021.355,-26035.38,-8778.869999999999,-17661.825,-25162.02,-5073.795,-139.23
1764762967.264044,-168.525,-2020.545,-26036.28,-8778.96,-17660.565,-25161.84,-5071.679999999999,-135.81
1764762967.309965,-172.44,-2028.105,-26045.505,-8785.26,-17664.434999999998,-25162.155,-5072.985,-137.115
1764762967.309965,-177.255,-2034.315,-26053.425,-8793.63,-17671.815,-25168.32,-5077.125,-141.93
1764762967.309965,-177.84,-2032.83,-26051.58,-8793.135,-17672.085,-25171.83,-5078.88,-143.73
1764762967.309965,-173.79,-2027.88,-26044.83,-8786.97,-17666.954999999998,-25168.995,-5078.205,-140.67
1764762967.309965,-174.105,-2026.98,-26043.57,-8783.955,-17662.23,-25166.97,-5078.205,-141.21
1764762967.309965,-174.69,-2026.395,-26041.635,-8782.02,-17657.28,-25165.035,-5078.79,-142.29
1764762967.309965,-173.7,-2024.64,-26040.285,-8779.635,-17655.885,-25164.63,-5077.44,-141.255
1764762967.309965,-173.16,-2025.0,-26040.645,-8782.515,-17664.345,-25168.41,-5076.63,-140.265
1764762967.309965,-176.67,-2029.905,-26046.99,-8791.244999999999,-17676.855,-25175.79,-5080.095,-143.415
1764762967.309965,-174.825,-2028.735,-26045.73,-8793.045,-17678.295,-25176.51,-5079.014999999999,-141.39
1764762967.309965,-169.245,-2022.12,-26038.395,-8785.89,-17670.6,-25170.21,-5074.65,-136.035
1764762967.309965,-170.73,-2023.02,-26039.745,-8786.52,-17672.22,-25172.19,-5077.17,-138.87
1764762967.309965,-175.095,-2027.025,-26044.065,-8789.535,-17674.605,-25174.89,-5079.96,-143.37
1764762967.309965,-173.11499999999998,-2024.37,-26041.59,-8783.55,-17664.434999999998,-25166.97,-5076.675,-140.85
1764762967.309965,-172.44,-2023.965,-26040.915,-8781.885,-17660.07,-25164.045,-5075.685,-139.275
1764762967.309965,-173.92499999999998,-2026.53,-26042.67,-8783.19,-17660.655,-25165.125,-5075.639999999999,-140.265
1764762967.309965,-178.515,-2030.805,-26047.08,-8786.385,-17663.489999999998,-25169.355,-5077.8,-144.63
1764762967.309965,-176.04,-2027.97,-26044.515,-8784.315,-17663.04,-25169.265,-5076.764999999999,-142.335
1764762967.309965,-171.315,-2022.75,-26038.935,-8779.77,-17660.655,-25166.88,-5074.425,-138.195
1764762967.309965,-173.07,-2024.145,-26039.88,-8780.94,-17661.915,-25169.355,-5075.595,-140.94
1764762967.3572557,-169.245,-2019.87,-26035.785,-8776.529999999999,-17657.864999999998,-25165.215,-5072.13,-137.295
1764762967.3585792,-171.72,-2021.625,-26037.99,-8779.904999999999,-17663.265,-25169.22,-5075.37,-139.86
1764762967.3585792,-173.565,-2023.155,-26040.465,-8783.369999999999,-17667.855,-25171.38,-5077.44,-142.515
1764762967.3585792,-170.055,-2018.88,-26035.2,-8778.105,-17664.12,-25168.635,-5074.695,-138.51
1764762967.3585792,-171.26999999999998,-2020.545,-26036.19,-8778.465,-17665.829999999998,-25174.44,-5076.764999999999,-141.255
1764762967.3585792,-169.065,-2018.97,-26035.47,-8777.97,-17664.39,-25175.25,-5075.55,-138.87
1764762967.3585792,-171.225,-2020.905,-26037.855,-8782.605,-17668.934999999998,-25180.47,-5077.845,-141.03
1764762967.3585792,-168.93,-2018.115,-26035.29,-8780.805,-17666.235,-25175.52,-5077.395,-138.96
1764762967.3585792,-166.45499999999998,-2013.66,-26030.88,-8776.845,-17664.84,-25172.19,-5076.045,-137.51999999999998
1764762967.3585792,-165.6,-2011.905,-26027.325,-8772.66,-17660.97,-25167.555,-5073.255,-137.43
1764762967.3585792,-169.695,-2020.005,-26036.505,-8779.59,-17661.78,-25162.695,-5071.139999999999,-138.42
1764762967.3585792,-177.075,-2029.095,-26047.71,-8789.22,-17664.57,-25162.29,-5072.804999999999,-141.975
1764762967.3585792,-176.89499999999998,-2028.645,-26047.17,-8788.455,-17664.255,-25164.405,-5073.57,-142.01999999999998
1764762967.3585792,-178.605,-2029.995,-26048.475,-8790.3,-17668.89,-25170.255,-5075.91,-144.0
1764762967.3585792,-174.42,-2026.305,-26044.695,-8786.52,-17666.01,-25168.77,-5074.965,-140.57999999999998
1764762967.3585792,-172.62,-2022.435,-26039.88,-8782.56,-17663.715,-25168.23,-5074.245,-139.995
1764762967.3585792,-170.235,-2018.205,-26033.715,-8777.835,-17661.78,-25166.79,-5072.94,-139.5
1764762967.3585792,-173.295,-2020.05,-26034.84,-8779.59,-17664.075,-25169.49,-5074.2,-141.29999999999998
1764762967.3585792,-171.45,-2020.23,-26036.1,-8781.029999999999,-17663.399999999998,-25167.825,-5072.715,-138.69
1764762967.3585792,-173.79,-2024.73,-26043.435,-8788.41,-17667.045,-25169.085,-5074.38,-141.435
1764762967.3585792,-176.265,-2027.34,-26046.0,-8790.39,-17668.53,-25169.985,-5075.91,-143.86499999999998
1764762967.3585792,-180.63,-2031.66,-26050.5,-8795.07,-17673.75,-25176.375,-5079.69,-148.95
1764762967.3585792,-176.805,-2026.53,-26044.515,-8790.615,-17673.21,-25174.845,-5078.429999999999,-145.98
1764762967.3585792,-169.38,-2017.035,-26034.255,-8781.75,-17669.114999999998,-25171.065,-5074.785,-139.76999999999998
1764762967.3585792,-168.345,-2015.28,-26031.825,-8779.68,-17669.565,-25171.605,-5074.83,-139.76999999999998
1764762967.3585792,-168.84,-2016.315,-26032.995,-8779.41,-17668.62,-25171.245,-5074.02,-139.68
1764762967.4050417,-170.86499999999998,-2021.625,-26040.42,-8787.285,-17675.91,-25173.27,-5074.47,-139.275
1764762967.4050417,-178.65,-2032.515,-26054.595,-8800.154999999999,-17691.03,-25178.04,-5077.755,-144.405
1764762967.4050417,-182.43,-2035.44,-26057.97,-8804.07,-17698.005,-25181.64,-5080.23,-148.905
1764762967.4050417,-179.775,-2031.345,-26052.615,-8799.615,-17687.34,-25179.345,-5078.429999999999,-147.42
1764762967.4050417,-176.22,-2026.98,-26047.575,-8793.765,-17676.945,-25174.89,-5077.08,-144.855
1764762967.4050417,-176.31,-2026.665,-26046.765,-8792.369999999999,-17675.55,-25174.26,-5076.99,-144.765
1764762967.4050417,-176.57999999999998,-2026.035,-26045.37,-8791.154999999999,-17675.415,-25176.15,-5076.09,-146.20499999999998
1764762967.4050417,-174.15,-2022.165,-26039.52,-8783.595,-17667.045,-25173.0,-5074.965,-144.315
1764762967.4050417,-173.07,-2020.455,-26036.37,-8779.095,-17663.445,-25171.56,-5073.705,-142.56
1764762967.4050417,-175.23,-2023.47,-26040.825,-8783.955,-17666.82,-25174.17,-5075.82,-144.36
1764762967.4050417,-175.815,-2025.135,-26045.37,-8788.455,-17665.245,-25172.19,-5077.17,-143.235
1764762967.4050417,-178.695,-2028.825,-26049.87,-8792.865,-17668.44,-25173.855,-5078.25,-144.98999999999998
1764762967.4050417,-179.14499999999998,-2029.14,-26049.24,-8791.605,-17669.97,-25174.215,-5077.889999999999,-146.25
1764762967.4050417,-172.845,-2022.12,-26040.78,-8783.505,-17664.795,-25167.78,-5073.12,-140.17499999999998
1764762967.4050417,-170.86499999999998,-2019.06,-26036.775,-8780.22,-17666.37,-25166.88,-5071.139999999999,-139.815
1764762967.4050417,-172.39499999999998,-2019.645,-26036.145,-8781.795,-17673.885,-25173.495,-5074.02,-142.92
1764762967.4050417,-166.86,-2010.915,-26025.12,-8772.795,-17666.145,-25169.805,-5070.69,-139.41
1764762967.4050417,-160.335,-2000.295,-26012.565,-8760.195,-17653.59,-25161.57,-5066.505,-134.235
1764762967.4050417,-161.86499999999998,-2003.13,-26016.93,-8763.39,-17654.715,-25161.66,-5066.639999999999,-134.055
1764762967.4050417,-176.13,-2024.73,-26044.515,-8788.68,-17668.35,-25172.37,-5073.075,-143.37
1764762967.4050417,-182.88,-2036.205,-26059.365,-8802.09,-17674.739999999998,-25178.175,-5076.54,-147.105
1764762967.4050417,-177.70499999999998,-2029.77,-26052.165,-8796.914999999999,-17673.39,-25175.43,-5074.29,-142.73999999999998
1764762967.452553,-177.12,-2027.07,-26048.97,-8793.99,-17676.18,-25175.07,-5073.255,-143.37
1764762967.452553,-171.765,-2020.185,-26041.05,-8786.295,-17671.905,-25171.785,-5069.655,-138.015
1764762967.452553,-170.86499999999998,-2018.295,-26039.205,-8784.765,-17672.085,-25173.09,-5068.935,-137.34
1764762967.452553,-175.815,-2024.55,-26045.505,-8791.244999999999,-17675.595,-25177.095,-5072.849999999999,-143.055
1764762967.452553,-171.855,-2020.68,-26041.635,-8787.33,-17670.329999999998,-25170.57,-5069.745,-139.5
1764762967.452553,-173.25,-2021.58,-26042.04,-8788.949999999999,-17671.59,-25171.515,-5070.06,-141.12
1764762967.452553,-168.61499999999998,-2015.73,-26034.705,-8784.539999999999,-17666.145,-25165.17,-5065.965,-135.945
1764762967.452553,-172.79999999999998,-2019.465,-26038.755,-8787.33,-17665.38,-25163.955,-5067.405,-138.69
1764762967.452553,-178.605,-2026.89,-26047.17,-8792.865,-17668.079999999998,-25165.305,-5070.014999999999,-143.95499999999998
1764762967.452553,-171.9,-2019.51,-26039.205,-8784.855,-17664.03,-25163.28,-5066.775,-138.105
1764762967.452553,-169.82999999999998,-2016.09,-26034.525,-8782.02,-17666.19,-25166.655,-5065.965,-137.7
1764762967.452553,-166.23,-2009.97,-26027.595,-8775.945,-17664.39,-25165.26,-5064.21,-135.18
1764762967.4535594,-162.585,-2006.01,-26022.69,-8771.13,-17660.25,-25162.245,-5063.355,-132.795
1764762967.4535594,-167.715,-2014.29,-26031.915,-8779.095,-17664.48,-25165.845,-5066.82,-137.115
1764762967.4535594,-173.745,-2023.695,-26043.48,-8788.994999999999,-17669.61,-25171.74,-5069.745,-141.975
1764762967.4535594,-173.7,-2022.615,-26041.905,-8788.59,-17670.015,-25173.72,-5070.78,-142.38
1764762967.4535594,-171.945,-2021.22,-26041.815,-8788.545,-17669.43,-25172.865,-5068.845,-140.85
1764762967.4535594,-170.86499999999998,-2020.455,-26042.13,-8789.895,-17672.355,-25172.19,-5068.53,-138.06
1764762967.4535594,-171.58499999999998,-2020.77,-26041.95,-8791.02,-17676.899999999998,-25174.08,-5068.665,-138.555
1764762967.4535594,-173.61,-2021.985,-26042.355,-8792.82,-17680.86,-25177.005,-5069.52,-140.22
1764762967.4535594,-177.39,-2025.495,-26045.64,-8796.42,-17684.415,-25179.705,-5072.264999999999,-144.225
1764762967.4535594,-171.945,-2019.69,-26039.205,-8788.77,-17675.415,-25172.82,-5068.755,-140.265
1764762967.49669,-170.415,-2017.53,-26036.505,-8785.485,-17671.32,-25171.335,-5067.224999999999,-138.915
1764762967.49669,-175.59,-2022.12,-26041.14,-8789.22,-17672.265,-25174.8,-5070.42,-143.505
1764762967.49669,-175.36499999999998,-2021.04,-26040.285,-8787.015,-17667.989999999998,-25170.93,-5069.16,-142.245
1764762967.49669,-170.055,-2016.405,-26033.67,-8781.705,-17665.47,-25167.69,-5064.615,-138.195
1764762967.49669,-168.29999999999998,-2013.57,-26030.295,-8778.869999999999,-17664.614999999998,-25167.555,-5063.355,-136.26
1764762967.49669,-166.76999999999998,-2012.535,-26030.295,-8778.285,-17665.829999999998,-25167.555,-5063.985,-135.99
1764762967.49669,-166.905,-2014.965,-26035.695,-8783.19,-17669.34,-25171.29,-5063.895,-133.92
1764762967.49669,-166.95,-2016.9,-26039.61,-8786.43,-17674.47,-25175.07,-5063.715,-133.42499999999998
1764762967.49669,-166.005,-2015.19,-26036.64,-8785.26,-17678.745,-25176.15,-5063.985,-134.055
1764762967.49669,-168.70499999999998,-2016.72,-26036.955,-8786.07,-17675.954999999998,-25174.89,-5065.83,-136.26
1764762967.49669,-164.92499999999998,-2012.04,-26031.915,-8780.535,-17666.82,-25167.87,-5063.264999999999,-132.03
1764762967.49669,-164.11499999999998,-2009.115,-26028.315,-8777.835,-17665.605,-25168.095,-5064.075,-132.84
1764762967.49669,-160.695,-2001.87,-26019.315,-8768.34,-17657.91,-25161.525,-5060.385,-130.635
1764762967.49669,-160.11,-2000.25,-26017.2,-8764.56,-17655.93,-25156.71,-5056.92,-130.725
1764762967.49669,-166.68,-2011.455,-26028.99,-8775.404999999999,-17666.82,-25161.39,-5059.215,-135.72
1764762967.49669,-169.695,-2018.475,-26038.665,-8782.965,-17671.995,-25163.19,-5059.665,-135.99
1764762967.49669,-165.735,-2014.47,-26035.47,-8782.02,-17673.255,-25163.73,-5058.72,-131.89499999999998
1764762967.49669,-169.605,-2018.475,-26041.455,-8789.13,-17677.665,-25169.49,-5062.59,-134.37
1764762967.49669,-171.945,-2020.905,-26043.03,-8790.345,-17674.739999999998,-25173.18,-5064.974999999999,-137.565
1764762967.4983969,-165.64499999999998,-2014.155,-26034.93,-8782.289999999999,-17665.065,-25168.32,-5061.78,-132.39
1764762967.4983969,-167.535,-2016.135,-26038.17,-8784.494999999999,-17661.78,-25165.98,-5061.645,-133.785
1764762967.4983969,-173.34,-2020.86,-26042.49,-8788.14,-17664.39,-25168.14,-5065.155,-138.69
1764762967.4983969,-175.005,-2021.22,-26042.805,-8790.164999999999,-17670.285,-25172.37,-5066.639999999999,-141.29999999999998
1764762967.4983969,-169.33499999999998,-2014.92,-26035.155,-8781.119999999999,-17665.155,-25168.23,-5063.58,-136.62
1764762967.5448089,-167.48999999999998,-2011.23,-26030.475,-8775.945,-17662.14,-25164.54,-5061.915,-135.045
1764762967.5448089,-166.59,-2009.97,-26027.73,-8774.82,-17660.204999999998,-25163.37,-5061.014999999999,-135.45
1764762967.5448089,-170.19,-2015.19,-26034.3,-8781.255,-17665.065,-25168.05,-5062.77,-138.105
1764762967.5448089,-173.34,-2019.96,-26040.51,-8786.34,-17667.855,-25169.49,-5064.255,-138.78
1764762967.5448089,-177.345,-2024.19,-26045.325,-8790.255,-17671.32,-25171.11,-5065.514999999999,-142.11
1764762967.5448089,-173.97,-2019.825,-26039.97,-8785.35,-17668.079999999998,-25168.455,-5063.804999999999,-138.64499999999998
1764762967.5448089,-177.39,-2022.345,-26042.085,-8788.635,-17674.155,-25174.98,-5067.495,-142.695
1764762967.5448089,-181.98,-2026.62,-26047.35,-8794.89,-17681.309999999998,-25182.0,-5071.995,-148.14
1764762967.5461729,-178.785,-2023.155,-26042.535,-8791.92,-17678.295,-25179.525,-5070.24,-145.215
1764762967.5461729,-175.14,-2019.195,-26038.485,-8787.869999999999,-17676.09,-25177.185,-5069.34,-141.84
1764762967.5461729,-178.2,-2022.93,-26042.85,-8792.1,-17680.815,-25180.515,-5071.5,-145.575
1764762967.5461729,-176.13,-2021.13,-26040.645,-8788.77,-17678.024999999998,-25178.31,-5070.105,-144.315
1764762967.5461729,-178.01999999999998,-2022.03,-26042.22,-8790.615,-17678.79,-25180.425,-5069.925,-146.475
1764762967.5461729,-177.39,-2022.39,-26043.12,-8791.425,-17676.45,-25177.635,-5067.855,-145.125
1764762967.5461729,-176.04,-2021.67,-26042.355,-8790.074999999999,-17675.19,-25174.89,-5066.955,-143.86499999999998
1764762967.5461729,-175.36499999999998,-2020.905,-26040.735,-8788.815,-17673.795,-25172.865,-5067.09,-143.415
1764762967.5461729,-169.515,-2013.165,-26032.455,-8781.164999999999,-17668.53,-25169.085,-5063.22,-138.465
1764762967.5461729,-171.98999999999998,-2013.48,-26031.015,-8781.39,-17670.87,-25172.28,-5064.03,-142.42499999999998
1764762967.5461729,-170.325,-2010.69,-26027.685,-8777.835,-17668.305,-25171.515,-5062.365,-141.48
1764762967.5461729,-170.055,-2010.96,-26028.765,-8779.23,-17668.215,-25171.965,-5062.32,-140.48999999999998
1764762967.5461729,-172.665,-2019.06,-26040.555,-8790.705,-17672.85,-25171.605,-5063.175,-140.13
1764762967.5461729,-177.75,-2026.89,-26051.805,-8804.025,-17681.085,-25174.53,-5065.83,-142.92
1764762967.546682,-176.355,-2023.785,-26048.115,-8802.855,-17683.605,-25176.24,-5065.29,-141.525
1764762967.546682,-173.88,-2019.465,-26042.22,-8797.59,-17685.45,-25182.315,-5065.425,-140.265
1764762967.5942614,-175.005,-2020.32,-26043.075,-8796.914999999999,-17689.454999999998,-25188.57,-5067.315,-143.595
1764762967.5942614,-171.9,-2016.585,-26037.855,-8791.289999999999,-17686.934999999998,-25185.33,-5065.2,-140.625
1764762967.5942614,-166.14,-2010.195,-26030.79,-8783.685,-17681.265,-25178.76,-5061.554999999999,-136.07999999999998
1764762967.5942614,-170.055,-2013.03,-26033.085,-8785.529999999999,-17683.605,-25183.26,-5065.425,-140.715
1764762967.5942614,-169.155,-2014.065,-26034.75,-8786.43,-17680.5,-25183.17,-5065.29,-139.59
1764762967.5942614,-172.89,-2021.445,-26044.155,-8795.744999999999,-17686.755,-25186.14,-5066.82,-142.605
1764762967.5942614,-171.09,-2019.015,-26040.735,-8793.135,-17688.87,-25182.945,-5064.795,-140.715
1764762967.5942614,-172.575,-2017.89,-26037.495,-8790.255,-17688.69,-25183.845,-5064.75,-142.47
1764762967.5942614,-171.67499999999998,-2018.565,-26039.16,-8792.595,-17685.945,-25183.08,-5065.38,-142.73999999999998
1764762967.5942614,-170.775,-2020.59,-26043.84,-8794.755,-17678.565,-25175.025,-5063.535,-139.23
1764762967.5942614,-172.935,-2022.615,-26045.055,-8793.81,-17672.805,-25169.715,-5062.139999999999,-140.31
1764762967.5942614,-171.54,-2018.88,-26039.07,-8787.779999999999,-17670.105,-25169.13,-5061.014999999999,-139.905
1764762967.5942614,-173.34,-2018.7,-26037.99,-8784.855,-17668.665,-25167.645,-5060.835,-141.48
1764762967.5942614,-177.12,-2022.75,-26041.41,-8788.994999999999,-17675.19,-25172.325,-5062.23,-144.945
1764762967.5942614,-173.83499999999998,-2019.915,-26040.105,-8788.095,-17675.55,-25169.265,-5059.62,-141.075
1764762967.5942614,-177.75,-2022.57,-26044.92,-8793.765,-17682.84,-25174.755,-5062.23,-144.98999999999998
1764762967.5942614,-176.67,-2020.455,-26042.13,-8793.27,-17682.345,-25177.365,-5062.59,-143.775
1764762967.5942614,-172.125,-2016.63,-26037.765,-8788.68,-17677.575,-25175.565,-5061.195,-139.995
1764762967.5951626,-175.32,-2020.14,-26041.59,-8791.83,-17681.13,-25179.57,-5063.94,-143.28
1764762967.5951626,-175.905,-2021.13,-26041.815,-8790.255,-17679.645,-25178.265,-5063.58,-143.37
1764762967.5951626,-171.72,-2016.72,-26036.595,-8785.17,-17674.02,-25173.81,-5060.88,-140.22
1764762967.5951626,-170.37,-2014.11,-26034.705,-8784.404999999999,-17673.12,-25172.865,-5059.304999999999,-139.04999999999998
1764762967.641387,-169.11,-2012.265,-26032.32,-8782.515,-17673.614999999998,-25171.02,-5057.91,-136.71
1764762967.641387,-170.82,-2013.48,-26032.5,-8782.605,-17677.079999999998,-25173.855,-5060.565,-138.96
1764762967.641387,-171.58499999999998,-2015.91,-26036.46,-8784.539999999999,-17677.62,-25173.09,-5060.34,-140.22
1764762967.641387,-172.485,-2017.17,-26039.34,-8786.789999999999,-17676.045,-25172.73,-5059.845,-140.355
1764762967.641387,-171.765,-2013.975,-26035.335,-8782.605,-17669.88,-25171.11,-5058.63,-139.59
1764762967.641387,-172.665,-2014.965,-26034.03,-8780.94,-17664.885,-25169.49,-5058.045,-140.085
1764762967.6418958,-170.19,-2013.435,-26033.04,-8779.994999999999,-17663.175,-25168.005,-5057.19,-138.15
1764762967.6418958,-175.905,-2018.52,-26038.395,-8785.125,-17667.63,-25173.0,-5061.105,-143.1
1764762967.6418958,-174.42,-2018.79,-26040.96,-8787.42,-17670.195,-25172.505,-5061.554999999999,-141.84
1764762967.6418958,-170.82,-2016.09,-26039.52,-8786.25,-17671.95,-25172.19,-5058.99,-139.59
1764762967.6418958,-171.135,-2016.27,-26040.015,-8786.97,-17673.84,-25172.37,-5058.99,-140.22
1764762967.6418958,-172.62,-2017.53,-26040.645,-8788.77,-17676.045,-25173.9,-5060.7,-142.335
1764762967.6418958,-172.39499999999998,-2017.395,-26040.015,-8788.365,-17675.46,-25174.17,-5060.205,-141.795
1764762967.6418958,-175.59,-2021.04,-26043.75,-8791.38,-17678.295,-25176.735,-5061.599999999999,-144.63
1764762967.6418958,-174.735,-2019.6,-26041.68,-8789.039999999999,-17675.954999999998,-25174.215,-5060.115,-143.19
1764762967.6418958,-170.505,-2014.74,-26035.38,-8783.279999999999,-17670.555,-25169.94,-5056.83,-138.96
1764762967.6418958,-168.57,-2011.95,-26033.04,-8781.84,-17670.239999999998,-25168.905,-5056.155,-137.745
1764762967.6418958,-166.36499999999998,-2009.115,-26029.215,-8779.275,-17669.114999999998,-25167.24,-5053.455,-135.765
1764762967.6418958,-168.21,-2010.285,-26029.89,-8780.58,-17673.255,-25173.72,-5054.22,-138.195
1764762967.6418958,-165.285,-2006.865,-26026.695,-8777.115,-17672.94,-25176.195,-5053.995,-135.945
1764762967.6418958,-160.155,-2002.23,-26021.16,-8772.074999999999,-17668.755,-25172.1,-5050.53,-130.995
1764762967.6418958,-167.265,-2009.115,-26027.865,-8779.14,-17675.19,-25177.725,-5055.974999999999,-137.655
1764762967.6418958,-168.525,-2011.725,-26031.51,-8783.505,-17678.565,-25178.445,-5057.955,-138.78
1764762967.6418958,-175.32,-2022.525,-26044.11,-8795.115,-17684.37,-25179.705,-5061.465,-142.92
1764762967.6418958,-175.635,-2024.865,-26047.215,-8797.005,-17681.265,-25174.215,-5059.98,-141.61499999999998
1764762967.6418958,-175.5,-2023.47,-26044.92,-8796.15,-17681.985,-25174.215,-5059.889999999999,-143.28
1764762967.68813,-176.57999999999998,-2023.515,-26044.515,-8795.88,-17685.495,-25179.255,-5061.69,-145.53
1764762967.68813,-172.44,-2017.53,-26037.495,-8788.904999999999,-17679.285,-25174.17,-5058.764999999999,-140.89499999999998
1764762967.68813,-173.20499999999998,-2017.17,-26036.415,-8788.005,-17678.204999999998,-25173.045,-5059.53,-141.795
1764762967.68813,-175.14,-2019.24,-26037.27,-8788.635,-17676.09,-25173.315,-5058.27,-144.0
1764762967.68813,-170.595,-2015.775,-26034.885,-8786.025,-17670.329999999998,-25166.88,-5054.13,-139.59
1764762967.68813,-170.45999999999998,-2014.965,-26033.445,-8784.27,-17670.375,-25166.655,-5054.67,-139.635
1764762967.68813,-170.1,-2014.065,-26033.22,-8783.369999999999,-17671.274999999998,-25168.185,-5054.355,-139.905
1764762967.68813,-173.51999999999998,-2017.62,-26035.47,-8784.9,-17674.92,-25174.665,-5058.09,-144.045
1764762967.68813,-173.20499999999998,-2015.955,-26033.625,-8783.055,-17674.47,-25176.555,-5057.46,-143.86499999999998
1764762967.68813,-173.97,-2018.16,-26039.43,-8789.895,-17680.23,-25181.19,-5058.945,-144.225
1764762967.68813,-174.825,-2021.94,-26045.82,-8798.039999999999,-17691.165,-25185.87,-5062.139999999999,-145.07999999999998
1764762967.68813,-171.855,-2017.575,-26040.645,-8793.36,-17693.91,-25184.295,-5061.24,-142.695
1764762967.68813,-167.085,-2011.455,-26032.365,-8786.205,-17686.934999999998,-25178.13,-5057.28,-138.24
1764762967.68813,-169.11,-2013.03,-26032.995,-8788.41,-17683.829999999998,-25177.815,-5056.605,-139.86
1764762967.68813,-167.805,-2013.255,-26034.57,-8788.815,-17677.395,-25172.46,-5054.715,-137.655
1764762967.68813,-171.315,-2017.305,-26037.765,-8789.985,-17679.329999999998,-25175.07,-5057.28,-141.39
1764762967.68813,-172.35,-2016.495,-26034.93,-8785.89,-17676.54,-25175.34,-5057.054999999999,-142.82999999999998
1764762967.68813,-169.29,-2013.03,-26030.88,-8780.265,-17668.98,-25169.715,-5054.715,-139.815
1764762967.68813,-172.44,-2016.99,-26035.74,-8784.99,-17673.48,-25172.505,-5055.75,-142.73999999999998
1764762967.68813,-177.435,-2023.83,-26042.76,-8791.83,-17679.105,-25176.96,-5058.63,-146.475
1764762967.68813,-175.68,-2023.245,-26041.455,-8790.795,-17677.079999999998,-25175.295,-5057.82,-144.63
1764762967.68813,-176.445,-2023.515,-26040.78,-8789.58,-17677.98,-25174.62,-5056.83,-146.11499999999998
1764762967.7323694,-172.17,-2018.79,-26036.235,-8785.935,-17676.899999999998,-25171.29,-5054.804999999999,-142.47
1764762967.7323694,-173.07,-2020.095,-26037.945,-8789.895,-17686.62,-25177.905,-5055.255,-142.73999999999998
1764762967.7323694,-167.265,-2013.885,-26032.23,-8787.33,-17693.055,-25180.965,-5053.32,-137.385
1764762967.7323694,-168.435,-2014.875,-26033.85,-8790.3,-17699.175,-25187.175,-5056.29,-139.32
1764762967.7323694,-173.34,-2021.265,-26040.33,-8796.06,-17699.219999999998,-25186.905,-5058.315,-143.01
1764762967.7323694,-170.37,-2019.33,-26039.205,-8794.35,-17689.815,-25181.37,-5057.37,-139.23
1764762967.7323694,-168.795,-2016.765,-26037.09,-8791.83,-17682.66,-25181.505,-5056.02,-138.78
1764762967.7323694,-169.155,-2017.395,-26037.81,-8791.38,-17679.375,-25182.18,-5055.165,-138.915
1764762967.7323694,-169.605,-2017.665,-26036.415,-8789.039999999999,-17675.64,-25178.175,-5055.389999999999,-140.13
1764762967.7323694,-172.485,-2019.105,-26036.46,-8789.895,-17676.989999999998,-25178.58,-5057.55,-144.72
1764762967.7323694,-168.12,-2013.975,-26032.005,-8782.83,-17669.385,-25172.415,-5054.715,-140.265
1764762967.7323694,-166.76999999999998,-2012.4,-26029.35,-8779.095,-17664.3,-25167.285,-5051.745,-138.015
1764762967.7323694,-168.345,-2013.48,-26030.115,-8778.285,-17664.03,-25164.54,-5050.304999999999,-138.825
1764762967.7323694,-173.79,-2020.59,-26038.17,-8784.63,-17669.16,-25166.745,-5051.474999999999,-144.495
1764762967.7323694,-175.545,-2023.245,-26040.87,-8785.935,-17671.905,-25168.14,-5052.014999999999,-144.855
1764762967.7323694,-175.95,-2022.615,-26039.745,-8785.935,-17676.855,-25172.235,-5054.13,-144.585
1764762967.7323694,-172.665,-2018.565,-26035.47,-8782.425,-17676.765,-25173.495,-5053.455,-142.965
1764762967.7323694,-171.315,-2016.99,-26034.57,-8781.615,-17676.09,-25173.72,-5052.915,-142.875
1764762967.7334175,-172.755,-2018.655,-26038.395,-8785.8,-17677.575,-25175.025,-5054.31,-144.0
1764762967.7334175,-171.67499999999998,-2016.315,-26034.795,-8784.855,-17679.105,-25178.175,-5054.715,-142.515
1764762967.7334175,-166.45499999999998,-2009.97,-26027.595,-8778.375,-17676.18,-25176.69,-5052.554999999999,-138.825
1764762967.7334175,-170.685,-2015.28,-26033.175,-8780.94,-17676.045,-25178.175,-5053.32,-142.965
1764762967.7334175,-172.755,-2021.4,-26042.715,-8787.824999999999,-17675.37,-25176.105,-5052.825,-142.92
1764762967.7334175,-180.0,-2029.77,-26050.905,-8795.654999999999,-17679.645,-25180.74,-5057.595,-149.22
1764762967.780933,-175.545,-2023.29,-26042.49,-8788.41,-17674.515,-25176.42,-5055.525,-144.495
1764762967.780933,-174.105,-2020.185,-26037.675,-8784.855,-17674.785,-25174.665,-5054.985,-143.73
1764762967.780933,-175.68,-2020.905,-26036.415,-8784.135,-17678.43,-25177.5,-5055.795,-146.295
1764762967.780933,-171.26999999999998,-2015.28,-26028.99,-8777.205,-17672.805,-25172.37,-5052.554999999999,-142.065
1764762967.780933,-173.83499999999998,-2018.295,-26032.815,-8781.795,-17675.82,-25175.07,-5053.365,-144.18
1764762967.780933,-173.88,-2021.13,-26038.08,-8786.744999999999,-17678.79,-25175.25,-5053.139999999999,-142.785
1764762967.780933,-171.0,-2017.98,-26035.155,-8785.664999999999,-17676.72,-25174.26,-5052.195,-139.725
1764762967.780933,-168.61499999999998,-2013.21,-26029.44,-8781.074999999999,-17678.565,-25176.465,-5050.98,-140.04
1764762967.780933,-163.39499999999998,-2008.17,-26024.49,-8775.225,-17677.35,-25171.38,-5047.335,-135.855
1764762967.780933,-172.07999999999998,-2019.78,-26036.955,-8785.98,-17682.84,-25174.44,-5051.429999999999,-141.70499999999998
1764762967.780933,-180.855,-2030.805,-26048.88,-8795.88,-17684.595,-25179.57,-5055.615,-148.59
1764762967.780933,-181.44,-2031.66,-26049.105,-8797.635,-17683.335,-25181.415,-5057.37,-149.57999999999998
1764762967.780933,-175.95,-2024.55,-26042.265,-8791.065,-17677.62,-25177.365,-5055.705,-145.62
1764762967.780933,-173.51999999999998,-2020.365,-26037.36,-8785.17,-17673.434999999998,-25175.07,-5052.915,-144.315
1764762967.780933,-171.315,-2017.215,-26032.59,-8780.039999999999,-17670.285,-25172.145,-5050.575,-142.92
1764762967.780933,-172.17,-2018.07,-26032.995,-8782.244999999999,-17675.64,-25174.395,-5051.34,-143.64
1764762967.780933,-170.055,-2016.9,-26032.41,-8782.65,-17676.63,-25175.745,-5051.34,-140.31
1764762967.780933,-171.09,-2019.015,-26035.02,-8784.18,-17676.27,-25178.805,-5051.025,-140.67
1764762967.780933,-169.785,-2018.385,-26033.67,-8781.795,-17673.434999999998,-25177.725,-5049.315,-139.725
1764762967.780933,-170.055,-2018.115,-26033.445,-8782.11,-17675.684999999998,-25178.625,-5051.655,-141.345
1764762967.780933,-170.28,-2017.35,-26031.78,-8781.164999999999,-17675.864999999998,-25177.545,-5052.06,-143.415
1764762967.780933,-170.95499999999998,-2017.17,-26032.815,-8780.445,-17673.795,-25174.53,-5051.34,-143.95499999999998
1764762967.780933,-173.11499999999998,-2020.095,-26037.27,-8784.36,-17677.53,-25175.295,-5051.52,-145.07999999999998
1764762967.780933,-172.07999999999998,-2019.195,-26034.885,-8783.145,-17678.79,-25173.225,-5049.495,-143.73
1764762967.828919,-167.805,-2014.515,-26029.305,-8778.645,-17676.09,-25168.59,-5045.445,-138.42
1764762967.828919,-169.245,-2016.27,-26031.375,-8782.47,-17679.51,-25171.605,-5047.29,-140.4
1764762967.828919,-172.215,-2020.005,-26037.63,-8790.615,-17682.524999999998,-25173.945,-5048.955,-142.47
1764762967.828919,-173.16,-2022.84,-26040.51,-8793.315,-17680.005,-25172.955,-5048.55,-141.84
1764762967.828919,-168.12,-2016.945,-26033.76,-8784.539999999999,-17671.725,-25168.77,-5044.905,-138.24
1764762967.828919,-166.815,-2013.075,-26028.72,-8779.005,-17670.329999999998,-25169.76,-5046.21,-138.465
1764762967.828919,-165.51,-2011.23,-26025.12,-8773.965,-17667.809999999998,-25170.12,-5046.03,-137.745
1764762967.828919,-169.785,-2016.72,-26030.88,-8778.24,-17670.915,-25173.045,-5047.56,-140.94
1764762967.828919,-174.64499999999998,-2023.65,-26039.205,-8784.81,-17673.48,-25173.54,-5049.764999999999,-143.01
1764762967.828919,-170.055,-2017.08,-26031.6,-8778.42,-17670.195,-25172.28,-5048.73,-140.265
1764762967.828919,-167.04,-2011.005,-26024.265,-8774.369999999999,-17671.005,-25173.045,-5047.56,-138.32999999999998
1764762967.828919,-172.07999999999998,-2018.7,-26034.075,-8784.945,-17684.235,-25179.66,-5050.26,-142.875
1764762967.828919,-174.555,-2025.09,-26042.715,-8792.595,-17688.825,-25179.705,-5050.71,-143.64
1764762967.828919,-178.605,-2028.465,-26046.63,-8794.98,-17689.41,-25181.82,-5052.42,-146.745
1764762967.828919,-171.855,-2019.78,-26036.19,-8784.99,-17679.465,-25175.52,-5047.47,-140.625
1764762967.828919,-173.7,-2018.88,-26034.21,-8782.92,-17675.595,-25174.845,-5047.514999999999,-142.29
1764762967.828919,-172.79999999999998,-2018.07,-26032.905,-8780.895,-17671.815,-25173.81,-5047.47,-141.795
1764762967.828919,-169.73999999999998,-2015.64,-26029.845,-8777.52,-17668.305,-25171.155,-5046.389999999999,-139.76999999999998
1764762967.828919,-172.845,-2017.935,-26031.645,-8780.13,-17672.265,-25173.855,-5047.335,-142.38
1764762967.828919,-171.405,-2015.415,-26029.53,-8778.555,-17672.309999999998,-25172.19,-5047.065,-140.13
1764762967.828919,-170.73,-2015.1,-26029.98,-8779.14,-17675.954999999998,-25172.325,-5045.94,-139.59
1764762967.828919,-172.89,-2018.745,-26034.03,-8783.324999999999,-17680.77,-25174.125,-5046.84,-141.48
1764762967.8718214,-175.95,-2024.1,-26041.545,-8790.705,-17685.495,-25176.465,-5048.19,-142.605
1764762967.8718214,-176.265,-2023.965,-26041.815,-8791.695,-17685.045,-25176.78,-5047.92,-142.82999999999998
1764762967.8718214,-174.69,-2021.715,-26039.61,-8789.355,-17683.02,-25177.5,-5047.875,-142.92
1764762967.8718214,-176.57999999999998,-2024.01,-26040.51,-8789.49,-17683.649999999998,-25180.965,-5051.115,-146.07
1764762967.8718214,-175.32,-2022.3,-26038.215,-8787.195,-17680.454999999998,-25179.255,-5050.575,-144.945
1764762967.8718214,-175.45499999999998,-2021.805,-26037.855,-8785.755,-17678.97,-25179.39,-5050.755,-145.62
1764762967.8718214,-176.22,-2022.255,-26037.99,-8784.72,-17678.88,-25179.93,-5050.889999999999,-146.97
1764762967.8718214,-171.98999999999998,-2017.665,-26032.59,-8779.455,-17673.12,-25175.205,-5047.965,-142.92
1764762967.8718214,-171.67499999999998,-2016.9,-26030.97,-8778.195,-17672.13,-25174.26,-5047.425,-142.29
1764762967.8718214,-170.775,-2014.695,-26027.73,-8774.55,-17669.97,-25173.36,-5047.335,-142.56
1764762967.8718214,-168.345,-2010.87,-26022.15,-8770.23,-17668.53,-25172.145,-5044.995,-141.12
1764762967.8718214,-166.68,-2008.575,-26018.145,-8767.574999999999,-17666.954999999998,-25171.065,-5043.33,-139.14
1764762967.8718214,-167.445,-2010.465,-26022.105,-8770.32,-17667.945,-25170.48,-5043.69,-139.68
1764762967.8718214,-175.59,-2022.615,-26038.08,-8784.855,-17676.225,-25174.53,-5047.605,-144.585
1764762967.8718214,-177.70499999999998,-2024.415,-26041.815,-8789.265,-17681.805,-25179.12,-5049.764999999999,-146.11499999999998
1764762967.8718214,-178.605,-2025.36,-26041.68,-8790.3,-17684.954999999998,-25181.82,-5051.34,-149.67
1764762967.8718214,-175.5,-2023.065,-26039.295,-8787.645,-17681.715,-25178.715,-5049.36,-147.555
1764762967.8718214,-172.39499999999998,-2020.095,-26035.56,-8784.404999999999,-17678.79,-25175.115,-5046.84,-143.595
1764762967.8718214,-175.36499999999998,-2022.84,-26037.72,-8787.195,-17681.355,-25177.005,-5046.929999999999,-145.035
1764762967.8718214,-172.39499999999998,-2020.59,-26034.93,-8783.595,-17678.655,-25177.635,-5045.445,-142.605
1764762967.8718214,-170.37,-2017.845,-26031.375,-8779.815,-17675.28,-25179.12,-5043.78,-140.85
1764762967.8718214,-166.095,-2011.95,-26024.715,-8772.57,-17669.204999999998,-25175.205,-5040.315,-137.34
1764762967.8718214,-158.265,-2002.815,-26015.175,-8762.49,-17660.385,-25165.305,-5035.77,-130.815
1764762967.8718214,-160.605,-2005.605,-26018.28,-8767.125,-17665.47,-25166.565,-5038.245,-133.29
1764762967.9187052,-166.68,-2013.93,-26029.395,-8779.095,-17675.82,-25171.155,-5041.44,-137.88
1764762967.9187052,-165.69,-2013.03,-26029.08,-8779.185,-17675.28,-25168.095,-5040.855,-136.53
1764762967.9187052,-166.59,-2014.2,-26028.81,-8777.16,-17670.735,-25162.695,-5038.695,-137.7
