Timestamp,Channel1,Channel2,Channel3,Channel4,Channel5,Channel6,Channel7,Channel8
1764764915.087936,-8481.195,-19705.815,-5239.755,-10211.22,-23320.98,-28113.795,-12516.84,-8803.755
1764764915.087936,-8478.045,-19701.405,-5235.974999999999,-10206.495,-23316.57,-28109.205,-12514.815,-8799.705
1764764915.087936,-8480.07,-19703.16,-5237.82,-10207.215,-23318.46,-28111.005,-12517.29,-8801.414999999999
1764764915.087936,-8484.57,-19706.535,-5241.96,-10211.175,-23322.24,-28114.92,-12521.745,-8805.33
1764764915.087936,-8483.715,-19706.175,-5240.88,-10210.545,-23320.44,-28113.84,-12519.72,-8804.385
1764764915.087936,-8480.115,-19703.115,-5237.865,-10207.26,-23317.155,-28111.32,-12516.84,-8801.19
1764764915.087936,-8482.994999999999,-19706.49,-5240.97,-10210.23,-23320.485,-28115.595,-12521.52,-8804.925
1764764915.087936,-8482.365,-19705.23,-5239.935,-10209.285,-23319.855,-28114.965,-12522.195,-8804.295
1764764915.087936,-8487.045,-19709.415,-5243.985,-10213.29,-23323.815,-28119.105,-12526.29,-8808.3
1764764915.087936,-8484.39,-19707.885,-5242.365,-10210.995,-23321.385,-28117.305,-12524.445,-8806.14
1764764915.087936,-8479.71,-19702.755,-5236.965,-10206.945,-23316.75,-28113.66,-12520.71,-8801.279999999999
1764764915.087936,-8480.744999999999,-19703.565,-5237.73,-10207.98,-23318.55,-28115.64,-12518.82,-8801.055
1764764915.087936,-8484.795,-19707.48,-5242.05,-10212.345,-23323.095,-28119.42,-12519.495,-8804.025
1764764915.087936,-8488.44,-19710.945,-5246.28,-10215.405,-23326.245,-28122.795,-12524.04,-8808.345
1764764915.087936,-8487.539999999999,-19709.64,-5245.11,-10213.695,-23323.59,-28119.555,-12524.445,-8807.58
1764764915.087936,-8483.67,-19705.275,-5240.88,-10209.465,-23317.155,-28113.975,-12526.245,-8804.34
1764764915.087936,-8483.13,-19705.23,-5240.97,-10208.79,-23317.695,-28111.995,-12521.025,-8803.215
1764764915.087936,-8484.975,-19707.435,-5243.22,-10211.265,-23319.72,-28114.875,-12522.375,-8804.789999999999
1764764915.087936,-8486.369999999999,-19709.415,-5245.47,-10214.145,-23322.015,-28119.105,-12525.12,-8806.455
1764764915.087936,-8482.725,-19705.59,-5241.87,-10210.905,-23319.405,-28116.405,-12521.475,-8802.81
1764764915.0894022,-8485.02,-19706.85,-5242.95,-10212.57,-23320.665,-28118.43,-12523.32,-8806.59
1764764915.0894022,-8483.58,-19705.23,-5241.78,-10211.04,-23318.775,-28115.64,-12522.51,-8803.485
1764764915.132072,-8487.09,-19709.55,-5246.099999999999,-10214.055,-23321.43,-28116.45,-12525.12,-8806.68
1764764915.132072,-8488.574999999999,-19710.99,-5247.09,-10215.09,-23323.23,-28119.33,-12531.645,-8809.47
1764764915.1330826,-8483.805,-19705.545,-5242.05,-10210.59,-23318.82,-28116.18,-12528.27,-8805.06
1764764915.1330826,-8481.24,-19701.675,-5238.045,-10207.305,-23316.84,-28114.74,-12524.22,-8803.215
1764764915.1330826,-8482.545,-19703.43,-5240.295,-10210.32,-23319.405,-28115.865,-12522.105,-8803.664999999999
1764764915.1330826,-8485.695,-19707.345,-5244.48,-10213.74,-23322.78,-28119.195,-12524.805,-8806.185
1764764915.1330826,-8487.404999999999,-19709.235,-5246.415,-10215.72,-23323.68,-28120.455,-12525.975,-8808.48
1764764915.1330826,-8485.83,-19707.84,-5244.345,-10213.74,-23322.015,-28119.33,-12525.03,-8806.5
1764764915.1330826,-8481.96,-19703.565,-5240.61,-10210.455,-23318.145,-28114.74,-12521.25,-8802.135
1764764915.1330826,-8480.97,-19702.845,-5240.565,-10209.285,-23316.93,-28113.975,-12522.015,-8802.315
1764764915.1330826,-8485.065,-19706.355,-5243.67,-10211.67,-23319.54,-28116.63,-12526.2,-8806.14
1764764915.1330826,-8489.744999999999,-19710.63,-5247.495,-10215.765,-23324.31,-28120.815,-12530.115,-8810.46
1764764915.1330826,-8485.92,-19707.3,-5243.804999999999,-10213.065,-23321.79,-28118.79,-12527.28,-8807.039999999999
1764764915.1330826,-8484.84,-19705.86,-5243.04,-10212.345,-23320.98,-28118.88,-12527.595,-8806.904999999999
1764764915.1330826,-8485.65,-19706.94,-5244.57,-10213.2,-23322.195,-28118.7,-12527.055,-8807.355
1764764915.1330826,-8489.385,-19710.765,-5248.08,-10216.62,-23325.12,-28121.49,-12528.63,-8810.235
1764764915.1330826,-8489.744999999999,-19711.665,-5249.655,-10218.33,-23326.38,-28123.515,-12528.765,-8810.955
1764764915.1330826,-8491.904999999999,-19713.465,-5251.05,-10220.4,-23328.99,-28125.54,-12530.475,-8813.295
1764764915.1330826,-8492.31,-19713.735,-5250.78,-10220.49,-23329.17,-28127.655,-12538.53,-8815.32
1764764915.1330826,-8488.35,-19709.64,-5246.145,-10216.17,-23326.47,-28127.475,-12537.99,-8811.494999999999
1764764915.1340885,-8482.86,-19705.005,-5241.69,-10211.175,-23321.655,-28122.345,-12525.48,-8804.385
1764764915.1340885,-8485.065,-19706.355,-5243.58,-10213.605,-23323.725,-28124.865,-12529.35,-8806.14
1764764915.1340885,-8484.255,-19706.085,-5242.455,-10212.345,-23321.52,-28120.815,-12526.065,-8805.69
1764764915.1340885,-8483.715,-19706.13,-5243.22,-10212.21,-23319.54,-28112.535,-12519.18,-8803.529999999999
1764764915.1807408,-8482.994999999999,-19706.355,-5243.13,-10212.75,-23318.55,-28110.105,-12518.235,-8803.26
1764764915.1807408,-8480.97,-19703.115,-5239.755,-10210.095,-23316.435,-28112.13,-12522.15,-8801.955
1764764915.1807408,-8482.77,-19705.005,-5242.545,-10212.615,-23319.855,-28116.855,-12524.445,-8803.485
1764764915.1807408,-8486.55,-19709.145,-5246.865,-10216.395,-23326.02,-28123.605,-12528.27,-8808.119999999999
1764764915.1807408,-8486.414999999999,-19709.235,-5246.82,-10216.62,-23327.28,-28124.505,-12528.495,-8807.715
1764764915.1807408,-8483.22,-19705.14,-5243.49,-10213.695,-23324.355,-28121.67,-12525.3,-8803.17
1764764915.1807408,-8485.11,-19707.165,-5245.245,-10214.685,-23323.635,-28121.805,-12527.955,-8805.914999999999
1764764915.181753,-8485.965,-19707.795,-5244.795,-10212.75,-23317.875,-28116.945,-12528.54,-8805.779999999999
1764764915.181753,-8486.955,-19707.975,-5245.065,-10213.605,-23320.845,-28122.3,-12533.49,-8807.49
1764764915.181753,-8482.005,-19703.25,-5241.33,-10210.095,-23316.84,-28117.845,-12527.82,-8802.494999999999
1764764915.181753,-8481.914999999999,-19703.25,-5241.195,-10209.915,-23316.975,-28115.19,-12521.97,-8801.595
1764764915.181753,-8485.289999999999,-19706.625,-5245.65,-10214.28,-23321.43,-28119.285,-12526.245,-8806.59
1764764915.181753,-8486.145,-19707.84,-5246.73,-10214.955,-23322.15,-28120.455,-12527.955,-8807.039999999999
1764764915.181753,-8480.34,-19701.72,-5239.845,-10209.195,-23316.66,-28116.54,-12523.23,-8800.244999999999
1764764915.181753,-8481.33,-19702.62,-5240.79,-10210.095,-23318.1,-28118.655,-12525.66,-8801.64
1764764915.181753,-8484.164999999999,-19706.31,-5244.84,-10214.28,-23321.97,-28122.255,-12530.88,-8805.735
1764764915.181753,-8485.92,-19708.29,-5246.325,-10215.81,-23322.96,-28122.345,-12530.745,-8806.904999999999
1764764915.181753,-8492.22,-19714.77,-5253.435,-10222.155,-23328.54,-28127.97,-12534.21,-8813.025
1764764915.181753,-8491.05,-19712.52,-5251.77,-10220.31,-23327.325,-28128.285,-12536.1,-8812.485
1764764915.181753,-8488.44,-19710.09,-5248.395,-10216.8,-23324.49,-28127.43,-12537.18,-8810.324999999999
1764764915.181753,-8490.555,-19712.205,-5251.05,-10219.68,-23326.74,-28129.905,-12541.185,-8812.17
1764764915.181753,-8488.71,-19710.54,-5249.565,-10218.42,-23323.905,-28126.98,-12537.09,-8810.145
1764764915.2283342,-8478.585,-19701.225,-5240.025,-10209.735,-23316.21,-28117.665,-12520.215,-8798.58
1764764915.2283342,-8481.06,-19703.205,-5242.23,-10211.895,-23319.225,-28120.23,-12523.005,-8801.414999999999
1764764915.2283342,-8481.6,-19704.735,-5244.03,-10213.155,-23319.63,-28120.41,-12524.22,-8801.55
1764764915.2283342,-8484.345,-19708.02,-5247.27,-10216.395,-23323.41,-28124.595,-12529.395,-8804.97
1764764915.2283342,-8482.59,-19705.77,-5244.615,-10213.965,-23322.015,-28126.575,-12531.195,-8805.285
1764764915.2283342,-8483.445,-19705.815,-5244.615,-10214.415,-23322.96,-28128.24,-12531.645,-8805.779999999999
1764764915.2283342,-8483.94,-19707.345,-5246.054999999999,-10216.17,-23325.165,-28128.78,-12527.505,-8806.095
1764764915.2283342,-8481.914999999999,-19705.14,-5244.03,-10213.605,-23321.385,-28122.975,-12524.715,-8803.845
1764764915.2298558,-8488.395,-19711.44,-5250.375,-10220.13,-23325.075,-28124.19,-12529.485,-8809.38
1764764915.2298558,-8487.855,-19711.26,-5251.545,-10221.93,-23327.775,-28125.135,-12530.16,-8808.164999999999
1764764915.2298558,-8482.86,-19707.165,-5248.035,-10218.78,-23328.27,-28125.675,-12526.83,-8803.529999999999
1764764915.2298558,-8486.64,-19711.44,-5253.03,-10224.27,-23334.165,-28131.525,-12531.78,-8807.625
1764764915.2298558,-8482.904999999999,-19706.535,-5247.045,-10219.815,-23329.395,-28128.42,-12532.095,-8805.6
1764764915.2298558,-8484.57,-19708.38,-5248.889999999999,-10219.95,-23326.335,-28126.215,-12532.545,-8807.49
1764764915.2298558,-8482.815,-19705.185,-5245.74,-10214.28,-23317.155,-28119.195,-12529.665,-8804.97
1764764915.2298558,-8486.145,-19707.93,-5247.99,-10216.035,-23318.73,-28121.895,-12533.04,-8807.445
1764764915.2298558,-8489.835,-19712.97,-5252.895,-10220.895,-23324.85,-28126.98,-12534.39,-8810.955
1764764915.2298558,-8491.904999999999,-19715.31,-5255.595,-10223.955,-23329.53,-28131.48,-12539.07,-8813.565
1764764915.2298558,-8494.02,-19717.065,-5258.429999999999,-10226.115,-23331.555,-28132.155,-12539.565,-8815.5
1764764915.2298558,-8491.14,-19713.915,-5255.37,-10223.01,-23328.045,-28129.32,-12538.215,-8812.17
1764764915.2298558,-8479.619999999999,-19702.53,-5244.345,-10213.155,-23319.405,-28123.245,-12533.04,-8801.73
1764764915.2298558,-8479.98,-19702.71,-5245.38,-10214.28,-23321.745,-28123.245,-12526.965,-8801.369999999999
1764764915.2298558,-8482.41,-19705.68,-5248.665,-10217.565,-23324.805,-28126.485,-12527.955,-8803.529999999999
1764764915.2298558,-8484.57,-19706.805,-5249.88,-10218.24,-23324.94,-28128.915,-12533.49,-8806.455
1764764915.2719216,-8489.115,-19712.025,-5254.47,-10222.155,-23327.82,-28130.985,-12537.045,-8810.82
1764764915.2719216,-8491.635,-19714.86,-5257.304999999999,-10225.44,-23330.745,-28132.92,-12540.33,-8812.98
1764764915.2729414,-8484.345,-19707.93,-5250.285,-10219.5,-23326.47,-28128.825,-12531.735,-8805.15
1764764915.2729414,-8481.914999999999,-19706.67,-5249.07,-10218.645,-23327.28,-28129.365,-12528.765,-8802.494999999999
1764764915.2729414,-8484.84,-19709.415,-5251.86,-10221.525,-23332.14,-28135.305,-12533.175,-8805.69
1764764915.2729414,-8486.324999999999,-19709.505,-5252.985,-10222.335,-23332.095,-28137.195,-12536.28,-8807.625
1764764915.2729414,-8485.335,-19707.255,-5250.51,-10220.355,-23326.335,-28132.83,-12534.165,-8806.904999999999
1764764915.2729414,-8489.789999999999,-19710.81,-5253.165,-10223.775,-23328.36,-28135.62,-12539.52,-8811.81
1764764915.2729414,-8487.945,-19710.045,-5252.535,-10221.975,-23327.1,-28134.27,-12538.98,-8810.279999999999
1764764915.2729414,-8481.645,-19704.015,-5248.035,-10217.07,-23322.375,-28129.05,-12531.105,-8803.215
1764764915.2729414,-8481.33,-19705.095,-5248.53,-10217.385,-23321.88,-28128.645,-12528.135,-8802.63
1764764915.2729414,-8485.02,-19709.055,-5252.94,-10220.94,-23322.555,-28126.35,-12526.695,-8805.24
1764764915.2729414,-8481.42,-19705.14,-5249.34,-10218.015,-23320.665,-28124.505,-12525.57,-8802.27
1764764915.2729414,-8480.61,-19704.465,-5248.62,-10217.97,-23320.485,-28123.515,-12525.345,-8801.73
1764764915.2729414,-8480.97,-19705.68,-5248.845,-10218.33,-23320.575,-28123.965,-12526.245,-8802.0
1764764915.2729414,-8479.98,-19704.015,-5247.315,-10217.115,-23319.945,-28126.26,-12529.035,-8802.81
1764764915.2739334,-8481.33,-19704.465,-5249.34,-10218.24,-23321.565,-28129.86,-12529.665,-8803.529999999999
1764764915.2739334,-8481.375,-19704.69,-5249.565,-10218.915,-23322.195,-28131.255,-12531.015,-8803.529999999999
1764764915.2739334,-8482.275,-19706.58,-5250.554999999999,-10220.355,-23323.59,-28130.805,-12531.69,-8804.475
1764764915.2739334,-8481.96,-19706.805,-5250.105,-10220.445,-23323.14,-28129.14,-12532.32,-8804.654999999999
1764764915.2739334,-8481.015,-19705.455,-5248.889999999999,-10219.365,-23322.15,-28126.665,-12527.415,-8803.215
1764764915.2739334,-8486.279999999999,-19711.35,-5254.514999999999,-10224.72,-23327.055,-28129.095,-12529.89,-8807.94
1764764915.2739334,-8483.94,-19709.595,-5252.58,-10222.515,-23324.85,-28130.805,-12534.795,-8805.824999999999
1764764915.2739334,-8479.215,-19705.185,-5248.215,-10219.365,-23321.25,-28127.43,-12529.395,-8801.685
1764764915.3204968,-8484.164999999999,-19709.73,-5252.625,-10224.63,-23326.83,-28132.515,-12534.615,-8806.455
1764764915.3204968,-8484.615,-19709.82,-5252.715,-10224.63,-23326.065,-28131.975,-12535.83,-8807.039999999999
1764764915.3204968,-8481.51,-19706.265,-5250.42,-10222.065,-23324.445,-28131.3,-12533.94,-8805.24
1764764915.3204968,-8477.505,-19702.44,-5245.875,-10217.835,-23320.17,-28126.71,-12530.16,-8801.145
1764764915.3204968,-8480.385,-19705.905,-5249.205,-10220.67,-23322.555,-28129.095,-12531.51,-8804.16
1764764915.3204968,-8483.895,-19709.145,-5252.94,-10224.765,-23327.325,-28133.955,-12535.155,-8807.94
1764764915.3204968,-8481.465,-19707.39,-5250.15,-10223.055,-23327.64,-28134.495,-12534.03,-8805.96
1764764915.3204968,-8482.545,-19709.01,-5252.13,-10225.17,-23330.52,-28136.745,-12535.695,-8807.175
1764764915.3204968,-8484.48,-19710.54,-5253.57,-10227.015,-23333.355,-28141.29,-12539.79,-8809.92
1764764915.3204968,-8486.91,-19712.52,-5254.875,-10228.185,-23332.68,-28142.91,-12546.27,-8813.654999999999
1764764915.3204968,-8484.705,-19711.845,-5253.255,-10226.07,-23326.56,-28134.27,-12541.68,-8810.82
1764764915.3204968,-8486.505,-19714.14,-5255.955,-10228.77,-23330.475,-28137.42,-12543.66,-8812.98
1764764915.3204968,-8482.41,-19709.595,-5251.365,-10223.595,-23324.58,-28132.155,-12539.88,-8809.38
1764764915.3204968,-8481.779999999999,-19708.83,-5250.735,-10222.965,-23322.465,-28129.41,-12534.03,-8807.175
1764764915.3204968,-8484.57,-19711.755,-5253.795,-10225.935,-23327.145,-28133.415,-12537.9,-8809.83
1764764915.3204968,-8484.705,-19712.79,-5253.75,-10226.565,-23329.89,-28137.375,-12542.94,-8811.63
1764764915.321667,-8479.664999999999,-19707.57,-5249.025,-10221.57,-23325.84,-28134.405,-12538.89,-8807.039999999999
1764764915.321667,-8482.32,-19710.675,-5251.5,-10224.495,-23328.45,-28133.955,-12533.4,-8806.455
1764764915.321667,-8484.525,-19711.8,-5252.715,-10226.025,-23328.855,-28135.755,-12537.27,-8809.289999999999
1764764915.321667,-8483.625,-19711.26,-5252.804999999999,-10225.71,-23326.29,-28131.615,-12533.4,-8808.66
1764764915.321667,-8480.925,-19709.1,-5250.87,-10223.73,-23324.67,-28128.6,-12527.19,-8805.06
1764764915.321667,-8480.295,-19707.03,-5250.014999999999,-10222.38,-23323.365,-28129.14,-12530.835,-8804.97
1764764915.321667,-8481.06,-19707.84,-5249.97,-10222.74,-23324.04,-28130.085,-12532.59,-8805.195
1764764915.321667,-8481.42,-19707.795,-5250.33,-10222.11,-23324.76,-28131.84,-12535.74,-8805.465
1764764915.367566,-8482.68,-19708.155,-5250.554999999999,-10222.515,-23326.065,-28136.295,-12544.11,-8807.355
1764764915.367566,-8483.49,-19709.415,-5251.32,-10223.865,-23327.505,-28136.205,-12542.535,-8807.355
1764764915.367566,-8483.13,-19709.145,-5250.645,-10223.1,-23326.47,-28134.585,-12540.42,-8807.13
1764764915.367566,-8486.64,-19712.79,-5253.705,-10226.655,-23329.08,-28137.69,-12543.705,-8811.99
1764764915.367566,-8480.565,-19707.075,-5248.845,-10220.805,-23323.815,-28131.795,-12536.955,-8805.555
1764764915.367566,-8479.529999999999,-19705.68,-5247.63,-10218.78,-23322.555,-28131.705,-12537.45,-8804.205
1764764915.367566,-8484.119999999999,-19710.315,-5252.58,-10222.965,-23327.64,-28137.42,-12543.39,-8809.38
1764764915.367566,-8483.445,-19709.865,-5252.13,-10222.83,-23327.64,-28137.465,-12543.03,-8808.615
1764764915.367566,-8479.8,-19706.805,-5248.44,-10219.23,-23324.805,-28134.765,-12539.565,-8805.015
1764764915.368086,-8484.255,-19711.305,-5253.03,-10223.865,-23329.17,-28136.745,-12541.905,-8809.38
1764764915.368086,-8485.965,-19713.33,-5255.82,-10226.115,-23330.295,-28136.61,-12542.535,-8810.955
1764764915.368086,-8479.619999999999,-19707.975,-5249.52,-10219.635,-23323.14,-28131.795,-12538.035,-8805.465
1764764915.368086,-8481.735,-19710.27,-5251.77,-10221.75,-23325.705,-28134.495,-12539.88,-8808.164999999999
1764764915.368086,-8487.585,-19715.175,-5257.17,-10226.655,-23331.33,-28140.21,-12544.515,-8814.105
1764764915.368086,-8486.55,-19713.465,-5255.28,-10224.855,-23331.24,-28140.12,-12544.965,-8813.565
1764764915.368086,-8483.355,-19710.54,-5253.03,-10222.515,-23327.37,-28134.9,-12541.14,-8809.695
1764764915.368086,-8477.64,-19705.095,-5247.315,-10217.25,-23323.095,-28132.245,-12539.79,-8804.565
1764764915.368086,-8478.27,-19705.365,-5247.45,-10216.53,-23323.545,-28133.415,-12542.04,-8805.24
1764764915.368086,-8478.72,-19705.68,-5246.955,-10216.305,-23322.87,-28131.93,-12539.34,-8805.15
1764764915.368086,-8473.365,-19700.865,-5242.185,-10212.435,-23318.1,-28126.845,-12533.625,-8800.244999999999
1764764915.368086,-8473.455,-19702.44,-5243.804999999999,-10213.965,-23319.36,-28127.52,-12533.22,-8800.875
1764764915.368086,-8479.89,-19708.965,-5249.925,-10219.59,-23324.85,-28132.875,-12539.475,-8806.455
1764764915.368086,-8478.99,-19707.39,-5248.98,-10217.88,-23323.455,-28132.065,-12539.205,-8805.33
1764764915.368086,-8480.385,-19708.02,-5250.15,-10218.375,-23325.255,-28135.71,-12543.48,-8807.85
1764764915.415649,-8476.244999999999,-19703.88,-5246.325,-10214.595,-23321.295,-28131.21,-12537.315,-8802.9
1764764915.415649,-8476.605,-19704.195,-5246.415,-10214.82,-23320.755,-28129.455,-12535.515,-8802.135
1764764915.415649,-8478.945,-19706.445,-5248.8,-10216.575,-23322.33,-28131.795,-12539.34,-8804.925
1764764915.415649,-8482.545,-19710.855,-5253.03,-10220.22,-23326.38,-28137.42,-12544.47,-8809.74
1764764915.415649,-8482.275,-19710.27,-5252.22,-10219.59,-23325.705,-28138.86,-12544.875,-8809.199999999999
1764764915.415649,-8479.98,-19706.895,-5248.845,-10216.44,-23322.825,-28136.565,-12543.48,-8805.779999999999
1764764915.415649,-8481.375,-19708.965,-5250.06,-10218.42,-23325.705,-28138.59,-12546.18,-8807.94
1764764915.415649,-8483.265,-19711.485,-5252.67,-10220.85,-23327.28,-28137.78,-12546.27,-8808.345
1764764915.415649,-8487.539999999999,-19716.57,-5258.565,-10225.665,-23329.53,-28134.945,-12545.955,-8812.215
1764764915.415649,-8486.82,-19714.275,-5256.585,-10223.46,-23326.38,-28134.045,-12548.07,-8812.574999999999
1764764915.415649,-8480.835,-19707.75,-5249.34,-10216.44,-23321.205,-28131.345,-12544.245,-8805.735
1764764915.415649,-8480.295,-19707.21,-5249.115,-10215.54,-23321.43,-28129.365,-12539.655,-8803.44
1764764915.415649,-8480.34,-19708.11,-5249.52,-10216.62,-23322.42,-28129.455,-12539.07,-8804.25
1764764915.415649,-8477.145,-19705.14,-5246.145,-10213.245,-23318.73,-28127.52,-12537.405,-8801.955
1764764915.415649,-8477.19,-19705.05,-5245.74,-10213.425,-23318.91,-28128.195,-12538.665,-8802.135
1764764915.415649,-8480.115,-19707.975,-5249.205,-10216.395,-23323.995,-28134.18,-12543.885,-8805.24
1764764915.415649,-8479.755,-19707.525,-5249.115,-10216.44,-23324.04,-28135.53,-12545.28,-8805.105
1764764915.415649,-8477.01,-19704.24,-5246.28,-10213.245,-23320.53,-28132.29,-12542.805,-8802.315
1764764915.415649,-8478.63,-19706.22,-5248.17,-10215.45,-23320.89,-28132.155,-12544.065,-8803.98
1764764915.415649,-8482.725,-19710.45,-5252.175,-10218.915,-23322.42,-28132.38,-12546.09,-8807.895
1764764915.415649,-8480.07,-19708.02,-5249.07,-10215.765,-23320.89,-28131.165,-12544.065,-8804.925
1764764915.415649,-8483.94,-19711.89,-5253.12,-10219.14,-23324.67,-28136.925,-12549.69,-8808.525
1764764915.458866,-8483.67,-19711.26,-5253.255,-10218.915,-23323.995,-28135.845,-12547.44,-8808.615
1764764915.458866,-8480.43,-19707.705,-5249.79,-10215.585,-23320.665,-28131.66,-12544.155,-8806.41
1764764915.458866,-8481.24,-19708.83,-5250.78,-10216.53,-23322.24,-28130.58,-12541.77,-8805.914999999999
1764764915.458866,-8479.305,-19706.445,-5248.395,-10214.28,-23320.26,-28128.6,-12540.465,-8803.26
1764764915.458866,-8481.465,-19708.74,-5250.15,-10216.44,-23321.835,-28131.795,-12544.11,-8806.41
1764764915.458866,-8477.595,-19705.32,-5246.415,-10212.795,-23317.92,-28128.645,-12541.68,-8803.08
1764764915.458866,-8477.055,-19705.05,-5247.0,-10212.435,-23318.055,-28127.7,-12540.96,-8802.765
1764764915.458866,-8480.025,-19707.57,-5250.33,-10215.045,-23320.35,-28130.49,-12543.66,-8805.195
1764764915.458866,-8484.119999999999,-19711.305,-5253.929999999999,-10218.015,-23323.815,-28134.855,-12548.745,-8809.515
1764764915.458866,-8483.58,-19710.36,-5252.4,-10217.52,-23323.68,-28136.205,-12551.94,-8810.414999999999
1764764915.458866,-8482.994999999999,-19709.28,-5252.175,-10216.215,-23322.645,-28135.71,-12552.165,-8809.515
1764764915.458866,-8483.805,-19709.73,-5252.58,-10216.89,-23323.32,-28135.17,-12550.005,-8808.975
1764764915.458866,-8483.355,-19711.17,-5252.715,-10217.655,-23323.725,-28134.405,-12548.43,-8808.975
1764764915.458866,-8482.365,-19709.955,-5251.275,-10216.17,-23321.745,-28131.795,-12545.325,-8806.32
1764764915.458866,-8476.154999999999,-19704.015,-5244.974999999999,-10209.915,-23315.58,-28125.495,-12536.82,-8799.705
1764764915.458866,-8472.195,-19699.83,-5241.51,-10205.235,-23311.44,-28121.085,-12533.535,-8795.97
1764764915.458866,-8473.59,-19700.865,-5242.815,-10206.675,-23313.195,-28122.345,-12536.055,-8798.175
1764764915.458866,-8476.74,-19704.555,-5246.054999999999,-10210.59,-23316.795,-28125.45,-12538.755,-8801.145
1764764915.4593887,-8477.955,-19707.075,-5247.405,-10212.345,-23318.55,-28127.205,-12540.735,-8803.08
1764764915.4593887,-8476.289999999999,-19704.915,-5245.695,-10210.68,-23317.425,-28127.655,-12545.73,-8802.27
1764764915.4593887,-8474.58,-19701.765,-5243.13,-10208.385,-23315.535,-28127.745,-12548.385,-8800.02
1764764915.4593887,-8476.92,-19703.61,-5245.425,-10210.41,-23316.885,-28127.7,-12546.495,-8801.73
1764764915.4593887,-8476.785,-19703.43,-5244.885,-10210.095,-23316.525,-28126.62,-12545.415,-8801.279999999999
1764764915.4593887,-8472.24,-19698.93,-5240.115,-10205.415,-23311.98,-28122.12,-12539.565,-8796.555
1764764915.510431,-8474.13,-19701.72,-5242.77,-10208.385,-23314.005,-28124.28,-12540.105,-8798.85
1764764915.510431,-8478.9,-19705.095,-5246.865,-10211.94,-23318.145,-28128.96,-12547.8,-8804.025
1764764915.510431,-8478.539999999999,-19704.15,-5245.605,-10210.14,-23316.705,-28127.52,-12547.17,-8802.99
1764764915.510431,-8481.465,-19707.57,-5248.26,-10212.165,-23318.595,-28130.49,-12550.005,-8806.455
1764764915.510431,-8475.345,-19701.18,-5241.465,-10206.09,-23312.88,-28126.665,-12546.27,-8801.324999999999
1764764915.510431,-8475.975,-19702.215,-5243.22,-10207.935,-23316.345,-28128.915,-12543.885,-8800.875
1764764915.510431,-8475.93,-19703.07,-5244.48,-10209.465,-23318.415,-28129.905,-12542.085,-8800.47
1764764915.510431,-8476.289999999999,-19702.98,-5244.615,-10210.05,-23318.955,-28129.14,-12542.04,-8800.965
1764764915.510431,-8474.58,-19701.855,-5243.625,-10208.385,-23315.94,-28126.395,-12540.555,-8800.335
1764764915.510431,-8478.765,-19706.175,-5247.045,-10210.815,-23315.535,-28125.405,-12544.11,-8804.654999999999
1764764915.510431,-8479.529999999999,-19707.165,-5247.675,-10211.175,-23316.345,-28127.07,-12545.415,-8804.88
1764764915.510431,-8477.46,-19704.87,-5245.83,-10210.05,-23315.715,-28127.115,-12543.21,-8802.99
1764764915.510431,-8470.619999999999,-19697.715,-5239.44,-10202.895,-23309.145,-28120.815,-12535.965,-8797.095
1764764915.510431,-8474.355,-19702.935,-5244.12,-10207.17,-23313.69,-28124.64,-12541.005,-8801.595
1764764915.510431,-8479.89,-19708.425,-5249.745,-10212.12,-23318.955,-28129.995,-12546.18,-8805.69
1764764915.510431,-8479.935,-19708.29,-5249.745,-10211.67,-23317.74,-28129.5,-12546.27,-8805.555
1764764915.510431,-8475.795,-19704.375,-5244.929999999999,-10206.765,-23312.925,-28125.18,-12542.22,-8801.145
1764764915.511452,-8475.705,-19703.07,-5243.13,-10206.27,-23313.195,-28127.115,-12543.75,-8801.505
1764764915.511452,-8474.58,-19702.575,-5243.31,-10206.045,-23313.69,-28127.295,-12543.93,-8801.055
1764764915.511452,-8475.029999999999,-19703.07,-5244.48,-10206.63,-23313.78,-28127.34,-12545.415,-8801.369999999999
1764764915.511452,-8475.029999999999,-19703.61,-5244.12,-10206.63,-23313.69,-28126.755,-12544.38,-8801.73
1764764915.511452,-8470.619999999999,-19699.425,-5239.575,-10202.355,-23309.64,-28122.48,-12540.195,-8796.779999999999
1764764915.511452,-8468.19,-19696.59,-5237.415,-10199.97,-23307.84,-28120.995,-12537.36,-8793.99
1764764915.511452,-8469.404999999999,-19698.615,-5238.764999999999,-10201.05,-23309.415,-28122.93,-12539.52,-8796.105
1764764915.5540202,-8470.935,-19700.55,-5239.53,-10202.67,-23311.17,-28123.875,-12540.78,-8798.175
1764764915.5540202,-8474.94,-19704.375,-5243.715,-10206.18,-23314.815,-28126.98,-12543.795,-8801.73
1764764915.5540202,-8476.11,-19705.545,-5245.155,-10207.215,-23315.895,-28126.665,-12542.13,-8801.55
1764764915.5540202,-8472.555,-19702.44,-5241.285,-10203.795,-23311.845,-28123.335,-12538.8,-8797.59
1764764915.5540202,-8470.574999999999,-19699.74,-5239.215,-10201.275,-23309.685,-28123.47,-12539.61,-8796.195
1764764915.5540202,-8471.835,-19701.135,-5240.25,-10202.85,-23310.9,-28123.92,-12539.295,-8796.555
1764764915.5540202,-8475.93,-19705.995,-5244.165,-10206.405,-23314.32,-28127.025,-12542.58,-8800.515
1764764915.5540202,-8475.029999999999,-19705.005,-5243.58,-10204.65,-23313.15,-28124.595,-12540.465,-8799.885
1764764915.5540202,-8471.699999999999,-19701.585,-5240.925,-10201.275,-23309.955,-28121.49,-12538.17,-8796.645
1764764915.5540202,-8474.355,-19703.88,-5242.545,-10203.435,-23312.07,-28126.935,-12547.98,-8799.21
1764764915.5540202,-8473.365,-19703.295,-5241.33,-10202.175,-23310.99,-28125.225,-12545.28,-8798.085
1764764915.5540202,-8471.07,-19700.775,-5238.945,-10199.43,-23309.415,-28122.705,-12541.86,-8796.195
1764764915.5540202,-8474.895,-19703.61,-5242.23,-10202.715,-23312.79,-28127.07,-12546.675,-8801.19
1764764915.5540202,-8474.13,-19702.62,-5241.24,-10201.185,-23310.855,-28126.215,-12546.225,-8800.244999999999
1764764915.5540202,-8471.88,-19700.73,-5239.62,-10199.7,-23310.18,-28124.28,-12543.795,-8797.23
1764764915.5540202,-8475.525,-19703.565,-5242.679999999999,-10202.265,-23312.97,-28126.89,-12545.415,-8799.93
1764764915.5540202,-8472.69,-19701.45,-5239.53,-10199.7,-23310.135,-28123.38,-12541.635,-8796.824999999999
1764764915.5540202,-8472.06,-19701.045,-5239.215,-10198.575,-23309.055,-28121.805,-12541.005,-8795.43
1764764915.5540202,-8471.25,-19698.57,-5237.82,-10196.46,-23307.84,-28121.445,-12543.39,-8795.475
1764764915.5540202,-8476.02,-19703.34,-5242.724999999999,-10201.23,-23312.385,-28126.08,-12547.17,-8800.92
1764764915.5540202,-8479.17,-19707.3,-5245.65,-10204.065,-23315.805,-28129.095,-12548.475,-8804.565
1764764915.5540202,-8478.045,-19704.825,-5244.03,-10202.4,-23314.59,-28126.71,-12546.27,-8803.17
1764764915.6009152,-8479.529999999999,-19707.3,-5246.325,-10204.65,-23316.615,-28129.455,-12549.555,-8804.88
1764764915.6009152,-8477.055,-19705.185,-5244.03,-10202.13,-23314.14,-28127.295,-12550.14,-8801.865
1764764915.6009152,-8476.065,-19703.07,-5242.815,-10199.97,-23313.105,-28128.375,-12555.09,-8802.18
1764764915.6009152,-8480.789999999999,-19706.895,-5246.73,-10203.615,-23316.03,-28131.03,-12557.61,-8805.96
1764764915.6009152,-8476.785,-19703.07,-5243.264999999999,-10200.51,-23312.025,-28125.0,-12547.35,-8801.369999999999
1764764915.6009152,-8475.074999999999,-19701.855,-5241.69,-10199.565,-23310.45,-28122.57,-12543.435,-8799.119999999999
1764764915.6009152,-8473.14,-19699.785,-5239.71,-10196.37,-23308.605,-28120.815,-12541.86,-8797.23
1764764915.6009152,-8474.265,-19701.09,-5241.195,-10198.755,-23310.18,-28121.13,-12540.645,-8797.32
1764764915.6009152,-8475.93,-19702.26,-5243.04,-10200.105,-23311.17,-28124.145,-12545.46,-8799.57
1764764915.6024415,-8475.705,-19702.71,-5242.679999999999,-10199.655,-23312.025,-28126.89,-12549.645,-8800.47
1764764915.6024415,-8476.065,-19702.98,-5242.23,-10200.195,-23312.475,-28127.925,-12551.58,-8801.369999999999
1764764915.6024415,-8477.91,-19703.835,-5243.355,-10201.005,-23312.34,-28128.915,-12553.02,-8801.775
1764764915.6024415,-8476.965,-19703.925,-5243.445,-10201.095,-23312.88,-28129.275,-12550.68,-8801.145
1764764915.6024415,-8479.935,-19707.165,-5246.505,-10204.155,-23316.48,-28131.12,-12549.69,-8803.17
1764764915.6024415,-8477.1,-19704.915,-5243.895,-10201.32,-23313.915,-28127.43,-12544.695,-8800.92
1764764915.6024415,-8469.9,-19697.4,-5237.099999999999,-10194.975,-23306.355,-28119.42,-12534.615,-8792.369999999999
1764764915.6024415,-8469.539999999999,-19696.995,-5237.37,-10194.255,-23305.32,-28118.7,-12533.265,-8791.154999999999
1764764915.6024415,-8473.904999999999,-19701.27,-5241.465,-10198.17,-23309.325,-28122.705,-12539.745,-8795.789999999999
1764764915.6024415,-8475.029999999999,-19702.44,-5242.5,-10199.745,-23310.585,-28126.44,-12547.755,-8797.815
1764764915.6024415,-8472.465,-19699.335,-5239.755,-10196.64,-23308.065,-28125.585,-12547.89,-8795.07
1764764915.6024415,-8476.244999999999,-19703.97,-5244.345,-10200.78,-23312.25,-28129.995,-12549.33,-8798.31
1764764915.6024415,-8472.735,-19700.01,-5240.52,-10197.27,-23307.93,-28127.115,-12545.82,-8794.71
1764764915.6024415,-8473.005,-19699.875,-5240.745,-10197.0,-23307.75,-28126.62,-12545.865,-8795.744999999999
1764764915.6024415,-8474.49,-19701.27,-5240.97,-10197.27,-23309.37,-28128.465,-12548.655,-8797.994999999999
1764764915.649778,-8479.71,-19706.13,-5246.054999999999,-10202.715,-23314.635,-28132.92,-12553.515,-8803.71
1764764915.649778,-8479.17,-19705.77,-5245.83,-10202.175,-23313.24,-28128.96,-12548.43,-8801.595
1764764915.649778,-8473.949999999999,-19700.505,-5240.429999999999,-10197.045,-23309.28,-28124.37,-12542.805,-8795.744999999999
1764764915.649778,-8477.055,-19703.565,-5243.94,-10200.285,-23312.925,-28129.77,-12549.15,-8799.615
1764764915.649778,-8476.289999999999,-19703.835,-5244.12,-10200.42,-23313.105,-28130.625,-12549.24,-8799.074999999999
1764764915.649778,-8473.5,-19701.27,-5240.79,-10197.72,-23310.27,-28127.565,-12547.395,-8796.869999999999
1764764915.649778,-8471.744999999999,-19698.12,-5238.99,-10195.155,-23305.59,-28121.355,-12543.975,-8795.654999999999
1764764915.649778,-8468.82,-19694.88,-5236.155,-10192.05,-23303.205,-28118.7,-12540.915,-8791.965
1764764915.649778,-8471.88,-19697.715,-5238.764999999999,-10195.38,-23307.165,-28123.65,-12543.525,-8794.845
1764764915.6507792,-8472.96,-19698.48,-5240.205,-10196.55,-23307.615,-28124.865,-12543.57,-8795.385
1764764915.6507792,-8473.095,-19698.795,-5239.62,-10196.82,-23308.155,-28126.08,-12544.605,-8795.88
1764764915.6507792,-8471.34,-19697.265,-5238.0,-10196.01,-23306.49,-28124.73,-12542.49,-8793.9
1764764915.6507792,-8468.19,-19693.44,-5234.49,-10192.005,-23302.08,-28119.87,-12538.395,-8789.94
1764764915.6507792,-8467.74,-19692.27,-5232.42,-10189.755,-23301.315,-28120.32,-12542.895,-8790.93
1764764915.6507792,-8470.305,-19694.205,-5235.705,-10193.13,-23304.69,-28123.605,-12544.785,-8793.18
1764764915.6507792,-8472.51,-19696.77,-5238.179999999999,-10195.335,-23307.165,-28125.27,-12544.29,-8794.619999999999
1764764915.6507792,-8472.645,-19697.175,-5238.72,-10196.325,-23308.065,-28126.845,-12545.64,-8794.574999999999
1764764915.6507792,-8475.48,-19699.695,-5242.139999999999,-10199.79,-23311.305,-28130.04,-12551.175,-8797.005
1764764915.6507792,-8479.664999999999,-19704.33,-5246.505,-10203.615,-23314.77,-28133.955,-12557.745,-8800.92
1764764915.6507792,-8475.48,-19699.65,-5241.24,-10198.575,-23310.765,-28130.13,-12552.795,-8797.365
1764764915.6507792,-8468.369999999999,-19693.305,-5234.04,-10191.915,-23304.195,-28121.175,-12537.495,-8788.815
1764764915.6507792,-8469.99,-19694.97,-5236.47,-10194.03,-23306.04,-28122.93,-12538.665,-8790.48
1764764915.6507792,-8470.215,-19694.88,-5236.785,-10193.355,-23305.275,-28121.805,-12540.105,-8790.57
1764764915.6507792,-8470.125,-19693.8,-5235.255,-10191.96,-23303.205,-28123.155,-12546.72,-8790.255
1764764915.6951432,-8470.845,-19695.015,-5236.155,-10192.95,-23304.78,-28123.155,-12544.29,-8790.615
1764764915.6951432,-8474.445,-19699.065,-5240.34,-10197.495,-23308.965,-28125.945,-12544.47,-8793.494999999999
1764764915.6951432,-8473.14,-19697.49,-5238.945,-10196.415,-23308.83,-28127.295,-12546.54,-8793.36
1764764915.6951432,-8472.33,-19696.185,-5238.09,-10195.605,-23308.83,-28128.645,-12547.665,-8793.494999999999
1764764915.696166,-8469.27,-19692.99,-5235.165,-10192.23,-23305.545,-28126.53,-12545.505,-8790.84
1764764915.696166,-8470.935,-19694.79,-5236.74,-10194.12,-23307.075,-28128.33,-12547.395,-8791.74
1764764915.696166,-8464.815,-19688.895,-5231.385,-10188.855,-23301.315,-28122.705,-12543.03,-8785.71
1764764915.696166,-8463.779999999999,-19687.995,-5230.304999999999,-10187.145,-23300.73,-28123.245,-12542.175,-8785.17
1764764915.696166,-8467.335,-19691.595,-5233.139999999999,-10189.89,-23302.845,-28124.55,-12543.66,-8788.815
1764764915.696166,-8473.095,-19696.995,-5239.17,-10194.615,-23306.985,-28126.44,-12547.08,-8793.72
1764764915.696166,-8475.39,-19699.425,-5242.139999999999,-10197.45,-23310.18,-28130.355,-12549.96,-8796.015
1764764915.696166,-8472.06,-19696.365,-5239.08,-10194.615,-23307.975,-28127.43,-12546.855,-8793.045
1764764915.696166,-8475.93,-19700.37,-5243.625,-10199.295,-23313.24,-28132.515,-12551.13,-8796.555
1764764915.696166,-8476.83,-19701.135,-5243.264999999999,-10199.61,-23312.745,-28132.245,-12549.96,-8796.69
1764764915.696166,-8473.23,-19698.39,-5240.52,-10196.145,-23309.685,-28128.42,-12545.595,-8793.675
1764764915.696166,-8469.539999999999,-19694.205,-5236.83,-10192.185,-23305.77,-28124.28,-12542.895,-8790.255
1764764915.697163,-8473.904999999999,-19698.525,-5241.195,-10196.91,-23310.27,-28129.365,-12549.285,-8795.385
1764764915.697163,-8473.23,-19697.67,-5240.429999999999,-10196.64,-23309.955,-28130.04,-12549.15,-8795.34
1764764915.697163,-8470.17,-19694.745,-5237.775,-10193.265,-23306.805,-28127.205,-12545.055,-8791.695
1764764915.697163,-8472.555,-19697.355,-5240.429999999999,-10196.055,-23309.73,-28129.545,-12548.43,-8794.305
1764764915.697163,-8475.975,-19701.585,-5243.625,-10199.745,-23313.465,-28133.955,-12554.955,-8799.39
1764764915.697163,-8474.805,-19699.38,-5241.69,-10198.305,-23313.105,-28135.44,-12555.315,-8798.265
1764764915.7411003,-8472.33,-19696.5,-5238.855,-10195.425,-23310.99,-28132.83,-12550.545,-8794.529999999999
1764764915.7411003,-8473.815,-19699.02,-5241.78,-10197.855,-23312.7,-28133.415,-12549.735,-8795.835
1764764915.7411003,-8471.744999999999,-19697.535,-5240.429999999999,-10196.145,-23307.93,-28126.8,-12545.595,-8793.09
1764764915.7411003,-8472.645,-19696.905,-5239.215,-10195.605,-23306.22,-28127.97,-12554.415,-8794.98
1764764915.7411003,-8469.63,-19693.17,-5235.974999999999,-10192.185,-23305.32,-28127.79,-12555.81,-8792.19
1764764915.7411003,-8468.145,-19692.135,-5234.94,-10191.33,-23303.79,-28125.09,-12550.995,-8790.164999999999
1764764915.7411003,-8467.92,-19692.09,-5234.895,-10191.555,-23302.755,-28122.255,-12543.57,-8788.904999999999
1764764915.7411003,-8471.205,-19695.6,-5238.45,-10195.2,-23306.445,-28126.62,-12547.755,-8793.0
1764764915.7411003,-8470.17,-19693.89,-5237.145,-10194.12,-23306.13,-28127.07,-12546.27,-8790.93
1764764915.7411003,-8468.01,-19691.91,-5235.57,-10192.86,-23305.095,-28126.125,-12546.18,-8789.58
1764764915.7411003,-8470.215,-19692.99,-5237.37,-10193.67,-23306.31,-28128.105,-12549.915,-8791.83
1764764915.7421112,-8473.455,-19696.32,-5240.34,-10196.145,-23308.56,-28129.905,-12551.805,-8794.664999999999
1764764915.7421112,-8470.305,-19694.835,-5238.045,-10194.345,-23306.805,-28127.745,-12549.24,-8792.595
1764764915.7421112,-8471.205,-19696.32,-5238.855,-10196.19,-23308.47,-28129.455,-12549.15,-8793.135
1764764915.7421112,-8472.96,-19697.58,-5239.889999999999,-10197.315,-23309.64,-28131.03,-12551.085,-8793.99
1764764915.7421112,-8470.71,-19695.105,-5237.639999999999,-10195.245,-23307.165,-28128.69,-12550.14,-8791.83
1764764915.7421112,-8467.92,-19691.55,-5234.31,-10191.015,-23303.745,-28124.64,-12547.485,-8789.355
1764764915.7421112,-8469.63,-19693.305,-5235.615,-10192.32,-23305.365,-28126.89,-12549.96,-8791.83
1764764915.7421112,-8473.095,-19696.725,-5238.72,-10195.74,-23309.01,-28129.815,-12553.785,-8795.25
1764764915.7421112,-8469.63,-19693.395,-5235.974999999999,-10192.365,-23305.5,-28125.99,-12549.24,-8791.154999999999
1764764915.7421112,-8468.145,-19691.505,-5234.67,-10191.015,-23304.015,-28125.81,-12547.71,-8790.119999999999
1764764915.7421112,-8471.115,-19694.205,-5237.37,-10194.21,-23307.48,-28130.535,-12553.425,-8792.685
1764764915.7421112,-8468.955,-19691.595,-5234.625,-10192.14,-23305.545,-28130.49,-12554.82,-8791.515
1764764915.7421112,-8474.67,-19697.4,-5240.025,-10197.405,-23310.54,-28135.26,-12559.41,-8796.645
1764764915.7860556,-8475.975,-19699.38,-5241.599999999999,-10198.53,-23311.53,-28133.415,-12557.385,-8797.59
1764764915.7860556,-8473.005,-19697.715,-5239.935,-10196.595,-23308.56,-28128.69,-12551.355,-8793.225
1764764915.7860556,-8466.615,-19691.775,-5234.22,-10190.7,-23303.295,-28122.165,-12540.78,-8786.16
1764764915.7860556,-8468.955,-19692.18,-5234.804999999999,-10192.05,-23304.33,-28124.37,-12544.245,-8789.13
1764764915.7860556,-8467.02,-19689.75,-5232.33,-10189.665,-23302.17,-28123.56,-12545.19,-8787.465
1764764915.7860556,-8468.73,-19692.18,-5234.31,-10191.555,-23305.32,-28126.53,-12548.7,-8789.715
1764764915.7860556,-8473.41,-19697.085,-5239.845,-10197.27,-23310.315,-28131.84,-12552.435,-8794.035
1764764915.7860556,-8476.154999999999,-19699.92,-5242.995,-10200.42,-23312.7,-28133.28,-12551.085,-8795.88
1764764915.7860556,-8474.85,-19699.2,-5241.465,-10198.755,-23310.72,-28130.85,-12549.78,-8794.89
1764764915.7870796,-8469.99,-19693.755,-5236.29,-10193.13,-23305.455,-28126.215,-12549.24,-8791.289999999999
1764764915.7870796,-8469.585,-19692.99,-5235.3,-10191.96,-23304.78,-28127.52,-12552.03,-8791.38
1764764915.7870796,-8465.58,-19688.22,-5230.935,-10187.28,-23300.37,-28127.205,-12555.9,-8787.869999999999
1764764915.7870796,-8467.02,-19690.155,-5232.51,-10188.495,-23302.35,-28126.98,-12551.625,-8788.14
1764764915.7870796,-8469.765,-19693.305,-5235.075,-10191.78,-23305.14,-28129.005,-12551.355,-8789.895
1764764915.7870796,-8471.88,-19695.465,-5237.054999999999,-10193.625,-23307.03,-28130.49,-12554.415,-8792.145
1764764915.7870796,-8474.31,-19698.165,-5240.07,-10195.92,-23309.28,-28132.11,-12556.08,-8794.305
1764764915.7870796,-8471.52,-19695.105,-5237.19,-10192.77,-23306.355,-28129.005,-12552.21,-8791.47
1764764915.7870796,-8470.44,-19693.53,-5235.615,-10191.555,-23305.635,-28128.24,-12551.58,-8790.525
1764764915.7870796,-8467.83,-19691.64,-5233.815,-10189.35,-23303.34,-28126.575,-12549.33,-8788.23
1764764915.7870796,-8471.25,-19694.79,-5236.605,-10192.23,-23306.355,-28129.365,-12552.255,-8790.84
1764764915.7870796,-8469.72,-19693.035,-5234.895,-10190.52,-23305.23,-28128.24,-12552.435,-8789.67
1764764915.7870796,-8469.225,-19692.855,-5234.67,-10190.79,-23304.69,-28128.33,-12553.605,-8790.435
1764764915.7870796,-8471.699999999999,-19695.555,-5237.37,-10192.815,-23306.985,-28129.995,-12554.955,-8792.73
1764764915.7870796,-8475.39,-19699.155,-5240.429999999999,-10195.245,-23310.0,-28132.29,-12557.745,-8795.52
1764764915.8370123,-8470.574999999999,-19693.44,-5234.849999999999,-10190.655,-23305.095,-28127.115,-12551.4,-8790.66
1764764915.8375196,-8469.765,-19692.585,-5234.22,-10189.845,-23303.925,-28127.115,-12551.895,-8789.805
1764764915.8375196,-8471.654999999999,-19694.295,-5235.885,-10191.42,-23305.095,-28129.68,-12554.46,-8791.335
1764764915.8375196,-8475.119999999999,-19698.165,-5239.26,-10194.48,-23309.1,-28134.0,-12559.77,-8795.07
1764764915.8375196,-8475.345,-19698.12,-5240.25,-10194.93,-23309.955,-28134.495,-12560.265,-8795.744999999999
1764764915.8375196,-8473.05,-19695.375,-5237.865,-10192.365,-23306.67,-28130.715,-12556.755,-8792.865
1764764915.8375196,-8473.32,-19696.14,-5238.81,-10192.725,-23307.345,-28131.525,-12554.955,-8793.404999999999
1764764915.8375196,-8471.654999999999,-19694.52,-5236.965,-10190.61,-23305.32,-28128.33,-12549.375,-8790.345
1764764915.8375196,-8467.335,-19689.705,-5232.465,-10186.29,-23301.405,-28124.19,-12547.575,-8786.88
1764764915.8375196,-8471.654999999999,-19694.565,-5237.28,-10191.375,-23306.805,-28129.14,-12553.875,-8791.965
1764764915.8375196,-8471.385,-19693.17,-5236.92,-10190.97,-23305.77,-28128.195,-12554.145,-8792.279999999999
1764764915.8375196,-8473.904999999999,-19695.465,-5238.495,-10192.995,-23307.615,-28130.67,-12555.99,-8795.115
1764764915.8375196,-8471.88,-19694.025,-5236.92,-10191.285,-23305.545,-28128.15,-12551.22,-8791.154999999999
1764764915.8375196,-8473.455,-19696.14,-5238.72,-10193.58,-23309.64,-28131.705,-12553.425,-8792.1
1764764915.8375196,-8472.465,-19695.06,-5237.01,-10192.41,-23309.64,-28133.19,-12554.64,-8792.055
1764764915.8375196,-8470.485,-19693.305,-5235.525,-10191.06,-23307.93,-28130.76,-12549.87,-8789.58
1764764915.8375196,-8473.095,-19696.455,-5238.585,-10192.995,-23308.38,-28131.75,-12552.12,-8791.605
1764764915.8375196,-8467.875,-19689.975,-5231.429999999999,-10185.39,-23298.12,-28124.64,-12555.27,-8787.285
1764764915.8375196,-8469.72,-19691.415,-5232.735,-10186.965,-23300.955,-28127.385,-12557.07,-8789.445
1764764915.8375196,-8477.19,-19699.29,-5240.25,-10194.885,-23308.83,-28132.47,-12560.22,-8796.645
1764764915.8375196,-8478.945,-19701.135,-5241.78,-10197.135,-23310.54,-28132.74,-12560.445,-8798.67
1764764915.8375196,-8476.74,-19699.56,-5240.115,-10195.47,-23308.56,-28132.695,-12560.22,-8796.33
1764764915.8802478,-8471.34,-19694.52,-5235.255,-10190.655,-23304.42,-28128.735,-12555.09,-8791.335
1764764915.8802478,-8470.845,-19693.935,-5234.58,-10189.935,-23303.7,-28128.015,-12552.3,-8789.625
1764764915.8802478,-8475.795,-19698.795,-5238.99,-10193.355,-23308.065,-28132.875,-12557.115,-8793.945
1764764915.8802478,-8476.605,-19699.02,-5239.215,-10193.355,-23308.245,-28133.505,-12559.545,-8794.935
1764764915.8802478,-8476.065,-19699.245,-5239.71,-10194.12,-23308.245,-28133.19,-12559.14,-8794.529999999999
1764764915.8802478,-8474.58,-19697.58,-5238.179999999999,-10192.545,-23306.625,-28129.995,-12557.52,-8793.045
1764764915.8812644,-8472.735,-19695.33,-5236.155,-10189.62,-23304.645,-28128.87,-12556.17,-8791.695
1764764915.8812644,-8476.065,-19698.165,-5238.764999999999,-10192.455,-23308.245,-28132.47,-12557.88,-8794.755
1764764915.8812644,-8477.369999999999,-19700.235,-5240.7,-10194.84,-23310.315,-28133.145,-12556.935,-8794.35
1764764915.8812644,-8477.19,-19699.65,-5240.115,-10194.795,-23309.73,-28133.1,-12557.88,-8793.63
1764764915.8812644,-8473.455,-19695.465,-5236.02,-10190.655,-23306.22,-28131.84,-12560.49,-8791.47
1764764915.8812644,-8473.005,-19694.205,-5234.625,-10189.44,-23305.68,-28131.93,-12561.93,-8791.289999999999
1764764915.8812644,-8473.59,-19694.745,-5234.715,-10189.62,-23305.545,-28131.795,-12560.4,-8791.56
1764764915.8812644,-8474.22,-19695.105,-5235.57,-10189.755,-23305.005,-28130.76,-12557.115,-8791.515
1764764915.8812644,-8472.555,-19693.845,-5235.615,-10189.845,-23304.78,-28129.635,-12551.085,-8788.635
1764764915.8812644,-8472.824999999999,-19694.745,-5236.605,-10190.7,-23306.67,-28131.03,-12551.04,-8789.13
1764764915.8812644,-8472.555,-19693.665,-5234.67,-10188.495,-23304.015,-28129.275,-12553.38,-8789.715
1764764915.8812644,-8473.725,-19695.42,-5235.929999999999,-10189.845,-23304.42,-28131.03,-12557.16,-8791.065
1764764915.8812644,-8476.289999999999,-19698.57,-5238.99,-10192.86,-23308.11,-28133.82,-12562.065,-8793.494999999999
1764764915.8812644,-8475.84,-19697.085,-5238.224999999999,-10191.915,-23307.57,-28134.0,-12560.805,-8793.135
1764764915.8812644,-8474.445,-19695.33,-5236.29,-10189.665,-23305.815,-28132.92,-12558.645,-8792.01
1764764915.8812644,-8473.005,-19694.205,-5235.48,-10188.675,-23304.915,-28131.39,-12557.79,-8791.065
1764764915.9273598,-8467.605,-19689.12,-5229.99,-10183.95,-23299.605,-28126.215,-12548.97,-8784.9
1764764915.9273598,-8469.539999999999,-19691.46,-5232.195,-10186.605,-23302.215,-28127.745,-12547.53,-8786.07
1764764915.9273598,-8467.605,-19689.57,-5229.945,-10184.22,-23300.1,-28125.765,-12547.89,-8784.855
1764764915.9273598,-8466.39,-19688.265,-5228.55,-10182.465,-23297.985,-28123.29,-12546.18,-8783.145
1764764915.9273598,-8467.47,-19688.445,-5229.405,-10183.095,-23298.03,-28123.065,-12546.54,-8784.09
1764764915.9273598,-8469.945,-19691.28,-5232.69,-10186.695,-23302.215,-28127.835,-12550.995,-8787.645
1764764915.9273598,-8467.785,-19689.57,-5230.755,-10184.895,-23301.045,-28126.53,-12549.78,-8784.855
1764764915.9273598,-8468.595,-19690.02,-5230.665,-10185.75,-23301.09,-28129.365,-12556.485,-8785.44
1764764915.928373,-8467.154999999999,-19688.04,-5229.675,-10183.86,-23299.74,-28129.545,-12556.89,-8785.17
1764764915.928373,-8461.664999999999,-19682.64,-5224.32,-10178.145,-23294.655,-28124.595,-12552.705,-8780.445
1764764915.928373,-8464.05,-19684.845,-5226.389999999999,-10180.755,-23297.265,-28126.62,-12552.705,-8782.244999999999
1764764915.928373,-8469.225,-19689.795,-5231.745,-10186.155,-23302.35,-28131.165,-12556.8,-8787.015
1764764915.928373,-8471.565,-19693.395,-5235.165,-10189.08,-23305.23,-28131.93,-12559.23,-8789.4
1764764915.928373,-8471.744999999999,-19693.395,-5234.445,-10188.27,-23304.015,-28131.12,-12561.21,-8790.074999999999
1764764915.928373,-8471.295,-19691.955,-5233.815,-10186.65,-23302.35,-28130.04,-12560.085,-8789.85
1764764915.928373,-8474.535,-19695.33,-5237.82,-10190.52,-23305.455,-28132.02,-12559.005,-8791.56
1764764915.928373,-8467.515,-19688.445,-5230.395,-10183.59,-23298.39,-28125.72,-12550.005,-8782.74
1764764915.928373,-8467.02,-19687.545,-5230.349999999999,-10182.69,-23297.94,-28125.9,-12548.97,-8781.885
1764764915.928373,-8468.865,-19689.885,-5232.96,-10184.985,-23300.28,-28127.88,-12550.275,-8783.19
1764764915.928373,-8471.385,-19692.585,-5234.715,-10188.225,-23303.79,-28132.92,-12557.385,-8787.869999999999
1764764915.928373,-8468.414999999999,-19689.705,-5232.33,-10185.48,-23301.18,-28129.095,-12553.29,-8784.855
1764764915.928373,-8469.585,-19690.38,-5232.645,-10184.895,-23300.505,-28128.24,-12551.94,-8785.664999999999
1764764915.928373,-8473.994999999999,-19694.835,-5236.245,-10189.44,-23304.87,-28132.47,-12555.135,-8789.58
1764764915.928373,-8472.465,-19693.89,-5235.03,-10188.585,-23303.7,-28131.165,-12554.505,-8787.869999999999
1764764915.972813,-8469.539999999999,-19691.82,-5232.51,-10186.02,-23300.955,-28128.015,-12552.48,-8784.135
1764764915.972813,-8468.235,-19690.65,-5231.61,-10184.895,-23299.74,-28128.69,-12556.305,-8783.64
1764764915.972813,-8469.494999999999,-19692.045,-5233.139999999999,-10186.515,-23301.495,-28132.02,-12559.77,-8786.205
1764764915.972813,-8467.244999999999,-19688.22,-5230.125,-10183.5,-23297.895,-28129.095,-12558.375,-8783.82
1764764915.972813,-8470.035,-19690.515,-5232.69,-10186.605,-23300.37,-28130.895,-12560.13,-8786.07
1764764915.972813,-8468.414999999999,-19688.76,-5230.845,-10185.255,-23299.875,-28129.905,-12556.53,-8783.19
1764764915.9738224,-8467.289999999999,-19688.265,-5230.17,-10184.85,-23300.91,-28131.39,-12554.01,-8781.57
1764764915.9738224,-8464.949999999999,-19685.115,-5226.974999999999,-10181.52,-23298.345,-28129.815,-12553.965,-8779.815
1764764915.9738224,-8464.77,-19686.195,-5227.29,-10182.645,-23298.705,-28128.285,-12549.195,-8777.88
1764764915.9738224,-8467.244999999999,-19688.94,-5230.62,-10184.895,-23298.255,-28125.675,-12549.015,-8779.904999999999
1764764915.9738224,-8465.039999999999,-19686.015,-5227.92,-10181.97,-23295.15,-28121.85,-12547.53,-8778.42
1764764915.9738224,-8467.605,-19688.535,-5230.26,-10184.355,-23298.345,-28127.295,-12555.63,-8781.525
1764764915.9738224,-8464.635,-19686.24,-5227.47,-10180.935,-23296.005,-28127.7,-12558.375,-8778.914999999999
1764764915.9738224,-8468.955,-19690.83,-5231.97,-10185.255,-23300.145,-28132.38,-12561.345,-8783.595
1764764915.9738224,-8470.395,-19691.865,-5232.87,-10186.74,-23302.26,-28134.27,-12563.145,-8785.125
1764764915.9748204,-8470.619999999999,-19691.73,-5233.23,-10186.83,-23301.63,-28133.055,-12562.065,-8784.81
1764764915.9748204,-8467.425,-19687.68,-5229.72,-10182.915,-23297.67,-28130.04,-12558.555,-8780.895
1764764915.9748204,-8462.925,-19683.945,-5225.76,-10179.27,-23294.25,-28125.675,-12549.735,-8775.945
1764764915.9748204,-8468.19,-19689.39,-5231.16,-10184.625,-23299.695,-28130.355,-12553.83,-8781.66
1764764915.9748204,-8468.414999999999,-19689.255,-5231.474999999999,-10184.895,-23299.74,-28130.355,-12554.73,-8781.48
1764764915.9748204,-8465.67,-19686.42,-5228.505,-10181.88,-23296.23,-28126.35,-12551.67,-8777.744999999999
1764764915.9757855,-8465.58,-19685.97,-5228.235,-10180.665,-23295.645,-28127.205,-12557.655,-8778.465
1764764916.018809,-8466.029999999999,-19686.645,-5228.685,-10181.745,-23297.13,-28129.68,-12559.41,-8779.68
1764764916.018809,-8465.76,-19685.88,-5228.28,-10181.34,-23296.95,-28129.14,-12558.24,-8779.725
1764764916.018809,-8462.88,-19682.28,-5224.995,-10178.055,-23293.53,-28126.26,-12555.72,-8776.89
1764764916.018809,-8463.914999999999,-19683.63,-5227.11,-10179.945,-23295.69,-28128.06,-12554.91,-8777.88
1764764916.018809,-8460.99,-19681.065,-5224.679999999999,-10176.975,-23292.945,-28124.415,-12549.015,-8773.515
1764764916.018809,-8460.135,-19680.03,-5222.745,-10175.985,-23291.595,-28124.775,-12549.6,-8772.84
1764764916.0198214,-8463.824999999999,-19683.54,-5226.255,-10180.035,-23296.005,-28128.96,-12553.065,-8776.755
1764764916.0198214,-8459.46,-19678.905,-5221.485,-10175.535,-23291.415,-28124.19,-12548.835,-8772.57
1764764916.0198214,-8458.289999999999,-19677.645,-5219.73,-10174.185,-23290.47,-28122.975,-12549.195,-8772.029999999999
1764764916.0198214,-8460.765,-19680.345,-5223.51,-10177.38,-23293.305,-28123.515,-12550.365,-8774.64
1764764916.0198214,-8461.89,-19682.145,-5226.03,-10179.135,-23293.845,-28125.27,-12551.85,-8776.035
1764764916.0198214,-8463.33,-19683.765,-5227.425,-10180.17,-23295.285,-28128.285,-12555.18,-8777.654999999999
1764764916.0198214,-8468.505,-19688.175,-5231.88,-10184.175,-23300.73,-28133.865,-12559.815,-8782.425
1764764916.0198214,-8468.055,-19687.05,-5230.44,-10182.96,-23299.74,-28133.19,-12559.365,-8781.615
1764764916.0198214,-8467.244999999999,-19686.105,-5229.495,-10181.925,-23298.255,-28131.48,-12558.105,-8780.175
1764764916.0198214,-8466.345,-19686.375,-5229.54,-10182.33,-23298.075,-28130.355,-12556.17,-8779.095
1764764916.0198214,-8464.68,-19685.205,-5228.235,-10180.755,-23296.95,-28128.51,-12551.31,-8776.35
1764764916.0198214,-8463.24,-19683.495,-5226.705,-10179.18,-23294.52,-28125.315,-12547.665,-8774.279999999999
1764764916.0198214,-8463.33,-19683.765,-5227.38,-10179.72,-23295.015,-28125.675,-12547.665,-8774.865
1764764916.0198214,-8467.695,-19687.41,-5230.935,-10183.05,-23298.12,-28129.32,-12552.84,-8779.949999999999
1764764916.0198214,-8469.99,-19688.895,-5232.24,-10184.355,-23299.515,-28134.585,-12562.875,-8783.55
1764764916.0198214,-8466.21,-19684.665,-5228.639999999999,-10180.935,-23295.915,-28131.57,-12560.085,-8779.77
1764764916.0198214,-8462.61,-19681.74,-5225.715,-10177.74,-23293.53,-28127.97,-12553.965,-8774.46
1764764916.0213542,-8460.99,-19679.625,-5223.15,-10175.94,-23292.18,-28126.98,-12553.965,-8772.795
1764764916.0213542,-8466.164999999999,-19683.855,-5227.74,-10180.17,-23296.5,-28132.065,-12559.95,-8778.555
1764764916.0213542,-8472.824999999999,-19690.965,-5234.4,-10186.155,-23302.62,-28137.51,-12564.405,-8785.395
1764764916.0674596,-8471.744999999999,-19689.12,-5233.23,-10184.895,-23301.135,-28136.205,-12562.47,-8784.045
1764764916.0674596,-8466.525,-19684.8,-5228.685,-10180.62,-23296.905,-28131.3,-12554.865,-8778.465
1764764916.0674596,-8463.195,-19682.28,-5225.4,-10178.055,-23294.745,-28129.41,-12550.545,-8773.695
1764764916.0674596,-8467.335,-19685.655,-5229.27,-10181.475,-23297.625,-28132.56,-12558.915,-8779.41
1764764916.0674596,-8468.73,-19686.24,-5229.405,-10182.33,-23298.345,-28133.055,-12558.6,-8780.4
1764764916.0674596,-8464.5,-19682.01,-5226.03,-10179.09,-23294.43,-28129.23,-12554.19,-8775.765
1764764916.0674596,-8465.985,-19683.09,-5227.83,-10181.79,-23296.545,-28131.66,-12555.99,-8776.935
1764764916.0674596,-8471.88,-19688.715,-5234.22,-10188.18,-23302.98,-28138.995,-12564.09,-8782.965
1764764916.0674596,-8473.77,-19690.38,-5235.615,-10188.405,-23303.925,-28139.175,-12567.195,-8784.404999999999
1764764916.0674596,-8471.61,-19687.455,-5232.195,-10185.3,-23300.01,-28136.385,-12566.835,-8782.47
1764764916.0674596,-8467.965,-19683.855,-5228.73,-10182.105,-23296.905,-28133.19,-12559.455,-8777.88
1764764916.0674596,-8463.51,-19680.165,-5224.365,-10178.145,-23292.855,-28127.52,-12552.12,-8772.615
1764764916.0674596,-8467.47,-19683.855,-5227.65,-10181.61,-23297.085,-28130.94,-12555.315,-8776.71
1764764916.0674596,-8471.925,-19688.715,-5232.87,-10185.885,-23302.08,-28134.315,-12557.745,-8780.49
1764764916.0674596,-8466.164999999999,-19682.82,-5226.929999999999,-10181.115,-23296.59,-28129.815,-12554.28,-8775.315
1764764916.0674596,-8463.914999999999,-19679.445,-5223.645,-10177.74,-23293.575,-28127.97,-12553.2,-8773.199999999999
1764764916.0674596,-8466.39,-19683.135,-5227.245,-10180.755,-23296.815,-28130.715,-12556.62,-8776.305
1764764916.0674596,-8465.805,-19681.83,-5226.165,-10179.27,-23295.69,-28130.58,-12555.855,-8775.585
1764764916.0674596,-8469.09,-19684.89,-5229.09,-10182.6,-23298.795,-28135.395,-12560.67,-8779.14
1764764916.0674596,-8467.289999999999,-19683.18,-5227.83,-10182.06,-23296.77,-28134.495,-12559.14,-8777.61
1764764916.0674596,-8462.25,-19678.455,-5223.24,-10177.695,-23292.495,-28130.715,-12555.945,-8773.38
1764764916.0674596,-8462.115,-19677.465,-5222.429999999999,-10177.02,-23291.685,-28128.42,-12555.18,-8772.255
1764764916.1148417,-8467.56,-19683.045,-5227.785,-10181.205,-23295.87,-28128.87,-12553.515,-8775.765
1764764916.1148417,-8474.265,-19690.695,-5234.895,-10187.73,-23302.26,-28133.28,-12556.89,-8781.345
1764764916.1148417,-8473.455,-19689.165,-5234.355,-10187.055,-23302.53,-28135.665,-12560.445,-8782.244999999999
1764764916.1148417,-8473.365,-19687.905,-5233.095,-10186.065,-23301.63,-28137.06,-12563.73,-8783.685
1764764916.1148417,-8471.295,-19685.7,-5230.485,-10183.635,-23299.245,-28137.24,-12568.14,-8781.255
1764764916.1148417,-8469.81,-19684.71,-5229.27,-10183.05,-23298.615,-28135.8,-12564.18,-8779.095
1764764916.1148417,-8469.765,-19685.565,-5230.215,-10183.59,-23299.515,-28136.025,-12560.49,-8779.05
1764764916.1148417,-8468.91,-19684.305,-5228.82,-10182.375,-23297.94,-28136.52,-12562.605,-8778.869999999999
1764764916.1148417,-8466.029999999999,-19680.885,-5226.255,-10179.765,-23295.015,-28133.55,-12560.31,-8775.72
1764764916.1148417,-8466.119999999999,-19681.29,-5226.21,-10180.305,-23295.42,-28133.055,-12561.345,-8775.585
1764764916.1148417,-8470.89,-19685.61,-5230.62,-10184.13,-23299.605,-28135.845,-12565.98,-8779.365
1764764916.1148417,-8478.99,-19693.98,-5238.405,-10191.06,-23305.86,-28141.47,-12573.18,-8788.005
1764764916.1148417,-8476.875,-19692.18,-5235.929999999999,-10189.17,-23304.06,-28138.68,-12568.455,-8786.52
1764764916.1148417,-8472.96,-19687.05,-5230.665,-10184.895,-23300.19,-28135.845,-12564.99,-8781.615
1764764916.1148417,-8467.38,-19682.235,-5226.03,-10181.7,-23296.095,-28133.055,-12560.895,-8776.574999999999
1764764916.1148417,-8469.315,-19684.98,-5229.764999999999,-10184.94,-23300.055,-28136.79,-12561.21,-8778.24
1764764916.1148417,-8471.43,-19686.42,-5231.52,-10185.3,-23301.63,-28138.275,-12562.56,-8779.455
1764764916.1148417,-8469.855,-19684.035,-5228.55,-10182.465,-23298.615,-28135.485,-12559.995,-8777.88
1764764916.1148417,-8472.869999999999,-19687.14,-5231.745,-10185.21,-23300.82,-28138.455,-12564.18,-8781.39
1764764916.1148417,-8467.965,-19683.09,-5227.965,-10181.025,-23295.42,-28133.145,-12561.57,-8777.07
1764764916.1148417,-8465.039999999999,-19680.21,-5224.95,-10177.875,-23294.115,-28131.255,-12559.32,-8774.235
1764764916.115349,-8467.695,-19683.18,-5227.245,-10180.98,-23296.5,-28133.46,-12560.22,-8776.17
1764764916.115349,-8472.914999999999,-19687.455,-5231.205,-10184.895,-23299.875,-28137.645,-12564.855,-8780.22
1764764916.115349,-8469.09,-19682.37,-5226.885,-10180.98,-23296.32,-28134.09,-12562.245,-8776.395
1764764916.1578412,-8469.404999999999,-19683.045,-5228.595,-10182.87,-23298.165,-28135.8,-12563.145,-8777.43
1764764916.1578412,-8473.23,-19687.14,-5232.554999999999,-10186.785,-23301.54,-28139.4,-12566.115,-8781.345
1764764916.1578412,-8470.845,-19684.755,-5229.9,-10184.445,-23299.02,-28137.105,-12563.82,-8778.779999999999
1764764916.1578412,-8473.32,-19686.69,-5231.295,-10186.515,-23301.72,-28139.58,-12566.745,-8780.94
1764764916.1578412,-8469.855,-19682.865,-5228.505,-10183.05,-23298.03,-28135.89,-12563.19,-8777.565
1764764916.1578412,-8469.315,-19682.1,-5227.56,-10181.88,-23296.68,-28135.215,-12562.245,-8776.755
1764764916.1578412,-8472.42,-19685.34,-5230.215,-10184.895,-23298.93,-28138.725,-12565.98,-8779.77
1764764916.1578412,-8476.244999999999,-19689.84,-5234.58,-10188.54,-23302.845,-28143.315,-12572.865,-8784.404999999999
1764764916.1578412,-8473.815,-19687.815,-5233.095,-10187.145,-23301.09,-28141.515,-12571.38,-8782.425
1764764916.1578412,-8477.46,-19691.1,-5236.695,-10190.16,-23304.105,-28143.72,-12572.775,-8785.529999999999
1764764916.1578412,-8473.23,-19686.645,-5232.42,-10186.515,-23300.685,-28139.49,-12564.72,-8780.175
1764764916.1578412,-8467.244999999999,-19680.525,-5226.345,-10181.025,-23296.14,-28133.685,-12554.73,-8773.83
1764764916.1578412,-8472.06,-19685.43,-5231.745,-10186.155,-23300.865,-28139.445,-12563.775,-8779.14
1764764916.1578412,-8470.664999999999,-19684.44,-5229.945,-10184.985,-23299.11,-28138.05,-12564.63,-8777.789999999999
1764764916.1578412,-8470.529999999999,-19684.71,-5230.395,-10184.67,-23299.155,-28137.825,-12563.415,-8777.52
1764764916.1578412,-8472.015,-19686.24,-5232.78,-10186.335,-23299.83,-28137.105,-12561.435,-8778.195
1764764916.1578412,-8472.24,-19686.915,-5232.915,-10186.245,-23300.235,-28137.6,-12562.695,-8778.869999999999
1764764916.1578412,-8474.13,-19688.58,-5234.535,-10188.54,-23303.025,-28141.74,-12567.33,-8782.11
1764764916.1578412,-8472.42,-19687.095,-5233.005,-10186.65,-23301.99,-28141.83,-12565.89,-8780.355
1764764916.1578412,-8470.485,-19684.575,-5229.764999999999,-10184.22,-23300.64,-28141.965,-12567.42,-8779.725
1764764916.2082536,-8473.455,-19687.77,-5233.095,-10187.775,-23302.89,-28144.53,-12570.345,-8782.02
1764764916.2082536,-8472.51,-19686.87,-5232.465,-10186.74,-23301.225,-28141.965,-12567.6,-8781.39
1764764916.2082536,-8465.445,-19679.265,-5224.905,-10179.18,-23293.08,-28134.45,-12563.19,-8775.27
1764764916.2082536,-8465.22,-19679.445,-5225.04,-10178.955,-23292.495,-28131.93,-12560.985,-8773.244999999999
1764764916.2082536,-8468.595,-19682.955,-5228.054999999999,-10182.42,-23295.69,-28134.855,-12562.515,-8775.72
1764764916.2082536,-8470.305,-19684.17,-5229.405,-10183.095,-23296.32,-28135.35,-12564.18,-8776.664999999999
1764764916.2082536,-8465.715,-19679.715,-5224.545,-10178.01,-23292.09,-28131.795,-12560.715,-8772.615
1764764916.2082536,-8470.08,-19683.765,-5228.82,-10183.005,-23297.805,-28138.185,-12566.745,-8777.744999999999
1764764916.2082536,-8471.744999999999,-19685.385,-5229.945,-10184.535,-23299.47,-28140.165,-12568.455,-8779.095
1764764916.2082536,-8472.285,-19685.43,-5230.395,-10184.895,-23299.47,-28140.12,-12568.59,-8779.005
1764764916.2082536,-8471.654999999999,-19685.205,-5230.349999999999,-10184.49,-23297.985,-28139.49,-12567.87,-8778.914999999999
1764764916.2082536,-8469.945,-19684.035,-5228.505,-10182.915,-23296.815,-28137.15,-12565.26,-8777.025
1764764916.2082536,-8468.1,-19682.775,-5227.875,-10182.87,-23296.815,-28136.43,-12562.065,-8774.46
1764764916.2082536,-8466.074999999999,-19679.805,-5225.715,-10180.08,-23293.35,-28134.36,-12560.445,-8772.705
1764764916.2082536,-8463.465,-19677.915,-5223.014999999999,-10177.47,-23291.37,-28132.605,-12558.42,-8770.23
1764764916.2082536,-8466.119999999999,-19680.84,-5225.625,-10179.945,-23294.565,-28135.35,-12561.255,-8773.02
1764764916.2082536,-8464.185,-19678.725,-5224.139999999999,-10178.055,-23291.73,-28132.695,-12559.365,-8771.265
1764764916.2082536,-8465.265,-19679.85,-5225.49,-10178.865,-23293.395,-28134.945,-12561.57,-8773.065
1764764916.2082536,-8468.865,-19683.765,-5229.09,-10182.42,-23297.13,-28138.815,-12565.98,-8776.35
1764764916.2082536,-8467.515,-19682.055,-5227.605,-10180.845,-23295.285,-28137.105,-12565.26,-8775.27
1764764916.2082536,-8464.005,-19678.275,-5224.365,-10177.605,-23291.73,-28134.81,-12561.48,-8772.345
1764764916.2082536,-8465.76,-19679.04,-5224.95,-10178.46,-23293.305,-28136.205,-12563.19,-8773.47
1764764916.2082536,-8468.82,-19682.82,-5228.054999999999,-10181.79,-23296.86,-28139.175,-12566.475,-8776.89
1764764916.2082536,-8464.14,-19678.905,-5223.915,-10177.56,-23292.045,-28134.945,-12561.39,-8771.535
1764764916.2557762,-8464.05,-19678.32,-5223.554999999999,-10177.515,-23291.64,-28135.26,-12560.49,-8770.68
1764764916.2557762,-8466.66,-19679.715,-5225.804999999999,-10180.62,-23293.62,-28137.195,-12564.045,-8773.425
1764764916.2557762,-8466.345,-19679.31,-5224.95,-10180.53,-23292.855,-28136.52,-12563.415,-8773.425
1764764916.2557762,-8469.855,-19683.54,-5229.179999999999,-10183.905,-23295.915,-28139.4,-12565.845,-8777.205
1764764916.2557762,-8470.619999999999,-19684.215,-5230.62,-10184.4,-23297.805,-28141.785,-12567.645,-8777.61
1764764916.2557762,-8474.4,-19687.86,-5234.895,-10188.135,-23301.09,-28145.16,-12575.745,-8781.48
1764764916.2557762,-8472.015,-19685.43,-5232.599999999999,-10185.795,-23298.75,-28143.63,-12577.365,-8779.545
1764764916.2557762,-8473.635,-19687.185,-5233.905,-10186.02,-23298.255,-28141.785,-12572.595,-8779.725
1764764916.2557762,-8475.029999999999,-19688.355,-5233.86,-10186.875,-23298.615,-28140.84,-12569.49,-8780.085
1764764916.2557762,-8467.335,-19681.155,-5226.66,-10180.215,-23292.765,-28136.655,-12562.74,-8772.21
1764764916.2557762,-8462.025,-19676.07,-5221.98,-10175.895,-23290.245,-28133.505,-12556.98,-8765.685
1764764916.2557762,-8458.47,-19671.21,-5217.03,-10170.225,-23284.395,-28128.735,-12555.405,-8763.255
1764764916.2557762,-8461.35,-19674.81,-5220.45,-10173.24,-23286.78,-28132.515,-12559.095,-8766.99
1764764916.2557762,-8466.21,-19679.355,-5225.67,-10178.505,-23292.0,-28137.87,-12565.305,-8771.805
1764764916.2557762,-8463.6,-19676.52,-5222.429999999999,-10175.67,-23289.795,-28136.925,-12564.765,-8769.869999999999
1764764916.2557762,-8465.76,-19678.455,-5224.05,-10177.245,-23291.955,-28138.815,-12566.61,-8772.3
1764764916.2557762,-8461.26,-19674.18,-5219.82,-10173.69,-23287.23,-28134.18,-12561.12,-8768.115
1764764916.2557762,-8461.89,-19675.17,-5220.45,-10174.77,-23288.22,-28134.045,-12559.77,-8768.88
1764764916.2557762,-8466.84,-19680.66,-5225.175,-10179.54,-23292.585,-28135.215,-12559.68,-8772.164999999999
1764764916.2557762,-8464.545,-19678.905,-5224.095,-10177.83,-23291.19,-28132.92,-12556.485,-8768.835
1764764916.2557762,-8467.515,-19681.245,-5225.94,-10181.07,-23294.43,-28138.005,-12562.425,-8772.705
1764764916.2557762,-8465.805,-19679.58,-5224.5,-10179.765,-23293.395,-28137.555,-12563.46,-8771.445
1764764916.2557762,-8463.42,-19677.96,-5222.52,-10177.02,-23290.605,-28134.765,-12560.715,-8768.97
1764764916.2557762,-8465.49,-19679.715,-5223.87,-10177.74,-23291.46,-28135.89,-12563.145,-8772.029999999999
1764764916.299044,-8459.82,-19674.09,-5218.11,-10172.52,-23286.69,-28130.76,-12558.51,-8767.485
1764764916.299044,-8460.81,-19674.045,-5218.605,-10173.195,-23286.6,-28130.58,-12559.68,-8767.44
1764764916.299044,-8463.69,-19676.565,-5220.945,-10175.22,-23289.03,-28133.325,-12562.65,-8769.465
1764764916.299044,-8461.755,-19675.26,-5219.145,-10173.42,-23287.185,-28132.335,-12560.805,-8767.44
1764764916.299044,-8466.119999999999,-19679.67,-5223.42,-10178.1,-23291.73,-28136.745,-12563.01,-8771.67
1764764916.299044,-8462.34,-19676.385,-5219.325,-10173.69,-23287.815,-28131.48,-12558.915,-8767.755
1764764916.299044,-8461.89,-19675.53,-5219.01,-10173.195,-23288.265,-28132.605,-12559.5,-8768.25
1764764916.299044,-8465.715,-19678.635,-5221.98,-10176.12,-23291.37,-28136.7,-12563.73,-8771.805
1764764916.299044,-8464.32,-19677.195,-5221.71,-10174.365,-23289.21,-28134.27,-12561.66,-8770.05
1764764916.299044,-8469.135,-19682.28,-5226.795,-10179.495,-23293.98,-28138.635,-12566.34,-8775.18
1764764916.299044,-8466.164999999999,-19678.635,-5223.375,-10176.12,-23291.055,-28136.16,-12563.145,-8772.029999999999
1764764916.299044,-8465.985,-19678.14,-5222.97,-10176.3,-23291.595,-28136.745,-12563.865,-8771.715
1764764916.299044,-8468.19,-19680.84,-5225.04,-10178.505,-23293.575,-28138.995,-12566.7,-8773.02
1764764916.299044,-8470.395,-19683.18,-5227.605,-10180.98,-23295.69,-28141.245,-12569.175,-8775.315
1764764916.299044,-8465.715,-19679.04,-5224.095,-10176.84,-23291.37,-28136.565,-12563.595,-8770.904999999999
1764764916.299044,-8467.38,-19680.93,-5226.345,-10178.055,-23293.305,-28138.005,-12563.325,-8772.615
1764764916.299044,-8467.47,-19680.795,-5225.355,-10177.65,-23292.99,-28138.095,-12564.63,-8773.02
1764764916.299044,-8465.355,-19678.32,-5222.655,-10175.4,-23290.02,-28135.215,-12562.875,-8770.904999999999
1764764916.3000588,-8461.17,-19673.505,-5218.425,-10171.665,-23285.88,-28130.715,-12558.06,-8765.55
1764764916.3000588,-8465.4,-19677.915,-5223.195,-10176.345,-23290.29,-28135.395,-12562.965,-8770.41
1764764916.3000588,-8462.61,-19675.17,-5220.945,-10173.555,-23288.04,-28133.505,-12561.21,-8767.935
1764764916.3000588,-8464.14,-19677.195,-5222.835,-10175.22,-23290.155,-28136.385,-12563.37,-8770.185
1764764916.3000588,-8469.27,-19682.595,-5228.235,-10180.575,-23294.43,-28141.02,-12568.005,-8775.404999999999
1764764916.3000588,-8470.529999999999,-19684.035,-5228.955,-10181.88,-23295.69,-28141.875,-12568.905,-8776.035
1764764916.346285,-8470.89,-19683.9,-5228.054999999999,-10182.105,-23296.14,-28141.92,-12569.445,-8775.855
1764764916.346285,-8469.765,-19682.145,-5226.389999999999,-10179.585,-23295.195,-28142.865,-12572.55,-8776.08
1764764916.346285,-8468.955,-19680.93,-5226.165,-10178.64,-23294.115,-28142.64,-12572.46,-8775.0
1764764916.346285,-8463.779999999999,-19675.755,-5220.72,-10173.33,-23287.995,-28134.54,-12564.945,-8768.88
1764764916.346285,-8463.105,-19674.675,-5219.505,-10172.115,-23287.005,-28132.965,-12562.29,-8767.395
1764764916.346285,-8466.66,-19677.645,-5223.42,-10175.67,-23289.93,-28135.395,-12563.595,-8769.195
1764764916.346285,-8471.205,-19682.505,-5227.83,-10179.945,-23294.475,-28139.94,-12568.365,-8774.685
1764764916.346285,-8471.34,-19682.37,-5227.695,-10181.385,-23294.565,-28140.75,-12569.715,-8774.865
1764764916.346285,-8470.529999999999,-19681.92,-5227.065,-10180.395,-23294.07,-28141.47,-12571.83,-8774.595
1764764916.346285,-8469.045,-19680.615,-5225.445,-10178.46,-23293.53,-28140.525,-12570.525,-8773.425
1764764916.346285,-8468.279999999999,-19680.255,-5224.365,-10177.425,-23293.53,-28139.895,-12568.995,-8773.065
1764764916.346285,-8467.785,-19678.815,-5223.195,-10175.355,-23291.865,-28138.77,-12568.77,-8771.715
1764764916.346285,-8467.154999999999,-19678.23,-5222.88,-10175.85,-23290.785,-28137.375,-12565.8,-8770.365
1764764916.346285,-8467.065,-19678.005,-5222.79,-10175.85,-23290.965,-28136.97,-12563.325,-8769.465
1764764916.346285,-8464.904999999999,-19675.53,-5220.315,-10172.97,-23288.355,-28135.035,-12563.64,-8767.755
1764764916.346285,-8468.324999999999,-19678.32,-5223.33,-10176.21,-23290.605,-28138.14,-12568.86,-8770.68
1764764916.3476672,-8466.75,-19677.105,-5221.395,-10175.22,-23290.065,-28137.24,-12566.565,-8769.24
1764764916.3476672,-8461.664999999999,-19672.65,-5215.905,-10170.765,-23285.43,-28132.47,-12561.93,-8764.38
1764764916.3476672,-8462.88,-19673.595,-5217.84,-10172.115,-23286.69,-28133.64,-12563.46,-8765.91
1764764916.3476672,-8463.06,-19674.0,-5218.74,-10172.43,-23287.59,-28134.405,-12564.405,-8766.09
1764764916.3476672,-8463.33,-19674.27,-5219.325,-10172.97,-23287.68,-28134.99,-12565.17,-8766.27
1764764916.3476672,-8463.555,-19674.315,-5218.965,-10173.15,-23287.095,-28135.665,-12565.17,-8766.855
1764764916.3476672,-8464.545,-19675.305,-5219.685,-10173.24,-23287.725,-28135.665,-12566.205,-8767.8
1764764916.3476672,-8466.029999999999,-19677.105,-5221.935,-10174.455,-23289.345,-28137.195,-12568.23,-8769.15
1764764916.3476672,-8461.44,-19672.02,-5217.389999999999,-10170.09,-23284.485,-28132.605,-12564.315,-8764.605
1764764916.3476672,-8463.105,-19673.595,-5218.695,-10171.755,-23286.555,-28134.99,-12566.295,-8766.18
1764764916.394401,-8465.85,-19676.925,-5221.935,-10174.635,-23289.705,-28138.32,-12568.815,-8769.195
1764764916.394401,-8463.15,-19674.09,-5219.054999999999,-10171.35,-23286.105,-28135.305,-12565.755,-8766.045
1764764916.394401,-8464.994999999999,-19675.845,-5221.26,-10173.645,-23288.085,-28138.455,-12569.13,-8768.654999999999
1764764916.394401,-8465.49,-19676.34,-5222.07,-10174.815,-23288.715,-28140.165,-12571.38,-8768.925
1764764916.394401,-8466.525,-19677.195,-5222.474999999999,-10175.49,-23289.57,-28141.065,-12572.46,-8770.095
1764764916.394401,-8465.985,-19676.565,-5221.575,-10174.77,-23287.725,-28139.22,-12570.75,-8769.42
1764764916.394401,-8460.675,-19671.93,-5216.355,-10169.415,-23283.855,-28134.18,-12562.38,-8764.335
1764764916.394401,-8455.68,-19666.8,-5211.63,-10164.78,-23279.67,-28127.88,-12551.445,-8758.215
1764764916.394401,-8458.74,-19669.86,-5215.86,-10167.795,-23282.595,-28129.545,-12553.29,-8760.779999999999
1764764916.3949215,-8463.105,-19674.495,-5220.72,-10171.665,-23285.88,-28135.17,-12562.065,-8765.82
1764764916.3949215,-8458.515,-19669.275,-5214.33,-10166.13,-23280.84,-28132.785,-12563.82,-8761.365
1764764916.3949215,-8461.755,-19672.245,-5216.94,-10169.28,-23283.405,-28135.44,-12566.07,-8763.705
1764764916.3949215,-8467.56,-19678.5,-5223.195,-10175.805,-23289.705,-28141.74,-12573.27,-8770.5
1764764916.3949215,-8463.465,-19673.01,-5218.92,-10170.855,-23284.755,-28137.015,-12571.065,-8766.99
1764764916.3949215,-8455.5,-19664.64,-5210.37,-10162.845,-23276.97,-28130.445,-12563.28,-8758.89
1764764916.3949215,-8456.49,-19666.755,-5212.665,-10164.87,-23278.545,-28130.4,-12561.435,-8759.205
1764764916.3949215,-8458.92,-19669.095,-5214.645,-10166.895,-23280.705,-28132.155,-12563.37,-8761.815
1764764916.3949215,-8461.395,-19671.39,-5215.995,-10168.065,-23282.055,-28134.54,-12565.98,-8764.47
1764764916.3949215,-8456.85,-19666.44,-5211.45,-10163.925,-23277.51,-28129.005,-12559.995,-8759.34
1764764916.3949215,-8459.1,-19668.645,-5214.465,-10166.445,-23280.12,-28130.265,-12559.725,-8760.824999999999
1764764916.3949215,-8461.125,-19670.355,-5216.4,-10169.055,-23282.145,-28133.19,-12562.47,-8763.345
1764764916.3949215,-8462.744999999999,-19670.85,-5216.76,-10170.045,-23283.72,-28135.62,-12566.07,-8764.74
1764764916.4409568,-8460.99,-19669.14,-5215.32,-10168.38,-23282.73,-28135.305,-12565.44,-8763.255
1764764916.4409568,-8458.065,-19666.89,-5213.295,-10165.86,-23280.12,-28133.64,-12563.595,-8760.645
1764764916.4409568,-8462.654999999999,-19670.805,-5217.525,-10170.045,-23283.765,-28137.465,-12568.14,-8765.1
1764764916.4409568,-8463.015,-19670.85,-5217.435,-10170.27,-23283.36,-28137.015,-12567.735,-8765.055
1764764916.4409568,-8458.875,-19666.62,-5212.889999999999,-10166.22,-23279.49,-28132.425,-12563.55,-8761.23
1764764916.4409568,-8459.055,-19667.07,-5213.115,-10166.805,-23280.525,-28132.56,-12564.09,-8761.23
1764764916.4409568,-8454.42,-19662.48,-5208.885,-10162.845,-23276.34,-28128.33,-12557.34,-8755.785
1764764916.441467,-8457.525,-19665.54,-5211.72,-10165.59,-23278.23,-28130.895,-12559.95,-8758.305
1764764916.441467,-8462.205,-19669.185,-5216.13,-10169.865,-23282.415,-28135.17,-12564.18,-8762.67
1764764916.441467,-8460.449999999999,-19667.655,-5214.96,-10168.2,-23280.885,-28133.28,-12563.55,-8761.05
1764764916.441467,-8456.31,-19663.785,-5210.595,-10164.42,-23277.15,-28129.815,-12559.905,-8756.64
1764764916.441467,-8455.904999999999,-19663.29,-5209.92,-10163.43,-23277.15,-28129.86,-12559.86,-8755.83
1764764916.441467,-8457.119999999999,-19664.595,-5210.775,-10164.6,-23278.905,-28132.425,-12562.47,-8758.125
1764764916.441467,-8459.1,-19666.44,-5212.845,-10166.175,-23280.03,-28133.28,-12563.28,-8760.375
1764764916.441467,-8463.6,-19671.57,-5217.705,-10170.63,-23284.395,-28137.96,-12567.195,-8764.515
1764764916.441467,-8461.215,-19669.77,-5216.535,-10168.74,-23283.18,-28135.935,-12565.53,-8763.119999999999
1764764916.441467,-8455.949999999999,-19664.37,-5210.505,-10163.16,-23277.51,-28130.58,-12560.985,-8758.395
1764764916.441467,-8456.895,-19664.955,-5210.37,-10163.07,-23278.14,-28131.21,-12561.57,-8758.845
1764764916.441467,-8459.955,-19667.385,-5213.61,-10165.275,-23280.975,-28134.54,-12564.09,-8761.095
1764764916.441467,-8459.145,-19666.08,-5212.755,-10164.555,-23280.075,-28133.505,-12563.595,-8759.88
1764764916.441467,-8458.47,-19664.91,-5211.99,-10164.465,-23280.48,-28134.675,-12563.595,-8759.07
1764764916.441467,-8454.465,-19661.625,-5207.715,-10160.73,-23276.61,-28131.345,-12559.59,-8754.84
1764764916.441467,-8456.039999999999,-19663.2,-5209.2,-10161.99,-23277.825,-28132.245,-12559.185,-8755.74
1764764916.441467,-8456.895,-19664.595,-5210.595,-10163.295,-23278.14,-28132.695,-12559.455,-8756.595
1764764916.488235,-8458.515,-19666.665,-5211.855,-10164.915,-23279.67,-28134.54,-12564.675,-8759.205
1764764916.488235,-8461.529999999999,-19669.275,-5214.24,-10167.57,-23281.875,-28136.88,-12568.77,-8762.13
1764764916.488235,-8456.31,-19664.91,-5209.47,-10162.89,-23276.97,-28130.895,-12560.85,-8757.045
1764764916.4890509,-8457.48,-19665.54,-5210.685,-10163.34,-23278.725,-28132.515,-12562.29,-8758.8
1764764916.4890509,-8461.35,-19669.5,-5214.33,-10167.21,-23282.595,-28136.745,-12566.07,-8762.49
1764764916.4890509,-8459.46,-19667.655,-5212.845,-10165.86,-23280.12,-28134.765,-12563.055,-8760.06
1764764916.4890509,-8459.955,-19667.34,-5212.44,-10165.77,-23279.715,-28136.16,-12566.565,-8761.005
1764764916.4890509,-8460.855,-19667.88,-5212.215,-10165.725,-23280.48,-28136.88,-12568.905,-8762.445
1764764916.4890509,-8466.39,-19673.28,-5218.38,-10171.71,-23286.24,-28142.37,-12574.125,-8767.89
1764764916.4890509,-8468.279999999999,-19675.035,-5219.37,-10173.42,-23287.59,-28143.945,-12575.34,-8769.24
1764764916.4890509,-8464.725,-19671.165,-5215.365,-10169.91,-23284.08,-28141.425,-12571.74,-8766.315
1764764916.4890509,-8463.869999999999,-19670.13,-5214.645,-10168.83,-23282.775,-28140.165,-12570.705,-8765.235
1764764916.4890509,-8465.039999999999,-19671.165,-5216.13,-10169.775,-23283.72,-28141.2,-12572.91,-8766.765
1764764916.4890509,-8468.279999999999,-19673.955,-5219.099999999999,-10172.79,-23286.78,-28145.115,-12575.745,-8769.69
1764764916.4890509,-8468.595,-19674.765,-5220.27,-10173.285,-23287.05,-28144.935,-12573.72,-8768.52
1764764916.4890509,-8464.005,-19670.355,-5215.365,-10168.695,-23282.325,-28140.795,-12570.84,-8765.055
1764764916.4890509,-8462.43,-19667.925,-5212.935,-10166.355,-23280.255,-28140.12,-12568.455,-8763.48
1764764916.4890509,-8464.005,-19669.05,-5214.51,-10168.02,-23282.37,-28140.435,-12564.54,-8763.21
1764764916.4890509,-8460.225,-19664.91,-5210.865,-10164.645,-23279.22,-28136.655,-12558.24,-8758.44
1764764916.4890509,-8459.82,-19664.055,-5210.37,-10163.745,-23278.095,-28137.15,-12561.39,-8758.44
1764764916.4890509,-8459.865,-19664.28,-5210.415,-10164.15,-23277.87,-28136.43,-12562.425,-8758.619999999999
1764764916.4890509,-8459.505,-19664.685,-5210.415,-10164.33,-23277.69,-28136.34,-12563.145,-8758.619999999999
1764764916.537042,-8459.1,-19663.92,-5209.695,-10163.34,-23276.205,-28135.44,-12563.1,-8757.675
1764764916.537042,-8460.99,-19666.62,-5212.035,-10165.545,-23278.815,-28137.87,-12565.53,-8759.61
1764764916.537042,-8463.555,-19669.23,-5215.095,-10168.065,-23282.145,-28141.155,-12567.195,-8761.545
1764764916.537042,-8461.664999999999,-19666.62,-5212.845,-10165.23,-23280.03,-28139.22,-12564.855,-8759.025
1764764916.537042,-8467.38,-19671.975,-5218.965,-10171.755,-23286.42,-28145.7,-12569.04,-8764.965
1764764916.537042,-8469.539999999999,-19674.315,-5221.395,-10174.635,-23288.895,-28147.5,-12571.65,-8767.98
1764764916.537042,-8470.529999999999,-19676.205,-5223.87,-10175.715,-23288.895,-28145.745,-12571.335,-8767.845
1764764916.537042,-8465.175,-19671.03,-5218.514999999999,-10170.09,-23283.315,-28138.905,-12565.845,-8762.039999999999
1764764916.537042,-8459.82,-19664.865,-5211.764999999999,-10164.87,-23278.995,-28139.22,-12569.13,-8757.945
1764764916.537042,-8452.619999999999,-19656.9,-5203.215,-10156.635,-23272.56,-28136.205,-12569.49,-8751.555
1764764916.537042,-8455.23,-19659.51,-5205.78,-10159.065,-23274.27,-28136.565,-12564.585,-8752.185
1764764916.537042,-8461.08,-19665.72,-5212.53,-10164.42,-23279.13,-28140.525,-12567.915,-8757.315
1764764916.537042,-8460.404999999999,-19664.415,-5211.179999999999,-10163.475,-23278.545,-28140.705,-12567.51,-8756.955
1764764916.537042,-8459.64,-19663.11,-5209.92,-10163.475,-23277.915,-28140.66,-12565.035,-8756.19
1764764916.537042,-8460.27,-19663.38,-5210.775,-10164.06,-23278.32,-28138.68,-12563.01,-8756.369999999999
1764764916.537042,-8457.3,-19660.59,-5208.075,-10160.865,-23275.485,-28134.315,-12559.185,-8752.904999999999
1764764916.537042,-8457.705,-19661.22,-5209.47,-10162.17,-23276.745,-28136.79,-12560.94,-8753.94
1764764916.537042,-8460.72,-19663.92,-5211.63,-10163.925,-23278.455,-28138.68,-12564.0,-8756.82
1764764916.537042,-8458.02,-19661.49,-5209.56,-10161.99,-23275.98,-28135.53,-12561.345,-8753.85
1764764916.537042,-8458.244999999999,-19661.445,-5209.514999999999,-10161.18,-23275.53,-28137.33,-12566.655,-8755.83
1764764916.537042,-8459.145,-19662.3,-5210.28,-10161.9,-23276.79,-28139.85,-12570.93,-8757.404999999999
1764764916.537042,-8463.555,-19666.665,-5214.465,-10166.22,-23279.67,-28142.28,-12571.605,-8760.33
1764764916.537042,-8465.49,-19668.735,-5216.04,-10167.615,-23281.2,-28144.53,-12573.405,-8762.265
1764764916.537042,-8458.56,-19662.795,-5209.74,-10162.17,-23276.565,-28139.49,-12565.305,-8756.235
1764764916.583698,-8460.99,-19665.63,-5212.349999999999,-10165.005,-23280.03,-28142.505,-12565.395,-8758.17
1764764916.583698,-8462.295,-19667.52,-5214.24,-10166.76,-23281.38,-28143.045,-12567.195,-8759.654999999999
1764764916.583698,-8458.875,-19663.155,-5210.099999999999,-10163.07,-23277.105,-28139.49,-12563.55,-8755.515
1764764916.583698,-8460.81,-19664.73,-5211.81,-10165.185,-23279.49,-28141.2,-12563.865,-8756.64
1764764916.583698,-8459.055,-19663.245,-5209.74,-10163.7,-23278.275,-28139.22,-12561.615,-8754.975
1764764916.583698,-8453.744999999999,-19658.34,-5204.205,-10158.165,-23273.325,-28133.775,-12557.295,-8749.89
1764764916.583698,-8455.41,-19659.33,-5205.06,-10158.93,-23273.595,-28134.045,-12557.7,-8750.88
1764764916.583698,-8459.369999999999,-19662.795,-5209.245,-10163.43,-23277.69,-28139.04,-12562.425,-8754.93
1764764916.583698,-8459.865,-19663.11,-5210.415,-10165.095,-23278.815,-28142.1,-12566.52,-8756.414999999999
1764764916.583698,-8462.07,-19664.505,-5212.17,-10166.985,-23281.065,-28143.72,-12568.77,-8758.035
1764764916.583698,-8465.039999999999,-19667.79,-5216.04,-10170.135,-23283.765,-28145.745,-12569.265,-8761.23
1764764916.583698,-8460.855,-19663.425,-5211.224999999999,-10165.365,-23280.12,-28143.09,-12565.89,-8758.215
1764764916.583698,-8459.279999999999,-19661.85,-5209.425,-10163.61,-23278.455,-28141.875,-12564.36,-8756.055
1764764916.583698,-8463.779999999999,-19667.115,-5214.554999999999,-10168.11,-23283.225,-28144.89,-12567.69,-8760.375
1764764916.583698,-8462.295,-19666.035,-5213.7,-10166.265,-23280.885,-28144.125,-12569.22,-8759.295
1764764916.583698,-8458.154999999999,-19661.715,-5209.47,-10162.08,-23276.25,-28140.435,-12566.07,-8754.164999999999
1764764916.583698,-8456.085,-19659.915,-5207.985,-10160.64,-23275.305,-28137.87,-12558.69,-8751.33
1764764916.583698,-8460.539999999999,-19663.65,-5211.045,-10164.51,-23280.03,-28143.09,-12564.9,-8757.09
1764764916.583698,-8458.515,-19660.86,-5208.389999999999,-10162.26,-23277.555,-28139.94,-12561.525,-8754.795
1764764916.583698,-8461.664999999999,-19663.38,-5210.775,-10163.97,-23279.94,-28143.045,-12565.17,-8757.449999999999
1764764916.5852313,-8466.345,-19668.465,-5216.49,-10169.19,-23284.44,-28147.725,-12570.57,-8761.86
1764764916.5852313,-8459.775,-19660.95,-5209.92,-10163.07,-23278.32,-28142.1,-12566.43,-8755.11
1764764916.6330583,-8456.715,-19658.16,-5206.139999999999,-10159.74,-23276.25,-28139.31,-12562.155,-8751.69
1764764916.6330583,-8459.369999999999,-19660.635,-5208.615,-10161.54,-23278.32,-28140.75,-12563.82,-8754.164999999999
1764764916.6330583,-8461.08,-19662.93,-5211.0,-10164.015,-23279.715,-28142.82,-12566.07,-8756.505
1764764916.6330583,-8462.25,-19664.19,-5212.665,-10165.005,-23279.985,-28143.72,-12567.06,-8757.0
1764764916.6330583,-8457.615,-19659.15,-5207.985,-10160.73,-23274.99,-28139.67,-12563.595,-8751.779999999999
1764764916.6330583,-8458.11,-19659.375,-5207.355,-10160.37,-23275.44,-28141.83,-12567.105,-8752.59
1764764916.6330583,-8458.47,-19659.915,-5206.815,-10159.965,-23276.07,-28142.37,-12568.77,-8754.255
1764764916.6330583,-8457.615,-19659.87,-5206.41,-10159.785,-23275.845,-28142.595,-12568.095,-8754.885
1764764916.6330583,-8461.845,-19663.83,-5210.82,-10163.835,-23280.57,-28145.43,-12569.085,-8758.17
1764764916.6330583,-8461.395,-19664.55,-5211.99,-10164.6,-23280.84,-28141.92,-12563.01,-8756.505
1764764916.6330583,-8457.21,-19660.23,-5207.895,-10160.415,-23276.925,-28138.725,-12560.31,-8751.96
1764764916.6330583,-8460.539999999999,-19662.615,-5210.01,-10162.08,-23278.995,-28142.82,-12566.385,-8755.065
1764764916.6330583,-8459.685,-19661.22,-5208.66,-10160.775,-23277.96,-28142.64,-12566.7,-8753.94
1764764916.6330583,-8463.33,-19665.495,-5212.349999999999,-10165.05,-23281.02,-28145.52,-12570.03,-8757.72
1764764916.6330583,-8459.955,-19661.58,-5208.84,-10161.045,-23276.205,-28141.29,-12567.96,-8754.48
1764764916.6330583,-8458.785,-19658.835,-5206.77,-10159.065,-23274.54,-28138.905,-12563.64,-8752.185
1764764916.6330583,-8460.27,-19660.77,-5208.03,-10161.09,-23277.465,-28140.345,-12561.165,-8753.445
1764764916.6330583,-8463.869999999999,-19664.685,-5212.035,-10165.005,-23280.66,-28144.305,-12562.38,-8756.73
1764764916.6330583,-8465.445,-19666.44,-5213.7,-10166.67,-23281.56,-28145.34,-12563.145,-8757.27
1764764916.6330583,-8460.81,-19662.615,-5209.514999999999,-10162.395,-23277.735,-28143.45,-12565.845,-8754.029999999999
1764764916.6330583,-8458.199999999999,-19659.87,-5207.4,-10159.875,-23275.44,-28143.765,-12571.02,-8752.949999999999
1764764916.6330583,-8458.965,-19660.41,-5207.49,-10159.74,-23275.62,-28141.155,-12566.88,-8752.904999999999
1764764916.6330583,-8460.27,-19662.255,-5209.11,-10161.27,-23277.465,-28142.955,-12564.765,-8754.525
1764764916.6330583,-8461.26,-19662.39,-5210.865,-10163.295,-23278.815,-28145.745,-12567.78,-8756.19
1764764916.6330583,-8458.065,-19658.745,-5206.86,-10159.245,-23274.63,-28141.695,-12566.115,-8752.994999999999
1764764916.6330583,-8461.71,-19663.02,-5209.695,-10161.855,-23277.24,-28145.115,-12570.705,-8756.505
1764764916.6758838,-8466.705,-19667.835,-5214.465,-10166.85,-23282.01,-28150.245,-12574.89,-8761.32
1764764916.6758838,-8464.68,-19665.27,-5211.315,-10164.375,-23279.76,-28147.815,-12573.63,-8759.34
1764764916.6758838,-8458.38,-19660.095,-5205.915,-10159.515,-23274.72,-28142.595,-12566.43,-8752.994999999999
1764764916.6758838,-8457.84,-19660.095,-5206.905,-10160.28,-23274.99,-28141.38,-12560.715,-8751.24
1764764916.6758838,-8460.9,-19663.155,-5210.19,-10162.53,-23277.69,-28144.17,-12563.28,-8754.57
1764764916.6758838,-8456.49,-19659.105,-5205.42,-10157.76,-23272.605,-28138.095,-12556.98,-8749.44
1764764916.6758838,-8456.13,-19658.835,-5204.7,-10156.59,-23272.515,-28138.725,-12558.195,-8749.26
1764764916.6758838,-8455.77,-19656.945,-5203.395,-10155.555,-23272.02,-28140.39,-12563.37,-8750.385
1764764916.6758838,-8459.775,-19660.59,-5207.49,-10159.38,-23275.665,-28143.45,-12566.115,-8754.57
1764764916.6758838,-8465.94,-19666.845,-5213.07,-10165.77,-23281.605,-28150.02,-12571.38,-8760.869999999999
1764764916.6758838,-8462.744999999999,-19663.74,-5210.55,-10162.305,-23278.545,-28147.32,-12569.085,-8757.72
1764764916.6758838,-8462.43,-19663.515,-5210.415,-10162.17,-23277.78,-28145.655,-12566.295,-8755.695
1764764916.6768944,-8459.73,-19660.635,-5208.615,-10160.37,-23276.79,-28144.395,-12564.045,-8752.365
1764764916.6768944,-8462.88,-19663.74,-5211.495,-10163.97,-23280.66,-28146.87,-12566.385,-8755.92
1764764916.6768944,-8462.25,-19662.705,-5210.054999999999,-10163.07,-23280.03,-28146.915,-12567.69,-8756.55
1764764916.6768944,-8459.865,-19660.14,-5207.13,-10160.19,-23276.565,-28142.865,-12564.09,-8753.265
1764764916.6768944,-8460.585,-19660.86,-5207.67,-10160.73,-23275.665,-28142.325,-12564.99,-8753.58
1764764916.6768944,-8460.765,-19660.32,-5207.04,-10159.605,-23274.72,-28141.92,-12566.07,-8753.94
1764764916.6768944,-8457.57,-19657.395,-5203.889999999999,-10155.6,-23272.155,-28139.4,-12563.415,-8750.475
1764764916.6768944,-8458.02,-19657.44,-5203.8,-10155.87,-23272.47,-28141.02,-12565.395,-8751.105
1764764916.6768944,-8460.449999999999,-19660.095,-5206.005,-10158.84,-23274.855,-28143.045,-12567.42,-8753.355
1764764916.6768944,-8459.505,-19658.88,-5204.97,-10157.58,-23273.865,-28141.695,-12567.78,-8752.77
1764764916.6768944,-8456.895,-19656.315,-5203.71,-10155.915,-23272.38,-28140.75,-12565.71,-8750.88
1764764916.6768944,-8453.925,-19652.85,-5200.92,-10153.17,-23269.545,-28138.275,-12561.705,-8747.414999999999
1764764916.7231078,-8456.805,-19656.09,-5203.125,-10156.185,-23271.39,-28140.12,-12563.28,-8750.115
1764764916.7231078,-8461.44,-19661.265,-5208.435,-10160.505,-23275.755,-28142.82,-12564.945,-8754.66
1764764916.7236128,-8458.74,-19658.97,-5206.41,-10157.67,-23273.64,-28139.31,-12562.335,-8751.914999999999
1764764916.7236128,-8449.83,-19649.115,-5196.24,-10148.13,-23263.83,-28133.145,-12558.825,-8742.465
1764764916.7236128,-8452.485,-19651.455,-5198.625,-10150.74,-23265.81,-28134.36,-12557.385,-8743.815
1764764916.7236128,-8457.48,-19657.215,-5204.429999999999,-10156.14,-23271.705,-28140.12,-12562.515,-8749.529999999999
1764764916.7236128,-8456.265,-19655.91,-5202.855,-10155.06,-23271.48,-28140.165,-12563.235,-8748.404999999999
1764764916.7236128,-8453.654999999999,-19652.76,-5199.615,-10152.72,-23268.915,-28137.735,-12562.02,-8745.255
1764764916.7236128,-8456.49,-19656.27,-5203.44,-10155.375,-23271.255,-28140.57,-12564.855,-8748.404999999999
1764764916.7236128,-8455.904999999999,-19655.685,-5202.45,-10154.205,-23269.995,-28139.355,-12561.3,-8747.414999999999
1764764916.7236128,-8455.86,-19655.19,-5202.179999999999,-10153.35,-23269.365,-28137.69,-12559.455,-8746.065
1764764916.7236128,-8455.545,-19655.595,-5202.945,-10153.8,-23270.31,-28138.545,-12561.03,-8746.605
1764764916.7236128,-8454.6,-19655.19,-5202.72,-10152.99,-23269.77,-28137.87,-12561.03,-8746.74
1764764916.7236128,-8454.015,-19654.245,-5201.505,-10151.865,-23269.005,-28137.33,-12560.49,-8746.199999999999
1764764916.7236128,-8451.72,-19651.365,-5198.49,-10149.12,-23266.665,-28135.26,-12558.015,-8743.904999999999
1764764916.7251298,-8453.205,-19652.355,-5199.885,-10149.705,-23267.655,-28135.53,-12559.365,-8745.164999999999
1764764916.7251298,-8456.13,-19656.27,-5202.99,-10153.71,-23270.805,-28139.49,-12563.685,-8749.08
1764764916.7251298,-8456.22,-19655.82,-5202.495,-10153.8,-23270.445,-28139.895,-12564.495,-8749.125
1764764916.7251298,-8452.17,-19652.13,-5199.615,-10151.19,-23267.61,-28136.745,-12561.12,-8745.57
1764764916.7251298,-8452.98,-19653.21,-5201.145,-10152.675,-23269.005,-28138.365,-12561.615,-8746.74
1764764916.7251298,-8449.289999999999,-19649.88,-5197.365,-10148.94,-23265.54,-28135.26,-12558.015,-8742.779999999999
1764764916.7251298,-8450.414999999999,-19651.365,-5197.365,-10149.3,-23265.765,-28134.99,-12558.465,-8742.869999999999
1764764916.7251298,-8450.865,-19651.455,-5197.679999999999,-10149.39,-23265.315,-28134.585,-12558.285,-8742.51
1764764916.7251298,-8449.425,-19649.565,-5196.15,-10147.275,-23262.435,-28132.65,-12557.295,-8741.475
1764764916.7721832,-8450.46,-19649.61,-5196.51,-10147.95,-23263.65,-28134.945,-12559.77,-8743.095
1764764916.7721832,-8456.58,-19655.19,-5202.45,-10153.71,-23269.275,-28142.1,-12568.005,-8749.035
1764764916.7721832,-8456.715,-19655.73,-5203.304999999999,-10153.71,-23269.59,-28143.63,-12569.67,-8749.98
1764764916.7721832,-8450.324999999999,-19649.745,-5197.005,-10148.355,-23264.505,-28137.195,-12559.32,-8743.455
1764764916.7721832,-8445.24,-19644.3,-5191.74,-10144.215,-23260.41,-28130.58,-12548.115,-8735.895
1764764916.7731924,-8453.565,-19653.39,-5200.875,-10152.99,-23268.87,-28135.62,-12549.69,-8742.195
1764764916.7731924,-8456.85,-19656.585,-5203.26,-10154.88,-23269.995,-28136.79,-12553.38,-8746.515
1764764916.7731924,-8458.065,-19657.215,-5204.565,-10156.14,-23271.255,-28139.895,-12558.105,-8748.99
1764764916.7731924,-8457.39,-19656.405,-5204.385,-10156.05,-23271.165,-28143.27,-12568.23,-8748.99
1764764916.7731924,-8451.81,-19651.095,-5199.48,-10150.83,-23265.72,-28140.165,-12569.22,-8743.725
1764764916.7731924,-8450.055,-19650.06,-5197.545,-10148.04,-23262.795,-28137.195,-12564.135,-8742.465
1764764916.7731924,-8451.675,-19651.95,-5199.525,-10150.29,-23265.675,-28137.825,-12558.915,-8743.365
1764764916.7731924,-8451.63,-19652.49,-5200.38,-10151.64,-23266.08,-28136.88,-12554.64,-8742.015
1764764916.7731924,-8455.095,-19655.19,-5202.855,-10154.115,-23269.275,-28141.83,-12561.03,-8746.335
1764764916.7731924,-8454.015,-19653.795,-5201.82,-10153.215,-23268.645,-28141.605,-12561.975,-8745.93
1764764916.7731924,-8451.99,-19653.075,-5201.054999999999,-10152.54,-23267.79,-28140.795,-12560.94,-8745.48
1764764916.7731924,-8448.525,-19648.665,-5197.005,-10148.76,-23264.415,-28138.32,-12558.06,-8742.465
1764764916.7731924,-8450.145,-19650.24,-5197.365,-10149.39,-23265.45,-28139.13,-12559.59,-8742.824999999999
1764764916.7731924,-8454.555,-19655.55,-5202.315,-10153.755,-23269.995,-28143.495,-12564.405,-8747.955
1764764916.7731924,-8454.465,-19655.55,-5202.585,-10153.575,-23269.725,-28143.045,-12564.0,-8747.82
1764764916.819455,-8451.99,-19652.67,-5199.974999999999,-10150.155,-23266.845,-28139.805,-12561.705,-8745.345
1764764916.819455,-8453.52,-19653.93,-5201.82,-10151.595,-23268.195,-28141.245,-12563.46,-8746.289999999999
1764764916.819455,-8456.039999999999,-19655.955,-5205.105,-10154.79,-23270.895,-28144.89,-12566.25,-8749.215
1764764916.819455,-8453.295,-19653.21,-5201.955,-10152.495,-23268.105,-28143.045,-12563.64,-8746.335
1764764916.819455,-8457.3,-19656.945,-5205.375,-10156.185,-23272.29,-28146.555,-12567.06,-8748.855
1764764916.819455,-8457.84,-19657.89,-5206.005,-10156.815,-23273.28,-28146.735,-12568.05,-8750.07
1764764916.819455,-8455.904999999999,-19655.955,-5204.429999999999,-10155.015,-23270.49,-28143.405,-12566.205,-8747.279999999999
1764764916.819455,-8452.125,-19652.085,-5201.01,-10151.505,-23267.34,-28139.715,-12561.615,-8742.914999999999
1764764916.819455,-8452.44,-19651.185,-5199.885,-10150.65,-23268.285,-28141.245,-12565.17,-8744.625
1764764916.819455,-8455.59,-19654.785,-5203.035,-10153.845,-23271.165,-28145.655,-12571.29,-8748.585
1764764916.819455,-8454.015,-19653.615,-5201.639999999999,-10152.63,-23268.78,-28142.01,-12566.61,-8745.57
1764764916.819455,-8454.555,-19654.155,-5202.63,-10153.71,-23269.095,-28142.505,-12566.295,-8746.154999999999
1764764916.819455,-8451.045,-19651.59,-5198.94,-10150.425,-23266.845,-28139.535,-12559.725,-8742.645
1764764916.819455,-8455.23,-19655.505,-5203.53,-10155.42,-23272.11,-28145.205,-12562.155,-8745.84
1764764916.819455,-8454.645,-19654.785,-5203.304999999999,-10155.285,-23272.29,-28145.79,-12562.56,-8745.255
1764764916.819455,-8451.539999999999,-19652.13,-5200.02,-10152.225,-23268.015,-28141.11,-12559.905,-8742.105
1764764916.819455,-8451.18,-19650.69,-5198.13,-10150.965,-23266.845,-28142.145,-12568.275,-8742.96
1764764916.819455,-8450.775,-19650.555,-5198.04,-10150.965,-23266.98,-28141.02,-12566.79,-8742.24
1764764916.819455,-8449.154999999999,-19649.16,-5195.97,-10149.255,-23264.55,-28136.745,-12561.075,-8739.9
1764764916.8199644,-8447.49,-19647.63,-5194.8,-10147.77,-23263.11,-28136.43,-12560.04,-8738.55
1764764916.8199644,-8448.84,-19648.665,-5195.835,-10148.04,-23264.235,-28138.545,-12561.345,-8740.08
1764764916.8199644,-8449.83,-19650.015,-5197.365,-10149.57,-23266.08,-28139.94,-12562.785,-8741.115
1764764916.8199644,-8450.73,-19650.195,-5198.04,-10150.425,-23266.845,-28140.885,-12563.055,-8741.654999999999
1764764916.8199644,-8454.914999999999,-19653.57,-5201.73,-10153.53,-23271.165,-28145.025,-12566.16,-8745.029999999999
1764764916.8199644,-8454.015,-19653.705,-5200.92,-10152.315,-23270.04,-28144.665,-12565.395,-8744.445
1764764916.8199644,-8450.64,-19649.925,-5197.59,-10149.84,-23266.62,-28141.695,-12561.975,-8741.97
1764764916.8654618,-8453.61,-19652.805,-5200.83,-10152.81,-23269.77,-28145.115,-12565.665,-8745.119999999999
1764764916.8654618,-8450.055,-19649.88,-5197.679999999999,-10148.445,-23266.215,-28141.605,-12561.3,-8740.89
1764764916.8654618,-8449.38,-19649.07,-5196.915,-10148.625,-23265.54,-28141.065,-12561.03,-8740.845
1764764916.8654618,-8449.74,-19648.44,-5196.195,-10148.895,-23265.495,-28140.84,-12561.03,-8741.025
1764764916.8654618,-8452.485,-19651.59,-5198.58,-10151.415,-23267.79,-28143.225,-12564.855,-8743.725
1764764916.8654618,-8456.94,-19656.99,-5203.8,-10156.455,-23273.055,-28149.705,-12573.315,-8749.44
1764764916.8654618,-8456.535,-19655.82,-5203.62,-10155.825,-23271.795,-28150.56,-12575.88,-8749.395
1764764916.8654618,-8456.13,-19654.83,-5203.17,-10154.925,-23271.345,-28148.94,-12575.115,-8748.494999999999
1764764916.8654618,-8460.09,-19659.24,-5207.49,-10159.11,-23274.99,-28149.57,-12571.02,-8751.285
1764764916.8654618,-8460.539999999999,-19659.78,-5207.4,-10159.245,-23274.495,-28149.885,-12569.895,-8751.645
1764764916.8654618,-8454.96,-19654.335,-5201.55,-10154.34,-23270.445,-28146.375,-12562.74,-8746.02
1764764916.8654618,-8449.47,-19650.105,-5198.085,-10151.01,-23266.665,-28140.75,-12553.29,-8738.1
1764764916.8654618,-8438.67,-19638.225,-5186.474999999999,-10139.22,-23256.63,-28134.315,-12553.515,-8729.595
1764764916.8654618,-8440.92,-19639.89,-5188.005,-10140.975,-23258.07,-28135.17,-12554.55,-8732.34
1764764916.8654618,-8447.67,-19646.595,-5194.44,-10147.545,-23263.785,-28139.895,-12558.78,-8738.82
1764764916.8654618,-8450.369999999999,-19649.16,-5197.185,-10150.155,-23266.845,-28143.315,-12562.74,-8741.835
1764764916.8654618,-8450.955,-19650.33,-5198.31,-10150.965,-23267.835,-28144.215,-12562.065,-8742.824999999999
1764764916.8654618,-8450.82,-19650.915,-5199.03,-10151.19,-23267.43,-28146.015,-12566.07,-8742.69
1764764916.8654618,-8448.029999999999,-19646.46,-5194.935,-10146.555,-23264.64,-28145.115,-12566.205,-8740.35
1764764916.8654618,-8443.935,-19642.14,-5191.245,-10142.46,-23260.32,-28139.895,-12559.725,-8735.67
1764764916.8654618,-8445.6,-19644.165,-5194.26,-10145.295,-23262.48,-28141.425,-12559.815,-8736.75
1764764916.8654618,-8445.51,-19644.165,-5193.764999999999,-10145.475,-23262.705,-28143.18,-12563.235,-8737.515
1764764916.912069,-8447.175,-19645.785,-5195.115,-10146.195,-23263.785,-28144.17,-12565.395,-8739.404999999999
1764764916.912069,-8449.065,-19647.945,-5196.825,-10148.49,-23266.53,-28146.465,-12565.17,-8742.015
1764764916.912069,-8446.5,-19645.02,-5193.99,-10145.52,-23262.75,-28142.685,-12560.49,-8738.505
1764764916.912069,-8451.494999999999,-19650.555,-5199.84,-10150.695,-23267.475,-28146.105,-12564.63,-8743.815
1764764916.912069,-8452.44,-19651.365,-5200.695,-10151.415,-23268.24,-28145.34,-12563.91,-8744.805
1764764916.912069,-8450.82,-19649.79,-5198.67,-10150.065,-23267.385,-28144.305,-12563.82,-8743.185
1764764916.912069,-8449.38,-19647.9,-5196.78,-10147.815,-23265.405,-28143.09,-12562.11,-8741.475
1764764916.912069,-8448.705,-19646.955,-5196.915,-10147.545,-23264.91,-28143.315,-12561.345,-8740.71
1764764916.912069,-8447.58,-19646.415,-5195.835,-10147.14,-23264.595,-28143.18,-12562.02,-8739.765
1764764916.912069,-8442.945,-19641.6,-5190.974999999999,-10142.685,-23260.005,-28138.545,-12558.51,-8734.77
1764764916.912069,-8446.32,-19645.38,-5195.025,-10145.88,-23263.2,-28141.65,-12560.67,-8738.55
1764764916.912069,-8442.855,-19641.195,-5190.165,-10141.245,-23258.07,-28136.475,-12556.44,-8734.185
1764764916.912069,-8442.27,-19639.98,-5189.264999999999,-10140.075,-23257.395,-28136.7,-12556.71,-8734.23
1764764916.912069,-8446.815,-19644.255,-5193.72,-10144.44,-23261.58,-28140.39,-12561.03,-8739.045
1764764916.912069,-8444.88,-19642.86,-5191.605,-10143.315,-23259.555,-28138.635,-12558.915,-8737.02
1764764916.912069,-8449.154999999999,-19647.405,-5196.105,-10147.77,-23264.28,-28144.395,-12563.775,-8741.744999999999
1764764916.912069,-8447.85,-19645.605,-5195.385,-10146.465,-23263.02,-28143.72,-12563.82,-8740.89
1764764916.912069,-8452.26,-19649.745,-5199.615,-10150.785,-23266.305,-28145.475,-12565.215,-8744.625
1764764916.913106,-8446.05,-19643.175,-5193.045,-10144.395,-23260.095,-28142.865,-12564.855,-8738.91
1764764916.913106,-8444.97,-19643.4,-5192.595,-10144.08,-23260.32,-28142.1,-12560.04,-8736.39
1764764916.913106,-8442.135,-19640.52,-5189.804999999999,-10140.93,-23257.215,-28138.14,-12557.34,-8734.005
1764764916.913106,-8441.01,-19639.98,-5189.22,-10139.805,-23256.18,-28137.375,-12556.485,-8733.465
1764764916.913106,-8440.515,-19638.945,-5188.545,-10139.22,-23255.055,-28135.71,-12553.83,-8731.89
1764764916.913106,-8446.815,-19644.165,-5193.945,-10143.99,-23260.365,-28140.975,-12561.345,-8738.1
1764764916.9602702,-8445.375,-19642.59,-5192.415,-10142.28,-23258.34,-28140.21,-12560.265,-8737.83
1764764916.9602702,-8444.205,-19641.69,-5191.2,-10141.785,-23257.89,-28141.02,-12559.68,-8736.21
1764764916.9602702,-8442.855,-19639.935,-5188.86,-10140.75,-23257.395,-28140.93,-12555.9,-8734.77
1764764916.9602702,-8443.845,-19641.105,-5190.389999999999,-10141.425,-23257.89,-28138.995,-12551.22,-8734.095
1764764916.9602702,-8444.565,-19642.59,-5192.145,-10142.685,-23258.88,-28140.48,-12554.055,-8734.635
1764764916.9602702,-8448.39,-19646.955,-5196.15,-10146.645,-23262.21,-28143.225,-12557.43,-8737.335
1764764916.9602702,-8441.46,-19639.35,-5188.32,-10139.715,-23256.315,-28138.725,-12555.63,-8731.619999999999
1764764916.9602702,-8440.515,-19637.055,-5186.52,-10137.78,-23253.885,-28135.71,-12553.56,-8729.595
1764764916.9602702,-8437.5,-19634.22,-5184.36,-10135.08,-23251.14,-28132.695,-12550.77,-8726.85
1764764916.9602702,-8442.585,-19639.035,-5189.49,-10140.075,-23255.955,-28138.77,-12555.945,-8731.71
1764764916.9602702,-8440.335,-19636.02,-5187.285,-10137.87,-23253.93,-28137.555,-12553.155,-8729.46
1764764916.9602702,-8439.93,-19635.93,-5187.15,-10137.375,-23254.245,-28139.355,-12553.92,-8729.64
1764764916.9602702,-8440.875,-19637.145,-5187.465,-10138.095,-23254.83,-28140.255,-12555.18,-8729.595
1764764916.9602702,-8442.315,-19639.17,-5188.77,-10139.715,-23255.865,-28141.47,-12556.935,-8730.855
1764764916.9602702,-8445.195,-19642.32,-5191.74,-10142.415,-23259.555,-28143.765,-12560.355,-8734.005
1764764916.9602702,-8445.33,-19642.635,-5191.83,-10142.595,-23259.87,-28142.505,-12558.915,-8734.545
1764764916.9602702,-8444.97,-19642.23,-5191.245,-10141.83,-23258.52,-28138.68,-12553.335,-8733.105
1764764916.9602702,-8441.64,-19638.045,-5186.52,-10137.015,-23253.57,-28133.775,-12549.87,-8729.73
1764764916.9602702,-8436.645,-19632.69,-5181.57,-10131.615,-23248.53,-28128.465,-12544.56,-8723.835
1764764916.9602702,-8442.135,-19638.72,-5187.014999999999,-10136.88,-23253.57,-28133.505,-12548.16,-8727.615
1764764916.9602702,-8446.904999999999,-19644.615,-5193.045,-10143.315,-23259.24,-28138.95,-12551.85,-8732.61
1764764916.9602702,-8442.99,-19640.52,-5189.13,-10140.12,-23255.37,-28138.86,-12557.07,-8730.63
1764764916.9602702,-8437.68,-19633.815,-5183.054999999999,-10134.63,-23251.32,-28137.6,-12558.735,-8726.715
1764764916.9602702,-8439.615,-19635.66,-5184.45,-10135.98,-23252.715,-28138.59,-12557.52,-8728.38
1764764917.0077996,-8443.26,-19639.53,-5188.23,-10139.265,-23255.37,-28139.85,-12558.06,-8731.17
1764764917.008334,-8440.065,-19636.47,-5185.08,-10135.89,-23252.265,-28135.98,-12554.325,-8727.57
1764764917.008334,-8441.145,-19636.965,-5185.889999999999,-10136.43,-23253.3,-28136.97,-12553.875,-8728.154999999999
1764764917.008334,-8443.305,-19639.665,-5187.87,-10138.41,-23255.37,-28138.725,-12556.485,-8730.99
1764764917.008334,-8444.97,-19641.6,-5189.985,-10140.48,-23256.855,-28140.57,-12559.815,-8732.565
1764764917.008334,-8443.755,-19640.835,-5188.905,-10139.58,-23255.64,-28140.075,-12558.33,-8731.71
1764764917.008334,-8446.095,-19642.68,-5191.38,-10140.84,-23257.62,-28141.47,-12559.23,-8734.545
1764764917.008334,-8443.305,-19639.26,-5188.905,-10138.455,-23254.515,-28137.195,-12553.29,-8730.765
1764764917.008334,-8445.914999999999,-19641.915,-5190.795,-10141.47,-23257.125,-28139.805,-12554.595,-8732.295
1764764917.008334,-8446.904999999999,-19643.22,-5191.56,-10141.875,-23257.845,-28140.21,-12554.37,-8733.824999999999
1764764917.008334,-8445.42,-19641.33,-5190.255,-10140.84,-23256.45,-28139.49,-12554.325,-8732.52
1764764917.008334,-8444.88,-19640.745,-5189.895,-10140.255,-23255.955,-28139.895,-12557.7,-8732.565
1764764917.008334,-8443.44,-19639.35,-5188.455,-10138.545,-23255.19,-28140.12,-12560.805,-8731.619999999999
1764764917.008334,-8447.355,-19642.545,-5191.695,-10141.425,-23257.44,-28143.045,-12564.495,-8735.31
1764764917.008334,-8443.935,-19639.035,-5187.51,-10137.465,-23253.3,-28139.85,-12560.265,-8732.115
1764764917.008334,-8442.09,-19638.315,-5186.34,-10136.07,-23251.77,-28137.555,-12554.01,-8730.09
1764764917.008334,-8442.9,-19639.62,-5186.52,-10137.42,-23253.03,-28136.565,-12550.095,-8729.775
1764764917.008334,-8440.74,-19636.155,-5183.775,-10134.54,-23250.15,-28134.0,-12550.32,-8727.93
1764764917.008334,-8445.51,-19640.655,-5188.635,-10138.32,-23254.695,-28138.995,-12555.72,-8732.115
1764764917.008334,-8443.44,-19639.215,-5187.42,-10136.88,-23253.615,-28137.51,-12554.055,-8729.82
1764764917.008334,-8445.015,-19640.7,-5188.59,-10138.23,-23255.505,-28140.345,-12558.555,-8732.699999999999
1764764917.008334,-8440.56,-19635.615,-5182.245,-10132.56,-23249.79,-28135.935,-12554.235,-8727.84
1764764917.055114,-8441.414999999999,-19636.02,-5183.28,-10132.83,-23249.565,-28136.16,-12552.705,-8728.38
1764764917.055114,-8442.945,-19636.56,-5183.82,-10134.225,-23250.645,-28137.375,-12554.1,-8729.82
1764764917.055114,-8446.095,-19640.475,-5187.69,-10137.555,-23253.885,-28138.23,-12554.55,-8732.744999999999
1764764917.055114,-8450.505,-19645.425,-5192.505,-10141.83,-23257.395,-28140.12,-12554.505,-8736.39
1764764917.055114,-8452.08,-19646.685,-5193.179999999999,-10142.82,-23259.015,-28143.9,-12559.68,-8738.279999999999
1764764917.055114,-8446.994999999999,-19641.465,-5188.23,-10137.915,-23254.02,-28142.1,-12560.85,-8732.97
1764764917.055114,-8449.065,-19643.49,-5190.525,-10139.445,-23255.1,-28141.65,-12560.265,-8733.735
1764764917.055114,-8444.835,-19639.17,-5186.429999999999,-10135.71,-23252.265,-28139.04,-12558.78,-8730.494999999999
1764764917.055114,-8447.175,-19641.195,-5188.095,-10138.005,-23254.335,-28139.715,-12556.665,-8732.61
1764764917.055114,-8446.59,-19640.565,-5188.23,-10137.78,-23254.29,-28139.265,-12556.305,-8732.97
1764764917.055621,-8442.945,-19636.695,-5184.224999999999,-10133.595,-23250.87,-28136.97,-12554.415,-8729.685
1764764917.055621,-8443.215,-19636.515,-5183.82,-10133.28,-23250.015,-28137.42,-12554.775,-8729.414999999999
1764764917.055621,-8446.635,-19639.575,-5186.429999999999,-10135.89,-23252.22,-28140.705,-12558.87,-8732.61
1764764917.055621,-8452.215,-19646.235,-5192.46,-10141.965,-23257.935,-28146.24,-12565.17,-8739.045
1764764917.055621,-8448.75,-19642.68,-5188.86,-10138.455,-23254.2,-28141.695,-12560.85,-8735.49
1764764917.055621,-8447.58,-19641.645,-5188.77,-10137.645,-23253.525,-28140.165,-12556.98,-8733.555
1764764917.055621,-8443.395,-19637.595,-5184.945,-10133.415,-23249.565,-28136.88,-12551.22,-8728.244999999999
1764764917.055621,-8445.285,-19639.665,-5186.34,-10135.395,-23251.77,-28141.02,-12554.955,-8730.225
1764764917.055621,-8447.265,-19641.645,-5188.59,-10137.735,-23253.75,-28143.63,-12558.42,-8733.195
1764764917.055621,-8450.19,-19644.885,-5191.47,-10140.57,-23256.99,-28145.88,-12563.37,-8736.48
1764764917.055621,-8450.369999999999,-19645.065,-5190.929999999999,-10140.12,-23255.01,-28144.71,-12565.125,-8736.255
1764764917.055621,-8446.77,-19640.295,-5186.52,-10135.44,-23249.7,-28139.13,-12560.13,-8731.98
1764764917.055621,-8442.045,-19636.38,-5182.47,-10132.425,-23246.055,-28136.16,-12553.83,-8728.065
1764764917.055621,-8442.315,-19637.055,-5183.054999999999,-10133.19,-23247.54,-28136.52,-12553.11,-8728.38
1764764917.1021192,-8446.41,-19641.42,-5187.78,-10137.555,-23253.255,-28142.28,-12559.815,-8732.744999999999
1764764917.1021192,-8444.654999999999,-19639.17,-5185.44,-10135.44,-23250.825,-28140.705,-12557.205,-8730.72
1764764917.1021192,-8445.96,-19639.845,-5186.385,-10137.105,-23252.13,-28143.81,-12558.735,-8731.619999999999
1764764917.1021192,-8442.63,-19636.335,-5182.83,-10134.0,-23248.845,-28139.13,-12550.86,-8727.074999999999
1764764917.1021192,-8446.005,-19641.015,-5186.88,-10137.195,-23251.455,-28139.85,-12550.68,-8729.145
1764764917.1031382,-8445.24,-19640.115,-5185.53,-10136.205,-23250.195,-28141.38,-12558.96,-8729.595
1764764917.1031382,-8446.32,-19640.655,-5186.205,-10136.79,-23251.05,-28142.55,-12558.015,-8730.404999999999
1764764917.1031382,-8447.985,-19642.005,-5187.42,-10137.645,-23251.905,-28142.775,-12558.375,-8732.07
1764764917.1031382,-8445.555,-19640.205,-5185.215,-10136.295,-23249.97,-28140.21,-12556.485,-8730.404999999999
1764764917.1031382,-8446.949999999999,-19642.635,-5186.79,-10137.735,-23251.68,-28141.47,-12557.52,-8731.35
1764764917.1031382,-8445.465,-19640.745,-5185.125,-10136.835,-23251.14,-28143.855,-12560.04,-8731.215
1764764917.1031382,-8443.125,-19638.18,-5183.054999999999,-10134.99,-23248.17,-28142.865,-12557.655,-8728.965
1764764917.1031382,-8445.869999999999,-19640.655,-5186.295,-10138.05,-23251.005,-28146.825,-12560.85,-8732.07
1764764917.1031382,-8445.285,-19640.565,-5186.295,-10138.005,-23251.05,-28147.365,-12561.48,-8732.43
1764764917.1031382,-8443.215,-19638.81,-5184.675,-10135.89,-23249.16,-28142.595,-12556.665,-8729.46
1764764917.1031382,-8446.815,-19642.32,-5187.42,-10138.635,-23251.59,-28142.235,-12556.395,-8731.89
1764764917.1031382,-8447.355,-19642.815,-5188.005,-10139.265,-23251.95,-28142.595,-12557.205,-8732.97
1764764917.1031382,-8445.42,-19641.51,-5186.025,-10137.195,-23249.52,-28141.245,-12556.305,-8730.765
1764764917.1031382,-8443.98,-19639.89,-5184.855,-10135.665,-23248.845,-28141.245,-12558.15,-8730.945
1764764917.1031382,-8449.83,-19645.02,-5189.264999999999,-10140.705,-23254.47,-28148.805,-12566.34,-8737.515
1764764917.1031382,-8450.775,-19646.01,-5190.075,-10141.38,-23254.65,-28149.795,-12565.98,-8737.695
1764764917.1031382,-8451.494999999999,-19647.0,-5191.2,-10142.28,-23255.055,-28149.795,-12564.27,-8737.244999999999
1764764917.1031382,-8450.414999999999,-19646.64,-5191.29,-10141.92,-23254.965,-28148.94,-12562.92,-8736.75
1764764917.1031382,-8449.199999999999,-19646.145,-5190.165,-10141.695,-23254.29,-28147.095,-12561.93,-8734.68
1764764917.1031382,-8445.51,-19642.23,-5185.62,-10137.465,-23250.285,-28145.34,-12564.18,-8732.385
1764764917.1031382,-8444.699999999999,-19641.24,-5185.395,-10137.015,-23249.79,-28144.89,-12562.92,-8731.619999999999
1764764917.1487937,-8450.414999999999,-19647.495,-5191.065,-10142.505,-23254.155,-28146.015,-12563.055,-8736.255
1764764917.1487937,-8443.485,-19639.575,-5183.28,-10135.08,-23246.955,-28140.3,-12559.59,-8730.18
1764764917.1487937,-8441.279999999999,-19637.19,-5181.48,-10134.045,-23246.19,-28139.805,-12552.03,-8725.904999999999
1764764917.1487937,-8445.869999999999,-19641.915,-5185.8,-10138.455,-23249.61,-28143.855,-12557.205,-8730.63
1764764917.1487937,-8448.029999999999,-19644.12,-5187.825,-10140.615,-23251.23,-28146.015,-12559.59,-8732.97
1764764917.1487937,-8443.89,-19639.17,-5183.46,-10136.295,-23247.54,-28142.73,-12555.765,-8728.47
1764764917.1487937,-8444.025,-19639.215,-5183.505,-10137.33,-23248.665,-28144.17,-12558.105,-8729.145
1764764917.1487937,-8445.195,-19640.79,-5185.349999999999,-10138.545,-23250.915,-28145.97,-12559.14,-8730.27
1764764917.1487937,-8449.065,-19644.345,-5189.67,-10141.74,-23254.02,-28149.345,-12562.47,-8734.005
1764764917.1487937,-8445.914999999999,-19641.465,-5186.655,-10138.545,-23251.32,-28146.285,-12559.86,-8730.99
1764764917.1487937,-8447.895,-19643.625,-5188.455,-10140.48,-23253.21,-28148.265,-12561.165,-8733.015
1764764917.1487937,-8444.52,-19640.745,-5185.98,-10138.41,-23250.195,-28144.305,-12557.025,-8729.64
1764764917.1487937,-8444.654999999999,-19640.205,-5184.99,-10137.78,-23250.33,-28144.485,-12559.32,-8731.305
1764764917.1487937,-8449.065,-19643.67,-5188.59,-10141.155,-23252.625,-28147.59,-12562.875,-8734.185
1764764917.1487937,-8451.225,-19646.19,-5191.514999999999,-10142.685,-23254.965,-28152.405,-12570.345,-8735.805
1764764917.1487937,-8447.985,-19642.545,-5188.23,-10139.805,-23252.175,-28151.73,-12569.85,-8733.69
1764764917.1487937,-8446.635,-19641.15,-5187.195,-10139.22,-23251.23,-28147.905,-12559.095,-8731.08
1764764917.1487937,-8441.955,-19637.1,-5183.01,-10134.09,-23247.135,-28142.775,-12551.985,-8725.68
1764764917.1487937,-8441.369999999999,-19636.74,-5182.335,-10133.685,-23246.415,-28143.225,-12553.92,-8725.815
1764764917.1487937,-8439.75,-19635.345,-5180.67,-10132.65,-23245.47,-28143.855,-12555.63,-8725.005
1764764917.1487937,-8444.205,-19640.115,-5185.44,-10137.105,-23249.565,-28149.255,-12560.67,-8729.369999999999
1764764917.1487937,-8444.34,-19639.98,-5185.845,-10137.87,-23249.43,-28148.895,-12561.21,-8729.955
1764764917.1959517,-8440.65,-19636.38,-5182.38,-10134.18,-23245.92,-28143.72,-12555.09,-8725.904999999999
1764764917.1959517,-8445.779999999999,-19641.915,-5187.825,-10138.59,-23250.51,-28147.05,-12558.195,-8730.765
1764764917.1959517,-8444.52,-19640.025,-5186.07,-10137.15,-23249.475,-28145.655,-12558.33,-8729.055
1764764917.1959517,-8441.055,-19636.2,-5182.74,-10134.495,-23247.225,-28146.105,-12559.905,-8727.164999999999
1764764917.1959517,-8441.955,-19638.045,-5184.315,-10135.485,-23248.35,-28147.68,-12558.915,-8728.11
1764764917.1959517,-8443.17,-19639.89,-5185.665,-10136.925,-23250.51,-28148.94,-12560.13,-8730.539999999999
1764764917.1959517,-8440.875,-19636.065,-5182.02,-10133.595,-23246.955,-28146.645,-12560.715,-8728.154999999999
1764764917.1959517,-8442.225,-19636.56,-5182.605,-10135.08,-23247.855,-28148.04,-12563.64,-8728.47
1764764917.1959517,-8446.275,-19641.6,-5187.285,-10139.805,-23251.59,-28150.92,-12565.62,-8733.15
1764764917.1959517,-8439.885,-19636.155,-5180.67,-10133.235,-23245.065,-28144.8,-12559.005,-8727.119999999999
1764764917.1959517,-8438.039999999999,-19633.905,-5179.32,-10131.57,-23243.895,-28142.82,-12554.415,-8724.42
1764764917.1959517,-8440.605,-19636.335,-5182.29,-10135.215,-23247.765,-28145.835,-12552.795,-8725.904999999999
1764764917.1959517,-8443.619999999999,-19639.08,-5184.495,-10137.51,-23250.555,-28148.58,-12555.27,-8727.615
1764764917.1959517,-8448.029999999999,-19643.535,-5188.545,-10141.065,-23253.93,-28151.595,-12560.805,-8732.744999999999
1764764917.1959517,-8447.445,-19641.555,-5187.014999999999,-10139.535,-23252.445,-28151.64,-12563.415,-8733.33
1764764917.1959517,-8443.8,-19638.18,-5183.775,-10136.385,-23249.745,-28150.47,-12562.92,-8730.494999999999
1764764917.1959517,-8442.09,-19635.93,-5182.245,-10134.9,-23248.305,-28148.265,-12559.32,-8727.705
1764764917.1959517,-8448.164999999999,-19641.825,-5187.69,-10140.39,-23253.345,-28152.54,-12566.295,-8732.97
1764764917.1959517,-8444.205,-19637.595,-5182.65,-10135.755,-23249.655,-28149.84,-12565.665,-8729.055
1764764917.1959517,-8437.14,-19630.53,-5175.99,-10129.23,-23243.4,-28142.505,-12553.875,-8721.404999999999
1764764917.1959517,-8438.039999999999,-19631.925,-5177.97,-10130.58,-23244.48,-28142.1,-12551.535,-8721.9
1764764917.1959517,-8443.44,-19637.775,-5183.955,-10135.845,-23250.105,-28148.04,-12558.78,-8728.02
1764764917.1959517,-8440.515,-19634.355,-5180.67,-10132.605,-23245.965,-28144.395,-12556.08,-8724.51
1764764917.1959517,-8440.244999999999,-19634.13,-5180.715,-10132.47,-23245.47,-28144.53,-12557.34,-8724.51
1764764917.2418034,-8440.11,-19633.995,-5180.849999999999,-10132.965,-23247.045,-28147.59,-12561.795,-8725.095
1764764917.2418034,-8443.755,-19637.955,-5184.72,-10136.97,-23250.555,-28151.73,-12564.765,-8728.83
1764764917.2418034,-8447.445,-19641.555,-5188.5,-10139.94,-23253.57,-28153.89,-12566.295,-8731.98
1764764917.2418034,-8441.73,-19636.11,-5183.145,-10134.405,-23248.26,-28149.12,-12561.075,-8727.48
1764764917.2418034,-8441.64,-19636.29,-5183.865,-10135.17,-23248.62,-28148.445,-12556.89,-8725.994999999999
1764764917.2418034,-8444.34,-19638.72,-5185.845,-10136.565,-23249.655,-28148.535,-12558.42,-8727.435
1764764917.2418034,-8442.494999999999,-19636.065,-5182.514999999999,-10133.505,-23247.315,-28147.86,-12559.995,-8726.039999999999
1764764917.2418034,-8443.71,-19636.695,-5182.965,-10135.44,-23248.98,-28150.605,-12562.83,-8727.119999999999
1764764917.2418034,-8438.715,-19633.23,-5179.41,-10131.48,-23244.795,-28146.78,-12558.06,-8722.395
1764764917.2418034,-8440.47,-19635.84,-5181.885,-10132.965,-23246.82,-28148.49,-12559.005,-8723.97
1764764917.2418034,-8444.25,-19639.845,-5185.755,-10136.79,-23249.79,-28150.74,-12560.985,-8728.289999999999
1764764917.2418034,-8441.369999999999,-19637.28,-5182.605,-10134.405,-23247.765,-28147.815,-12559.14,-8726.22
1764764917.2418034,-8440.965,-19636.335,-5182.155,-10134.315,-23247.765,-28148.085,-12560.04,-8726.13
1764764917.2418034,-8441.82,-19636.56,-5182.83,-10135.035,-23248.125,-28149.66,-12561.795,-8727.164999999999
1764764917.2418034,-8444.789999999999,-19640.34,-5185.62,-10138.905,-23251.725,-28153.395,-12563.055,-8730.63
1764764917.2418034,-8447.67,-19643.985,-5188.185,-10141.695,-23254.065,-28154.925,-12564.315,-8732.565
1764764917.2418034,-8443.26,-19639.71,-5184.09,-10137.195,-23249.25,-28150.74,-12562.74,-8726.625
1764764917.2418034,-8446.14,-19643.265,-5186.97,-10140.39,-23252.265,-28153.125,-12565.35,-8729.595
1764764917.2418034,-8443.98,-19640.97,-5184.045,-10137.24,-23249.295,-28152.315,-12566.52,-8729.145
1764764917.2418034,-8442.72,-19638.63,-5182.514999999999,-10135.17,-23248.215,-28152.18,-12565.08,-8727.48
1764764917.2418034,-8442.72,-19637.37,-5182.56,-10134.765,-23248.665,-28151.865,-12563.82,-8726.94
1764764917.2418034,-8440.74,-19634.895,-5181.389999999999,-10132.38,-23246.055,-28149.345,-12563.1,-8724.824999999999
1764764917.2890916,-8442.99,-19637.055,-5183.01,-10133.685,-23247.765,-28150.74,-12564.9,-8727.345
1764764917.2890916,-8442.09,-19635.84,-5182.11,-10133.37,-23247.45,-28151.505,-12562.965,-8726.49
1764764917.2890916,-8440.695,-19634.535,-5181.345,-10132.65,-23246.865,-28149.345,-12557.97,-8723.789999999999
1764764917.2890916,-8439.164999999999,-19633.455,-5179.635,-10131.165,-23244.795,-28148.85,-12558.825,-8723.115
1764764917.2890916,-8442.99,-19636.47,-5182.695,-10133.82,-23247.135,-28151.73,-12560.445,-8727.029999999999
1764764917.2890916,-8448.84,-19642.995,-5189.04,-10140.165,-23253.885,-28157.04,-12563.325,-8732.61
1764764917.2890916,-8445.555,-19639.89,-5186.205,-10137.555,-23251.005,-28152.675,-12559.05,-8728.38
1764764917.2890916,-8444.789999999999,-19639.755,-5185.304999999999,-10136.25,-23250.645,-28151.595,-12559.86,-8727.119999999999
1764764917.2890916,-8439.84,-19634.31,-5180.22,-10132.02,-23247.09,-28150.965,-12561.165,-8723.025
1764764917.2890916,-8441.595,-19635.705,-5181.525,-10133.19,-23247.9,-28152.315,-12561.705,-8724.645
1764764917.2890916,-8446.32,-19640.745,-5186.115,-10138.005,-23252.625,-28156.815,-12564.54,-8730.045
1764764917.2890916,-8446.815,-19641.285,-5187.69,-10139.04,-23253.48,-28156.815,-12565.665,-8730.404999999999
1764764917.2890916,-8446.545,-19641.195,-5186.429999999999,-10138.185,-23252.49,-28155.51,-12564.18,-8729.1
1764764917.2890916,-8444.34,-19638.675,-5183.28,-10135.62,-23250.105,-28153.755,-12563.64,-8727.48
1764764917.2890916,-8440.02,-19634.175,-5179.095,-10131.48,-23246.37,-28150.155,-12560.805,-8723.88
1764764917.2890916,-8439.435,-19633.815,-5179.139999999999,-10131.705,-23245.83,-28149.93,-12560.49,-8723.475
1764764917.2890916,-8441.19,-19635.255,-5181.165,-10133.145,-23246.73,-28152.315,-12561.93,-8724.869999999999
1764764917.2890916,-8444.654999999999,-19638.765,-5184.945,-10137.06,-23250.645,-28154.97,-12566.07,-8727.975
1764764917.2890916,-8441.775,-19636.425,-5182.155,-10134.81,-23248.575,-28152.99,-12565.8,-8726.445
1764764917.2890916,-8446.32,-19640.835,-5186.655,-10138.995,-23252.895,-28157.58,-12569.58,-8730.9
1764764917.2890916,-8443.574999999999,-19638.81,-5184.45,-10136.205,-23250.24,-28156.005,-12567.285,-8728.785
1764764917.2890916,-8437.68,-19633.41,-5179.139999999999,-10130.715,-23244.885,-28149.3,-12557.79,-8722.8
1764764917.2890916,-8440.425,-19635.93,-5181.795,-10134.135,-23248.485,-28152.045,-12557.61,-8724.555
1764764917.2890916,-8440.289999999999,-19634.355,-5180.355,-10132.74,-23246.73,-28152.855,-12560.67,-8724.42
1764764917.334926,-8441.01,-19634.625,-5181.12,-10132.965,-23246.415,-28152.54,-12562.065,-8724.914999999999
1764764917.334926,-8441.145,-19634.94,-5181.3,-10133.73,-23247.54,-28154.34,-12566.295,-8725.095
1764764917.334926,-8444.475,-19638.99,-5184.99,-10137.69,-23250.555,-28153.035,-12561.255,-8727.119999999999
1764764917.334926,-8445.375,-19639.125,-5185.395,-10137.42,-23250.42,-28152.045,-12562.29,-8727.84
1764764917.334926,-8438.805,-19632.465,-5179.32,-10131.345,-23245.29,-28148.58,-12558.375,-8721.675
1764764917.334926,-8437.77,-19631.79,-5179.005,-10131.255,-23244.975,-28148.805,-12556.17,-8720.865
1764764917.3363037,-8441.01,-19635.165,-5182.38,-10134.81,-23249.25,-28153.755,-12561.84,-8724.824999999999
1764764917.3363037,-8443.89,-19638.315,-5185.035,-10136.925,-23251.5,-28154.925,-12564.0,-8727.435
1764764917.3363037,-8443.845,-19638.675,-5185.62,-10136.79,-23251.05,-28153.26,-12561.39,-8726.85
1764764917.3363037,-8442.494999999999,-19636.74,-5184.09,-10135.665,-23248.98,-28151.46,-12561.345,-8725.365
1764764917.3363037,-8438.85,-19632.78,-5179.905,-10131.255,-23245.47,-28149.705,-12562.2,-8722.485
1764764917.3363037,-8445.195,-19639.71,-5185.755,-10137.735,-23251.77,-28157.175,-12569.4,-8729.685
1764764917.3363037,-8446.365,-19641.33,-5187.06,-10138.995,-23252.31,-28157.67,-12568.995,-8730.404999999999
1764764917.3363037,-8442.765,-19637.325,-5183.28,-10135.575,-23248.395,-28154.43,-12564.315,-8726.58
1764764917.3363037,-8437.949999999999,-19633.005,-5179.365,-10131.75,-23244.3,-28149.795,-12555.945,-8721.135
1764764917.3372967,-8436.24,-19631.79,-5178.69,-10129.77,-23242.995,-28147.86,-12556.035,-8719.785
1764764917.3372967,-8440.38,-19635.57,-5182.514999999999,-10133.37,-23246.955,-28151.55,-12561.12,-8724.015
1764764917.3372967,-8442.09,-19636.56,-5183.145,-10134.9,-23247.72,-28152.99,-12562.605,-8725.14
1764764917.3372967,-8440.875,-19635.12,-5181.255,-10133.055,-23246.01,-28151.82,-12562.515,-8724.105
1764764917.3372967,-8437.455,-19631.88,-5177.115,-10129.095,-23242.275,-28147.95,-12559.185,-8720.55
1764764917.3372967,-8437.635,-19632.465,-5178.645,-10129.77,-23242.365,-28147.77,-12558.96,-8720.73
1764764917.3372967,-8439.345,-19634.265,-5180.31,-10131.84,-23244.345,-28149.48,-12561.12,-8722.035
1764764917.3795726,-8439.21,-19633.95,-5179.995,-10132.47,-23244.84,-28149.93,-12561.255,-8722.755
1764764917.3795726,-8443.035,-19637.415,-5183.595,-10135.98,-23247.765,-28154.25,-12564.99,-8726.67
1764764917.3795726,-8442.315,-19637.28,-5183.145,-10134.45,-23247.225,-28154.115,-12563.955,-8725.725
1764764917.3795726,-8440.154999999999,-19635.345,-5181.12,-10131.525,-23245.02,-28150.965,-12559.32,-8722.89
1764764917.3795726,-8442.765,-19637.235,-5182.74,-10134.225,-23246.28,-28152.09,-12558.375,-8724.779999999999
1764764917.3795726,-8439.795,-19634.04,-5179.23,-10130.715,-23244.03,-28149.885,-12555.18,-8721.494999999999
1764764917.3795726,-8439.93,-19635.12,-5179.95,-10131.795,-23245.38,-28151.955,-12558.645,-8721.36
1764764917.3795726,-8441.145,-19636.065,-5181.03,-10132.425,-23245.74,-28152.63,-12562.38,-8722.529999999999
1764764917.3795726,-8433.135,-19627.83,-5173.29,-10124.28,-23237.055,-28145.205,-12556.8,-8714.61
