Timestamp,Channel1,Channel2,Channel3,Channel4,Channel5,Channel6,Channel7,Channel8
1764762653.7476745,-525.24,-2376.27,-25203.465,-10230.525,-18152.595,-25162.38,-4666.905,-1034.955
1764762653.7476745,-522.855,-2374.74,-25200.72,-10228.68,-18150.48,-25160.715,-4665.87,-1033.02
1764762653.7476745,-524.52,-2376.495,-25202.115,-10231.605,-18152.64,-25164.135,-4666.995,-1034.73
1764762653.7476745,-519.345,-2371.815,-25197.57,-10227.195,-18148.68,-25162.065,-4663.889999999999,-1029.105
1764762653.7476745,-521.145,-2372.49,-25198.56,-10227.69,-18150.255,-25165.08,-4664.79,-1030.5
1764762653.7476745,-524.835,-2375.685,-25202.295,-10230.885,-18153.765,-25168.77,-4665.915,-1033.38
1764762653.7476745,-522.72,-2373.885,-25199.865,-10227.87,-18150.255,-25165.44,-4663.98,-1031.4
1764762653.7476745,-522.3149999999999,-2374.29,-25200.54,-10228.995,-18150.39,-25164.495,-4663.889999999999,-1031.67
1764762653.7476745,-521.1899999999999,-2373.525,-25201.44,-10230.12,-18152.73,-25164.18,-4663.755,-1031.625
1764762653.7476745,-522.72,-2375.19,-25202.88,-10232.235,-18154.8,-25165.845,-4663.98,-1033.92
1764762653.7476745,-525.96,-2378.025,-25206.12,-10235.205,-18157.32,-25167.96,-4664.88,-1037.7
1764762653.7476745,-522.27,-2374.245,-25201.98,-10229.58,-18151.56,-25163.055,-4661.55,-1033.695
1764762653.7476745,-521.64,-2374.65,-25202.205,-10229.535,-18152.235,-25164.315,-4661.099999999999,-1032.48
1764762653.7476745,-522.225,-2374.515,-25202.025,-10230.525,-18154.125,-25166.79,-4661.775,-1031.895
1764762653.7476745,-523.26,-2374.92,-25202.745,-10234.305,-18158.895,-25172.865,-4664.115,-1032.93
1764762653.7476745,-526.14,-2376.945,-25204.365,-10235.655,-18160.29,-25174.8,-4663.755,-1035.09
1764762653.7476745,-523.53,-2373.93,-25200.81,-10230.795,-18155.385,-25169.265,-4660.29,-1032.12
1764762653.7476745,-523.89,-2375.055,-25201.44,-10230.795,-18154.71,-25167.645,-4660.245,-1033.2
1764762653.7476745,-526.095,-2377.665,-25203.87,-10232.235,-18155.655,-25167.195,-4661.639999999999,-1035.72
1764762653.7476745,-527.67,-2378.565,-25204.725,-10231.965,-18153.855,-25164.945,-4661.28,-1036.98
1764762653.7476745,-527.13,-2378.025,-25203.555,-10231.065,-18151.515,-25162.515,-4659.3,-1035.945
1764762653.7476745,-527.76,-2378.565,-25204.77,-10233.225,-18154.62,-25165.305,-4659.12,-1037.205
1764762653.7476745,-530.73,-2380.41,-25207.155,-10236.42,-18157.455,-25169.715,-4661.505,-1040.04
1764762653.7955446,-524.5649999999999,-2374.38,-25201.935,-10231.965,-18154.665,-25168.815,-4658.804999999999,-1033.245
1764762653.7955446,-524.79,-2375.325,-25203.195,-10234.755,-18158.58,-25174.395,-4660.965,-1033.83
1764762653.7955446,-527.67,-2378.16,-25204.725,-10235.655,-18159.615,-25175.07,-4660.875,-1036.575
1764762653.7955446,-525.8249999999999,-2376.135,-25202.61,-10232.235,-18155.88,-25170.3,-4658.94,-1034.73
1764762653.7955446,-528.48,-2379.105,-25205.13,-10235.34,-18157.635,-25171.65,-4659.57,-1038.195
1764762653.7955446,-524.79,-2375.145,-25201.395,-10231.83,-18154.89,-25168.32,-4657.139999999999,-1034.73
1764762653.7955446,-527.31,-2377.845,-25204.59,-10234.665,-18157.23,-25169.94,-4656.78,-1037.7
1764762653.7955446,-524.97,-2376.315,-25204.23,-10233.63,-18156.195,-25167.87,-4655.97,-1035.315
1764762653.7955446,-526.635,-2378.115,-25206.255,-10235.97,-18157.635,-25169.895,-4657.77,-1037.205
1764762653.7955446,-529.0649999999999,-2380.455,-25208.595,-10238.355,-18160.425,-25173.945,-4658.625,-1038.96
1764762653.7955446,-524.43,-2375.505,-25204.86,-10235.61,-18157.815,-25172.37,-4655.565,-1033.92
1764762653.7955446,-525.96,-2376.585,-25204.95,-10237.995,-18160.785,-25176.105,-4657.545,-1035.315
1764762653.7955446,-525.24,-2375.235,-25204.23,-10237.545,-18162.18,-25177.905,-4657.995,-1034.82
1764762653.7965496,-527.265,-2376.0,-25204.95,-10236.915,-18161.955,-25177.815,-4656.69,-1036.62
1764762653.7965496,-524.115,-2373.525,-25202.43,-10234.44,-18158.13,-25172.82,-4653.045,-1034.37
1764762653.7965496,-526.3199999999999,-2376.495,-25205.67,-10237.455,-18158.94,-25171.83,-4652.91,-1036.395
1764762653.7965496,-528.84,-2380.815,-25208.55,-10239.39,-18159.57,-25169.895,-4653.09,-1038.195
1764762653.7975488,-534.465,-2386.485,-25213.545,-10243.485,-18162.9,-25172.505,-4655.745,-1042.335
1764762653.7975488,-536.175,-2387.34,-25213.545,-10243.485,-18161.82,-25171.695,-4655.295,-1044.18
1764762653.7975488,-534.105,-2384.64,-25210.395,-10238.76,-18157.41,-25169.715,-4653.09,-1042.245
1764762653.7975488,-527.895,-2378.115,-25204.005,-10232.01,-18151.515,-25166.115,-4649.13,-1036.08
1764762653.7975488,-531.63,-2381.94,-25207.515,-10236.105,-18156.645,-25172.235,-4651.92,-1039.77
1764762653.7975488,-528.165,-2379.15,-25205.58,-10234.8,-18155.34,-25171.065,-4650.615,-1036.665
1764762653.7975488,-528.435,-2379.195,-25207.065,-10237.455,-18159.705,-25175.295,-4653.179999999999,-1037.88
1764762653.844474,-532.62,-2383.605,-25212.87,-10244.34,-18166.995,-25180.92,-4656.195,-1042.515
1764762653.844474,-528.7049999999999,-2381.22,-25211.475,-10242.855,-18164.79,-25176.465,-4653.495,-1040.31
1764762653.844474,-531.63,-2383.83,-25213.005,-10243.08,-18163.08,-25174.08,-4653.315,-1042.38
1764762653.844474,-528.93,-2379.825,-25208.415,-10237.995,-18157.185,-25168.095,-4649.67,-1039.005
1764762653.844474,-529.29,-2380.32,-25209.0,-10238.49,-18157.77,-25168.995,-4649.625,-1039.23
1764762653.844474,-531.495,-2383.065,-25210.395,-10238.355,-18158.085,-25170.525,-4648.815,-1041.3
1764762653.844474,-526.77,-2377.98,-25204.68,-10233.0,-18154.62,-25168.59,-4646.835,-1035.945
1764762653.844474,-527.895,-2379.6,-25207.245,-10237.77,-18161.505,-25176.555,-4650.48,-1038.555
1764762653.844474,-530.865,-2382.12,-25211.565,-10242.54,-18166.545,-25182.0,-4652.415,-1041.525
1764762653.844474,-529.6949999999999,-2380.815,-25209.36,-10239.975,-18163.215,-25178.805,-4649.895,-1040.49
1764762653.844474,-528.12,-2379.42,-25206.75,-10236.06,-18159.255,-25173.135,-4646.745,-1039.05
1764762653.844474,-523.665,-2374.785,-25201.215,-10230.075,-18152.91,-25165.665,-4642.2,-1034.82
1764762653.844474,-524.43,-2376.225,-25202.34,-10230.615,-18152.19,-25163.775,-4641.48,-1035.72
1764762653.844474,-524.745,-2377.89,-25204.32,-10233.495,-18154.8,-25165.575,-4642.155,-1036.53
1764762653.844474,-525.285,-2378.07,-25206.075,-10235.88,-18157.905,-25169.13,-4642.56,-1036.53
1764762653.844474,-524.16,-2377.395,-25205.67,-10235.475,-18157.725,-25169.04,-4639.995,-1035.045
1764762653.844474,-524.16,-2376.36,-25204.23,-10233.405,-18156.6,-25169.445,-4639.365,-1033.83
1764762653.844474,-526.59,-2378.43,-25205.76,-10235.565,-18160.245,-25175.16,-4642.514999999999,-1036.53
1764762653.844474,-521.28,-2373.885,-25200.27,-10229.445,-18153.99,-25169.22,-4638.554999999999,-1031.22
1764762653.844474,-521.595,-2373.795,-25199.955,-10228.23,-18151.605,-25166.385,-4637.52,-1031.175
1764762653.844474,-522.99,-2374.605,-25200.855,-10228.995,-18152.595,-25166.16,-4636.98,-1032.885
1764762653.844474,-525.78,-2377.395,-25205.355,-10234.845,-18158.67,-25170.795,-4639.05,-1036.125
1764762653.8911378,-526.59,-2378.07,-25205.895,-10233.9,-18156.24,-25168.455,-4637.52,-1036.53
1764762653.8911378,-526.545,-2378.205,-25205.94,-10234.08,-18155.7,-25167.375,-4636.395,-1036.62
1764762653.8911378,-522.63,-2374.875,-25203.15,-10231.29,-18153.18,-25164.63,-4634.55,-1032.615
1764762653.8911378,-520.6949999999999,-2372.49,-25201.89,-10230.075,-18152.64,-25164.54,-4633.065,-1029.33
1764762653.8911378,-522.135,-2373.255,-25202.97,-10230.255,-18154.305,-25167.375,-4633.514999999999,-1029.915
1764762653.8911378,-526.725,-2377.665,-25206.525,-10233.405,-18158.4,-25173.09,-4637.205,-1034.865
1764762653.8911378,-531.81,-2382.615,-25210.26,-10236.015,-18159.57,-25176.69,-4638.825,-1039.455
1764762653.8911378,-531.09,-2381.58,-25209.36,-10236.465,-18160.605,-25176.96,-4638.51,-1038.915
1764762653.8911378,-530.1899999999999,-2380.59,-25209.18,-10237.05,-18162.45,-25176.6,-4637.88,-1038.555
1764762653.8911378,-529.29,-2381.265,-25208.865,-10236.555,-18161.91,-25174.89,-4637.34,-1038.915
1764762653.8911378,-529.875,-2382.075,-25209.9,-10236.24,-18160.38,-25173.315,-4636.889999999999,-1040.175
1764762653.8911378,-529.29,-2381.58,-25209.945,-10236.33,-18160.245,-25171.83,-4635.675,-1039.59
1764762653.8911378,-526.545,-2377.845,-25207.02,-10234.17,-18159.12,-25170.03,-4633.514999999999,-1036.755
1764762653.892146,-521.37,-2372.625,-25201.215,-10228.59,-18153.54,-25166.115,-4629.42,-1031.58
1764762653.892146,-520.875,-2371.86,-25200.495,-10227.465,-18152.82,-25166.52,-4627.98,-1030.23
1764762653.892146,-521.595,-2372.445,-25200.63,-10228.59,-18152.73,-25168.905,-4628.385,-1031.265
1764762653.892146,-524.115,-2374.29,-25202.07,-10230.345,-18153.9,-25170.345,-4629.78,-1032.885
1764762653.892146,-530.235,-2380.59,-25208.325,-10235.835,-18159.165,-25174.89,-4633.245,-1038.33
1764762653.892146,-530.145,-2379.915,-25207.605,-10234.665,-18157.275,-25171.245,-4631.804999999999,-1038.105
1764762653.892146,-526.3199999999999,-2376.45,-25203.96,-10230.12,-18152.37,-25165.665,-4628.565,-1034.19
1764762653.892146,-528.66,-2378.61,-25206.525,-10232.1,-18153.405,-25165.575,-4627.845,-1036.845
1764762653.892146,-525.78,-2375.82,-25203.87,-10229.805,-18150.075,-25161.57,-4625.01,-1034.775
1764762653.892146,-529.605,-2378.925,-25207.47,-10233.675,-18154.485,-25165.08,-4626.315,-1037.61
1764762653.892146,-527.67,-2376.54,-25204.05,-10229.985,-18150.795,-25162.695,-4623.705,-1033.74
1764762653.9345253,-522.135,-2370.87,-25199.595,-10226.835,-18148.59,-25162.38,-4622.49,-1028.43
1764762653.9345253,-522.135,-2371.095,-25201.755,-10229.985,-18154.485,-25169.175,-4626.045,-1028.79
1764762653.9345253,-521.28,-2370.87,-25200.99,-10231.11,-18155.835,-25171.2,-4625.955,-1029.78
1764762653.9345253,-521.1899999999999,-2371.14,-25201.755,-10230.84,-18155.7,-25170.48,-4625.595,-1030.545
1764762653.9345253,-522.225,-2372.49,-25203.105,-10231.695,-18155.43,-25170.075,-4624.514999999999,-1031.715
1764762653.9345253,-526.59,-2377.17,-25208.46,-10237.5,-18161.01,-25173.18,-4625.685,-1036.62
1764762653.9345253,-526.3199999999999,-2376.63,-25207.83,-10235.25,-18157.635,-25168.32,-4623.525,-1036.395
1764762653.9345253,-523.0799999999999,-2372.985,-25204.5,-10231.47,-18153.54,-25163.865,-4621.41,-1032.66
1764762653.9345253,-526.59,-2375.865,-25207.29,-10233.54,-18155.97,-25167.555,-4622.355,-1035.0
1764762653.9345253,-523.395,-2372.4,-25202.88,-10228.995,-18151.38,-25164.945,-4619.474999999999,-1032.21
1764762653.9345253,-522.675,-2370.96,-25201.845,-10228.905,-18151.47,-25166.655,-4619.385,-1031.085
1764762653.9345253,-523.305,-2371.77,-25202.43,-10229.22,-18151.92,-25169.04,-4620.014999999999,-1031.94
1764762653.9345253,-526.995,-2374.11,-25205.715,-10231.605,-18156.78,-25173.27,-4622.175,-1035.045
1764762653.9345253,-524.34,-2371.005,-25203.735,-10229.265,-18154.485,-25169.985,-4619.79,-1032.165
1764762653.9345253,-528.48,-2376.18,-25208.235,-10234.575,-18158.13,-25172.145,-4621.095,-1036.665
1764762653.9345253,-527.4449999999999,-2376.315,-25208.64,-10234.395,-18157.905,-25170.12,-4619.61,-1036.53
1764762653.9345253,-527.9399999999999,-2376.09,-25208.73,-10233.045,-18156.015,-25166.655,-4619.205,-1036.395
1764762653.9345253,-525.06,-2372.895,-25204.23,-10228.095,-18149.355,-25160.355,-4615.38,-1032.975
1764762653.9345253,-527.31,-2374.965,-25206.12,-10231.02,-18152.955,-25163.82,-4615.83,-1034.64
1764762653.9345253,-524.34,-2372.58,-25204.545,-10231.29,-18156.24,-25167.87,-4616.955,-1032.12
1764762653.9345253,-519.5699999999999,-2367.045,-25199.46,-10227.465,-18152.73,-25166.295,-4614.929999999999,-1027.17
1764762653.9345253,-521.415,-2369.025,-25201.26,-10228.23,-18153.09,-25168.41,-4615.605,-1029.465
1764762653.9358442,-522.72,-2369.565,-25201.71,-10227.105,-18152.19,-25167.645,-4615.2,-1030.14
1764762653.9358442,-527.22,-2373.705,-25205.76,-10231.47,-18155.7,-25170.39,-4617.315,-1034.865
1764762653.9823756,-526.4549999999999,-2373.795,-25205.58,-10230.93,-18154.08,-25166.97,-4615.83,-1034.415
1764762653.9823756,-530.28,-2377.845,-25210.44,-10234.98,-18158.715,-25170.075,-4617.54,-1038.375
1764762653.9823756,-530.055,-2378.385,-25210.755,-10233.63,-18157.005,-25167.51,-4616.55,-1038.87
1764762653.9823756,-528.615,-2377.395,-25209.405,-10231.515,-18152.73,-25162.92,-4614.615,-1037.88
1764762653.9823756,-523.215,-2372.31,-25205.265,-10228.14,-18151.02,-25161.705,-4612.59,-1032.48
1764762653.9823756,-522.18,-2371.185,-25204.68,-10230.48,-18155.7,-25167.78,-4613.849999999999,-1031.94
1764762653.9823756,-521.9549999999999,-2370.78,-25204.455,-10230.03,-18155.745,-25169.94,-4612.905,-1031.67
1764762653.9823756,-523.89,-2371.815,-25204.5,-10229.445,-18155.61,-25170.795,-4612.679999999999,-1031.895
1764762653.9823756,-524.97,-2373.03,-25205.22,-10230.48,-18154.485,-25169.85,-4611.465,-1032.84
1764762653.9823756,-526.59,-2374.29,-25205.94,-10230.03,-18154.17,-25169.13,-4611.105,-1035.09
1764762653.9823756,-522.9449999999999,-2370.105,-25201.98,-10224.855,-18148.77,-25162.875,-4608.675,-1031.625
1764762653.9823756,-524.0699999999999,-2371.995,-25203.24,-10226.835,-18150.03,-25162.605,-4608.63,-1032.705
1764762653.9823756,-529.245,-2378.34,-25209.09,-10232.28,-18154.17,-25165.53,-4611.105,-1038.375
1764762653.9823756,-528.165,-2378.34,-25208.955,-10231.605,-18152.505,-25163.28,-4609.395,-1036.98
1764762653.9823756,-525.87,-2375.28,-25206.57,-10229.49,-18149.895,-25160.805,-4607.235,-1033.74
1764762653.9823756,-519.165,-2369.925,-25200.99,-10224.045,-18144.99,-25157.205,-4602.96,-1026.945
1764762653.9823756,-519.03,-2369.79,-25201.62,-10225.53,-18147.24,-25161.705,-4603.679999999999,-1026.765
1764762653.9823756,-524.43,-2375.865,-25206.39,-10231.605,-18154.08,-25170.525,-4609.17,-1032.795
1764762653.9823756,-525.42,-2376.63,-25207.74,-10233.045,-18155.565,-25171.695,-4610.34,-1033.92
1764762653.9823756,-524.295,-2375.19,-25206.93,-10232.46,-18155.79,-25171.065,-4609.889999999999,-1032.165
1764762653.9823756,-521.73,-2373.39,-25204.995,-10229.445,-18151.74,-25165.755,-4607.639999999999,-1029.78
1764762653.9823756,-523.98,-2376.225,-25208.1,-10232.91,-18155.07,-25167.42,-4608.495,-1033.695
1764762654.0285702,-522.495,-2375.37,-25206.885,-10231.605,-18153.225,-25164.09,-4606.47,-1032.3
1764762654.0285702,-527.085,-2379.645,-25210.53,-10235.97,-18158.49,-25167.915,-4608.045,-1035.18
1764762654.0285702,-525.105,-2376.27,-25207.335,-10232.37,-18153.135,-25164.315,-4606.56,-1032.84
1764762654.0285702,-523.305,-2374.245,-25206.3,-10231.11,-18151.245,-25164.09,-4605.705,-1032.03
1764762654.0285702,-522.3149999999999,-2373.615,-25206.345,-10231.965,-18153.45,-25166.835,-4604.895,-1030.95
1764762654.0285702,-523.89,-2374.335,-25206.615,-10232.82,-18155.295,-25169.67,-4606.155,-1031.31
1764762654.0285702,-524.925,-2375.46,-25206.795,-10232.415,-18154.53,-25168.815,-4605.795,-1032.345
1764762654.0285702,-525.78,-2376.81,-25208.145,-10234.215,-18155.97,-25169.4,-4606.29,-1034.19
1764762654.0285702,-529.02,-2379.69,-25212.105,-10237.32,-18158.805,-25171.515,-4607.955,-1037.565
1764762654.0285702,-526.05,-2377.35,-25209.495,-10235.295,-18157.32,-25168.59,-4606.065,-1035.54
1764762654.0285702,-528.12,-2377.665,-25210.44,-10236.69,-18158.94,-25169.67,-4606.335,-1037.565
1764762654.0285702,-524.52,-2373.84,-25206.705,-10231.38,-18154.125,-25164.855,-4603.365,-1034.055
1764762654.0285702,-527.13,-2376.045,-25209.315,-10233.18,-18155.88,-25167.06,-4604.31,-1037.25
1764762654.0285702,-527.085,-2376.72,-25209.9,-10234.845,-18157.365,-25168.77,-4604.94,-1036.62
1764762654.0285702,-524.34,-2375.28,-25207.965,-10233.54,-18154.62,-25166.475,-4602.87,-1033.065
1764762654.0285702,-527.355,-2378.025,-25209.63,-10236.015,-18157.545,-25170.615,-4604.535,-1035.36
1764762654.0285702,-530.505,-2379.645,-25212.15,-10238.49,-18160.47,-25174.575,-4606.514999999999,-1038.015
1764762654.0285702,-527.535,-2377.08,-25209.9,-10236.465,-18159.345,-25172.685,-4604.895,-1034.865
1764762654.0285702,-530.145,-2380.86,-25213.905,-10240.425,-18162.945,-25174.845,-4605.795,-1038.015
1764762654.0285702,-530.055,-2380.905,-25212.825,-10237.68,-18158.58,-25169.67,-4603.32,-1038.465
1764762654.0285702,-529.65,-2380.635,-25211.61,-10235.97,-18156.015,-25165.665,-4601.79,-1038.6
1764762654.0285702,-529.965,-2380.365,-25212.195,-10235.745,-18155.16,-25164.09,-4601.205,-1038.69
1764762654.0285702,-526.995,-2377.17,-25208.82,-10232.91,-18151.65,-25161.12,-4598.955,-1034.865
1764762654.0295844,-524.115,-2373.885,-25205.985,-10231.29,-18151.695,-25162.92,-4598.415,-1031.715
1764762654.076891,-521.64,-2371.545,-25203.69,-10229.895,-18152.415,-25166.07,-4597.83,-1030.14
1764762654.076891,-526.365,-2375.1,-25207.065,-10232.955,-18156.24,-25171.74,-4600.755,-1034.865
1764762654.076891,-524.43,-2373.165,-25204.545,-10230.255,-18153.72,-25169.31,-4599.72,-1032.39
1764762654.076891,-527.49,-2375.37,-25206.48,-10230.885,-18154.26,-25168.68,-4599.224999999999,-1035.18
1764762654.076891,-523.395,-2372.4,-25202.205,-10226.07,-18148.68,-25162.965,-4595.22,-1032.3
1764762654.076891,-523.53,-2373.93,-25203.24,-10227.195,-18148.59,-25161.795,-4595.04,-1032.93
1764762654.076891,-524.88,-2376.405,-25207.965,-10233.675,-18156.105,-25166.295,-4598.37,-1034.73
1764762654.076891,-527.67,-2378.655,-25210.17,-10236.195,-18159.39,-25168.905,-4600.53,-1036.845
1764762654.076891,-529.0649999999999,-2379.96,-25210.305,-10235.16,-18158.265,-25168.185,-4599.315,-1037.16
1764762654.076891,-530.28,-2380.455,-25210.98,-10235.565,-18156.96,-25168.41,-4597.47,-1037.79
1764762654.076891,-526.68,-2375.91,-25206.21,-10230.435,-18151.74,-25164.765,-4593.915,-1032.75
1764762654.076891,-526.9499999999999,-2376.0,-25206.795,-10230.615,-18152.91,-25166.745,-4595.31,-1033.83
1764762654.076891,-526.77,-2375.415,-25207.02,-10232.865,-18155.745,-25170.12,-4596.389999999999,-1033.875
1764762654.076891,-527.4449999999999,-2376.09,-25208.01,-10235.925,-18158.94,-25172.955,-4597.2,-1035.045
1764762654.076891,-530.235,-2379.465,-25212.24,-10239.39,-18162.72,-25175.565,-4598.28,-1038.645
1764762654.076891,-529.965,-2379.105,-25210.305,-10235.475,-18158.13,-25170.03,-4595.445,-1038.195
1764762654.076891,-530.775,-2379.015,-25209.63,-10234.035,-18156.465,-25167.24,-4594.095,-1038.195
1764762654.076891,-531.495,-2379.915,-25211.43,-10235.07,-18157.185,-25167.33,-4593.915,-1038.15
1764762654.076891,-528.39,-2377.935,-25210.08,-10233.945,-18156.78,-25167.87,-4593.33,-1036.17
1764762654.076891,-525.375,-2374.56,-25206.39,-10231.83,-18155.34,-25167.24,-4592.07,-1032.975
1764762654.076891,-525.645,-2374.605,-25205.67,-10230.705,-18154.53,-25167.6,-4590.99,-1032.3
1764762654.076891,-528.975,-2377.89,-25209.225,-10234.665,-18158.895,-25173.72,-4593.105,-1035.09
1764762654.076891,-524.295,-2373.435,-25205.805,-10232.145,-18157.23,-25171.605,-4590.99,-1030.95
1764762654.076891,-524.475,-2373.345,-25205.985,-10230.66,-18155.07,-25169.13,-4589.639999999999,-1030.68
1764762654.1234636,-525.96,-2374.065,-25206.345,-10229.625,-18153.045,-25165.26,-4588.514999999999,-1031.58
1764762654.1234636,-527.265,-2375.595,-25207.695,-10230.705,-18153.675,-25163.955,-4588.695,-1032.795
1764762654.1234636,-528.5699999999999,-2377.8,-25209.315,-10233.495,-18155.79,-25165.215,-4589.325,-1034.145
1764762654.1234636,-532.62,-2381.94,-25214.175,-10239.39,-18162.72,-25172.145,-4591.845,-1038.42
1764762654.1234636,-532.485,-2381.265,-25213.905,-10238.76,-18161.82,-25171.29,-4591.665,-1038.735
1764762654.1234636,-527.5799999999999,-2375.55,-25207.92,-10231.965,-18155.295,-25166.61,-4588.155,-1033.515
1764762654.1234636,-526.275,-2374.245,-25206.57,-10231.2,-18155.07,-25168.77,-4587.345,-1033.065
1764762654.1234636,-529.965,-2378.655,-25210.755,-10234.755,-18159.165,-25173.72,-4589.865,-1037.16
1764762654.1234636,-529.155,-2378.205,-25210.035,-10233.99,-18158.58,-25172.865,-4588.785,-1036.395
1764762654.1234636,-525.96,-2375.055,-25207.92,-10231.965,-18156.285,-25170.12,-4586.804999999999,-1033.065
1764762654.1234636,-530.235,-2378.565,-25212.69,-10236.555,-18160.74,-25172.91,-4588.74,-1037.295
1764762654.1234636,-532.0799999999999,-2381.04,-25214.625,-10238.355,-18161.505,-25172.46,-4590.09,-1039.905
1764762654.1234636,-531.27,-2380.635,-25214.085,-10237.005,-18159.345,-25169.58,-4588.965,-1040.22
1764762654.1234636,-530.145,-2379.825,-25211.295,-10234.215,-18156.06,-25166.07,-4587.165,-1038.285
1764762654.1234636,-528.66,-2377.935,-25209.0,-10232.415,-18153.855,-25164.855,-4586.04,-1035.855
1764762654.1234636,-530.46,-2380.005,-25211.79,-10235.565,-18156.96,-25168.905,-4587.165,-1037.61
1764762654.1234636,-526.725,-2376.09,-25207.02,-10231.515,-18153.315,-25166.97,-4585.139999999999,-1033.11
1764762654.1234636,-528.165,-2376.945,-25207.155,-10231.29,-18153.225,-25167.87,-4584.915,-1033.83
1764762654.1234636,-526.995,-2376.27,-25206.705,-10230.615,-18152.37,-25166.205,-4583.429999999999,-1032.93
1764762654.1234636,-525.87,-2375.145,-25205.94,-10229.355,-18150.48,-25164.09,-4581.405,-1032.39
1764762654.1234636,-526.4549999999999,-2374.965,-25206.57,-10229.67,-18150.615,-25162.65,-4580.955,-1032.93
1764762654.1234636,-526.23,-2375.415,-25207.965,-10232.19,-18153.54,-25163.055,-4581.63,-1034.055
1764762654.1679697,-526.68,-2376.045,-25209.27,-10233.765,-18156.42,-25166.25,-4582.125,-1035.585
1764762654.1679697,-529.785,-2379.195,-25211.97,-10237.05,-18159.21,-25168.95,-4582.349999999999,-1038.96
1764762654.1679697,-529.515,-2378.565,-25212.195,-10237.905,-18159.75,-25169.085,-4582.26,-1037.16
1764762654.1679697,-526.005,-2375.595,-25209.72,-10234.215,-18155.205,-25165.845,-4579.56,-1032.705
1764762654.1679697,-526.05,-2374.2,-25209.855,-10234.665,-18155.655,-25168.635,-4580.145,-1033.245
1764762654.1679697,-531.495,-2379.915,-25214.265,-10239.075,-18159.93,-25174.44,-4583.745,-1039.365
1764762654.1679697,-532.665,-2380.545,-25213.815,-10238.13,-18158.58,-25172.55,-4582.665,-1038.87
1764762654.1679697,-533.2049999999999,-2380.59,-25213.995,-10237.005,-18156.87,-25170.705,-4582.035,-1038.78
1764762654.1679697,-529.245,-2377.305,-25210.935,-10233.765,-18153.9,-25166.61,-4579.92,-1035.63
1764762654.1684957,-529.56,-2378.115,-25211.88,-10236.33,-18157.815,-25167.645,-4580.37,-1037.25
1764762654.1684957,-531.0,-2378.295,-25211.565,-10234.89,-18155.655,-25164.855,-4580.325,-1038.645
1764762654.1684957,-530.46,-2377.395,-25210.89,-10234.215,-18155.745,-25165.98,-4579.38,-1038.375
1764762654.1684957,-533.61,-2379.735,-25213.23,-10236.78,-18157.725,-25168.815,-4579.605,-1040.58
1764762654.1684957,-529.29,-2376.0,-25208.82,-10233.765,-18155.88,-25167.465,-4576.995,-1035.945
1764762654.1684957,-525.375,-2372.22,-25206.03,-10230.795,-18154.71,-25168.095,-4575.014999999999,-1032.39
1764762654.1684957,-529.6949999999999,-2376.945,-25210.755,-10236.195,-18158.715,-25173.27,-4577.625,-1036.215
1764762654.1684957,-527.04,-2374.245,-25208.145,-10233.18,-18156.33,-25171.065,-4576.185,-1033.155
1764762654.1684957,-531.9449999999999,-2379.015,-25211.79,-10235.88,-18160.11,-25174.215,-4578.165,-1038.105
1764762654.1684957,-533.2049999999999,-2381.22,-25213.59,-10237.365,-18159.84,-25173.045,-4578.705,-1040.49
1764762654.1684957,-532.485,-2381.985,-25213.995,-10237.32,-18157.95,-25169.265,-4576.815,-1040.445
1764762654.1684957,-530.55,-2379.69,-25213.815,-10236.87,-18156.915,-25166.565,-4575.645,-1038.015
1764762654.1684957,-533.61,-2382.435,-25218.315,-10241.73,-18163.17,-25172.19,-4578.03,-1042.11
1764762654.215622,-533.16,-2381.67,-25216.83,-10239.525,-18161.145,-25171.11,-4577.355,-1041.705
1764762654.215622,-529.245,-2376.81,-25210.755,-10233.945,-18156.555,-25167.69,-4574.925,-1036.485
1764762654.215622,-527.85,-2375.775,-25209.45,-10231.65,-18155.25,-25167.825,-4573.17,-1034.73
1764762654.215622,-532.4399999999999,-2379.645,-25213.725,-10236.465,-18159.705,-25173.09,-4575.915,-1038.87
1764762654.215622,-529.335,-2377.215,-25210.53,-10232.325,-18156.015,-25170.21,-4573.935,-1035.855
1764762654.215622,-530.8199999999999,-2378.745,-25211.745,-10232.91,-18156.15,-25168.815,-4573.665,-1037.025
1764762654.215622,-535.905,-2383.785,-25216.875,-10238.58,-18160.47,-25172.865,-4576.365,-1042.515
1764762654.215622,-535.9499999999999,-2383.56,-25217.055,-10238.715,-18160.02,-25171.605,-4575.69,-1043.145
1764762654.215622,-536.22,-2384.055,-25218.18,-10240.335,-18160.47,-25170.615,-4575.195,-1043.325
1764762654.215622,-536.715,-2384.28,-25219.35,-10241.955,-18162.945,-25171.785,-4576.545,-1044.27
1764762654.215622,-534.555,-2381.4,-25217.64,-10239.795,-18160.965,-25171.605,-4575.42,-1042.155
1764762654.216626,-529.965,-2376.225,-25212.24,-10234.485,-18156.06,-25167.69,-4572.179999999999,-1037.385
1764762654.216626,-530.55,-2376.99,-25213.14,-10234.935,-18156.33,-25169.625,-4572.09,-1036.98
1764762654.216626,-534.78,-2381.265,-25217.145,-10240.2,-18162.18,-25176.24,-4575.735,-1039.995
1764762654.216626,-531.63,-2378.115,-25213.59,-10237.86,-18160.785,-25174.755,-4574.25,-1037.745
1764762654.216626,-535.59,-2383.155,-25218.495,-10241.145,-18164.79,-25177.275,-4576.005,-1042.56
1764762654.216626,-535.4549999999999,-2383.245,-25218.135,-10240.515,-18162.855,-25174.53,-4575.735,-1042.785
1764762654.216626,-532.71,-2381.445,-25214.85,-10237.32,-18157.815,-25168.77,-4573.035,-1040.355
1764762654.216626,-535.8149999999999,-2384.865,-25219.215,-10241.73,-18162.135,-25171.965,-4574.115,-1043.91
1764762654.216626,-533.745,-2383.02,-25219.17,-10242.54,-18163.17,-25173.405,-4573.845,-1042.155
1764762654.2176266,-531.405,-2380.14,-25215.57,-10238.355,-18158.895,-25169.715,-4572.54,-1039.635
1764762654.2176266,-533.385,-2381.85,-25216.74,-10238.58,-18159.705,-25172.415,-4573.08,-1041.75
1764762654.2176266,-528.345,-2376.855,-25210.755,-10232.415,-18154.125,-25167.96,-4568.04,-1036.215
1764762654.2176266,-529.65,-2377.215,-25210.575,-10232.955,-18154.98,-25169.94,-4568.715,-1036.62
1764762654.260131,-532.26,-2380.095,-25214.625,-10236.96,-18158.49,-25174.08,-4570.47,-1039.455
1764762654.260131,-531.09,-2379.42,-25214.58,-10236.915,-18158.445,-25173.09,-4569.885,-1037.745
1764762654.260131,-533.745,-2382.12,-25218.63,-10241.82,-18164.205,-25177.14,-4571.91,-1041.165
1764762654.260131,-533.295,-2382.255,-25218.405,-10239.885,-18162.0,-25173.315,-4569.48,-1040.58
1764762654.2606645,-532.0799999999999,-2381.22,-25217.64,-10236.555,-18157.815,-25168.05,-4566.24,-1039.77
1764762654.2606645,-529.74,-2378.115,-25214.31,-10233.495,-18153.0,-25163.73,-4564.215,-1037.07
1764762654.2606645,-531.495,-2379.33,-25214.805,-10234.98,-18154.395,-25164.855,-4564.8,-1038.015
1764762654.2606645,-530.8199999999999,-2379.105,-25214.625,-10234.755,-18155.07,-25166.835,-4564.17,-1037.25
1764762654.2606645,-528.03,-2376.27,-25211.79,-10233.855,-18156.015,-25169.625,-4562.865,-1035.27
1764762654.2606645,-530.37,-2377.485,-25213.59,-10235.565,-18159.12,-25173.225,-4565.25,-1037.07
1764762654.2606645,-530.595,-2378.025,-25214.13,-10234.755,-18158.67,-25173.405,-4564.8,-1037.34
1764762654.2606645,-531.765,-2379.06,-25215.84,-10236.015,-18159.3,-25173.765,-4564.889999999999,-1038.33
1764762654.2606645,-531.63,-2379.375,-25216.515,-10236.465,-18159.975,-25172.01,-4564.889999999999,-1038.645
1764762654.2606645,-531.9,-2380.59,-25216.875,-10237.14,-18158.625,-25170.075,-4563.945,-1039.86
1764762654.2606645,-535.725,-2383.605,-25220.655,-10239.525,-18160.47,-25170.345,-4564.395,-1043.37
1764762654.2606645,-533.475,-2381.355,-25218.54,-10236.15,-18156.33,-25165.845,-4562.145,-1041.255
1764762654.2616832,-535.14,-2382.48,-25219.08,-10236.69,-18156.42,-25166.565,-4561.965,-1042.74
1764762654.2616832,-537.84,-2384.955,-25220.7,-10238.355,-18158.31,-25169.445,-4563.45,-1045.035
1764762654.2616832,-533.88,-2380.995,-25216.47,-10234.08,-18154.98,-25168.185,-4561.695,-1039.635
1764762654.2616832,-538.605,-2385.495,-25220.925,-10239.795,-18162.495,-25176.555,-4566.465,-1044.27
1764762654.2616832,-538.29,-2385.09,-25221.06,-10240.2,-18163.44,-25177.32,-4567.679999999999,-1043.82
1764762654.2616832,-533.79,-2380.815,-25217.73,-10238.04,-18161.82,-25175.115,-4566.014999999999,-1039.995
1764762654.307567,-534.465,-2381.13,-25216.38,-10236.06,-18160.245,-25172.595,-4563.855,-1041.165
1764762654.307567,-539.865,-2387.115,-25222.23,-10240.785,-18163.665,-25174.035,-4565.115,-1047.42
1764762654.307567,-538.8299999999999,-2386.665,-25222.725,-10242.675,-18165.195,-25174.665,-4565.52,-1046.655
1764762654.307567,-536.9399999999999,-2383.965,-25220.97,-10240.065,-18163.035,-25171.92,-4563.72,-1043.82
1764762654.3085918,-540.9449999999999,-2387.16,-25223.49,-10242.54,-18165.69,-25173.945,-4565.295,-1046.97
1764762654.3085918,-535.23,-2380.725,-25216.92,-10236.6,-18159.165,-25169.355,-4560.795,-1041.03
1764762654.3085918,-533.115,-2378.61,-25214.13,-10234.845,-18157.545,-25169.985,-4559.264999999999,-1038.915
1764762654.3085918,-536.67,-2382.21,-25217.19,-10237.59,-18161.19,-25175.43,-4561.695,-1041.885
1764762654.3085918,-540.27,-2385.63,-25221.42,-10241.595,-18165.15,-25178.895,-4562.775,-1044.63
1764762654.3085918,-538.02,-2383.83,-25219.665,-10239.525,-18162.765,-25176.825,-4561.605,-1043.415
1764762654.3085918,-534.555,-2379.735,-25216.245,-10234.08,-18156.69,-25169.49,-4558.679999999999,-1040.67
1764762654.3085918,-538.29,-2382.705,-25220.475,-10238.67,-18161.19,-25172.955,-4560.929999999999,-1044.315
1764762654.3085918,-536.985,-2381.04,-25220.34,-10238.85,-18161.73,-25172.28,-4560.389999999999,-1041.84
1764762654.3085918,-539.37,-2383.965,-25223.13,-10241.73,-18164.565,-25174.71,-4561.2,-1044.81
1764762654.3085918,-535.095,-2380.59,-25219.215,-10238.4,-18162.18,-25171.875,-4559.445,-1040.805
1764762654.3085918,-532.89,-2377.8,-25217.055,-10237.185,-18161.46,-25172.055,-4557.96,-1038.78
1764762654.3085918,-532.5749999999999,-2378.07,-25215.075,-10235.79,-18160.56,-25173.18,-4558.005,-1038.78
1764762654.3085918,-534.645,-2380.455,-25216.605,-10237.455,-18163.125,-25176.915,-4560.255,-1040.715
1764762654.3085918,-534.06,-2379.69,-25217.055,-10236.915,-18162.54,-25176.78,-4559.94,-1041.12
1764762654.3085918,-538.1999999999999,-2382.93,-25219.8,-10238.94,-18163.62,-25177.23,-4560.21,-1044.18
1764762654.3085918,-534.78,-2380.455,-25216.515,-10233.765,-18157.545,-25170.615,-4556.7,-1041.84
1764762654.3085918,-534.555,-2380.32,-25217.055,-10233.54,-18157.05,-25168.545,-4554.945,-1041.165
1764762654.3085918,-536.4,-2381.85,-25219.71,-10237.275,-18160.785,-25170.48,-4555.665,-1042.245
1764762654.3085918,-538.155,-2384.325,-25222.41,-10240.065,-18163.44,-25173.18,-4557.51,-1045.08
1764762654.3085918,-536.13,-2381.67,-25219.395,-10237.095,-18159.66,-25171.065,-4555.98,-1042.47
1764762654.3085918,-529.965,-2375.1,-25212.33,-10229.625,-18152.19,-25165.035,-4550.264999999999,-1036.395
1764762654.3546722,-528.93,-2374.515,-25210.98,-10228.68,-18152.1,-25166.115,-4548.69,-1034.955
1764762654.3546722,-534.915,-2379.735,-25217.55,-10234.845,-18160.065,-25173.495,-4553.73,-1040.085
1764762654.3546722,-535.4549999999999,-2380.995,-25219.08,-10236.33,-18161.955,-25175.97,-4555.395,-1040.805
1764762654.3546722,-534.915,-2381.535,-25219.44,-10236.195,-18161.595,-25174.62,-4554.0,-1040.445
1764762654.3546722,-536.985,-2383.65,-25221.645,-10237.545,-18161.865,-25172.82,-4553.595,-1041.93
1764762654.3546722,-537.3,-2383.29,-25221.645,-10237.995,-18161.235,-25170.705,-4552.92,-1042.11
1764762654.3546722,-534.6899999999999,-2380.635,-25218.765,-10234.485,-18157.545,-25165.665,-4550.49,-1040.04
1764762654.3546722,-534.735,-2381.49,-25220.295,-10235.925,-18158.715,-25165.755,-4551.795,-1041.12
1764762654.3556902,-534.645,-2380.905,-25219.71,-10234.395,-18157.41,-25165.665,-4550.625,-1041.165
1764762654.3556902,-532.125,-2377.98,-25215.795,-10231.695,-18155.88,-25166.43,-4548.78,-1038.915
1764762654.3556902,-531.54,-2376.63,-25215.57,-10232.415,-18157.095,-25169.085,-4548.87,-1038.555
1764762654.3556902,-536.535,-2381.4,-25220.43,-10237.815,-18163.665,-25177.275,-4552.965,-1042.875
1764762654.3556902,-536.9399999999999,-2382.21,-25221.6,-10237.95,-18164.7,-25177.77,-4553.054999999999,-1042.695
1764762654.3556902,-536.22,-2381.94,-25220.655,-10237.23,-18164.295,-25176.645,-4551.345,-1042.245
1764762654.3556902,-536.22,-2381.49,-25219.845,-10236.69,-18162.495,-25173.855,-4550.355,-1042.425
1764762654.3556902,-536.67,-2383.155,-25220.385,-10237.365,-18162.09,-25171.92,-4550.085,-1043.46
1764762654.3556902,-536.265,-2382.615,-25219.26,-10236.15,-18159.435,-25168.365,-4548.465,-1042.875
1764762654.3556902,-533.6999999999999,-2379.015,-25216.065,-10231.47,-18155.385,-25164.765,-4545.63,-1039.41
1764762654.3556902,-535.4549999999999,-2380.905,-25218.18,-10233.405,-18158.355,-25168.23,-4546.935,-1041.21
1764762654.3556902,-530.145,-2374.335,-25210.755,-10226.205,-18151.74,-25163.28,-4542.21,-1036.08
1764762654.3556902,-528.525,-2372.805,-25208.82,-10224.405,-18149.175,-25162.65,-4541.13,-1034.415
1764762654.3556902,-532.53,-2377.89,-25213.545,-10229.895,-18155.97,-25168.32,-4545.405,-1038.06
1764762654.3556902,-536.49,-2381.805,-25218.63,-10236.735,-18164.16,-25175.655,-4549.005,-1041.39
1764762654.3556902,-533.25,-2379.285,-25217.37,-10234.44,-18161.505,-25170.84,-4547.295,-1038.555
1764762654.4028008,-534.105,-2380.095,-25218.945,-10236.33,-18163.215,-25170.57,-4546.44,-1039.77
1764762654.4028008,-537.525,-2383.11,-25221.87,-10240.29,-18166.5,-25173.405,-4547.655,-1042.47
1764762654.4028008,-533.0699999999999,-2378.79,-25219.17,-10237.32,-18162.45,-25168.995,-4544.865,-1039.095
1764762654.4028008,-533.2049999999999,-2379.87,-25220.205,-10237.725,-18162.81,-25167.87,-4544.415,-1040.265
1764762654.4028008,-536.9399999999999,-2383.29,-25223.085,-10241.28,-18166.005,-25170.705,-4546.08,-1043.955
1764762654.4028008,-535.905,-2381.535,-25221.24,-10238.94,-18164.295,-25172.64,-4545.179999999999,-1041.795
1764762654.4028008,-533.52,-2378.43,-25218.27,-10235.88,-18162.54,-25172.82,-4543.965,-1038.78
1764762654.4028008,-537.39,-2381.94,-25221.15,-10239.255,-18166.5,-25177.86,-4546.44,-1042.695
1764762654.4028008,-535.05,-2378.835,-25219.44,-10237.005,-18165.195,-25176.015,-4545.09,-1039.455
1764762654.4028008,-538.0649999999999,-2382.075,-25223.67,-10241.28,-18168.525,-25178.715,-4545.63,-1043.55
1764762654.4028008,-536.985,-2382.03,-25223.58,-10240.38,-18166.365,-25175.34,-4544.28,-1042.695
1764762654.4028008,-533.61,-2378.565,-25219.17,-10235.745,-18161.64,-25167.96,-4541.13,-1038.69
1764762654.4028008,-536.355,-2381.67,-25221.645,-10236.645,-18162.495,-25168.23,-4541.76,-1041.48
1764762654.4028008,-532.935,-2379.42,-25217.955,-10232.595,-18157.68,-25163.73,-4539.51,-1038.96
1764762654.4028008,-533.16,-2378.115,-25215.885,-10230.84,-18154.98,-25162.92,-4537.575,-1038.825
1764762654.4028008,-532.845,-2377.26,-25214.895,-10229.04,-18154.08,-25163.73,-4536.54,-1037.745
1764762654.4028008,-530.775,-2375.595,-25213.365,-10227.15,-18152.28,-25163.28,-4534.02,-1034.73
1764762654.4028008,-533.745,-2377.98,-25217.055,-10230.705,-18156.15,-25168.905,-4535.91,-1037.61
1764762654.4028008,-529.785,-2374.695,-25213.5,-10227.78,-18153.405,-25165.62,-4532.804999999999,-1033.92
1764762654.4028008,-529.1999999999999,-2375.235,-25214.085,-10228.59,-18154.665,-25165.395,-4532.58,-1034.82
1764762654.4028008,-528.885,-2374.2,-25213.545,-10227.555,-18154.215,-25163.595,-4531.635,-1035.36
1764762654.4028008,-527.895,-2372.67,-25212.24,-10226.43,-18153.09,-25161.795,-4530.87,-1034.415
1764762654.4028008,-529.0649999999999,-2373.345,-25212.69,-10226.97,-18153.45,-25161.705,-4530.915,-1035.225
1764762654.4028008,-534.3299999999999,-2379.015,-25218.18,-10232.28,-18157.95,-25165.755,-4533.165,-1040.085
1764762654.4497664,-535.59,-2380.815,-25219.71,-10233.675,-18158.355,-25166.52,-4532.985,-1040.175
1764762654.4497664,-532.4399999999999,-2377.575,-25215.705,-10229.085,-18153.81,-25164.135,-4530.554999999999,-1036.305
1764762654.4497664,-524.79,-2369.745,-25206.84,-10221.03,-18146.25,-25158.69,-4524.84,-1029.105
1764762654.4497664,-529.8299999999999,-2374.83,-25211.565,-10225.845,-18151.47,-25164.765,-4528.53,-1034.235
1764762654.4497664,-530.9549999999999,-2376.09,-25213.995,-10227.015,-18153.63,-25166.34,-4529.115,-1035.18
1764762654.4497664,-530.055,-2375.01,-25214.94,-10229.58,-18157.455,-25167.78,-4530.285,-1034.235
1764762654.4497664,-528.615,-2373.48,-25213.905,-10228.635,-18155.34,-25165.035,-4529.565,-1033.38
1764762654.4497664,-532.305,-2377.53,-25217.1,-10231.245,-18155.97,-25165.755,-4531.139999999999,-1037.205
1764762654.4497664,-530.28,-2376.54,-25215.66,-10229.445,-18154.125,-25162.605,-4529.16,-1036.26
1764762654.4497664,-533.52,-2379.915,-25218.945,-10231.605,-18156.87,-25164.765,-4529.429999999999,-1039.455
1764762654.4497664,-530.64,-2377.08,-25214.67,-10227.195,-18152.415,-25161.165,-4526.73,-1036.35
1764762654.4497664,-532.845,-2378.745,-25216.29,-10229.13,-18154.845,-25164.99,-4527.855,-1038.96
1764762654.4497664,-528.885,-2373.48,-25211.79,-10224.495,-18150.39,-25161.93,-4525.695,-1034.64
1764762654.4497664,-531.585,-2374.245,-25211.79,-10224.855,-18150.03,-25164.045,-4527.179999999999,-1036.89
1764762654.4497664,-531.09,-2374.425,-25213.725,-10227.105,-18152.415,-25166.475,-4527.179999999999,-1036.44
1764762654.4497664,-530.595,-2374.11,-25214.355,-10228.275,-18155.79,-25168.365,-4527.675,-1035.63
1764762654.4497664,-532.305,-2376.495,-25215.615,-10228.14,-18155.115,-25165.44,-4526.955,-1037.655
1764762654.4507706,-534.87,-2379.42,-25218.315,-10230.345,-18156.69,-25165.035,-4528.08,-1040.715
1764762654.4507706,-539.28,-2383.425,-25223.985,-10235.295,-18162.54,-25169.445,-4530.915,-1045.98
1764762654.4507706,-537.885,-2382.165,-25223.4,-10236.285,-18164.835,-25171.965,-4532.31,-1044.765
1764762654.4507706,-534.915,-2378.34,-25218.495,-10232.82,-18160.56,-25169.13,-4529.565,-1039.995
1764762654.4507706,-535.4549999999999,-2379.105,-25220.79,-10235.205,-18162.45,-25172.955,-4529.07,-1040.175
1764762654.4930532,-531.9449999999999,-2375.82,-25217.01,-10231.2,-18159.03,-25171.38,-4526.82,-1036.44
1764762654.4930532,-537.5699999999999,-2380.59,-25221.24,-10235.79,-18163.035,-25176.42,-4529.34,-1042.065
1764762654.4930532,-534.6899999999999,-2379.555,-25219.53,-10235.07,-18161.64,-25174.485,-4528.215,-1039.05
1764762654.4930532,-537.84,-2383.335,-25222.995,-10238.04,-18164.565,-25175.7,-4529.205,-1042.02
1764762654.4930532,-535.14,-2379.915,-25220.97,-10233.45,-18160.335,-25170.03,-4526.865,-1039.68
1764762654.4930532,-536.04,-2381.58,-25222.095,-10234.035,-18160.605,-25168.185,-4526.595,-1041.165
1764762654.4930532,-538.245,-2383.56,-25224.255,-10236.015,-18161.865,-25168.455,-4527.09,-1043.595
1764762654.4930532,-543.1949999999999,-2386.755,-25227.765,-10240.11,-18165.33,-25172.415,-4529.61,-1047.33
1764762654.49356,-541.665,-2384.505,-25225.29,-10237.635,-18163.215,-25171.695,-4527.675,-1044.405
1764762654.49356,-535.86,-2379.645,-25219.89,-10231.56,-18157.05,-25166.79,-4523.58,-1038.825
1764762654.49356,-534.915,-2378.97,-25218.9,-10230.57,-18156.6,-25167.825,-4522.679999999999,-1038.87
1764762654.49356,-539.415,-2383.02,-25222.365,-10233.945,-18160.38,-25172.595,-4524.885,-1043.19
1764762654.49356,-535.23,-2378.745,-25218.495,-10231.425,-18158.4,-25169.67,-4522.365,-1038.24
1764762654.49356,-533.745,-2376.09,-25216.605,-10231.605,-18159.255,-25169.985,-4522.77,-1036.575
1764762654.49356,-535.8149999999999,-2377.98,-25217.235,-10231.56,-18158.805,-25169.22,-4522.95,-1039.365
1764762654.49356,-538.29,-2381.715,-25219.845,-10233.18,-18159.075,-25167.825,-4521.285,-1042.47
1764762654.49356,-536.895,-2380.905,-25221.555,-10235.34,-18161.325,-25167.87,-4520.16,-1040.805
1764762654.49356,-535.14,-2377.755,-25218.81,-10232.37,-18157.455,-25164.405,-4518.0,-1038.42
1764762654.49356,-537.975,-2381.67,-25222.005,-10235.25,-18161.145,-25168.32,-4518.945,-1040.535
1764762654.49356,-533.97,-2377.575,-25217.37,-10232.1,-18159.975,-25168.23,-4517.639999999999,-1035.495
1764762654.49356,-532.98,-2376.54,-25216.56,-10230.93,-18159.705,-25170.345,-4516.56,-1034.955
1764762654.49356,-538.965,-2382.21,-25222.095,-10236.42,-18164.655,-25176.825,-4520.429999999999,-1041.705
1764762654.5432382,-538.47,-2382.12,-25221.78,-10235.43,-18162.945,-25175.43,-4519.71,-1042.425
1764762654.5432382,-537.7049999999999,-2381.355,-25221.735,-10234.62,-18162.18,-25173.315,-4518.45,-1041.57
1764762654.5432382,-536.76,-2381.265,-25222.005,-10234.845,-18161.415,-25170.66,-4517.19,-1040.445
1764762654.5432382,-534.735,-2379.24,-25219.845,-10232.415,-18157.815,-25165.08,-4514.895,-1037.61
1764762654.5432382,-539.415,-2384.505,-25224.345,-10236.555,-18160.785,-25167.42,-4515.974999999999,-1042.65
1764762654.5432382,-536.13,-2380.05,-25220.655,-10232.91,-18158.22,-25164.81,-4513.545,-1038.69
1764762654.5432382,-536.4,-2378.79,-25220.385,-10233.54,-18159.12,-25165.935,-4513.275,-1039.005
1764762654.5432382,-535.995,-2378.34,-25219.755,-10233.135,-18158.94,-25168.68,-4513.185,-1038.78
1764762654.5432382,-533.295,-2376.045,-25216.965,-10230.57,-18157.725,-25168.815,-4510.53,-1035.99
1764762654.5432382,-535.005,-2377.53,-25217.775,-10230.84,-18157.905,-25170.57,-4511.745,-1036.845
1764762654.5432382,-536.805,-2378.25,-25217.865,-10229.985,-18157.095,-25170.075,-4511.79,-1038.195
1764762654.5432382,-540.63,-2382.12,-25222.005,-10234.035,-18160.83,-25174.44,-4514.94,-1043.055
1764762654.5432382,-541.935,-2382.705,-25223.4,-10233.045,-18157.815,-25170.03,-4513.995,-1044.18
1764762654.5432382,-542.385,-2383.605,-25224.255,-10233.27,-18157.77,-25167.78,-4513.815,-1044.405
1764762654.5432382,-539.685,-2381.895,-25223.175,-10233.27,-18158.04,-25167.285,-4513.23,-1042.11
1764762654.5432382,-544.77,-2386.89,-25228.98,-10241.1,-18166.455,-25174.44,-4516.92,-1047.06
1764762654.5432382,-541.665,-2383.065,-25226.82,-10241.46,-18167.58,-25175.79,-4516.92,-1043.145
1764762654.5432382,-537.165,-2379.78,-25222.68,-10236.42,-18162.54,-25172.775,-4513.095,-1039.05
1764762654.5432382,-536.5799999999999,-2377.755,-25220.88,-10233.315,-18159.705,-25170.93,-4511.025,-1038.87
1764762654.5432382,-538.8299999999999,-2379.15,-25222.995,-10235.07,-18161.955,-25174.395,-4513.23,-1040.85
1764762654.5432382,-538.0649999999999,-2378.835,-25222.23,-10234.755,-18162.585,-25175.205,-4513.095,-1039.995
1764762654.5432382,-539.73,-2381.265,-25224.84,-10237.905,-18166.5,-25178.49,-4514.804999999999,-1042.83
1764762654.586481,-544.3199999999999,-2385.99,-25229.52,-10241.28,-18169.245,-25179.885,-4516.29,-1048.005
1764762654.586481,-541.845,-2384.145,-25226.415,-10238.04,-18164.25,-25172.865,-4513.86,-1046.07
1764762654.586481,-544.905,-2386.71,-25228.215,-10240.83,-18166.905,-25174.035,-4514.67,-1049.13
1764762654.586481,-541.98,-2384.775,-25225.92,-10237.68,-18164.34,-25171.2,-4512.735,-1046.79
1764762654.586481,-542.16,-2385.0,-25226.505,-10236.6,-18163.53,-25171.47,-4512.33,-1046.655
1764762654.586481,-542.2049999999999,-2384.19,-25224.39,-10235.115,-18162.72,-25171.875,-4511.385,-1045.89
1764762654.586481,-540.405,-2382.885,-25223.13,-10234.845,-18162.855,-25173.09,-4509.9,-1044.225
1764762654.586481,-543.285,-2386.26,-25226.01,-10238.535,-18167.13,-25178.76,-4512.375,-1047.69
1764762654.586481,-545.04,-2387.97,-25226.865,-10238.895,-18168.12,-25179.255,-4512.014999999999,-1048.77
1764762654.586481,-539.64,-2382.165,-25222.14,-10235.16,-18164.07,-25174.08,-4508.37,-1042.065
1764762654.586481,-541.215,-2384.865,-25225.29,-10239.435,-18167.94,-25176.87,-4509.179999999999,-1043.82
1764762654.586481,-544.77,-2389.23,-25230.6,-10243.62,-18170.955,-25178.805,-4510.349999999999,-1048.14
1764762654.586481,-541.215,-2385.99,-25227.36,-10239.39,-18165.69,-25172.685,-4507.56,-1045.305
1764762654.586481,-542.0699999999999,-2385.63,-25226.685,-10238.445,-18163.665,-25171.02,-4505.49,-1045.08
1764762654.586481,-544.4549999999999,-2388.555,-25229.295,-10240.65,-18165.42,-25173.63,-4505.895,-1047.24
1764762654.586481,-538.11,-2381.985,-25221.735,-10234.305,-18159.39,-25168.455,-4501.889999999999,-1040.355
1764762654.586481,-534.78,-2378.52,-25218.495,-10232.505,-18158.805,-25168.725,-4499.505,-1036.44
1764762654.586481,-540.36,-2383.02,-25223.355,-10238.67,-18166.5,-25177.815,-4503.78,-1041.615
1764762654.586481,-537.795,-2381.13,-25221.69,-10236.195,-18163.44,-25175.925,-4503.014999999999,-1039.86
1764762654.586481,-539.8199999999999,-2383.47,-25223.265,-10237.23,-18164.25,-25175.52,-4503.014999999999,-1043.145
1764762654.586481,-538.335,-2381.715,-25222.095,-10235.7,-18162.315,-25171.965,-4501.98,-1042.065
1764762654.586481,-544.14,-2387.88,-25227.99,-10240.02,-18166.59,-25174.845,-4504.365,-1047.015
1764762654.586481,-543.87,-2388.195,-25228.17,-10238.85,-18165.51,-25172.415,-4503.15,-1047.015
1764762654.586481,-542.43,-2386.17,-25226.415,-10238.265,-18163.755,-25169.985,-4501.485,-1046.52
1764762654.586481,-541.4399999999999,-2384.82,-25225.29,-10238.04,-18163.44,-25170.525,-4500.855,-1045.08
1764762654.586481,-535.8149999999999,-2379.465,-25219.08,-10231.29,-18156.105,-25164.81,-4495.635,-1038.42
1764762654.6335306,-536.535,-2380.23,-25218.9,-10230.93,-18155.475,-25165.71,-4495.77,-1039.095
1764762654.6335306,-538.6949999999999,-2382.255,-25222.005,-10233.495,-18159.48,-25169.85,-4497.705,-1041.705
1764762654.6335306,-542.295,-2385.855,-25226.64,-10238.94,-18165.645,-25175.34,-4499.955,-1044.99
1764762654.6335306,-541.305,-2384.82,-25225.92,-10238.22,-18165.105,-25173.675,-4498.785,-1043.415
1764762654.6335306,-539.1899999999999,-2382.3,-25224.66,-10238.445,-18164.88,-25172.28,-4498.335,-1040.715
1764762654.6335306,-544.41,-2387.97,-25230.285,-10244.88,-18170.82,-25176.69,-4501.485,-1046.385
1764762654.6335306,-543.87,-2388.465,-25231.23,-10246.365,-18173.07,-25178.58,-4501.17,-1047.15
1764762654.6335306,-543.3299999999999,-2387.43,-25230.285,-10244.205,-18170.415,-25175.79,-4500.315,-1046.205
1764762654.6335306,-540.765,-2384.145,-25227.09,-10241.28,-18167.355,-25173.225,-4498.83,-1043.595
1764762654.6335306,-542.115,-2384.505,-25226.73,-10240.47,-18167.715,-25175.655,-4497.66,-1043.505
1764762654.6335306,-538.515,-2380.41,-25222.095,-10236.06,-18162.945,-25174.08,-4494.554999999999,-1039.05
1764762654.6335306,-542.97,-2384.145,-25225.965,-10241.325,-18169.065,-25180.56,-4497.705,-1043.505
1764762654.6335306,-539.73,-2381.355,-25223.31,-10238.895,-18166.455,-25177.365,-4495.679999999999,-1040.535
1764762654.6335306,-543.465,-2385.54,-25226.595,-10242.495,-18170.19,-25180.83,-4497.21,-1044.99
1764762654.6335306,-542.835,-2385.135,-25226.37,-10240.29,-18167.58,-25176.33,-4495.545,-1044.855
1764762654.6335306,-538.0649999999999,-2381.31,-25222.77,-10235.52,-18162.45,-25169.22,-4491.405,-1040.49
1764762654.6335306,-539.865,-2383.47,-25225.065,-10239.48,-18166.23,-25171.74,-4492.845,-1043.73
1764762654.6335306,-537.39,-2381.445,-25222.77,-10236.78,-18163.62,-25169.715,-4491.27,-1040.805
1764762654.6335306,-538.6949999999999,-2381.49,-25222.815,-10235.925,-18163.08,-25170.57,-4490.73,-1041.615
1764762654.6335306,-540.09,-2382.21,-25222.77,-10234.845,-18162.18,-25171.335,-4489.47,-1042.02
1764762654.6335306,-533.0699999999999,-2375.865,-25217.19,-10229.49,-18157.275,-25166.79,-4483.935,-1035.54
1764762654.6335306,-534.555,-2376.63,-25218.495,-10231.155,-18159.48,-25169.22,-4484.97,-1036.665
1764762654.6804411,-536.85,-2378.565,-25221.555,-10233.99,-18162.54,-25172.505,-4486.679999999999,-1039.005
1764762654.6804411,-542.745,-2383.965,-25226.28,-10239.255,-18166.32,-25176.105,-4489.065,-1044.63
1764762654.6804411,-541.98,-2383.965,-25225.695,-10238.625,-18164.52,-25173.36,-4487.22,-1043.64
1764762654.6809604,-538.74,-2380.905,-25223.265,-10236.105,-18162.225,-25169.76,-4486.139999999999,-1041.57
1764762654.6809604,-540.585,-2381.85,-25224.03,-10235.205,-18160.695,-25168.095,-4485.285,-1043.145
1764762654.6809604,-543.555,-2383.155,-25224.3,-10235.97,-18160.695,-25168.095,-4485.15,-1044.54
1764762654.6809604,-545.535,-2385.99,-25227.09,-10237.905,-18163.08,-25171.74,-4486.905,-1047.42
1764762654.6809604,-539.73,-2380.5,-25222.14,-10232.46,-18159.21,-25169.13,-4483.304999999999,-1041.615
1764762654.6809604,-538.515,-2378.7,-25221.555,-10233.45,-18161.505,-25172.46,-4483.44,-1040.265
1764762654.6809604,-545.535,-2385.675,-25228.755,-10241.685,-18169.605,-25181.37,-4489.065,-1046.79
1764762654.6809604,-544.545,-2384.64,-25227.495,-10239.48,-18167.715,-25179.66,-4487.085,-1045.53
1764762654.6809604,-539.415,-2379.78,-25220.97,-10232.685,-18160.695,-25172.28,-4482.99,-1039.86
1764762654.6809604,-539.145,-2379.51,-25219.665,-10231.02,-18158.04,-25168.725,-4481.37,-1038.915
1764762654.6809604,-540.495,-2380.68,-25221.15,-10230.75,-18156.78,-25165.755,-4479.48,-1040.58
1764762654.6809604,-542.79,-2383.605,-25224.255,-10233.945,-18159.345,-25166.43,-4479.57,-1043.505
1764762654.6809604,-540.54,-2381.535,-25223.49,-10233.54,-18158.625,-25164.945,-4478.715,-1041.615
1764762654.6809604,-543.735,-2385.135,-25226.73,-10237.77,-18161.82,-25169.67,-4480.92,-1045.575
1764762654.6809604,-542.5649999999999,-2383.47,-25223.85,-10234.98,-18159.435,-25168.77,-4478.895,-1044.99
1764762654.6809604,-538.65,-2379.15,-25219.35,-10230.255,-18155.295,-25165.575,-4476.24,-1040.04
1764762654.6809604,-539.1,-2379.645,-25220.79,-10231.92,-18159.075,-25169.58,-4478.175,-1039.68
1764762654.6809604,-537.93,-2378.79,-25222.005,-10235.34,-18165.42,-25175.79,-4480.065,-1039.545
1764762654.6809604,-538.47,-2379.195,-25223.22,-10235.88,-18166.365,-25177.455,-4480.56,-1041.075
1764762654.6809604,-542.295,-2383.56,-25226.82,-10237.77,-18167.04,-25176.465,-4481.325,-1045.305
1764762654.6809604,-546.3,-2387.385,-25230.69,-10240.605,-18167.445,-25174.71,-4482.224999999999,-1048.365
1764762654.7264097,-547.92,-2388.825,-25232.13,-10242.09,-18167.49,-25173.765,-4481.91,-1050.165
1764762654.7264097,-544.8149999999999,-2386.485,-25229.07,-10239.57,-18164.88,-25170.93,-4479.57,-1048.23
1764762654.7264097,-543.555,-2384.325,-25227.63,-10237.995,-18163.575,-25170.615,-4479.255,-1046.34
1764762654.7264097,-537.525,-2378.16,-25221.06,-10230.525,-18157.68,-25165.935,-4475.88,-1039.32
1764762654.7264097,-536.175,-2375.82,-25218.945,-10228.59,-18157.365,-25167.42,-4474.08,-1037.565
1764762654.7264097,-538.11,-2378.745,-25222.14,-10233.36,-18162.765,-25174.08,-4476.554999999999,-1040.49
1764762654.7264097,-541.755,-2383.2,-25225.11,-10236.06,-18165.195,-25176.465,-4478.264999999999,-1043.91
1764762654.7264097,-540.765,-2381.94,-25222.905,-10233.045,-18160.695,-25170.84,-4476.105,-1042.11
1764762654.7264097,-540.585,-2381.805,-25222.995,-10233.135,-18161.055,-25169.22,-4475.34,-1042.47
1764762654.7264097,-542.16,-2383.155,-25224.57,-10234.395,-18161.19,-25168.185,-4475.79,-1043.865
1764762654.7264097,-543.915,-2384.64,-25226.01,-10234.845,-18160.965,-25167.195,-4475.925,-1045.62
1764762654.7264097,-545.67,-2386.17,-25228.62,-10237.095,-18164.205,-25169.04,-4475.565,-1046.88
1764762654.7264097,-540.54,-2381.58,-25224.345,-10234.08,-18161.055,-25167.69,-4472.865,-1041.615
1764762654.7264097,-539.505,-2380.68,-25223.895,-10234.44,-18162.675,-25170.525,-4473.63,-1040.4
1764762654.7264097,-538.8299999999999,-2379.825,-25222.275,-10232.91,-18163.26,-25172.73,-4473.27,-1039.815
1764762654.7264097,-542.79,-2383.695,-25224.93,-10236.33,-18166.59,-25178.13,-4476.554999999999,-1044.18
1764762654.7264097,-545.49,-2387.025,-25227.855,-10239.84,-18168.66,-25180.02,-4476.645,-1047.33
1764762654.7264097,-541.62,-2383.38,-25223.715,-10234.44,-18162.315,-25172.325,-4472.19,-1042.605
1764762654.7264097,-542.52,-2383.695,-25225.155,-10234.575,-18163.125,-25170.48,-4471.245,-1043.505
1764762654.7264097,-545.985,-2386.8,-25229.97,-10239.885,-18168.12,-25174.62,-4472.865,-1047.6
1764762654.7264097,-544.095,-2385.405,-25229.25,-10238.265,-18165.915,-25171.38,-4470.795,-1045.485
1764762654.7264097,-539.8199999999999,-2380.815,-25224.03,-10232.685,-18160.56,-25165.98,-4466.295,-1040.31
1764762654.7264097,-544.3199999999999,-2383.65,-25226.73,-10235.565,-18163.08,-25169.625,-4468.545,-1044.855
1764762654.7264097,-539.055,-2378.34,-25221.69,-10231.74,-18160.38,-25169.445,-4466.295,-1039.77
1764762654.773406,-538.155,-2376.225,-25219.845,-10230.12,-18160.695,-25171.245,-4466.52,-1039.545
1764762654.773406,-541.17,-2379.645,-25222.14,-10231.83,-18162.045,-25172.685,-4467.599999999999,-1043.235
1764762654.773406,-545.715,-2385.99,-25227.945,-10237.14,-18166.41,-25176.69,-4469.445,-1046.655
1764762654.773406,-546.345,-2387.115,-25229.88,-10239.165,-18167.31,-25176.78,-4469.31,-1047.375
1764762654.773406,-547.11,-2387.295,-25229.565,-10239.48,-18167.355,-25175.205,-4469.58,-1048.185
1764762654.773406,-546.435,-2385.54,-25228.035,-10238.04,-18166.005,-25174.08,-4469.31,-1047.015
1764762654.773406,-548.3249999999999,-2387.7,-25231.455,-10240.515,-18167.58,-25174.44,-4469.849999999999,-1049.13
1764762654.773406,-546.255,-2386.305,-25231.32,-10239.255,-18166.455,-25172.19,-4467.42,-1047.6
1764762654.773406,-541.395,-2380.905,-25225.47,-10233.495,-18160.875,-25167.42,-4463.955,-1042.245
1764762654.773406,-539.46,-2378.97,-25221.915,-10230.615,-18157.77,-25165.98,-4462.02,-1039.905
1764762654.773406,-539.64,-2378.565,-25222.005,-10230.3,-18159.12,-25169.13,-4461.435,-1040.175
1764762654.773406,-545.715,-2384.64,-25227.54,-10235.43,-18165.105,-25175.97,-4465.215,-1045.53
1764762654.7739265,-544.86,-2383.785,-25226.46,-10234.08,-18163.755,-25174.575,-4464.63,-1044.9
1764762654.7739265,-540.54,-2379.105,-25222.185,-10228.59,-18157.32,-25167.87,-4460.445,-1041.435
1764762654.7739265,-542.295,-2380.455,-25223.04,-10229.58,-18157.86,-25166.79,-4459.77,-1043.145
1764762654.7739265,-546.21,-2385.225,-25228.89,-10236.24,-18165.15,-25171.92,-4462.83,-1048.095
1764762654.7739265,-547.29,-2386.44,-25230.87,-10239.03,-18168.435,-25174.44,-4464.585,-1049.13
1764762654.7739265,-546.615,-2386.395,-25229.88,-10239.39,-18168.255,-25174.62,-4464.63,-1049.13
1764762654.7739265,-542.475,-2381.94,-25224.165,-10234.755,-18162.54,-25169.85,-4461.57,-1044.045
1764762654.7739265,-542.0699999999999,-2381.265,-25222.005,-10231.965,-18160.155,-25168.365,-4459.545,-1041.48
1764762654.8203905,-540.225,-2380.32,-25221.96,-10231.38,-18160.29,-25170.165,-4459.23,-1040.67
1764762654.8203905,-542.0699999999999,-2382.39,-25225.02,-10234.575,-18163.8,-25174.305,-4462.425,-1043.37
1764762654.8203905,-542.745,-2382.705,-25225.425,-10235.565,-18164.25,-25174.215,-4462.2,-1043.37
1764762654.8203905,-542.745,-2381.85,-25224.12,-10233.9,-18162.18,-25171.74,-4460.04,-1043.415
1764762654.8203905,-543.6899999999999,-2382.705,-25225.38,-10234.305,-18162.765,-25171.65,-4459.995,-1044.855
1764762654.8203905,-550.125,-2389.41,-25232.31,-10239.57,-18166.68,-25173.855,-4460.715,-1050.525
1764762654.8203905,-551.025,-2391.12,-25234.155,-10240.965,-18165.015,-25171.38,-4459.995,-1051.02
1764762654.8203905,-548.685,-2388.15,-25230.465,-10235.835,-18160.245,-25166.385,-4456.8,-1048.41
1764762654.8203905,-543.915,-2382.84,-25224.885,-10230.93,-18156.015,-25162.965,-4454.55,-1043.19
1764762654.8203905,-541.5749999999999,-2379.105,-25221.465,-10229.805,-18158.22,-25167.735,-4454.91,-1040.625
1764762654.8203905,-537.255,-2375.775,-25217.955,-10226.025,-18156.51,-25167.195,-4451.58,-1037.52
1764762654.8203905,-541.53,-2380.86,-25223.715,-10233.0,-18164.205,-25174.755,-4455.495,-1040.94
1764762654.8203905,-539.1,-2379.375,-25222.68,-10231.515,-18161.415,-25173.045,-4454.639999999999,-1037.745
1764762654.8203905,-538.47,-2378.115,-25222.635,-10231.65,-18160.245,-25171.965,-4452.795,-1037.025
1764762654.8203905,-542.835,-2382.12,-25226.325,-10235.115,-18164.115,-25173.27,-4453.875,-1042.38
1764762654.8203905,-541.485,-2380.995,-25224.795,-10232.055,-18161.055,-25168.365,-4452.525,-1041.975
1764762654.8203905,-536.9399999999999,-2376.315,-25219.755,-10226.52,-18154.035,-25160.895,-4447.304999999999,-1036.755
1764762654.8203905,-542.79,-2382.93,-25225.83,-10233.315,-18159.885,-25166.52,-4449.285,-1042.785
1764762654.8203905,-544.185,-2384.64,-25227.18,-10235.115,-18161.595,-25169.625,-4450.679999999999,-1043.64
1764762654.8203905,-540.9449999999999,-2380.545,-25223.13,-10231.29,-18158.49,-25168.635,-4447.71,-1040.13
1764762654.8203905,-535.275,-2374.92,-25217.64,-10226.745,-18155.295,-25167.33,-4445.325,-1034.64
1764762654.8203905,-537.165,-2376.99,-25219.62,-10228.995,-18158.58,-25171.245,-4446.405,-1035.63
1764762654.8203905,-536.5799999999999,-2376.405,-25218.855,-10226.79,-18155.16,-25167.24,-4443.615,-1034.865
1764762654.8203905,-539.9549999999999,-2380.23,-25222.635,-10230.48,-18158.58,-25169.265,-4445.505,-1039.005
1764762654.8203905,-544.545,-2383.92,-25227.81,-10235.25,-18163.575,-25172.64,-4447.575,-1043.19
1764762654.8203905,-543.105,-2382.39,-25226.64,-10233.315,-18161.415,-25168.995,-4445.639999999999,-1042.515
1764762654.8203905,-541.305,-2380.545,-25225.155,-10231.515,-18159.165,-25165.845,-4444.2,-1040.58
1764762654.8203905,-545.5799999999999,-2384.64,-25229.385,-10235.115,-18161.595,-25168.275,-4446.09,-1044.45
1764762654.8671024,-542.52,-2382.03,-25226.28,-10232.595,-18158.445,-25166.205,-4444.695,-1041.03
1764762654.8671024,-539.3249999999999,-2380.41,-25223.265,-10230.255,-18157.32,-25166.115,-4443.255,-1038.33
1764762654.8671024,-537.7049999999999,-2378.97,-25220.97,-10228.455,-18156.33,-25166.34,-4441.455,-1036.62
1764762654.8671024,-540.18,-2381.265,-25222.635,-10230.255,-18158.58,-25168.995,-4442.49,-1038.645
1764762654.8671024,-539.505,-2380.185,-25222.23,-10229.715,-18157.68,-25168.455,-4441.59,-1038.105
1764762654.8671024,-541.98,-2382.255,-25225.425,-10233.09,-18160.74,-25171.02,-4442.22,-1041.345
1764762654.8671024,-543.15,-2381.985,-25225.245,-10232.01,-18159.93,-25168.77,-4441.59,-1042.38
1764762654.8671024,-542.2049999999999,-2381.49,-25224.84,-10231.38,-18158.22,-25166.295,-4440.465,-1042.11
1764762654.8671024,-537.885,-2378.34,-25222.32,-10229.04,-18157.14,-25164.0,-4439.655,-1038.915
1764762654.8671024,-538.56,-2378.925,-25221.915,-10228.365,-18155.34,-25162.695,-4437.81,-1039.23
1764762654.8671024,-541.4399999999999,-2382.165,-25225.875,-10232.64,-18159.03,-25166.835,-4438.44,-1042.47
1764762654.8671024,-537.435,-2377.8,-25221.375,-10228.725,-18156.105,-25164.855,-4437.315,-1037.925
1764762654.8671024,-538.38,-2377.845,-25220.925,-10228.86,-18156.825,-25167.375,-4437.855,-1037.88
1764762654.8671024,-543.42,-2382.66,-25224.705,-10232.865,-18161.28,-25172.235,-4441.32,-1042.245
1764762654.8671024,-540.765,-2379.555,-25222.365,-10229.22,-18158.13,-25169.22,-4439.16,-1039.005
1764762654.8671024,-543.465,-2382.57,-25226.64,-10233.18,-18162.495,-25172.325,-4439.655,-1042.335
1764762654.8671024,-542.97,-2382.21,-25226.865,-10233.945,-18163.665,-25171.83,-4439.07,-1042.29
1764762654.8671024,-541.395,-2380.05,-25223.22,-10230.21,-18159.93,-25166.475,-4435.514999999999,-1041.12
1764762654.8671024,-538.47,-2376.765,-25219.89,-10226.565,-18155.79,-25161.525,-4433.49,-1038.285
1764762654.8671024,-538.74,-2377.89,-25221.465,-10228.59,-18157.23,-25163.595,-4434.345,-1039.365
1764762654.9138944,-544.86,-2384.325,-25228.215,-10235.295,-18164.205,-25170.255,-4438.53,-1044.63
1764762654.9138944,-543.555,-2383.515,-25227.135,-10234.305,-18162.54,-25168.725,-4437.224999999999,-1042.515
1764762654.9138944,-535.77,-2375.415,-25218.495,-10225.89,-18154.485,-25162.425,-4431.105,-1034.505
1764762654.9138944,-540.27,-2379.555,-25222.185,-10229.535,-18158.22,-25168.59,-4433.67,-1037.97
1764762654.9138944,-541.845,-2381.355,-25224.03,-10231.515,-18159.93,-25170.93,-4435.38,-1040.445
1764762654.9138944,-539.685,-2378.79,-25222.41,-10230.57,-18159.03,-25168.5,-4434.12,-1039.005
1764762654.9138944,-543.375,-2382.84,-25226.73,-10234.44,-18162.54,-25170.975,-4435.245,-1043.46
1764762654.9138944,-543.42,-2382.84,-25226.865,-10234.26,-18161.01,-25167.96,-4433.49,-1043.505
1764762654.9138944,-541.395,-2380.5,-25225.605,-10231.2,-18157.14,-25163.145,-4431.014999999999,-1041.12
1764762654.9138944,-543.42,-2382.12,-25226.01,-10230.345,-18156.195,-25162.695,-4430.205,-1042.47
1764762654.9138944,-539.64,-2378.475,-25220.925,-10224.405,-18150.93,-25158.375,-4426.514999999999,-1038.915
1764762654.9138944,-536.625,-2375.415,-25216.92,-10220.895,-18148.635,-25157.34,-4424.175,-1035.675
1764762654.9138944,-534.87,-2374.11,-25216.425,-10221.705,-18150.345,-25160.31,-4423.05,-1034.955
1764762654.9138944,-540.9,-2380.545,-25224.345,-10231.11,-18160.29,-25171.02,-4429.485,-1040.67
1764762654.9138944,-541.5749999999999,-2380.455,-25224.57,-10230.795,-18161.145,-25171.29,-4430.205,-1040.67
1764762654.9138944,-540.09,-2378.97,-25222.14,-10227.465,-18156.42,-25164.675,-4428.09,-1038.465
1764762654.9138944,-542.43,-2381.85,-25225.47,-10230.66,-18158.04,-25165.395,-4428.945,-1040.67
1764762654.9138944,-547.29,-2386.755,-25230.375,-10235.25,-18162.495,-25169.265,-4431.51,-1045.935
1764762654.9138944,-544.365,-2384.865,-25228.98,-10233.945,-18161.19,-25166.88,-4429.71,-1043.1
1764762654.9138944,-546.885,-2386.485,-25232.445,-10239.435,-18167.85,-25174.215,-4432.59,-1045.035
1764762654.9138944,-545.085,-2384.415,-25230.465,-10238.31,-18168.03,-25174.485,-4432.679999999999,-1042.74
1764762654.9138944,-546.21,-2385.675,-25229.88,-10236.69,-18167.04,-25174.98,-4431.599999999999,-1044.18
1764762654.9605846,-541.125,-2380.455,-25224.39,-10230.3,-18159.75,-25169.31,-4427.505,-1039.095
1764762654.9605846,-542.835,-2382.75,-25226.415,-10232.37,-18161.37,-25171.02,-4428.09,-1040.535
1764762654.9605846,-546.66,-2387.385,-25230.735,-10236.24,-18165.87,-25175.565,-4430.429999999999,-1044.81
1764762654.9605846,-544.86,-2385.27,-25229.43,-10235.7,-18165.375,-25174.125,-4428.72,-1042.74
1764762654.9605846,-540.405,-2380.995,-25224.255,-10229.895,-18158.4,-25165.17,-4423.545,-1038.06
1764762654.9605846,-540.675,-2380.815,-25223.58,-10227.78,-18155.79,-25161.525,-4421.925,-1038.78
1764762654.9605846,-540.135,-2380.77,-25223.895,-10228.815,-18158.31,-25163.1,-4422.51,-1039.23
1764762654.9605846,-539.505,-2380.05,-25223.76,-10229.265,-18159.12,-25163.595,-4421.97,-1038.735
1764762654.9605846,-541.845,-2381.31,-25224.84,-10229.67,-18159.39,-25164.315,-4421.7,-1040.715
1764762654.9605846,-542.5649999999999,-2382.705,-25226.64,-10230.705,-18160.74,-25167.285,-4420.845,-1041.3
1764762654.9605846,-539.415,-2379.87,-25223.985,-10229.895,-18160.515,-25168.23,-4420.889999999999,-1038.24
1764762654.9605846,-541.395,-2380.95,-25224.075,-10229.625,-18160.785,-25169.94,-4421.474999999999,-1039.815
1764762654.9605846,-539.685,-2379.69,-25221.24,-10226.79,-18158.58,-25167.87,-4418.055,-1037.97
1764762654.9605846,-547.11,-2386.89,-25229.925,-10235.88,-18167.4,-25175.79,-4424.04,-1045.8
1764762654.9605846,-545.76,-2384.505,-25229.43,-10234.53,-18165.87,-25173.0,-4423.995,-1044.495
1764762654.9605846,-544.59,-2383.155,-25227.945,-10232.505,-18161.865,-25168.455,-4420.845,-1043.64
1764762654.9605846,-547.8299999999999,-2386.17,-25230.6,-10234.665,-18162.945,-25168.59,-4421.115,-1047.24
1764762654.9605846,-545.04,-2384.28,-25227.45,-10232.145,-18159.345,-25164.99,-4419.405,-1044.135
1764762654.9605846,-546.795,-2385.945,-25229.745,-10235.61,-18163.575,-25170.525,-4422.105,-1046.07
1764762654.9605846,-547.245,-2386.125,-25230.24,-10236.33,-18166.14,-25175.205,-4422.465,-1046.25
1764762654.9605846,-544.905,-2383.83,-25227.18,-10233.405,-18164.88,-25175.07,-4420.98,-1042.83
1764762654.9605846,-547.605,-2386.125,-25229.565,-10236.105,-18166.005,-25176.33,-4422.33,-1044.63
1764762654.9605846,-547.47,-2386.755,-25231.545,-10237.905,-18168.03,-25177.68,-4422.375,-1045.935
1764762654.9605846,-551.0699999999999,-2390.4,-25235.145,-10242.18,-18172.8,-25181.775,-4424.715,-1049.4
1764762654.9605846,-557.775,-2397.33,-25242.975,-10250.28,-18181.215,-25187.31,-4429.98,-1056.105
1764762654.9605846,-552.915,-2393.37,-25239.33,-10246.32,-18176.895,-25181.865,-4426.92,-1053.045
1764762655.0071297,-553.86,-2394.54,-25240.05,-10246.995,-18176.94,-25181.415,-4426.155,-1054.89
1764762655.0071297,-553.4549999999999,-2393.145,-25238.025,-10242.945,-18172.53,-25177.14,-4423.77,-1053.045
1764762655.0071297,-550.17,-2388.87,-25232.58,-10237.095,-18166.455,-25172.595,-4420.575,-1049.67
1764762655.0071297,-552.105,-2390.85,-25233.12,-10237.815,-18166.23,-25175.07,-4420.845,-1051.92
1764762655.008235,-547.1999999999999,-2386.125,-25228.035,-10234.665,-18165.105,-25175.115,-4418.595,-1046.7
1764762655.008235,-549.18,-2386.98,-25229.97,-10236.915,-18168.48,-25180.2,-4421.16,-1047.69
1764762655.008235,-549.63,-2386.89,-25230.915,-10237.005,-18168.48,-25180.74,-4420.889999999999,-1047.915
1764762655.008235,-551.115,-2389.14,-25233.165,-10237.86,-18170.145,-25180.92,-4421.07,-1049.4
1764762655.008235,-554.49,-2392.38,-25237.485,-10241.685,-18173.025,-25181.46,-4421.34,-1053.18
1764762655.008235,-549.135,-2388.06,-25232.445,-10236.24,-18165.465,-25171.695,-4415.535,-1047.735
1764762655.008622,-549.63,-2389.32,-25232.895,-10235.385,-18162.855,-25168.545,-4413.69,-1047.555
1764762655.008622,-553.4549999999999,-2393.19,-25238.385,-10242.45,-18171.09,-25176.645,-4416.84,-1052.145
1764762655.008622,-553.365,-2392.155,-25237.125,-10241.775,-18171.45,-25178.625,-4418.099999999999,-1051.83
1764762655.008622,-550.53,-2388.825,-25233.525,-10238.49,-18169.47,-25179.075,-4417.065,-1048.635
1764762655.008622,-545.22,-2383.965,-25228.89,-10233.54,-18164.835,-25175.7,-4414.05,-1043.955
1764762655.008622,-549.495,-2387.565,-25232.04,-10236.24,-18167.355,-25178.94,-4415.535,-1048.05
1764762655.008622,-549.27,-2387.655,-25232.355,-10237.005,-18166.365,-25178.355,-4415.355,-1047.78
1764762655.008622,-543.8249999999999,-2383.74,-25228.62,-10232.685,-18163.125,-25173.54,-4412.025,-1042.38
1764762655.008622,-544.185,-2384.82,-25229.475,-10232.28,-18162.9,-25170.705,-4410.72,-1042.47
1764762655.008622,-544.77,-2384.775,-25230.06,-10232.37,-18162.27,-25168.32,-4409.639999999999,-1042.83
1764762655.008622,-545.265,-2383.155,-25230.375,-10232.46,-18162.495,-25167.06,-4409.145,-1042.965
1764762655.008622,-545.13,-2382.84,-25229.97,-10232.505,-18162.54,-25167.78,-4408.155,-1043.055
1764762655.052036,-548.415,-2386.845,-25232.625,-10235.79,-18166.545,-25173.36,-4410.18,-1045.89
1764762655.0525532,-544.8149999999999,-2383.065,-25228.755,-10231.515,-18162.9,-25170.93,-4407.93,-1042.245
1764762655.0525532,-537.795,-2376.18,-25222.365,-10224.9,-18156.42,-25165.62,-4403.52,-1034.955
1764762655.0525532,-541.89,-2380.365,-25226.1,-10229.13,-18160.74,-25170.48,-4404.69,-1038.87
1764762655.0525532,-541.71,-2380.59,-25226.37,-10228.905,-18160.155,-25170.21,-4403.79,-1037.97
1764762655.0525532,-538.29,-2377.53,-25222.815,-10225.26,-18156.105,-25165.98,-4401.72,-1035.045
1764762655.0525532,-540.09,-2379.33,-25224.525,-10226.655,-18157.23,-25165.305,-4402.53,-1037.565
1764762655.0525532,-545.9399999999999,-2384.91,-25229.07,-10231.02,-18160.83,-25167.96,-4404.465,-1042.605
1764762655.0525532,-548.1899999999999,-2387.295,-25231.455,-10232.685,-18161.82,-25168.59,-4406.31,-1045.215
1764762655.0525532,-547.92,-2387.25,-25230.6,-10232.19,-18161.055,-25167.825,-4404.87,-1044.45
1764762655.0525532,-546.255,-2385.36,-25229.88,-10231.515,-18160.38,-25167.69,-4403.97,-1042.335
1764762655.0525532,-539.91,-2379.6,-25223.13,-10224.945,-18154.44,-25163.145,-4400.235,-1036.395
1764762655.0525532,-538.29,-2378.43,-25221.42,-10223.865,-18154.215,-25164.405,-4397.67,-1034.595
1764762655.0525532,-541.89,-2381.715,-25225.245,-10228.14,-18159.75,-25170.84,-4399.965,-1038.915
1764762655.0525532,-543.555,-2383.515,-25225.83,-10229.445,-18160.47,-25171.02,-4400.73,-1040.265
1764762655.0525532,-543.42,-2382.705,-25224.75,-10228.095,-18158.445,-25168.095,-4399.155,-1039.815
1764762655.0525532,-543.105,-2382.39,-25224.75,-10227.555,-18157.32,-25166.565,-4398.57,-1039.905
1764762655.0525532,-543.24,-2383.155,-25226.415,-10228.545,-18159.345,-25167.24,-4399.425,-1040.445
1764762655.0525532,-545.265,-2384.775,-25228.62,-10228.68,-18160.38,-25167.15,-4400.099999999999,-1043.055
1764762655.0525532,-546.165,-2385.495,-25228.755,-10228.23,-18158.085,-25164.945,-4398.48,-1043.64
1764762655.0525532,-544.3199999999999,-2383.83,-25226.01,-10226.43,-18155.295,-25162.38,-4396.095,-1041.255
1764762655.0525532,-539.235,-2378.97,-25221.645,-10222.155,-18151.335,-25159.455,-4393.08,-1035.315
1764762655.0525532,-537.795,-2378.565,-25222.77,-10225.485,-18156.555,-25165.215,-4393.17,-1032.705
1764762655.0525532,-542.88,-2383.65,-25228.395,-10231.695,-18165.24,-25175.475,-4399.2,-1039.095
1764762655.0996726,-544.005,-2383.38,-25226.235,-10230.165,-18163.62,-25173.45,-4399.155,-1039.905
1764762655.1001842,-543.645,-2384.01,-25225.38,-10228.905,-18161.01,-25170.435,-4397.13,-1040.13
1764762655.1001842,-543.78,-2383.74,-25225.65,-10226.745,-18157.32,-25167.195,-4395.78,-1040.31
1764762655.1001842,-541.215,-2380.905,-25221.69,-10221.21,-18151.29,-25160.445,-4392.945,-1036.98
1764762655.1007128,-542.745,-2383.11,-25224.57,-10223.46,-18151.695,-25158.96,-4392.045,-1038.6
1764762655.1007128,-545.4449999999999,-2387.07,-25229.115,-10228.77,-18156.465,-25162.11,-4393.665,-1041.975
1764762655.1007128,-548.64,-2390.49,-25232.31,-10233.18,-18162.09,-25168.005,-4396.995,-1045.44
1764762655.1007128,-547.92,-2389.68,-25231.32,-10235.025,-18164.88,-25172.82,-4396.5,-1044.63
1764762655.1007128,-541.215,-2382.795,-25226.82,-10230.75,-18161.01,-25170.885,-4393.17,-1036.98
1764762655.1007128,-541.665,-2383.11,-25227.09,-10230.21,-18160.92,-25171.335,-4393.62,-1037.475
1764762655.1007128,-543.1949999999999,-2383.65,-25227.81,-10230.75,-18160.245,-25171.02,-4392.855,-1039.005
1764762655.1007128,-547.1999999999999,-2388.15,-25231.95,-10235.25,-18164.79,-25175.25,-4395.555,-1043.145
1764762655.1007128,-550.17,-2390.625,-25236.045,-10240.02,-18170.28,-25179.255,-4398.93,-1046.7
1764762655.1007128,-549.045,-2390.265,-25235.505,-10239.12,-18169.965,-25176.555,-4397.445,-1046.925
1764762655.1007128,-545.9399999999999,-2387.52,-25232.535,-10235.385,-18165.105,-25170.84,-4393.889999999999,-1044.405
1764762655.1007128,-549.765,-2391.03,-25236.63,-10238.04,-18167.175,-25173.405,-4394.295,-1048.095
1764762655.101737,-550.395,-2391.39,-25237.215,-10238.22,-18167.085,-25175.07,-4394.745,-1047.96
1764762655.101737,-548.9549999999999,-2389.23,-25234.245,-10235.295,-18164.88,-25174.575,-4393.845,-1046.025
1764762655.101737,-546.615,-2386.98,-25230.42,-10231.605,-18160.605,-25171.74,-4391.145,-1043.325
1764762655.101737,-551.5649999999999,-2392.29,-25235.055,-10235.565,-18165.105,-25176.87,-4394.115,-1048.095
1764762655.101737,-550.395,-2390.67,-25234.695,-10235.43,-18166.05,-25177.14,-4393.08,-1047.78
1764762655.101737,-547.245,-2387.025,-25232.805,-10235.34,-18166.77,-25177.635,-4393.26,-1044.63
1764762655.101737,-546.12,-2386.89,-25232.22,-10234.215,-18164.655,-25174.53,-4392.764999999999,-1043.28
1764762655.101737,-548.055,-2388.555,-25233.795,-10236.105,-18166.32,-25174.71,-4392.315,-1045.08
1764762655.1446464,-549.27,-2388.915,-25235.145,-10237.05,-18168.03,-25175.52,-4393.485,-1046.79
1764762655.1446464,-549.3149999999999,-2389.725,-25235.505,-10236.87,-18167.49,-25173.855,-4392.585,-1046.115
1764762655.14519,-550.665,-2390.715,-25237.305,-10238.445,-18168.84,-25176.24,-4392.945,-1046.7
1764762655.14519,-551.025,-2391.165,-25238.205,-10240.605,-18171.99,-25181.145,-4393.665,-1047.96
1764762655.14519,-547.74,-2386.665,-25233.84,-10237.05,-18168.84,-25179.12,-4392.45,-1043.955
1764762655.14519,-550.17,-2389.005,-25234.47,-10237.905,-18169.245,-25181.73,-4393.845,-1045.08
1764762655.14519,-553.23,-2392.92,-25237.53,-10240.29,-18172.395,-25184.565,-4394.655,-1047.96
1764762655.14519,-550.53,-2390.76,-25233.66,-10236.645,-18168.795,-25179.03,-4392.99,-1046.52
1764762655.14519,-550.89,-2390.58,-25233.795,-10236.465,-18167.175,-25176.465,-4392.18,-1046.61
1764762655.14519,-554.13,-2393.64,-25237.665,-10239.39,-18169.155,-25177.095,-4394.43,-1049.67
1764762655.14519,-554.4449999999999,-2394.495,-25238.565,-10239.435,-18168.84,-25175.565,-4393.98,-1050.57
1764762655.14519,-554.5799999999999,-2393.415,-25238.295,-10237.995,-18167.94,-25175.16,-4393.395,-1050.705
1764762655.14519,-553.995,-2392.92,-25238.34,-10237.905,-18168.12,-25176.825,-4393.98,-1050.93
1764762655.14519,-557.73,-2397.375,-25242.03,-10242.855,-18173.79,-25183.755,-4396.5,-1053.765
1764762655.14519,-554.625,-2394.765,-25239.375,-10240.245,-18172.305,-25182.315,-4393.62,-1049.535
1764762655.14519,-558.855,-2398.59,-25242.705,-10244.655,-18176.94,-25188.75,-4396.815,-1054.035
1764762655.14519,-557.9549999999999,-2397.555,-25240.725,-10243.125,-18174.69,-25186.635,-4396.185,-1053.675
1764762655.14519,-557.145,-2396.25,-25240.095,-10241.91,-18172.44,-25183.98,-4394.52,-1052.46
1764762655.14519,-555.525,-2394.72,-25239.015,-10239.93,-18170.19,-25178.49,-4391.235,-1050.345
1764762655.14519,-552.555,-2392.605,-25236.81,-10237.77,-18167.895,-25173.45,-4388.22,-1048.455
1764762655.1927893,-557.145,-2396.655,-25241.715,-10242.315,-18172.44,-25178.22,-4390.74,-1053.405
1764762655.1927893,-557.055,-2396.79,-25241.13,-10242.495,-18173.43,-25178.445,-4389.93,-1053.225
1764762655.1927893,-555.93,-2395.755,-25240.365,-10241.595,-18171.945,-25178.715,-4388.985,-1051.875
1764762655.1927893,-554.9399999999999,-2394.765,-25237.935,-10238.94,-18169.02,-25178.76,-4388.67,-1050.66
1764762655.1927893,-548.145,-2387.34,-25230.555,-10231.245,-18161.37,-25173.18,-4384.44,-1043.325
1764762655.1927893,-549.045,-2389.05,-25231.32,-10231.38,-18161.775,-25174.395,-4385.25,-1045.26
1764762655.1927893,-553.3199999999999,-2393.64,-25235.46,-10235.295,-18166.095,-25178.805,-4387.68,-1049.265
1764762655.1927893,-551.025,-2390.445,-25233.165,-10233.585,-18165.555,-25177.14,-4386.465,-1047.015
1764762655.1927893,-553.545,-2393.37,-25235.28,-10233.315,-18163.35,-25173.495,-4384.71,-1050.165
1764762655.1927893,-555.12,-2395.35,-25238.295,-10236.78,-18165.96,-25173.54,-4384.17,-1051.29
1764762655.1927893,-554.535,-2396.025,-25240.05,-10239.48,-18168.795,-25175.115,-4384.665,-1050.57
1764762655.1927893,-550.665,-2392.2,-25236.945,-10238.265,-18168.12,-25174.53,-4383.855,-1046.52
1764762655.1927893,-550.17,-2392.29,-25238.43,-10241.955,-18174.06,-25180.605,-4386.15,-1046.79
1764762655.1927893,-549.9449999999999,-2392.2,-25237.35,-10241.415,-18174.42,-25182.765,-4386.465,-1046.43
1764762655.1927893,-549.585,-2391.615,-25235.145,-10238.94,-18172.665,-25182.045,-4385.205,-1045.62
1764762655.1927893,-551.2049999999999,-2392.74,-25237.395,-10240.515,-18174.15,-25183.755,-4386.915,-1046.61
1764762655.1927893,-552.105,-2393.775,-25238.88,-10242.045,-18174.915,-25184.565,-4386.87,-1047.87
1764762655.1927893,-553.095,-2394.855,-25240.005,-10243.125,-18175.23,-25184.655,-4386.78,-1048.455
1764762655.1927893,-554.9399999999999,-2396.745,-25241.625,-10244.43,-18175.455,-25183.62,-4387.23,-1050.255
1764762655.1927893,-560.16,-2402.01,-25246.755,-10248.255,-18178.605,-25185.51,-4388.76,-1055.88
1764762655.1927893,-559.17,-2400.84,-25245.54,-10245.915,-18176.355,-25181.73,-4387.095,-1055.115
1764762655.1927893,-555.615,-2396.52,-25241.805,-10241.505,-18171.54,-25176.42,-4383.495,-1051.83
1764762655.1927893,-557.73,-2398.455,-25243.74,-10244.61,-18174.33,-25181.055,-4384.845,-1053.63
1764762655.1927893,-553.5,-2394.27,-25239.195,-10241.955,-18172.17,-25180.65,-4383.135,-1048.23
1764762655.1927893,-552.3299999999999,-2391.705,-25236.45,-10240.335,-18170.19,-25181.19,-4381.38,-1046.115
1764762655.1927893,-555.66,-2395.17,-25239.42,-10242.54,-18172.395,-25184.655,-4383.63,-1049.625
1764762655.2428336,-559.215,-2398.95,-25243.92,-10245.645,-18176.895,-25188.345,-4385.565,-1053.675
1764762655.2428336,-558.99,-2399.67,-25244.145,-10246.14,-18177.84,-25187.67,-4385.295,-1054.08
1764762655.2428336,-556.74,-2397.33,-25241.76,-10242.495,-18174.24,-25182.72,-4382.055,-1052.1
1764762655.2428336,-550.98,-2391.3,-25235.955,-10236.105,-18166.095,-25173.72,-4377.06,-1046.115
1764762655.2428336,-549.855,-2390.49,-25235.01,-10235.34,-18164.025,-25171.47,-4375.035,-1045.665
1764762655.2428336,-552.6,-2392.875,-25237.89,-10237.545,-18166.59,-25174.17,-4375.665,-1048.68
1764762655.2428336,-551.655,-2391.66,-25236.72,-10236.285,-18166.32,-25174.665,-4374.63,-1047.015
1764762655.2428336,-546.03,-2386.305,-25230.195,-10230.84,-18162.045,-25172.955,-4371.705,-1040.895
1764762655.2428336,-547.8299999999999,-2387.115,-25228.89,-10229.67,-18160.605,-25173.405,-4371.165,-1041.165
1764762655.2428336,-552.51,-2392.47,-25234.02,-10233.045,-18164.115,-25176.24,-4373.145,-1045.665
1764762655.2428336,-552.87,-2392.425,-25234.065,-10233.405,-18163.26,-25175.925,-4373.595,-1045.665
1764762655.2428336,-554.9399999999999,-2395.305,-25237.53,-10237.095,-18166.815,-25178.22,-4376.115,-1048.77
1764762655.2428336,-552.915,-2393.64,-25237.215,-10236.51,-18167.805,-25177.005,-4374.945,-1047.33
1764762655.2428336,-548.9549999999999,-2389.545,-25233.03,-10231.02,-18161.28,-25169.22,-4370.085,-1043.37
1764762655.2428336,-549.27,-2390.265,-25234.155,-10232.055,-18161.775,-25168.86,-4369.23,-1044.0
1764762655.2428336,-548.055,-2389.86,-25233.885,-10233.405,-18164.205,-25171.38,-4369.23,-1043.325
1764762655.2428336,-548.9549999999999,-2390.265,-25234.83,-10235.97,-18167.13,-25175.655,-4371.075,-1043.865
1764762655.2428336,-550.395,-2390.67,-25233.975,-10235.835,-18168.66,-25178.985,-4372.02,-1044.72
1764762655.2428336,-547.29,-2387.655,-25231.185,-10231.515,-18165.69,-25176.42,-4370.67,-1041.84
1764762655.2428336,-549.495,-2389.23,-25233.435,-10233.9,-18168.795,-25179.84,-4372.29,-1044.135
1764762655.2428336,-549.18,-2388.105,-25231.815,-10232.64,-18167.805,-25178.985,-4370.49,-1043.64
1764762655.2428336,-551.52,-2390.895,-25234.245,-10234.305,-18168.12,-25179.255,-4371.12,-1047.015
1764762655.2428336,-550.305,-2391.165,-25234.02,-10232.055,-18163.08,-25172.82,-4368.105,-1045.71
1764762655.2428336,-553.995,-2394.9,-25237.89,-10235.655,-18165.78,-25173.36,-4367.655,-1048.095
1764762655.2904882,-551.5649999999999,-2392.74,-25236.45,-10235.52,-18165.96,-25172.64,-4367.565,-1045.845
1764762655.2904882,-555.0749999999999,-2396.115,-25240.59,-10240.155,-18171.585,-25178.49,-4370.13,-1049.94
1764762655.2904882,-553.905,-2393.955,-25238.205,-10236.735,-18167.895,-25175.565,-4367.7,-1048.365
1764762655.2904882,-548.01,-2388.06,-25231.86,-10229.535,-18160.47,-25170.12,-4362.705,-1041.12
1764762655.2904882,-547.155,-2387.16,-25230.915,-10229.4,-18160.74,-25172.055,-4361.49,-1039.095
1764762655.2904882,-548.73,-2389.86,-25234.065,-10233.27,-18165.33,-25176.735,-4365.045,-1042.065
1764762655.2904882,-551.5649999999999,-2392.965,-25237.755,-10238.805,-18171.72,-25183.17,-4367.655,-1046.07
1764762655.2904882,-551.25,-2392.695,-25237.08,-10237.32,-18170.055,-25180.605,-4366.395,-1045.125
1764762655.2904882,-549.63,-2391.03,-25235.28,-10233.945,-18165.735,-25174.8,-4363.695,-1043.19
1764762655.2904882,-551.34,-2391.885,-25235.775,-10234.08,-18165.105,-25173.495,-4362.885,-1045.125
1764762655.2904882,-548.055,-2388.555,-25231.905,-10230.75,-18161.415,-25169.625,-4361.13,-1042.47
1764762655.2904882,-553.095,-2392.785,-25235.955,-10234.98,-18165.69,-25173.945,-4363.695,-1046.655
1764762655.2904882,-549.63,-2390.265,-25234.38,-10234.53,-18165.285,-25173.225,-4361.805,-1043.28
1764762655.2904882,-548.865,-2390.175,-25234.605,-10235.34,-18166.095,-25175.745,-4361.264999999999,-1043.145
1764762655.2914865,-544.995,-2386.575,-25232.04,-10231.875,-18164.43,-25174.665,-4360.41,-1039.5
1764762655.2914865,-549.18,-2391.03,-25236.315,-10235.07,-18166.815,-25178.58,-4362.48,-1043.685
1764762655.2914865,-546.12,-2387.97,-25232.22,-10231.245,-18162.36,-25174.215,-4360.23,-1040.49
1764762655.2914865,-549.3149999999999,-2390.76,-25235.235,-10234.08,-18165.51,-25176.33,-4361.355,-1044.765
1764762655.2914865,-545.04,-2387.115,-25230.645,-10228.23,-18159.75,-25169.04,-4357.395,-1041.48
1764762655.2914865,-548.91,-2390.355,-25234.92,-10231.785,-18162.81,-25170.12,-4358.295,-1044.72
1764762655.2914865,-545.67,-2387.43,-25231.635,-10228.59,-18158.355,-25165.89,-4355.19,-1041.12
1764762655.2914865,-545.625,-2387.295,-25231.095,-10227.645,-18157.275,-25164.585,-4354.29,-1041.345
1764762655.2914865,-544.905,-2387.07,-25230.78,-10228.185,-18157.905,-25165.89,-4354.514999999999,-1040.265
1764762655.2914865,-547.8299999999999,-2389.545,-25233.84,-10231.425,-18161.595,-25170.66,-4356.18,-1042.92
1764762655.333577,-541.17,-2383.515,-25226.415,-10223.73,-18154.53,-25165.26,-4351.095,-1036.08
1764762655.333577,-543.3299999999999,-2385.09,-25227.855,-10223.685,-18155.7,-25166.7,-4351.32,-1037.835
1764762655.333577,-543.96,-2385.72,-25228.44,-10224.63,-18156.195,-25167.195,-4350.735,-1037.745
1764762655.333577,-549.9449999999999,-2392.065,-25235.505,-10232.865,-18164.52,-25174.215,-4355.415,-1043.73
1764762655.333577,-550.305,-2391.84,-25235.955,-10233.45,-18165.105,-25173.405,-4355.639999999999,-1044.81
1764762655.333577,-545.5799999999999,-2386.44,-25230.24,-10227.105,-18159.48,-25166.88,-4351.275,-1039.68
1764762655.333577,-543.6899999999999,-2385.315,-25229.385,-10225.305,-18156.78,-25164.09,-4349.16,-1038.51
1764762655.333577,-545.265,-2387.34,-25230.105,-10226.52,-18156.915,-25163.685,-4349.115,-1040.76
1764762655.333577,-545.805,-2387.655,-25231.455,-10229.355,-18160.425,-25167.87,-4350.06,-1041.705
1764762655.333577,-546.93,-2388.06,-25233.345,-10230.345,-18163.26,-25172.01,-4351.455,-1041.39
1764762655.333577,-548.145,-2389.005,-25235.955,-10233.27,-18166.68,-25177.23,-4354.2,-1042.155
1764762655.333577,-550.125,-2390.67,-25236.27,-10233.45,-18167.94,-25179.57,-4355.595,-1044.405
1764762655.333577,-552.6,-2393.145,-25238.565,-10235.745,-18169.065,-25181.73,-4355.955,-1047.465
1764762655.333577,-554.9399999999999,-2395.35,-25240.725,-10237.23,-18170.415,-25181.145,-4357.035,-1050.66
1764762655.333577,-553.59,-2394.72,-25240.5,-10237.59,-18171.27,-25179.885,-4356.09,-1049.715
1764762655.333577,-549.9449999999999,-2391.93,-25236.945,-10233.36,-18166.815,-25174.035,-4352.67,-1046.07
1764762655.333577,-553.4549999999999,-2394.54,-25238.115,-10234.8,-18168.03,-25174.665,-4352.4,-1048.905
1764762655.333577,-549.27,-2390.31,-25233.12,-10228.59,-18161.055,-25168.41,-4349.205,-1044.945
1764762655.333577,-551.43,-2391.795,-25235.865,-10232.235,-18164.07,-25172.325,-4350.014999999999,-1046.655
1764762655.333577,-548.1899999999999,-2389.68,-25234.515,-10231.65,-18164.52,-25173.045,-4347.585,-1042.965
1764762655.383481,-543.96,-2385.855,-25230.87,-10228.365,-18161.82,-25171.605,-4345.11,-1038.555
1764762655.383481,-549.495,-2390.805,-25234.515,-10232.145,-18166.455,-25177.095,-4348.665,-1044.135
1764762655.383481,-550.485,-2392.38,-25236.405,-10232.775,-18166.68,-25177.14,-4348.53,-1045.44
1764762655.383481,-550.215,-2391.39,-25236.135,-10231.965,-18165.24,-25174.53,-4347.135,-1044.675
1764762655.383481,-547.425,-2388.465,-25233.255,-10230.03,-18162.855,-25171.065,-4344.93,-1041.57
1764762655.383481,-550.035,-2390.445,-25236.225,-10233.585,-18166.68,-25173.27,-4346.73,-1044.495
1764762655.383481,-547.92,-2388.87,-25234.245,-10231.11,-18162.675,-25169.13,-4345.065,-1042.92
1764762655.383481,-551.52,-2392.47,-25237.62,-10233.675,-18165.6,-25172.19,-4347.45,-1046.97
1764762655.383481,-549.045,-2389.905,-25234.47,-10230.345,-18162.945,-25170.795,-4346.37,-1044.315
1764762655.383481,-547.6949999999999,-2388.105,-25232.445,-10228.23,-18162.18,-25171.74,-4344.795,-1042.515
1764762655.383481,-547.8299999999999,-2388.33,-25232.22,-10229.355,-18163.53,-25174.89,-4345.47,-1042.785
1764762655.383481,-553.23,-2394.99,-25238.88,-10235.925,-18170.64,-25182.27,-4349.97,-1048.59
1764762655.383481,-552.465,-2394.135,-25238.475,-10235.475,-18168.705,-25180.47,-4348.755,-1047.24
1764762655.383481,-547.92,-2389.32,-25234.065,-10231.065,-18164.52,-25174.8,-4345.514999999999,-1042.245
1764762655.383481,-547.8299999999999,-2390.265,-25233.795,-10232.01,-18166.545,-25174.44,-4345.2,-1044.495
1764762655.383481,-551.88,-2394.945,-25237.665,-10235.43,-18170.19,-25177.095,-4346.595,-1048.995
1764762655.42679,-554.4,-2396.745,-25239.87,-10236.105,-18169.425,-25175.25,-4346.639999999999,-1050.57
1764762655.42679,-553.8149999999999,-2396.025,-25239.33,-10235.79,-18168.525,-25173.63,-4346.19,-1049.49
1764762655.4273202,-550.215,-2391.84,-25234.74,-10231.245,-18163.53,-25169.985,-4344.03,-1045.08
1764762655.4273202,-549.09,-2390.445,-25232.625,-10229.265,-18160.965,-25169.715,-4342.995,-1043.46
1764762655.4273202,-548.28,-2389.32,-25231.905,-10228.545,-18161.235,-25171.695,-4342.68,-1043.28
1764762655.4273202,-549.81,-2390.715,-25233.795,-10230.345,-18164.43,-25175.16,-4344.75,-1044.18
1764762655.4273202,-550.4399999999999,-2391.075,-25234.02,-10231.56,-18165.42,-25176.24,-4344.75,-1044.315
1764762655.4273202,-552.24,-2392.695,-25236.99,-10235.205,-18169.335,-25179.75,-4346.37,-1047.465
1764762655.4273202,-556.56,-2397.33,-25241.625,-10239.615,-18173.115,-25183.71,-4349.34,-1052.64
1764762655.4273202,-557.1899999999999,-2398.185,-25242.345,-10238.67,-18171.045,-25179.03,-4347.675,-1052.19
1764762655.4273202,-554.355,-2394.72,-25240.095,-10235.43,-18167.535,-25174.08,-4345.11,-1049.04
1764762655.4273202,-553.185,-2393.595,-25239.24,-10235.565,-18167.535,-25173.99,-4343.94,-1048.05
1764762655.4273202,-551.745,-2393.325,-25238.295,-10234.62,-18167.715,-25174.53,-4342.95,-1047.195
1764762655.4273202,-551.0699999999999,-2392.02,-25236.18,-10232.415,-18165.42,-25174.755,-4341.33,-1046.745
1764762655.4273202,-551.34,-2391.93,-25235.415,-10232.505,-18165.735,-25176.375,-4340.7,-1046.16
1764762655.4273202,-554.985,-2396.565,-25239.51,-10237.05,-18170.955,-25182.54,-4344.255,-1050.885
1764762655.4283383,-553.4549999999999,-2394.63,-25238.655,-10236.015,-18170.64,-25182.135,-4345.065,-1048.32
1764762655.4283383,-557.505,-2397.915,-25242.345,-10239.705,-18173.295,-25184.025,-4346.595,-1052.28
1764762655.4283383,-555.435,-2396.115,-25239.69,-10236.465,-18168.705,-25177.32,-4343.67,-1049.715
1764762655.4283383,-557.64,-2397.375,-25240.32,-10236.015,-18167.355,-25174.845,-4342.455,-1051.92
1764762655.4283383,-559.62,-2398.5,-25241.85,-10236.69,-18167.625,-25174.665,-4341.69,-1054.62
1764762655.4283383,-554.04,-2393.775,-25237.485,-10232.505,-18163.98,-25171.155,-4339.575,-1049.895
1764762655.4283383,-555.84,-2395.8,-25239.96,-10236.42,-18168.39,-25176.06,-4341.555,-1050.12
1764762655.4283383,-559.0799999999999,-2398.95,-25243.875,-10241.325,-18174.015,-25182.63,-4343.849999999999,-1052.595
1764762655.4283383,-555.0749999999999,-2394.18,-25240.365,-10238.13,-18171.945,-25181.955,-4342.545,-1048.545
1764762655.429347,-560.2049999999999,-2399.355,-25244.685,-10242.45,-18176.58,-25187.13,-4346.28,-1054.305
1764762655.429347,-560.295,-2399.85,-25242.615,-10240.245,-18174.33,-25185.645,-4344.389999999999,-1054.71
1764762655.429347,-558.225,-2397.42,-25239.87,-10237.815,-18170.73,-25181.775,-4341.78,-1053.405
1764762655.429347,-555.3,-2394.09,-25238.07,-10234.35,-18167.355,-25176.735,-4339.395,-1049.76
1764762655.429347,-558.675,-2397.825,-25242.84,-10238.805,-18171.36,-25179.48,-4340.07,-1053.09
1764762655.429347,-555.5699999999999,-2396.52,-25241.04,-10237.545,-18167.985,-25174.89,-4338.27,-1050.48
1764762655.429347,-555.255,-2396.205,-25241.13,-10237.005,-18166.815,-25173.72,-4337.235,-1049.715
1764762655.429347,-556.245,-2396.025,-25240.995,-10236.555,-18167.58,-25175.79,-4336.65,-1049.94
1764762655.4303467,-556.515,-2396.7,-25239.915,-10235.52,-18166.32,-25176.42,-4335.84,-1050.795
1764762655.4303467,-552.78,-2392.515,-25236.63,-10233.09,-18164.79,-25176.42,-4334.49,-1046.565
1764762655.4303467,-557.64,-2396.97,-25242.84,-10240.785,-18173.295,-25185.69,-4339.08,-1051.38
1764762655.4742303,-555.885,-2396.52,-25241.625,-10239.975,-18172.755,-25184.79,-4338.495,-1050.345
1764762655.4742303,-552.645,-2393.865,-25238.43,-10236.6,-18170.325,-25180.335,-4336.155,-1046.385
1764762655.475258,-556.74,-2397.105,-25241.805,-10239.03,-18171.405,-25180.83,-4335.974999999999,-1049.985
1764762655.475258,-557.28,-2397.555,-25241.445,-10236.78,-18166.77,-25175.655,-4333.32,-1051.2
1764762655.475258,-556.965,-2397.285,-25240.68,-10235.52,-18164.7,-25173.495,-4332.69,-1050.795
1764762655.475258,-555.93,-2395.395,-25238.88,-10233.135,-18162.585,-25170.93,-4330.845,-1048.995
1764762655.475258,-557.64,-2397.42,-25242.345,-10237.68,-18168.48,-25176.825,-4332.33,-1051.155
1764762655.475898,-554.4449999999999,-2393.37,-25239.69,-10236.645,-18171.315,-25181.37,-4333.32,-1048.77
1764762655.475898,-547.6949999999999,-2386.305,-25233.345,-10231.83,-18168.075,-25181.685,-4331.34,-1042.965
1764762655.475898,-550.89,-2389.545,-25236.315,-10234.125,-18169.2,-25182.63,-4332.24,-1046.115
1764762655.475898,-555.93,-2394.945,-25241.715,-10238.58,-18172.53,-25185.645,-4333.59,-1051.11
1764762655.475898,-554.76,-2393.955,-25240.77,-10237.14,-18170.595,-25183.395,-4333.32,-1050.93
1764762655.475898,-551.34,-2390.715,-25237.44,-10234.08,-18167.4,-25179.075,-4331.295,-1047.69
1764762655.475898,-553.14,-2393.28,-25240.14,-10236.105,-18168.705,-25177.635,-4330.305,-1049.265
1764762655.475898,-555.39,-2396.025,-25242.705,-10238.04,-18170.37,-25177.5,-4331.385,-1050.93
1764762655.475898,-557.865,-2397.915,-25244.505,-10239.39,-18171.81,-25179.165,-4331.385,-1052.46
1764762655.4762557,-554.49,-2394.54,-25241.085,-10236.06,-18168.75,-25177.77,-4329.99,-1048.86
1764762655.4762557,-552.1949999999999,-2392.29,-25238.745,-10233.585,-18166.68,-25177.455,-4328.37,-1047.69
1764762655.4762557,-551.97,-2391.3,-25237.17,-10231.47,-18165.42,-25177.545,-4327.83,-1046.16
1764762655.4762557,-554.31,-2393.46,-25239.015,-10233.765,-18168.48,-25180.92,-4329.495,-1047.645
1764762655.522271,-555.12,-2395.305,-25239.375,-10234.53,-18168.345,-25180.92,-4328.639999999999,-1048.635
1764762655.522271,-559.305,-2399.67,-25243.38,-10237.14,-18170.28,-25181.865,-4329.72,-1053.585
1764762655.522271,-560.295,-2400.57,-25244.82,-10238.445,-18171.585,-25181.505,-4329.855,-1054.17
1764762655.522271,-561.015,-2400.39,-25245.855,-10238.895,-18171.54,-25179.57,-4329.99,-1054.215
1764762655.522271,-559.17,-2398.005,-25244.865,-10237.545,-18169.605,-25177.185,-4328.685,-1052.64
1764762655.522271,-560.925,-2399.49,-25248.33,-10242.27,-18177.12,-25184.43,-4331.745,-1055.115
1764762655.5232785,-556.1999999999999,-2395.08,-25243.155,-10237.815,-18173.385,-25182.54,-4330.215,-1051.56
1764762655.5232785,-556.875,-2396.565,-25242.615,-10236.78,-18172.215,-25183.305,-4329.09,-1051.695
1764762655.5232785,-555.165,-2394.945,-25241.04,-10234.89,-18169.605,-25180.605,-4327.2,-1048.635
1764762655.5232785,-559.845,-2399.85,-25246.62,-10240.38,-18174.735,-25185.96,-4330.53,-1053.135
1764762655.5232785,-559.395,-2399.715,-25246.44,-10240.605,-18175.68,-25186.275,-4329.675,-1052.325
1764762655.5232785,-558.72,-2399.535,-25245.585,-10239.165,-18174.285,-25183.575,-4328.73,-1051.605
1764762655.5232785,-559.215,-2400.795,-25245.945,-10238.13,-18172.305,-25180.785,-4327.38,-1053.09
1764762655.5232785,-559.755,-2399.805,-25245.27,-10237.23,-18170.46,-25178.085,-4326.795,-1053.945
1764762655.5232785,-557.4599999999999,-2395.755,-25241.94,-10233.945,-18167.13,-25173.99,-4325.76,-1052.64
1764762655.5232785,-560.34,-2400.705,-25246.215,-10238.445,-18170.955,-25177.5,-4326.705,-1055.565
1764762655.5232785,-558.405,-2400.66,-25247.295,-10240.245,-18171.495,-25178.355,-4326.345,-1052.955
1764762655.5232785,-562.365,-2403.855,-25250.94,-10243.62,-18175.86,-25184.295,-4328.46,-1056.285
1764762655.5232785,-560.2049999999999,-2401.02,-25248.195,-10240.785,-18174.33,-25184.385,-4327.47,-1053.315
1764762655.5232785,-565.155,-2405.205,-25253.46,-10246.635,-18181.53,-25191.945,-4331.79,-1058.49
1764762655.5232785,-562.725,-2402.64,-25252.02,-10245.015,-18181.125,-25191.585,-4331.295,-1057.635
1764762655.5232785,-560.655,-2400.12,-25248.195,-10241.055,-18176.355,-25186.23,-4329.045,-1055.07
1764762655.524788,-564.5699999999999,-2404.35,-25252.515,-10244.52,-18177.705,-25185.645,-4329.63,-1059.345
1764762655.524788,-563.5799999999999,-2403.18,-25251.12,-10242.09,-18173.79,-25181.28,-4327.47,-1057.905
1764762655.570856,-566.9549999999999,-2406.735,-25254.72,-10245.69,-18177.615,-25183.845,-4329.224999999999,-1061.73
1764762655.570856,-564.84,-2405.52,-25252.965,-10244.655,-18176.355,-25183.305,-4328.505,-1059.57
1764762655.570856,-558.99,-2399.625,-25247.88,-10240.83,-18173.565,-25181.505,-4326.389999999999,-1053.855
1764762655.570856,-554.715,-2395.08,-25243.245,-10237.905,-18173.655,-25182.855,-4323.33,-1049.4
1764762655.570856,-549.54,-2389.995,-25236.72,-10231.65,-18168.345,-25179.39,-4318.155,-1043.82
1764762655.570856,-551.5649999999999,-2391.93,-25238.34,-10233.27,-18169.065,-25181.325,-4318.92,-1046.205
1764762655.570856,-554.04,-2394.72,-25241.13,-10235.16,-18169.695,-25181.325,-4319.37,-1048.815
1764762655.570856,-558.72,-2398.59,-25245.855,-10238.49,-18172.8,-25183.53,-4321.125,-1053.945
1764762655.570856,-560.025,-2399.715,-25246.935,-10239.165,-18173.115,-25182.63,-4320.855,-1054.89
1764762655.570856,-558.765,-2399.58,-25246.53,-10238.67,-18171.72,-25179.705,-4319.82,-1054.98
1764762655.570856,-554.76,-2395.35,-25243.47,-10236.24,-18170.01,-25176.555,-4318.965,-1050.21
1764762655.571364,-556.56,-2396.205,-25244.955,-10238.715,-18174.555,-25180.965,-4320.764999999999,-1051.425
1764762655.571364,-559.125,-2397.87,-25246.44,-10238.535,-18173.88,-25182.405,-4320.99,-1053.045
1764762655.571364,-561.465,-2400.12,-25248.42,-10239.57,-18175.32,-25185.645,-4321.035,-1055.16
1764762655.571364,-557.505,-2395.845,-25243.605,-10235.97,-18170.91,-25182.405,-4317.345,-1050.255
1764762655.571364,-559.755,-2398.185,-25246.395,-10240.695,-18175.68,-25187.535,-4319.415,-1052.055
1764762655.571364,-563.67,-2401.83,-25250.985,-10245.915,-18181.98,-25193.43,-4322.88,-1056.105
1764762655.571364,-563.04,-2401.425,-25250.76,-10244.79,-18180.585,-25191.315,-4321.889999999999,-1056.15
1764762655.571364,-561.78,-2401.2,-25250.76,-10244.61,-18179.325,-25188.57,-4320.18,-1055.655
1764762655.571364,-557.415,-2398.005,-25249.14,-10243.53,-18178.515,-25186.14,-4317.525,-1052.01
1764762655.571364,-560.88,-2401.965,-25252.29,-10246.59,-18181.215,-25187.805,-4318.965,-1055.655
1764762655.571364,-560.8349999999999,-2401.065,-25250.445,-10243.575,-18177.345,-25183.17,-4317.345,-1054.53
1764762655.571364,-563.265,-2402.64,-25252.38,-10245.015,-18179.055,-25186.005,-4318.155,-1057.14
1764762655.571364,-558.405,-2397.6,-25246.845,-10239.705,-18175.095,-25185.015,-4315.995,-1051.92
1764762655.571364,-556.38,-2395.44,-25244.82,-10237.68,-18174.195,-25186.05,-4315.365,-1050.12
1764762655.571364,-558.9,-2397.555,-25247.34,-10240.74,-18176.85,-25189.11,-4317.885,-1052.505
1764762655.6179657,-560.79,-2400.3,-25248.6,-10241.505,-18177.48,-25188.795,-4317.705,-1054.215
1764762655.6179657,-565.515,-2404.305,-25252.29,-10245.33,-18179.415,-25190.055,-4318.2,-1059.75
1764762655.6179657,-563.895,-2402.46,-25250.265,-10242.945,-18176.49,-25186.365,-4316.58,-1058.58
1764762655.6179657,-557.505,-2397.06,-25244.865,-10236.69,-18170.1,-25178.85,-4312.395,-1052.1
1764762655.6179657,-558.27,-2397.555,-25246.665,-10237.59,-18169.83,-25176.69,-4311.405,-1052.55
1764762655.6179657,-560.52,-2400.075,-25248.645,-10238.49,-18169.425,-25176.78,-4310.685,-1055.115
1764762655.6179657,-560.97,-2399.94,-25247.295,-10236.645,-18167.715,-25176.96,-4309.92,-1054.89
1764762655.6179657,-562.365,-2400.345,-25246.89,-10236.555,-18168.255,-25179.66,-4310.145,-1055.025
1764762655.6179657,-558.72,-2396.385,-25244.64,-10235.88,-18170.865,-25182.63,-4311.0,-1051.515
1764762655.6179657,-564.525,-2401.56,-25250.355,-10242.81,-18179.325,-25191.765,-4315.995,-1057.32
1764762655.6179657,-565.02,-2401.38,-25250.715,-10242.765,-18179.64,-25190.505,-4314.87,-1056.825
1764762655.6179657,-561.78,-2399.355,-25249.365,-10243.035,-18179.37,-25189.425,-4313.295,-1054.035
1764762655.6179657,-565.74,-2403.945,-25253.775,-10246.05,-18183.105,-25191.405,-4315.185,-1058.715
1764762655.6179657,-567.495,-2404.755,-25254.45,-10245.105,-18181.935,-25188.885,-4314.825,-1060.92
1764762655.6179657,-566.91,-2405.565,-25254.405,-10244.835,-18179.955,-25186.095,-4313.295,-1060.695
1764762655.6179657,-562.77,-2401.695,-25249.545,-10240.74,-18175.995,-25181.775,-4310.099999999999,-1055.655
1764762655.6179657,-564.93,-2405.07,-25253.505,-10244.655,-18179.64,-25186.815,-4311.764999999999,-1057.77
1764762655.6179657,-564.75,-2404.08,-25253.235,-10244.745,-18180.225,-25188.795,-4312.215,-1057.05
1764762655.6179657,-559.395,-2398.23,-25247.88,-10239.615,-18176.67,-25187.22,-4310.099999999999,-1051.785
1764762655.6179657,-561.915,-2400.525,-25249.41,-10240.83,-18177.255,-25189.47,-4310.639999999999,-1053.72
1764762655.6179657,-565.92,-2404.17,-25252.515,-10243.98,-18179.595,-25191.225,-4311.54,-1057.455
1764762655.6179657,-563.715,-2402.415,-25251.3,-10242.765,-18178.605,-25188.12,-4309.335,-1055.7
1764762655.6646736,-565.92,-2405.88,-25255.215,-10246.275,-18182.745,-25190.235,-4310.099999999999,-1059.525
1764762655.6646736,-562.905,-2402.19,-25252.29,-10241.64,-18177.615,-25184.025,-4306.365,-1057.05
1764762655.6646736,-565.6949999999999,-2405.115,-25254.0,-10243.035,-18177.885,-25183.62,-4306.59,-1059.3
1764762655.6646736,-562.59,-2402.1,-25250.58,-10239.345,-18174.465,-25180.605,-4304.34,-1055.61
1764762655.6646736,-561.6899999999999,-2400.57,-25250.715,-10239.795,-18175.86,-25182.765,-4304.205,-1054.89
1764762655.6646736,-559.98,-2397.69,-25247.025,-10236.87,-18173.655,-25182.765,-4302.36,-1051.875
1764762655.6646736,-558.495,-2395.575,-25244.145,-10233.855,-18170.46,-25181.64,-4299.795,-1049.94
1764762655.6646736,-563.13,-2400.075,-25249.545,-10239.39,-18176.31,-25187.13,-4303.395,-1054.395
1764762655.6646736,-559.485,-2398.455,-25248.06,-10238.805,-18176.895,-25187.355,-4302.945,-1051.74
1764762655.6646736,-562.23,-2401.92,-25250.22,-10241.145,-18179.19,-25188.66,-4303.53,-1054.755
1764762655.6646736,-561.375,-2400.21,-25249.14,-10239.255,-18176.76,-25184.34,-4302.405,-1053.585
1764762655.6646736,-564.7049999999999,-2403.855,-25253.865,-10243.71,-18181.62,-25187.175,-4304.52,-1058.49
1764762655.6646736,-563.9399999999999,-2402.955,-25252.515,-10242.315,-18179.505,-25185.42,-4302.764999999999,-1058.13
1764762655.6646736,-559.4399999999999,-2398.5,-25248.375,-10237.77,-18174.465,-25179.39,-4299.03,-1052.28
1764762655.6646736,-559.8,-2398.59,-25248.555,-10238.715,-18176.04,-25181.415,-4300.2,-1052.055
1764762655.6646736,-558.27,-2396.565,-25246.17,-10237.14,-18176.4,-25184.43,-4300.2,-1051.605
1764762655.6646736,-558.18,-2395.755,-25244.865,-10235.745,-18174.69,-25184.115,-4299.03,-1050.93
1764762655.6646736,-563.355,-2400.84,-25248.96,-10239.885,-18178.875,-25188.3,-4301.685,-1055.52
1764762655.6646736,-560.115,-2397.915,-25246.17,-10236.105,-18175.005,-25184.52,-4299.93,-1052.01
1764762655.6646736,-560.88,-2399.13,-25248.33,-10238.04,-18176.67,-25184.7,-4300.065,-1052.64
1764762655.6646736,-563.04,-2402.19,-25251.03,-10240.245,-18177.75,-25184.88,-4300.65,-1055.07
1764762655.6646736,-563.49,-2401.965,-25251.525,-10240.425,-18177.03,-25182.54,-4299.03,-1055.295
1764762655.6646736,-563.9399999999999,-2401.875,-25252.245,-10241.28,-18177.84,-25182.99,-4299.389999999999,-1055.655
1764762655.6646736,-567.405,-2405.295,-25255.665,-10245.24,-18182.52,-25187.805,-4302.27,-1059.165
1764762655.7115042,-567.27,-2405.07,-25254.495,-10243.89,-18181.755,-25188.615,-4302.495,-1059.57
1764762655.7115042,-564.03,-2401.695,-25250.175,-10240.155,-18177.84,-25185.87,-4299.12,-1056.195
1764762655.7115042,-556.38,-2395.755,-25245.63,-10235.655,-18173.7,-25181.955,-4293.764999999999,-1047.78
1764762655.7125096,-561.375,-2400.66,-25251.39,-10240.92,-18179.235,-25188.165,-4297.545,-1052.64
1764762655.7125096,-557.91,-2396.7,-25246.71,-10236.6,-18174.645,-25184.79,-4295.295,-1049.805
1764762655.7125096,-558.09,-2397.69,-25246.44,-10235.52,-18173.835,-25182.45,-4293.99,-1050.615
1764762655.7125096,-562.8149999999999,-2402.19,-25251.12,-10239.48,-18177.075,-25184.655,-4295.97,-1055.88
1764762655.7125096,-563.265,-2402.82,-25251.93,-10239.525,-18175.815,-25181.865,-4295.565,-1056.51
1764762655.7125096,-559.89,-2400.39,-25248.15,-10234.71,-18169.74,-25175.97,-4291.74,-1052.64
1764762655.7125096,-559.305,-2399.625,-25247.07,-10233.18,-18167.4,-25172.955,-4289.58,-1051.695
1764762655.7125096,-560.34,-2400.84,-25249.32,-10235.835,-18171.045,-25176.645,-4290.84,-1052.685
1764762655.7125096,-562.77,-2402.37,-25252.92,-10240.92,-18177.885,-25184.745,-4293.99,-1055.115
1764762655.7125096,-557.37,-2396.565,-25249.32,-10238.85,-18178.92,-25187.985,-4294.035,-1050.03
1764762655.7125096,-561.42,-2400.795,-25251.93,-10241.73,-18181.62,-25191.135,-4296.645,-1053.765
1764762655.7125096,-559.98,-2398.95,-25250.895,-10240.425,-18179.46,-25188.345,-4295.025,-1051.83
1764762655.7125096,-565.245,-2402.64,-25254.63,-10242.54,-18181.44,-25189.335,-4296.195,-1056.15
1764762655.7125096,-566.055,-2402.91,-25253.145,-10238.805,-18175.905,-25183.53,-4294.305,-1057.095
1764762655.7125096,-566.01,-2403.225,-25254.45,-10241.505,-18178.47,-25183.845,-4293.99,-1056.915
1764762655.7125096,-570.06,-2404.935,-25255.575,-10242.045,-18179.685,-25185.645,-4295.565,-1062.045
1764762655.7125096,-570.465,-2405.34,-25253.775,-10238.805,-18175.14,-25182.27,-4293.045,-1062.045
1764762655.7125096,-567.045,-2402.145,-25252.38,-10240.785,-18178.515,-25185.78,-4293.045,-1059.615
1764762655.7125096,-563.76,-2399.13,-25249.455,-10239.03,-18176.67,-25184.655,-4291.29,-1055.34
1764762655.7125096,-565.425,-2399.94,-25246.53,-10231.56,-18167.67,-25176.915,-4286.565,-1052.28
1764762655.7125096,-564.615,-2397.555,-25243.695,-10230.345,-18170.28,-25181.325,-4291.875,-1055.43
1764762655.7549112,-556.515,-2395.08,-25246.89,-10238.445,-18178.92,-25188.345,-4292.28,-1049.985
1764762655.7549112,-557.4599999999999,-2403.54,-25258.14,-10247.4,-18182.88,-25188.57,-4288.32,-1047.105
1764762655.7549112,-560.6999999999999,-2404.71,-25258.545,-10246.815,-18182.97,-25188.975,-4291.065,-1052.955
1764762655.7549112,-566.1899999999999,-2406.51,-25258.095,-10243.8,-18178.965,-25184.34,-4290.795,-1057.005
1764762655.7549112,-564.03,-2404.215,-25255.845,-10241.82,-18177.48,-25182.54,-4289.04,-1056.285
1764762655.7549112,-563.715,-2404.575,-25255.845,-10240.74,-18176.13,-25181.19,-4287.24,-1055.745
1764762655.7549112,-562.8149999999999,-2403.765,-25255.62,-10241.19,-18177.84,-25184.25,-4288.095,-1054.53
1764762655.7549112,-561.645,-2402.055,-25252.155,-10239.12,-18177.165,-25184.97,-4288.95,-1053.585
1764762655.7549112,-560.8349999999999,-2396.97,-25246.305,-10235.205,-18175.185,-25185.6,-4289.715,-1052.64
1764762655.7549112,-570.015,-2403.405,-25251.48,-10238.58,-18178.83,-25192.17,-4294.755,-1061.19
1764762655.7549112,-564.435,-2404.17,-25254.72,-10241.325,-18177.93,-25188.525,-4289.76,-1054.215
1764762655.7549112,-567.4499999999999,-2409.75,-25259.94,-10244.61,-18179.28,-25186.545,-4288.995,-1056.375
1764762655.7549112,-574.155,-2411.1,-25258.68,-10243.53,-18180.45,-25188.03,-4292.595,-1064.115
1764762655.7549112,-566.1899999999999,-2411.145,-25265.52,-10251.45,-18188.73,-25192.08,-4289.985,-1055.205
1764762655.7549112,-560.25,-2405.925,-25259.895,-10245.69,-18184.275,-25188.975,-4288.995,-1053.135
1764762655.7549112,-558.54,-2401.245,-25254.63,-10242.585,-18181.395,-25186.995,-4288.32,-1053.09
1764762655.7549112,-559.89,-2401.515,-25253.055,-10241.325,-18179.235,-25184.97,-4287.42,-1053.225
1764762655.7549112,-555.7049999999999,-2396.925,-25248.15,-10237.5,-18176.04,-25183.17,-4285.215,-1048.77
1764762655.7549112,-557.1899999999999,-2397.69,-25249.095,-10238.085,-18176.985,-25185.645,-4284.99,-1049.13
1764762655.7549112,-559.89,-2401.605,-25252.47,-10241.73,-18180.765,-25189.695,-4286.7,-1050.165
1764762655.7549112,-562.86,-2405.07,-25255.44,-10244.7,-18182.52,-25190.865,-4286.88,-1052.865
1764762655.7549112,-567.54,-2408.04,-25259.76,-10247.76,-18185.715,-25193.385,-4289.13,-1057.275
1764762655.8014994,-569.16,-2408.04,-25259.58,-10247.94,-18186.39,-25192.08,-4288.995,-1058.49
1764762655.8014994,-569.115,-2404.98,-25254.945,-10243.395,-18183.24,-25188.75,-4289.13,-1061.505
1764762655.8025117,-567.81,-2404.215,-25254.09,-10242.405,-18180.63,-25185.555,-4286.655,-1059.39
1764762655.8025117,-570.6899999999999,-2411.775,-25264.305,-10251.765,-18187.47,-25190.595,-4286.385,-1058.175
1764762655.8025117,-566.9549999999999,-2405.025,-25254.0,-10242.045,-18180.63,-25186.995,-4286.655,-1058.31
1764762655.8025117,-573.5699999999999,-2407.275,-25252.2,-10237.725,-18177.705,-25186.365,-4287.014999999999,-1063.215
1764762655.8025117,-566.595,-2404.755,-25252.965,-10239.39,-18177.48,-25186.05,-4282.92,-1054.935
1764762655.8025117,-561.3299999999999,-2407.725,-25263.72,-10252.125,-18189.405,-25196.355,-4284.9,-1051.335
1764762655.8025117,-561.915,-2404.485,-25258.365,-10246.32,-18184.365,-25193.43,-4284.675,-1053.63
1764762655.8025117,-563.805,-2404.44,-25256.52,-10242.855,-18179.055,-25187.49,-4282.11,-1054.62
1764762655.8025117,-560.655,-2401.38,-25254.225,-10240.92,-18177.615,-25183.71,-4279.455,-1050.93
1764762655.8025117,-561.06,-2401.83,-25254.72,-10241.415,-18178.515,-25183.215,-4278.69,-1051.515
1764762655.8025117,-564.12,-2403.9,-25255.44,-10241.28,-18177.075,-25181.1,-4278.014999999999,-1054.755
1764762655.8025117,-568.0799999999999,-2407.77,-25258.23,-10244.43,-18180.27,-25184.52,-4279.68,-1058.715
1764762655.8025117,-567.18,-2406.69,-25258.41,-10246.95,-18185.355,-25190.595,-4282.29,-1058.895
1764762655.8025117,-563.85,-2402.865,-25256.385,-10246.23,-18186.345,-25192.98,-4281.435,-1055.835
1764762655.8025117,-560.385,-2399.58,-25252.875,-10242.855,-18183.33,-25190.595,-4279.139999999999,-1051.605
1764762655.8025117,-567.27,-2406.96,-25259.265,-10248.12,-18187.425,-25195.635,-4283.055,-1058.04
1764762655.8025117,-567.765,-2407.59,-25259.22,-10246.455,-18185.805,-25194.015,-4282.02,-1058.4
1764762655.8025117,-564.84,-2404.845,-25255.08,-10240.83,-18179.865,-25187.04,-4278.96,-1055.025
1764762655.8025117,-565.56,-2405.565,-25254.72,-10240.065,-18178.065,-25183.305,-4277.43,-1055.925
1764762655.8025117,-568.305,-2408.985,-25258.995,-10243.35,-18181.485,-25185.15,-4278.375,-1059.48
1764762655.8490765,-567.63,-2407.77,-25258.68,-10243.35,-18180.54,-25184.115,-4277.835,-1058.805
1764762655.8490765,-565.74,-2405.295,-25256.475,-10241.415,-18178.875,-25182.63,-4276.889999999999,-1055.52
1764762655.8490765,-568.485,-2407.95,-25259.805,-10245.42,-18184.635,-25189.425,-4279.41,-1058.265
1764762655.8490765,-562.995,-2402.505,-25255.395,-10240.965,-18181.35,-25187.895,-4276.305,-1052.505
1764762655.8490765,-562.095,-2401.92,-25254.54,-10241.64,-18183.6,-25191.405,-4276.889999999999,-1050.795
1764762655.8490765,-566.91,-2406.24,-25257.06,-10245.105,-18186.885,-25194.78,-4279.59,-1055.745
1764762655.8490765,-566.3249999999999,-2405.43,-25256.25,-10242.18,-18182.97,-25190.955,-4277.565,-1056.015
1764762655.8490765,-567.225,-2407.095,-25257.78,-10242.945,-18183.42,-25190.37,-4277.745,-1057.23
1764762655.8490765,-567.495,-2407.635,-25259.22,-10242.99,-18182.79,-25188.255,-4277.655,-1057.86
1764762655.8490765,-562.68,-2403.495,-25255.62,-10239.12,-18178.155,-25181.19,-4274.639999999999,-1053.855
1764762655.8490765,-564.93,-2404.665,-25257.465,-10240.245,-18179.73,-25181.685,-4273.965,-1055.565
1764762655.8490765,-568.395,-2408.445,-25260.795,-10243.8,-18183.645,-25186.545,-4275.945,-1059.525
1764762655.8490765,-566.1,-2406.06,-25259.58,-10245.465,-18186.57,-25190.73,-4277.07,-1057.905
1764762655.8490765,-564.03,-2402.595,-25255.125,-10240.83,-18182.97,-25188.12,-4274.595,-1055.43
1764762655.8490765,-557.415,-2397.645,-25251.57,-10237.32,-18180.855,-25186.545,-4272.12,-1048.545
1764762655.8490765,-560.5649999999999,-2401.245,-25255.35,-10241.325,-18184.365,-25191.54,-4274.955,-1051.515
1764762655.8506136,-565.6949999999999,-2406.42,-25260.48,-10245.555,-18187.29,-25194.015,-4276.575,-1056.51
1764762655.8506136,-565.47,-2406.42,-25259.355,-10242.99,-18183.555,-25189.47,-4276.305,-1056.24
1764762655.8506136,-562.23,-2402.145,-25254.27,-10236.465,-18176.04,-25181.055,-4273.02,-1052.73
1764762655.8506136,-561.6,-2401.785,-25254.045,-10235.79,-18175.68,-25179.39,-4272.57,-1052.775
1764762655.8506136,-562.905,-2402.865,-25255.62,-10238.625,-18178.92,-25182.27,-4272.93,-1053.945
1764762655.8506136,-567.765,-2408.265,-25261.515,-10244.655,-18184.32,-25186.905,-4274.595,-1058.22
1764762655.8506136,-566.1899999999999,-2406.96,-25261.38,-10246.185,-18186.75,-25189.515,-4275.18,-1057.14
1764762655.8506136,-561.15,-2400.165,-25253.955,-10238.67,-18179.64,-25185.15,-4272.48,-1052.55
1764762655.896591,-561.1949999999999,-2398.905,-25250.355,-10233.855,-18174.825,-25183.08,-4269.645,-1051.695
1764762655.8971212,-562.86,-2402.28,-25255.755,-10240.56,-18180.9,-25188.93,-4272.03,-1053.135
1764762655.8971212,-566.595,-2407.05,-25262.64,-10248.03,-18188.055,-25195.32,-4274.73,-1056.465
1764762655.8971212,-569.34,-2408.355,-25262.91,-10247.22,-18187.47,-25193.79,-4275.63,-1059.255
1764762655.8971212,-569.5649999999999,-2409.48,-25262.1,-10245.195,-18184.275,-25189.47,-4273.83,-1059.435
1764762655.8971212,-570.1949999999999,-2410.245,-25262.37,-10244.115,-18182.565,-25185.645,-4272.57,-1059.795
1764762655.8971212,-569.5649999999999,-2409.66,-25262.01,-10242.63,-18180.945,-25183.845,-4270.455,-1058.535
1764762655.8971212,-569.43,-2408.67,-25261.47,-10243.35,-18181.755,-25184.385,-4269.87,-1058.85
1764762655.8971212,-567.135,-2406.465,-25261.02,-10244.835,-18185.67,-25188.48,-4271.085,-1056.51
1764762655.8971212,-560.6999999999999,-2400.03,-25254.09,-10237.32,-18179.73,-25184.565,-4267.62,-1050.12
1764762655.8971212,-558.99,-2398.455,-25252.74,-10235.52,-18177.165,-25184.52,-4265.82,-1048.815
1764762655.8971212,-563.4,-2402.505,-25256.655,-10239.795,-18181.575,-25189.29,-4268.52,-1052.775
1764762655.8971212,-567.495,-2406.645,-25261.065,-10244.925,-18187.155,-25193.34,-4271.31,-1057.095
1764762655.8971212,-566.685,-2405.7,-25260.03,-10242.405,-18184.095,-25188.57,-4269.555,-1055.925
1764762655.8971212,-569.34,-2405.745,-25258.05,-10237.545,-18177.615,-25181.19,-4266.045,-1057.005
1764762655.8971212,-570.285,-2402.955,-25252.47,-10232.325,-18173.745,-25177.455,-4265.145,-1059.435
1764762655.8971212,-566.145,-2403.0,-25255.755,-10236.69,-18176.715,-25178.04,-4262.895,-1054.44
1764762655.8971212,-558.3149999999999,-2401.245,-25256.79,-10238.67,-18177.21,-25178.805,-4261.455,-1048.635
1764762655.8971212,-554.9399999999999,-2395.71,-25250.355,-10233.045,-18172.845,-25176.555,-4260.555,-1046.25
1764762655.8971212,-560.34,-2400.48,-25255.485,-10238.985,-18179.325,-25183.305,-4262.264999999999,-1049.49
1764762655.8971212,-556.11,-2396.295,-25252.02,-10236.465,-18177.345,-25183.395,-4261.59,-1045.305
1764762655.8971212,-560.43,-2399.805,-25254.495,-10237.545,-18178.38,-25184.925,-4262.805,-1049.13
1764762655.9439647,-565.605,-2404.305,-25258.23,-10239.57,-18179.865,-25185.465,-4262.445,-1053.495
1764762655.9439647,-559.215,-2398.77,-25253.1,-10236.06,-18176.805,-25182.405,-4261.905,-1050.03
1764762655.9439647,-562.14,-2401.605,-25255.89,-10238.4,-18178.38,-25181.91,-4261.995,-1052.55
1764762655.9439647,-558.3149999999999,-2397.915,-25253.055,-10235.07,-18175.68,-25177.455,-4259.385,-1048.86
1764762655.9439647,-557.8199999999999,-2398.545,-25252.785,-10234.215,-18174.42,-25176.105,-4258.395,-1049.265
1764762655.9439647,-559.35,-2400.165,-25254.495,-10236.105,-18175.995,-25177.725,-4259.115,-1050.705
1764762655.9439647,-562.995,-2403.36,-25258.05,-10240.245,-18181.035,-25183.62,-4261.365,-1054.305
1764762655.9445057,-561.06,-2401.695,-25255.395,-10237.545,-18178.155,-25183.26,-4258.755,-1052.235
1764762655.9445057,-558.72,-2398.59,-25251.93,-10233.18,-18173.07,-25179.615,-4256.145,-1048.23
1764762655.9445057,-566.1,-2405.61,-25258.095,-10238.445,-18177.03,-25183.89,-4258.575,-1053.585
1764762655.9445057,-561.915,-2402.415,-25256.52,-10238.175,-18178.38,-25183.89,-4257.764999999999,-1050.57
1764762655.9445057,-559.215,-2400.525,-25256.655,-10240.425,-18182.16,-25187.535,-4259.205,-1051.515
1764762655.9445057,-562.725,-2399.76,-25253.19,-10234.89,-18176.13,-25182.045,-4259.79,-1054.665
1764762655.9445057,-571.005,-2405.835,-25257.24,-10237.68,-18177.795,-25182.63,-4261.68,-1061.415
1764762655.9445057,-568.305,-2410.65,-25265.205,-10244.88,-18181.26,-25182.675,-4258.845,-1056.24
1764762655.9445057,-559.26,-2402.955,-25259.895,-10241.955,-18179.865,-25182.99,-4259.34,-1051.425
1764762655.9445057,-557.8199999999999,-2399.715,-25256.25,-10239.345,-18178.965,-25182.765,-4257.27,-1048.68
1764762655.9445057,-561.78,-2402.505,-25257.825,-10242.54,-18182.52,-25186.905,-4257.764999999999,-1051.38
1764762655.9445057,-559.845,-2399.04,-25253.415,-10237.455,-18178.785,-25184.61,-4257.045,-1049.4
1764762655.9445057,-561.42,-2400.165,-25254.045,-10237.68,-18179.595,-25186.59,-4259.7,-1051.605
1764762655.9445057,-562.59,-2404.44,-25260.795,-10242.945,-18183.825,-25188.93,-4259.34,-1052.505
1764762655.9445057,-567.54,-2408.67,-25263.72,-10245.555,-18186.03,-25191.045,-4261.905,-1057.995
1764762655.9445057,-568.62,-2408.985,-25263.72,-10244.925,-18184.905,-25189.065,-4261.905,-1058.895
1764762655.9445057,-567.9449999999999,-2407.68,-25261.785,-10242.855,-18182.475,-25185.87,-4260.465,-1058.355
1764762655.9875216,-568.215,-2408.13,-25261.695,-10241.865,-18180.63,-25183.71,-4259.52,-1059.12
1764762655.9875216,-566.3249999999999,-2406.78,-25261.605,-10241.37,-18179.325,-25181.325,-4257.99,-1056.645
1764762655.9875216,-562.725,-2402.91,-25257.825,-10237.635,-18177.84,-25180.335,-4256.01,-1052.01
1764762655.9875216,-564.12,-2404.125,-25258.815,-10238.04,-18179.1,-25183.98,-4256.145,-1053.405
1764762655.9875216,-558.9449999999999,-2398.365,-25253.19,-10233.09,-18173.565,-25181.415,-4253.04,-1048.815
1764762655.9875216,-563.625,-2401.695,-25255.935,-10236.465,-18177.57,-25187.085,-4255.92,-1053.045
1764762655.9880254,-564.93,-2404.485,-25258.815,-10238.265,-18179.46,-25187.895,-4256.505,-1054.62
1764762655.9880254,-565.56,-2406.285,-25262.37,-10243.62,-18184.005,-25189.38,-4258.305,-1055.475
1764762655.9880254,-564.03,-2404.17,-25261.29,-10242.315,-18182.7,-25185.645,-4257.27,-1054.08
1764762655.9880254,-568.485,-2408.22,-25264.8,-10244.07,-18184.455,-25185.69,-4258.395,-1058.31
1764762655.9880254,-566.1,-2406.105,-25261.695,-10241.1,-18180.72,-25182.45,-4256.19,-1056.195
1764762655.9880254,-565.785,-2405.745,-25261.605,-10241.055,-18179.73,-25183.125,-4255.92,-1056.06
1764762655.9880254,-568.53,-2407.995,-25263.63,-10243.53,-18182.52,-25187.22,-4257.54,-1058.895
1764762655.9880254,-563.715,-2403.495,-25259.94,-10241.055,-18181.08,-25186.275,-4256.595,-1054.665
1764762655.9880254,-563.04,-2403.09,-25259.67,-10241.1,-18182.115,-25189.155,-4256.145,-1054.755
1764762655.9880254,-569.115,-2408.76,-25264.26,-10246.815,-18187.245,-25194.78,-4259.745,-1059.975
1764762655.9885385,-569.97,-2409.165,-25265.52,-10247.13,-18188.19,-25195.275,-4260.78,-1060.605
1764762655.9885385,-571.8149999999999,-2411.415,-25267.095,-10247.985,-18187.92,-25192.53,-4259.295,-1061.28
1764762655.9885385,-572.9399999999999,-2412.045,-25268.22,-10247.67,-18186.3,-25188.615,-4257.495,-1061.28
1764762655.9885385,-568.035,-2406.645,-25263.675,-10242.72,-18182.61,-25185.195,-4256.865,-1057.905
1764762655.9885385,-569.2049999999999,-2407.14,-25263.0,-10240.83,-18180.54,-25183.08,-4256.37,-1059.21
1764762655.9885385,-572.355,-2409.975,-25264.89,-10241.505,-18181.485,-25183.98,-4257.405,-1062.855
1764762655.9885385,-564.12,-2405.295,-25264.035,-10245.15,-18184.77,-25187.895,-4255.425,-1055.25
1764762655.9885385,-568.395,-2407.32,-25265.115,-10245.375,-18185.67,-25190.685,-4255.74,-1057.68
1764762655.9885385,-569.97,-2405.205,-25258.41,-10235.34,-18175.77,-25184.115,-4252.41,-1058.265
1764762655.9885385,-571.095,-2407.455,-25262.775,-10241.28,-18180.9,-25188.525,-4254.12,-1058.805
1764762656.0346694,-568.215,-2411.82,-25271.82,-10252.755,-18192.24,-25197.48,-4256.235,-1057.095
1764762656.0351872,-568.305,-2410.83,-25268.58,-10248.03,-18188.01,-25193.52,-4256.55,-1059.615
1764762656.0351872,-568.305,-2409.93,-25267.905,-10247.445,-18188.28,-25192.8,-4257.72,-1061.19
1764762656.0351872,-567.0,-2408.715,-25267.365,-10247.76,-18187.605,-25191.315,-4255.92,-1059.03
1764762656.0351872,-563.9399999999999,-2405.565,-25262.595,-10241.64,-18180.855,-25184.52,-4252.275,-1055.52
1764762656.0351872,-563.22,-2405.295,-25262.1,-10239.795,-18179.73,-25182.765,-4250.385,-1054.62
1764762656.0351872,-564.615,-2407.185,-25262.64,-10240.29,-18179.235,-25182.765,-4249.935,-1054.845
1764762656.0351872,-563.22,-2406.285,-25262.19,-10241.37,-18181.665,-25185.465,-4250.745,-1053.675
1764762656.0351872,-561.42,-2403.54,-25260.075,-10240.335,-18181.755,-25187.175,-4249.349999999999,-1051.155
1764762656.0351872,-565.92,-2407.545,-25264.89,-10245.375,-18186.975,-25193.52,-4253.445,-1055.61
1764762656.0351872,-566.37,-2408.22,-25263.99,-10243.71,-18183.51,-25189.335,-4251.465,-1055.88
1764762656.0351872,-563.9399999999999,-2404.35,-25259.175,-10238.805,-18178.29,-25182.9,-4247.55,-1053.81
1764762656.0351872,-563.85,-2405.475,-25260.57,-10239.165,-18178.605,-25181.82,-4247.639999999999,-1054.44
1764762656.0351872,-562.005,-2406.105,-25263.27,-10242.72,-18183.33,-25184.88,-4248.315,-1052.775
1764762656.0351872,-563.805,-2406.33,-25263.72,-10242.315,-18182.025,-25184.205,-4248.405,-1054.71
1764762656.0351872,-567.405,-2409.795,-25266.555,-10244.745,-18183.195,-25185.645,-4248.495,-1057.68
1764762656.0351872,-563.4449999999999,-2404.98,-25261.875,-10239.75,-18179.64,-25182.765,-4247.19,-1053.495
1764762656.0351872,-560.475,-2401.695,-25258.275,-10236.465,-18177.705,-25182.315,-4244.805,-1050.48
1764762656.0351872,-561.15,-2402.1,-25257.15,-10235.115,-18176.355,-25182.945,-4243.095,-1050.21
1764762656.0351872,-563.895,-2404.395,-25258.815,-10236.465,-18177.3,-25185.555,-4245.615,-1053.09
1764762656.0818548,-563.895,-2405.43,-25261.515,-10239.345,-18179.145,-25186.095,-4246.514999999999,-1053.765
1764762656.0818548,-565.6949999999999,-2407.545,-25264.08,-10240.83,-18180.09,-25186.005,-4246.29,-1056.015
1764762656.0818548,-568.62,-2411.145,-25268.355,-10244.475,-18183.825,-25187.85,-4246.695,-1059.615
1764762656.0818548,-568.98,-2412.27,-25267.86,-10244.34,-18183.06,-25185.735,-4246.56,-1060.56
1764762656.0818548,-568.62,-2410.785,-25267.275,-10243.575,-18181.935,-25184.385,-4245.84,-1060.38
1764762656.0818548,-564.84,-2405.925,-25262.055,-10239.03,-18178.515,-25180.425,-4243.095,-1055.52
1764762656.0818548,-562.725,-2403.495,-25260.21,-10238.715,-18179.505,-25182.405,-4242.645,-1054.035
1764762656.0818548,-561.24,-2401.74,-25260.75,-10238.895,-18180.81,-25185.6,-4243.05,-1052.37
1764762656.0818548,-562.995,-2402.73,-25261.56,-10238.895,-18181.35,-25187.175,-4243.095,-1052.55
1764762656.0818548,-566.3249999999999,-2406.24,-25264.35,-10242.45,-18183.915,-25191.0,-4246.514999999999,-1056.33
1764762656.0823977,-566.865,-2407.14,-25265.52,-10242.99,-18184.5,-25191.09,-4247.055,-1056.645
1764762656.0823977,-568.8,-2409.975,-25267.905,-10244.34,-18186.12,-25190.64,-4246.47,-1058.985
1764762656.0823977,-573.5699999999999,-2414.16,-25272.675,-10248.75,-18189.405,-25192.08,-4247.865,-1063.62
1764762656.0823977,-571.635,-2413.305,-25271.82,-10246.59,-18186.705,-25188.84,-4246.875,-1063.44
1764762656.0823977,-567.72,-2409.795,-25267.635,-10241.865,-18181.395,-25183.215,-4243.365,-1058.895
1764762656.0823977,-567.765,-2409.12,-25266.87,-10241.775,-18181.305,-25183.17,-4241.43,-1057.68
1764762656.0823977,-571.3199999999999,-2411.505,-25270.695,-10245.78,-18186.3,-25189.38,-4244.535,-1060.785
1764762656.0823977,-565.155,-2405.34,-25263.54,-10239.165,-18179.595,-25185.015,-4240.305,-1054.305
1764762656.0823977,-564.5699999999999,-2404.305,-25261.83,-10237.005,-18177.57,-25184.655,-4238.639999999999,-1053.63
1764762656.0823977,-568.7099999999999,-2408.535,-25265.925,-10240.245,-18180.765,-25189.2,-4242.33,-1058.85
1764762656.0823977,-564.84,-2404.98,-25261.92,-10235.88,-18176.805,-25184.655,-4239.945,-1055.295
1764762656.0823977,-565.47,-2406.105,-25263.495,-10238.805,-18179.955,-25186.05,-4240.035,-1055.88
1764762656.0823977,-568.53,-2409.345,-25268.085,-10243.665,-18185.085,-25189.605,-4242.555,-1059.84
1764762656.0823977,-565.425,-2406.195,-25266.465,-10241.91,-18183.105,-25184.655,-4240.62,-1055.88
1764762656.128644,-566.9549999999999,-2407.59,-25267.32,-10242.315,-18182.295,-25182.63,-4239.9,-1056.87
1764762656.128644,-569.2049999999999,-2409.57,-25266.915,-10239.795,-18178.515,-25179.795,-4238.19,-1058.355
1764762656.1291544,-567.5849999999999,-2406.915,-25266.285,-10241.64,-18182.07,-25185.24,-4240.53,-1057.59
