Timestamp,Channel1,Channel2,Channel3,Channel4,Channel5,Channel6,Channel7,Channel8
1764763199.7185235,-186.255,-1965.465,-26622.99,-7963.74,-17877.195,-25504.695,-5824.665,270.9
1764763199.7185235,-184.005,-1963.305,-26620.83,-7961.264999999999,-17875.62,-25503.345,-5822.82,272.745
1764763199.7185235,-184.68,-1964.115,-26621.82,-7962.03,-17875.844999999998,-25503.84,-5822.82,271.935
1764763199.7185235,-189.585,-1970.775,-26628.525,-7968.42,-17879.805,-25506.9,-5826.105,267.345
1764763199.7185235,-190.89,-1972.755,-26630.82,-7969.139999999999,-17878.77,-25505.865,-5826.195,266.715
1764763199.7185235,-188.415,-1970.37,-26626.59,-7965.179999999999,-17875.305,-25502.58,-5823.54,268.155
1764763199.7185235,-185.805,-1968.165,-26624.385,-7964.19,-17874.045,-25500.42,-5822.82,269.595
1764763199.7185235,-191.115,-1974.105,-26630.415,-7971.615,-17881.92,-25507.215,-5827.32,264.6
1764763199.7185235,-189.09,-1971.72,-26630.235,-7971.255,-17882.82,-25509.105,-5828.355,266.355
1764763199.7185235,-186.39,-1967.175,-26626.23,-7967.88,-17881.785,-25508.835,-5828.219999999999,268.11
1764763199.7185235,-186.84,-1965.105,-26621.82,-7965.09,-17882.864999999998,-25510.59,-5828.67,266.355
1764763199.7185235,-180.45,-1957.455,-26610.57,-7954.605,-17874.54,-25504.74,-5823.585,271.035
1764763199.7185235,-183.285,-1961.775,-26616.465,-7960.005,-17877.329999999998,-25507.305,-5824.665,268.29
1764763199.7185235,-187.515,-1969.515,-26626.77,-7966.934999999999,-17878.094999999998,-25505.595,-5824.755,267.66
1764763199.7185235,-186.39,-1970.055,-26627.31,-7965.54,-17874.45,-25501.185,-5822.91,270.27
1764763199.7185235,-184.455,-1967.805,-26624.295,-7962.255,-17871.704999999998,-25498.485,-5821.065,271.575
1764763199.7185235,-186.03,-1968.885,-26626.095,-7963.74,-17873.954999999998,-25499.7,-5821.514999999999,269.955
1764763199.7185235,-193.32,-1975.32,-26633.43,-7971.929999999999,-17881.245,-25507.08,-5827.455,262.935
1764763199.7185235,-192.195,-1973.43,-26631.09,-7970.58,-17881.829999999998,-25508.655,-5827.23,262.755
1764763199.7185235,-192.33,-1973.34,-26630.55,-7970.804999999999,-17883.045,-25509.825,-5828.4,262.575
1764763199.7185235,-191.655,-1972.44,-26629.515,-7970.264999999999,-17883.09,-25510.545,-5828.715,262.71
1764763199.7185235,-190.62,-1972.44,-26629.74,-7970.13,-17882.145,-25509.06,-5827.41,264.195
1764763199.766111,-188.325,-1971.0,-26629.02,-7968.69,-17878.094999999998,-25504.83,-5825.025,266.355
1764763199.766111,-192.735,-1975.995,-26634.195,-7973.325,-17883.585,-25509.195,-5828.04,262.08
1764763199.766111,-193.14,-1976.67,-26635.59,-7974.405,-17885.295,-25509.78,-5828.264999999999,262.62
1764763199.766111,-188.325,-1971.315,-26631.135,-7970.13,-17881.875,-25506.135,-5825.79,267.39
1764763199.766111,-188.55,-1972.395,-26631.36,-7970.804999999999,-17882.73,-25506.945,-5827.094999999999,266.4
1764763199.766111,-190.575,-1974.51,-26632.485,-7972.605,-17884.215,-25508.205,-5829.389999999999,264.42
1764763199.766111,-188.46,-1972.17,-26630.505,-7970.67,-17883.045,-25507.53,-5827.905,265.545
1764763199.766111,-189.45,-1972.575,-26630.325,-7970.264999999999,-17882.594999999998,-25508.16,-5827.59,264.105
1764763199.7669508,-194.58,-1976.805,-26634.465,-7973.955,-17886.735,-25512.525,-5830.469999999999,259.65
1764763199.7669508,-192.285,-1974.465,-26632.215,-7971.48,-17884.17,-25510.635,-5829.389999999999,261.585
1764763199.7669508,-189.72,-1971.315,-26628.66,-7967.61,-17882.145,-25508.205,-5828.804999999999,264.195
1764763199.7669508,-193.59,-1974.87,-26632.08,-7971.165,-17886.645,-25512.03,-5831.01,260.55
1764763199.7669508,-193.275,-1974.87,-26631.945,-7971.21,-17886.059999999998,-25511.445,-5830.514999999999,261.18
1764763199.7669508,-189.0,-1971.765,-26628.705,-7966.665,-17881.065,-25506.135,-5827.23,266.13
1764763199.7669508,-188.325,-1971.36,-26627.535,-7965.495,-17880.075,-25504.695,-5826.33,266.94
1764763199.7669508,-190.53,-1972.8,-26628.93,-7967.429999999999,-17881.11,-25506.18,-5827.77,264.51
1764763199.7669508,-190.845,-1973.295,-26629.965,-7968.059999999999,-17880.39,-25505.865,-5827.365,264.96
1764763199.7669508,-190.17,-1973.43,-26630.055,-7967.519999999999,-17880.66,-25506.09,-5827.005,265.905
1764763199.7669508,-191.25,-1973.43,-26630.37,-7967.924999999999,-17881.92,-25508.25,-5827.365,265.23
1764763199.7669508,-194.895,-1975.41,-26632.665,-7971.21,-17885.88,-25512.165,-5829.974999999999,261.405
1764763199.7669508,-192.015,-1972.845,-26629.38,-7968.014999999999,-17882.954999999998,-25508.745,-5828.264999999999,263.88
1764763199.7669508,-193.545,-1974.33,-26630.82,-7969.59,-17885.07,-25510.365,-5829.03,262.44
1764763199.7669508,-191.7,-1972.62,-26629.92,-7968.78,-17884.079999999998,-25509.33,-5828.58,263.475
1764763199.7669508,-188.865,-1970.1,-26627.58,-7965.63,-17880.84,-25506.72,-5826.42,266.175
1764763199.8141828,-186.75,-1967.355,-26625.465,-7963.785,-17879.265,-25504.92,-5824.395,267.93
1764763199.8141828,-188.685,-1968.705,-26625.87,-7963.875,-17879.805,-25506.405,-5825.295,266.085
1764763199.8141828,-185.355,-1966.275,-26623.035,-7960.995,-17877.149999999998,-25504.245,-5823.495,268.29
1764763199.8141828,-186.66,-1966.455,-26622.63,-7961.94,-17878.815,-25505.73,-5823.54,267.435
1764763199.8153963,-184.95,-1963.485,-26619.705,-7958.295,-17875.305,-25502.85,-5821.92,269.28
1764763199.8153963,-187.695,-1964.835,-26622.99,-7961.49,-17878.59,-25505.55,-5823.855,266.715
1764763199.8153963,-186.705,-1965.33,-26623.62,-7962.21,-17877.42,-25503.21,-5823.585,268.47
1764763199.8153963,-185.94,-1963.305,-26618.22,-7958.79,-17878.59,-25504.515,-5824.8,266.58
1764763199.8153963,-176.445,-1948.635,-26600.625,-7943.4,-17871.12,-25499.835,-5821.605,273.33
1764763199.8153963,-172.17,-1942.335,-26593.92,-7936.74,-17867.43,-25497.81,-5818.995,276.165
1764763199.8153963,-177.345,-1951.065,-26605.755,-7947.719999999999,-17872.649999999998,-25500.69,-5820.3,273.555
1764763199.8153963,-197.955,-1981.71,-26643.24,-7979.219999999999,-17888.445,-25509.69,-5829.615,260.505
1764763199.8153963,-208.395,-1998.9,-26662.995,-7995.24,-17894.385,-25512.84,-5834.25,253.215
1764763199.8153963,-203.85,-1991.565,-26654.175,-7987.455,-17891.055,-25511.04,-5831.639999999999,256.32
1764763199.8153963,-198.81,-1983.555,-26645.04,-7979.804999999999,-17887.725,-25509.06,-5829.435,259.02
1764763199.8153963,-193.68,-1977.705,-26636.715,-7973.099999999999,-17881.605,-25505.055,-5826.645,263.43
1764763199.8153963,-193.545,-1975.995,-26634.51,-7971.615,-17882.415,-25506.585,-5827.815,262.89
1764763199.8153963,-193.32,-1973.745,-26633.475,-7970.94,-17883.719999999998,-25508.205,-5828.849999999999,261.945
1764763199.8153963,-196.56,-1977.255,-26636.85,-7974.179999999999,-17886.465,-25511.445,-5830.155,259.155
1764763199.8153963,-199.44,-1980.99,-26641.62,-7978.23,-17890.065,-25514.1,-5832.27,257.22
1764763199.8153963,-195.795,-1977.525,-26637.66,-7975.394999999999,-17888.175,-25511.445,-5831.82,260.325
1764763199.8153963,-197.505,-1978.605,-26637.75,-7976.295,-17890.245,-25513.515,-5833.304999999999,257.535
1764763199.8153963,-201.555,-1980.72,-26640.225,-7978.32,-17892.989999999998,-25516.755,-5835.735,252.945
1764763199.8153963,-201.33,-1979.955,-26639.415,-7977.15,-17892.135,-25515.72,-5835.51,253.845
1764763199.8615508,-201.33,-1979.82,-26639.19,-7977.285,-17892.945,-25517.07,-5835.42,253.575
1764763199.8615508,-196.92,-1974.24,-26632.62,-7972.019999999999,-17889.3,-25514.595,-5832.09,256.635
1764763199.8615508,-193.14,-1969.02,-26626.275,-7966.62,-17886.87,-25513.02,-5830.38,258.48
1764763199.8615508,-191.745,-1967.85,-26625.42,-7965.269999999999,-17886.149999999998,-25511.94,-5829.705,260.28
1764763199.8615508,-197.055,-1980.045,-26641.44,-7977.554999999999,-17888.399999999998,-25509.87,-5830.605,259.695
1764763199.8615508,-202.32,-1987.29,-26649.54,-7983.269999999999,-17890.695,-25509.6,-5832.315,256.545
1764763199.8615508,-201.105,-1983.465,-26645.13,-7980.21,-17892.63,-25513.245,-5833.575,256.05
1764763199.8615508,-202.185,-1982.925,-26643.195,-7979.355,-17894.925,-25516.62,-5835.915,253.215
1764763199.8615508,-199.26,-1979.37,-26638.47,-7975.44,-17892.585,-25515.27,-5835.87,254.97
1764763199.8615508,-201.15,-1980.99,-26640.135,-7977.87,-17894.969999999998,-25517.115,-5836.185,254.52
1764763199.8615508,-197.955,-1976.94,-26635.995,-7973.28,-17892.09,-25514.325,-5834.115,257.445
1764763199.8615508,-197.415,-1976.13,-26635.095,-7971.525,-17890.739999999998,-25513.74,-5833.304999999999,257.805
1764763199.8615508,-204.615,-1985.58,-26646.66,-7982.82,-17897.895,-25518.645,-5837.4,252.9
1764763199.8615508,-205.515,-1988.37,-26649.855,-7986.15,-17899.29,-25518.555,-5838.344999999999,252.72
1764763199.8615508,-200.565,-1981.665,-26641.395,-7978.365,-17894.43,-25514.685,-5836.545,256.095
1764763199.8615508,-197.82,-1979.055,-26638.245,-7975.44,-17892.36,-25513.785,-5835.105,257.04
1764763199.8615508,-197.55,-1978.38,-26636.265,-7974.405,-17891.28,-25514.235,-5834.34,257.22
1764763199.8615508,-199.125,-1979.82,-26638.11,-7975.844999999999,-17892.225,-25515.045,-5835.42,255.555
1764763199.8627398,-199.62,-1981.215,-26639.865,-7977.825,-17893.485,-25516.125,-5835.195,255.06
1764763199.8627398,-201.105,-1982.07,-26640.585,-7977.554999999999,-17894.34,-25517.745,-5835.195,254.295
1764763199.8627398,-199.665,-1980.09,-26638.605,-7975.485,-17892.675,-25515.765,-5834.745,256.32
1764763199.8627398,-202.995,-1983.87,-26643.06,-7980.075,-17895.465,-25517.43,-5835.554999999999,254.565
1764763199.8627398,-202.905,-1984.23,-26645.58,-7981.065,-17894.52,-25515.99,-5835.465,255.645
1764763199.8627398,-204.39,-1984.815,-26645.895,-7980.929999999999,-17895.735,-25516.89,-5835.465,254.475
1764763199.9059713,-203.22,-1983.375,-26642.565,-7978.815,-17895.96,-25517.835,-5836.32,254.205
1764763199.9059713,-202.005,-1981.395,-26639.595,-7976.88,-17895.195,-25517.97,-5836.724999999999,253.845
1764763199.9059713,-199.8,-1977.795,-26636.355,-7974.269999999999,-17894.385,-25517.295,-5836.815,255.105
1764763199.9059713,-201.555,-1979.235,-26637.705,-7975.08,-17897.04,-25519.815,-5837.804999999999,252.27
1764763199.9059713,-199.665,-1977.165,-26634.555,-7971.48,-17894.43,-25517.97,-5836.139999999999,253.755
1764763199.9069834,-199.17,-1977.255,-26635.32,-7971.48,-17892.989999999998,-25516.305,-5835.735,255.87
1764763199.9069834,-209.43,-1990.98,-26651.16,-7985.655,-17900.82,-25520.715,-5839.29,250.02
1764763199.9069834,-209.97,-1993.635,-26654.715,-7987.59,-17897.579999999998,-25517.97,-5838.12,251.01
1764763199.9069834,-207.99,-1990.575,-26651.07,-7985.07,-17897.94,-25520.13,-5839.65,251.28
1764763199.9069834,-206.91,-1988.505,-26648.55,-7983.719999999999,-17898.075,-25519.995,-5839.605,251.325
1764763199.9069834,-207.81,-1988.415,-26648.415,-7983.405,-17900.01,-25521.03,-5839.605,250.47
1764763199.9069834,-208.125,-1988.595,-26648.28,-7983.315,-17900.505,-25521.12,-5839.29,249.66
1764763199.9069834,-203.355,-1984.05,-26642.61,-7977.105,-17894.565,-25516.26,-5836.86,253.62
1764763199.9069834,-202.095,-1981.62,-26640.54,-7975.304999999999,-17892.989999999998,-25515.18,-5835.105,254.16
1764763199.9069834,-201.15,-1980.09,-26639.415,-7973.865,-17891.774999999998,-25513.605,-5833.844999999999,255.555
1764763199.9069834,-200.34,-1979.82,-26638.155,-7973.37,-17891.055,-25513.56,-5833.44,256.23
1764763199.9069834,-204.39,-1983.195,-26642.475,-7978.275,-17896.905,-25519.095,-5836.545,252.72
1764763199.9069834,-199.89,-1978.65,-26637.975,-7974.45,-17894.61,-25517.025,-5834.79,256.815
1764763199.907978,-198.585,-1976.22,-26634.195,-7970.804999999999,-17892.18,-25515.81,-5833.98,257.13
1764763199.907978,-199.08,-1976.895,-26632.755,-7969.545,-17891.64,-25515.405,-5833.08,256.725
1764763199.907978,-197.1,-1975.68,-26632.62,-7968.24,-17889.434999999998,-25511.985,-5831.235,259.47
1764763199.907978,-200.52,-1980.36,-26639.325,-7973.82,-17892.135,-25513.245,-5832.09,257.13
1764763199.9535248,-198.405,-1978.515,-26638.155,-7973.73,-17891.684999999998,-25512.03,-5831.46,259.83
1764763199.9535248,-197.01,-1975.905,-26634.33,-7970.174999999999,-17891.055,-25513.47,-5832.135,259.56
1764763199.9535248,-194.445,-1973.43,-26631.72,-7967.25,-17888.445,-25511.49,-5830.065,261.855
1764763199.9535248,-194.715,-1974.87,-26633.97,-7968.059999999999,-17887.32,-25510.32,-5827.545,262.305
1764763199.9535248,-195.885,-1976.58,-26636.04,-7969.275,-17887.77,-25510.14,-5826.87,261.36
1764763199.9535248,-194.04,-1974.285,-26633.565,-7967.79,-17886.96,-25510.23,-5827.275,262.395
1764763199.9535248,-190.71,-1970.46,-26630.01,-7965.405,-17886.059999999998,-25508.835,-5826.87,264.645
1764763199.9535248,-190.62,-1968.03,-26626.815,-7964.144999999999,-17888.355,-25512.12,-5827.635,263.835
1764763199.954029,-189.945,-1966.725,-26626.32,-7964.099999999999,-17888.895,-25512.57,-5827.77,264.015
1764763199.954029,-192.375,-1972.08,-26632.44,-7968.375,-17888.219999999998,-25510.905,-5827.139999999999,263.565
1764763199.954029,-195.75,-1978.56,-26641.485,-7975.304999999999,-17889.614999999998,-25509.6,-5827.23,263.745
1764763199.954029,-204.12,-1988.415,-26651.79,-7985.519999999999,-17898.21,-25516.98,-5832.99,256.185
1764763199.954029,-199.755,-1981.845,-26644.5,-7979.445,-17896.094999999998,-25516.575,-5831.73,258.12
1764763199.954029,-195.75,-1977.345,-26639.28,-7975.62,-17893.26,-25514.19,-5829.389999999999,261.675
1764763199.954029,-192.105,-1973.205,-26634.825,-7971.255,-17890.425,-25511.985,-5827.365,265.545
1764763199.954029,-194.445,-1974.915,-26635.59,-7972.514999999999,-17894.07,-25515.27,-5828.849999999999,262.485
1764763199.954029,-198.765,-1981.395,-26642.52,-7977.554999999999,-17895.465,-25515.405,-5831.01,259.245
1764763199.954029,-202.005,-1985.355,-26646.885,-7980.525,-17894.52,-25514.37,-5831.235,257.085
1764763199.954029,-199.215,-1981.53,-26642.97,-7977.285,-17893.079999999998,-25514.055,-5830.065,259.11
1764763199.954029,-193.68,-1974.465,-26634.15,-7969.59,-17889.255,-25510.77,-5826.825,263.205
1764763199.954029,-190.305,-1969.11,-26627.985,-7963.335,-17885.25,-25507.17,-5824.71,266.985
1764763199.954029,-195.84,-1976.625,-26634.465,-7969.094999999999,-17888.489999999998,-25510.905,-5827.5,262.35
1764763200.0029924,-198.225,-1980.495,-26640.315,-7973.639999999999,-17889.57,-25510.455,-5827.275,261.855
1764763200.0029924,-194.085,-1974.78,-26635.005,-7969.32,-17887.094999999998,-25507.575,-5825.205,265.095
1764763200.0029924,-197.82,-1978.245,-26637.84,-7972.155,-17891.28,-25512.93,-5828.175,260.325
1764763200.0029924,-195.975,-1975.86,-26633.43,-7967.835,-17888.895,-25512.75,-5828.13,260.64
1764763200.0029924,-192.555,-1970.505,-26627.355,-7963.74,-17886.239999999998,-25511.355,-5828.13,262.17
1764763200.0029924,-188.685,-1967.805,-26625.105,-7960.545,-17880.57,-25504.515,-5823.675,267.03
1764763200.0029924,-192.87,-1975.5,-26633.34,-7968.24,-17885.295,-25506.135,-5824.889999999999,265.545
1764763200.0029924,-197.055,-1981.755,-26641.17,-7974.495,-17888.13,-25507.35,-5825.429999999999,263.52
1764763200.0029924,-195.03,-1978.425,-26637.705,-7970.849999999999,-17886.239999999998,-25506.36,-5823.99,264.87
1764763200.0029924,-192.6,-1973.34,-26631.54,-7966.17,-17884.53,-25506.675,-5823.99,264.96
1764763200.0029924,-191.07,-1972.26,-26629.92,-7965.36,-17883.54,-25506.495,-5822.82,266.04
1764763200.0029924,-190.395,-1973.61,-26631.18,-7966.394999999999,-17883.315,-25506.405,-5821.74,266.85
1764763200.0029924,-188.37,-1970.235,-26628.21,-7963.514999999999,-17882.37,-25506.0,-5820.974999999999,268.65
1764763200.0029924,-186.705,-1968.165,-26623.98,-7958.88,-17877.69,-25503.12,-5819.535,270.405
1764763200.0029924,-184.14,-1965.78,-26620.965,-7956.0,-17874.809999999998,-25498.62,-5816.205,272.61
1764763200.0029924,-188.37,-1970.415,-26626.995,-7960.545,-17879.219999999998,-25500.6,-5817.465,269.865
1764763200.0029924,-186.615,-1968.21,-26626.455,-7958.79,-17877.78,-25497.63,-5816.565,271.575
1764763200.0029924,-187.2,-1968.615,-26627.4,-7959.105,-17878.23,-25498.62,-5816.295,270.855
1764763200.0029924,-182.88,-1962.945,-26620.695,-7952.445,-17873.1,-25494.795,-5813.415,274.635
1764763200.0029924,-186.345,-1966.005,-26621.415,-7954.469999999999,-17875.8,-25498.665,-5816.025,270.99
1764763200.0029924,-187.38,-1970.19,-26626.05,-7959.014999999999,-17879.445,-25500.6,-5817.105,270.36
1764763200.0029924,-186.255,-1971.045,-26628.435,-7960.139999999999,-17878.14,-25498.71,-5816.115,272.835
1764763200.0029924,-187.29,-1970.505,-26628.255,-7962.165,-17881.875,-25503.03,-5818.86,271.08
1764763200.0029924,-189.045,-1970.28,-26628.795,-7964.144999999999,-17884.844999999998,-25507.44,-5821.514999999999,268.02
1764763200.0029924,-187.605,-1970.145,-26629.695,-7962.344999999999,-17881.245,-25502.175,-5818.724999999999,270.945
1764763200.0029924,-187.695,-1969.29,-26628.435,-7960.5,-17879.985,-25501.545,-5819.219999999999,271.17
1764763200.046129,-188.325,-1968.255,-26625.42,-7958.34,-17879.895,-25502.94,-5819.804999999999,269.01
1764763200.046129,-186.435,-1969.47,-26627.13,-7958.025,-17876.25,-25496.73,-5815.755,272.7
1764763200.046129,-185.13,-1969.065,-26627.22,-7957.485,-17874.18,-25494.12,-5813.91,274.365
1764763200.046129,-184.095,-1965.465,-26624.25,-7956.63,-17876.79,-25497.315,-5815.53,273.555
1764763200.046129,-187.74,-1967.355,-26626.95,-7959.554999999999,-17881.829999999998,-25503.21,-5818.41,270.495
1764763200.046129,-186.93,-1966.32,-26624.52,-7957.215,-17880.165,-25502.4,-5817.195,270.945
1764763200.046129,-184.77,-1964.34,-26621.28,-7954.559999999999,-17877.465,-25499.88,-5815.485,272.655
1764763200.046129,-184.86,-1964.52,-26621.91,-7954.965,-17875.934999999998,-25497.81,-5814.719999999999,273.105
1764763200.0471723,-186.48,-1967.265,-26625.825,-7957.98,-17878.545,-25499.205,-5815.755,271.665
1764763200.0471723,-191.43,-1974.69,-26635.725,-7966.44,-17882.28,-25500.96,-5817.96,268.965
1764763200.0471723,-195.165,-1980.135,-26641.845,-7970.715,-17883.945,-25501.59,-5819.13,266.805
1764763200.0471723,-190.125,-1973.97,-26633.7,-7963.83,-17880.75,-25499.025,-5816.565,271.215
1764763200.0471723,-182.97,-1964.565,-26624.43,-7956.315,-17876.655,-25495.515,-5812.83,276.75
1764763200.0471723,-184.14,-1963.665,-26622.855,-7956.134999999999,-17878.995,-25498.53,-5814.405,274.635
1764763200.0471723,-181.755,-1960.92,-26620.605,-7953.165,-17875.844999999998,-25495.785,-5812.695,277.02
1764763200.0481925,-185.94,-1965.465,-26625.645,-7957.259999999999,-17878.905,-25498.08,-5814.495,274.365
1764763200.0481925,-183.555,-1964.25,-26624.745,-7956.9,-17877.329999999998,-25496.055,-5813.55,277.785
1764763200.0481925,-189.72,-1972.215,-26634.51,-7964.505,-17883.18,-25501.635,-5816.745,272.205
1764763200.0481925,-189.54,-1973.295,-26635.905,-7965.809999999999,-17883.225,-25501.995,-5817.195,270.855
1764763200.0481925,-186.66,-1968.255,-26627.805,-7959.69,-17879.895,-25500.105,-5815.17,272.43
1764763200.0481925,-182.565,-1960.965,-26619.21,-7953.03,-17876.204999999998,-25498.035,-5813.82,275.13
1764763200.0481925,-176.67,-1955.385,-26613.495,-7947.45,-17871.614999999998,-25492.59,-5810.13,280.215
1764763200.09457,-180.765,-1961.415,-26621.775,-7953.165,-17873.505,-25492.995,-5809.905,278.595
1764763200.09457,-190.665,-1973.7,-26635.185,-7964.955,-17882.19,-25500.06,-5815.98,270.72
1764763200.09457,-190.305,-1975.41,-26636.58,-7965.855,-17881.155,-25499.43,-5816.565,271.305
1764763200.09457,-185.58,-1969.56,-26629.83,-7959.96,-17875.89,-25495.965,-5813.505,275.175
1764763200.09457,-189.63,-1971.99,-26633.205,-7963.559999999999,-17880.614999999998,-25500.87,-5815.665,271.53
1764763200.09457,-186.93,-1969.56,-26630.415,-7961.67,-17880.795,-25500.69,-5814.675,273.105
1764763200.09457,-181.485,-1963.575,-26624.295,-7955.82,-17877.195,-25496.955,-5811.57,277.92
1764763200.09457,-182.43,-1963.755,-26623.755,-7956.134999999999,-17878.184999999998,-25497.945,-5811.974999999999,276.57
1764763200.09457,-178.38,-1959.12,-26619.03,-7951.094999999999,-17874.27,-25494.48,-5810.355,279.99
1764763200.09457,-178.42499999999998,-1958.67,-26619.12,-7949.88,-17872.559999999998,-25492.41,-5809.455,281.385
1764763200.09457,-180.045,-1961.91,-26623.575,-7952.804999999999,-17872.065,-25491.42,-5808.87,280.71
1764763200.09457,-181.305,-1962.135,-26623.215,-7953.974999999999,-17875.755,-25495.155,-5811.615,277.83
1764763200.09457,-172.07999999999998,-1949.67,-26608.365,-7942.32,-17868.96,-25490.25,-5806.71,284.535
1764763200.09457,-167.085,-1940.31,-26595.945,-7932.42,-17864.864999999998,-25489.44,-5804.594999999999,286.785
1764763200.09457,-167.94,-1940.58,-26594.955,-7931.295,-17865.315,-25490.16,-5803.965,285.975
1764763200.09457,-177.29999999999998,-1956.105,-26614.035,-7945.875,-17869.14,-25490.385,-5805.45,281.97
1764763200.09457,-187.74,-1972.845,-26636.265,-7962.57,-17874.585,-25492.365,-5808.69,276.66
1764763200.09457,-189.63,-1977.57,-26641.125,-7965.63,-17875.62,-25491.645,-5810.264999999999,275.445
1764763200.09457,-184.68,-1966.815,-26626.77,-7955.594999999999,-17875.125,-25493.535,-5810.67,276.66
1764763200.09457,-181.035,-1958.355,-26616.105,-7947.63,-17873.055,-25494.03,-5809.905,277.425
1764763200.09457,-175.545,-1951.785,-26608.725,-7941.554999999999,-17867.835,-25490.25,-5806.755,281.97
1764763200.0951056,-182.43,-1961.82,-26621.28,-7953.344999999999,-17874.855,-25494.885,-5809.5,277.335
1764763200.0951056,-183.735,-1966.725,-26627.355,-7957.17,-17874.899999999998,-25493.445,-5810.4,278.055
1764763200.0951056,-187.47,-1970.415,-26630.055,-7960.094999999999,-17878.184999999998,-25496.325,-5812.92,274.23
1764763200.1415083,-188.505,-1971.27,-26630.865,-7961.219999999999,-17879.175,-25496.64,-5813.639999999999,273.285
1764763200.1415083,-184.14,-1966.365,-26625.015,-7955.28,-17874.495,-25493.445,-5811.389999999999,277.38
1764763200.1415083,-186.255,-1968.795,-26628.03,-7957.844999999999,-17877.015,-25495.47,-5812.155,275.58
1764763200.1415083,-184.59,-1968.57,-26628.84,-7957.304999999999,-17874.405,-25491.285,-5811.075,277.875
1764763200.1415083,-185.895,-1969.425,-26629.695,-7959.69,-17876.969999999998,-25493.85,-5812.2,275.715
1764763200.1415083,-187.965,-1970.775,-26631.045,-7961.219999999999,-17879.175,-25496.685,-5812.875,273.42
1764763200.1415083,-183.465,-1966.095,-26626.455,-7957.08,-17875.26,-25493.04,-5811.12,278.28
1764763200.1415083,-184.77,-1966.68,-26627.4,-7958.295,-17877.555,-25495.29,-5813.19,277.02
1764763200.1415083,-184.545,-1964.97,-26625.33,-7956.54,-17877.42,-25495.92,-5813.235,277.245
1764763200.1420438,-183.87,-1963.53,-26624.565,-7957.035,-17879.355,-25496.775,-5813.19,277.38
1764763200.1420438,-185.175,-1965.735,-26626.59,-7960.724999999999,-17883.719999999998,-25501.095,-5815.17,275.985
1764763200.1420438,-179.64,-1960.02,-26620.83,-7954.695,-17878.05,-25495.83,-5810.219999999999,281.295
1764763200.1420438,-182.88,-1963.845,-26625.465,-7958.565,-17879.895,-25497.675,-5810.895,278.28
1764763200.1420438,-181.755,-1962.54,-26621.82,-7956.045,-17878.23,-25496.415,-5810.264999999999,278.955
1764763200.1420438,-178.155,-1958.355,-26618.04,-7951.545,-17873.864999999998,-25492.59,-5807.745,281.61
1764763200.1420438,-178.73999999999998,-1958.22,-26618.895,-7950.735,-17873.505,-25492.455,-5807.34,280.755
1764763200.1420438,-172.39499999999998,-1950.84,-26610.84,-7943.219999999999,-17867.07,-25486.83,-5804.099999999999,286.515
1764763200.1420438,-174.15,-1950.3,-26608.455,-7943.445,-17870.715,-25491.915,-5807.025,283.095
1764763200.1420438,-176.94,-1953.81,-26613.585,-7949.295,-17875.98,-25495.83,-5808.87,281.43
1764763200.1420438,-182.88,-1964.52,-26627.265,-7959.375,-17879.13,-25495.92,-5810.625,278.505
1764763200.1420438,-185.94,-1970.775,-26635.59,-7965.179999999999,-17879.85,-25495.47,-5811.075,277.785
1764763200.1420438,-189.36,-1974.06,-26638.335,-7968.644999999999,-17884.17,-25499.88,-5813.639999999999,274.32
1764763200.1887474,-187.92,-1971.09,-26635.725,-7966.665,-17884.395,-25499.385,-5813.82,274.86
1764763200.1887474,-181.845,-1964.205,-26628.57,-7960.23,-17878.905,-25494.615,-5810.804999999999,279.675
1764763200.1887474,-180.63,-1962.945,-26626.77,-7959.105,-17878.05,-25494.12,-5809.995,280.53
1764763200.1887474,-181.395,-1962.855,-26625.69,-7959.014999999999,-17879.265,-25495.605,-5809.679999999999,279.27
1764763200.1887474,-176.04,-1955.79,-26618.265,-7952.535,-17874.945,-25491.06,-5806.62,284.58
1764763200.1887474,-174.87,-1953.18,-26613.495,-7949.07,-17873.774999999998,-25491.06,-5806.889999999999,285.48
1764763200.1887474,-173.83499999999998,-1951.335,-26610.48,-7946.46,-17872.515,-25490.745,-5806.17,286.29
1764763200.1887474,-175.545,-1954.08,-26614.575,-7949.115,-17873.46,-25490.7,-5806.485,284.355
1764763200.1887474,-178.965,-1958.58,-26620.245,-7953.705,-17876.25,-25493.805,-5808.24,281.475
1764763200.1887474,-181.89,-1963.17,-26624.925,-7957.304999999999,-17878.274999999998,-25495.695,-5808.645,279.18
1764763200.1887474,-178.245,-1956.735,-26617.725,-7950.15,-17874.63,-25492.68,-5807.07,281.655
1764763200.1887474,-173.11499999999998,-1950.57,-26610.885,-7944.434999999999,-17870.535,-25488.54,-5804.19,285.93
1764763200.1887474,-176.535,-1954.98,-26616.285,-7949.745,-17873.684999999998,-25491.375,-5805.495,283.005
1764763200.1887474,-172.755,-1952.37,-26613.945,-7946.415,-17869.23,-25487.1,-5803.245,286.74
1764763200.1887474,-173.07,-1954.035,-26617.995,-7949.429999999999,-17871.075,-25487.28,-5802.435,288.315
1764763200.1887474,-180.405,-1963.755,-26628.57,-7958.16,-17875.62,-25490.565,-5806.17,281.97
1764763200.1892517,-181.755,-1963.755,-26626.005,-7957.17,-17877.105,-25494.345,-5808.554999999999,278.55
1764763200.1892517,-174.105,-1953.0,-26614.395,-7945.965,-17870.805,-25488.765,-5804.37,285.3
1764763200.1892517,-174.95999999999998,-1954.53,-26615.79,-7946.82,-17871.075,-25488.63,-5804.865,285.255
1764763200.1892517,-179.37,-1960.29,-26622.045,-7952.309999999999,-17874.135,-25490.205,-5806.485,282.105
1764763200.1892517,-185.67,-1966.365,-26628.705,-7959.78,-17880.975,-25495.47,-5810.04,277.155
1764763200.1892517,-187.695,-1970.19,-26632.845,-7963.65,-17883.675,-25497.495,-5811.165,275.985
1764763200.1892517,-186.48,-1969.155,-26631.945,-7963.29,-17884.215,-25497.72,-5811.885,275.805
1764763200.1892517,-180.495,-1962.945,-26624.16,-7956.315,-17879.13,-25493.265,-5808.915,279.765
1764763200.1892517,-176.445,-1958.4,-26619.93,-7951.815,-17874.495,-25490.025,-5806.844999999999,283.95
1764763200.1892517,-181.485,-1962.0,-26623.035,-7954.92,-17878.545,-25495.155,-5809.905,279.765
1764763200.2357142,-179.325,-1960.335,-26621.55,-7953.344999999999,-17876.61,-25492.905,-5808.78,281.7
1764763200.2357142,-180.675,-1962.36,-26624.34,-7955.73,-17878.14,-25493.805,-5808.69,280.17
1764763200.2357142,-176.89499999999998,-1958.445,-26620.605,-7951.769999999999,-17874.225,-25490.16,-5805.405,284.355
1764763200.2357142,-174.465,-1954.665,-26615.745,-7947.855,-17871.434999999998,-25488.81,-5803.695,286.245
1764763200.2357142,-172.89,-1950.885,-26610.795,-7943.445,-17870.13,-25487.955,-5802.12,286.335
1764763200.2357142,-168.795,-1945.98,-26602.92,-7935.57,-17864.37,-25483.95,-5799.195,288.81
1764763200.2357142,-167.625,-1944.045,-26600.94,-7933.815,-17861.489999999998,-25481.52,-5797.755,291.195
1764763200.2357142,-168.57,-1947.465,-26607.51,-7938.674999999999,-17861.219999999998,-25478.865,-5797.17,292.095
1764763200.2357142,-169.82999999999998,-1950.705,-26612.19,-7942.41,-17864.37,-25479.63,-5797.349999999999,291.375
1764763200.2357142,-175.905,-1956.33,-26618.895,-7948.934999999999,-17871.39,-25487.01,-5802.21,286.155
1764763200.2357142,-176.48999999999998,-1957.905,-26621.145,-7951.769999999999,-17874.495,-25489.89,-5803.56,285.84
1764763200.2357142,-173.385,-1955.655,-26619.03,-7949.655,-17873.055,-25488.495,-5802.435,287.46
1764763200.2357142,-169.56,-1951.02,-26613.72,-7943.264999999999,-17866.035,-25482.645,-5799.105,291.645
1764763200.2357142,-171.18,-1952.1,-26614.215,-7943.085,-17865.945,-25483.23,-5799.915,290.52
1764763200.2357142,-173.61,-1953.09,-26615.025,-7945.29,-17870.085,-25487.595,-5801.58,287.055
1764763200.2357142,-169.695,-1948.545,-26608.68,-7940.025,-17867.969999999998,-25485.75,-5800.23,290.16
1764763200.2362468,-171.63,-1951.02,-26610.84,-7941.96,-17870.219999999998,-25487.055,-5801.175,288.45
1764763200.2362468,-171.58499999999998,-1952.37,-26614.17,-7943.985,-17869.23,-25484.895,-5800.05,290.07
1764763200.2362468,-173.07,-1954.35,-26617.32,-7945.875,-17869.454999999998,-25484.94,-5800.905,288.675
1764763200.2362468,-174.32999999999998,-1955.115,-26617.095,-7947.09,-17872.605,-25488.855,-5804.01,286.56
1764763200.2362468,-175.995,-1956.915,-26617.095,-7948.62,-17875.575,-25492.095,-5805.54,284.265
1764763200.2362468,-172.665,-1951.695,-26610.255,-7942.545,-17871.12,-25488.315,-5802.885,287.1
1764763200.2813675,-176.4,-1955.79,-26614.44,-7945.92,-17872.739999999998,-25490.295,-5803.83,284.22
1764763200.2813675,-180.405,-1964.52,-26626.005,-7954.65,-17874.765,-25489.305,-5805.09,284.085
1764763200.2813675,-186.435,-1972.53,-26635.905,-7962.389999999999,-17878.815,-25491.51,-5807.565,280.98
1764763200.2813675,-187.92,-1972.44,-26635.275,-7963.38,-17882.055,-25494.795,-5808.645,278.91
1764763200.2813675,-180.99,-1965.195,-26627.49,-7956.945,-17878.995,-25492.23,-5806.98,282.645
1764763200.2813675,-180.27,-1963.845,-26625.87,-7956.45,-17878.364999999998,-25492.815,-5807.115,282.6
1764763200.2813675,-178.605,-1961.64,-26623.44,-7954.38,-17876.43,-25491.195,-5805.27,283.68
1764763200.2813675,-177.66,-1959.975,-26621.73,-7951.769999999999,-17874.675,-25490.97,-5805.45,284.175
1764763200.2813675,-178.065,-1958.805,-26621.73,-7950.87,-17874.54,-25491.42,-5805.045,284.58
1764763200.2813675,-179.325,-1960.92,-26622.765,-7953.615,-17876.655,-25493.04,-5806.125,282.285
1764763200.2813675,-175.59,-1956.015,-26617.815,-7948.394999999999,-17874.0,-25490.79,-5804.955,285.03
1764763200.2813675,-176.13,-1954.53,-26615.475,-7946.865,-17874.135,-25491.6,-5804.594999999999,284.445
1764763200.2813675,-175.76999999999998,-1954.53,-26617.005,-7947.269999999999,-17873.46,-25490.43,-5803.83,285.84
1764763200.2813675,-181.89,-1962.315,-26624.565,-7953.974999999999,-17878.454999999998,-25494.3,-5808.195,280.845
1764763200.2813675,-180.585,-1961.595,-26623.935,-7952.219999999999,-17875.215,-25489.935,-5806.125,282.825
1764763200.2813675,-184.32,-1967.715,-26630.055,-7958.16,-17878.14,-25492.05,-5807.925,278.595
1764763200.2813675,-186.75,-1969.38,-26632.665,-7960.365,-17880.39,-25493.805,-5810.219999999999,276.57
1764763200.2813675,-188.28,-1970.46,-26633.025,-7961.894999999999,-17882.73,-25497.315,-5812.785,274.545
1764763200.2813675,-185.265,-1966.77,-26629.335,-7959.105,-17881.065,-25495.605,-5811.57,277.47
1764763200.2813675,-186.12,-1967.4,-26630.28,-7960.634999999999,-17882.91,-25497.315,-5811.885,276.3
1764763200.2813675,-181.845,-1962.81,-26626.995,-7957.889999999999,-17881.739999999998,-25495.83,-5811.3,279.72
1764763200.2813675,-180.945,-1960.29,-26623.665,-7955.505,-17881.92,-25496.685,-5810.804999999999,280.215
1764763200.2813675,-180.99,-1960.29,-26622.225,-7954.11,-17881.11,-25497.09,-5810.76,279.63
1764763200.2813675,-183.285,-1963.395,-26626.095,-7956.99,-17882.954999999998,-25498.845,-5811.795,277.56
1764763200.328853,-182.79,-1964.07,-26628.345,-7958.565,-17881.29,-25495.92,-5811.165,279.45
1764763200.328853,-181.44,-1962.18,-26626.095,-7955.684999999999,-17879.625,-25493.58,-5809.995,279.675
1764763200.328853,-181.665,-1959.12,-26621.325,-7952.445,-17879.579999999998,-25496.055,-5811.12,277.605
1764763200.328853,-187.02,-1963.53,-26624.97,-7956.269999999999,-17883.855,-25502.04,-5815.17,271.755
1764763200.328853,-189.405,-1969.92,-26632.395,-7961.94,-17884.44,-25500.51,-5814.719999999999,271.575
1764763200.328853,-194.85,-1978.335,-26643.69,-7971.344999999999,-17888.04,-25501.455,-5817.014999999999,268.65
1764763200.328853,-193.05,-1974.33,-26638.965,-7967.565,-17888.219999999998,-25502.805,-5818.005,269.91
1764763200.328853,-185.265,-1965.555,-26627.94,-7958.519999999999,-17883.18,-25498.845,-5815.215,275.22
1764763200.328853,-180.54,-1959.975,-26622.405,-7952.894999999999,-17880.075,-25495.38,-5812.065,279.63
1764763200.328853,-180.0,-1959.615,-26622.72,-7953.165,-17880.165,-25495.425,-5811.03,280.845
1764763200.328853,-180.54,-1961.28,-26624.925,-7955.684999999999,-17881.829999999998,-25496.64,-5810.804999999999,279.675
1764763200.328853,-181.71,-1960.965,-26623.8,-7955.415,-17882.82,-25497.765,-5811.795,277.785
1764763200.328853,-179.14499999999998,-1959.93,-26622.63,-7953.795,-17879.265,-25494.255,-5809.365,281.07
1764763200.328853,-186.255,-1970.73,-26635.905,-7964.505,-17885.61,-25499.07,-5812.29,275.445
1764763200.328853,-184.635,-1968.615,-26634.33,-7962.21,-17883.495,-25497.135,-5811.344999999999,277.605
1764763200.328853,-184.815,-1965.78,-26628.705,-7959.195,-17883.225,-25499.385,-5811.48,276.345
1764763200.328853,-184.365,-1965.42,-26626.815,-7956.405,-17880.84,-25497.72,-5810.94,276.975
1764763200.328853,-184.68,-1965.15,-26627.22,-7955.955,-17879.715,-25496.01,-5810.264999999999,277.155
1764763200.328853,-184.365,-1965.645,-26629.56,-7956.99,-17880.165,-25495.875,-5810.264999999999,277.695
1764763200.328853,-185.67,-1967.355,-26632.305,-7960.679999999999,-17883.945,-25498.26,-5811.885,276.66
1764763200.328853,-186.255,-1967.4,-26632.26,-7961.219999999999,-17884.98,-25498.53,-5813.19,275.13
1764763200.328853,-179.95499999999998,-1960.29,-26624.295,-7952.58,-17878.545,-25492.995,-5808.96,281.07
1764763200.3761775,-179.055,-1960.02,-26624.79,-7953.344999999999,-17878.77,-25492.59,-5808.195,282.51
1764763200.3771913,-180.855,-1962.765,-26627.94,-7956.269999999999,-17880.975,-25493.67,-5808.735,281.52
1764763200.3771913,-179.73,-1960.47,-26625.015,-7954.92,-17881.38,-25494.93,-5810.04,281.295
1764763200.3771913,-179.91,-1958.895,-26622.405,-7953.12,-17880.075,-25495.245,-5809.815,281.115
1764763200.3771913,-187.02,-1966.905,-26630.865,-7961.174999999999,-17885.52,-25499.52,-5811.974999999999,275.67
1764763200.3771913,-189.135,-1971.18,-26635.725,-7963.965,-17886.195,-25499.745,-5812.695,274.725
1764763200.3771913,-187.965,-1970.55,-26635.185,-7962.884999999999,-17884.665,-25498.305,-5812.065,276.165
1764763200.3771913,-192.195,-1974.42,-26639.19,-7967.655,-17890.245,-25504.875,-5816.7,270.585
1764763200.3771913,-192.915,-1973.88,-26638.56,-7967.835,-17891.864999999998,-25506.405,-5818.77,269.28
1764763200.3771913,-188.055,-1967.715,-26632.08,-7961.58,-17887.905,-25502.715,-5816.115,272.385
1764763200.3771913,-183.42,-1961.37,-26624.79,-7954.83,-17882.954999999998,-25498.665,-5813.145,276.3
1764763200.3771913,-186.84,-1964.52,-26627.265,-7956.855,-17885.655,-25502.445,-5815.304999999999,273.15
1764763200.3771913,-184.59,-1963.17,-26626.14,-7954.74,-17882.954999999998,-25498.215,-5812.965,275.94
1764763200.3771913,-189.27,-1969.56,-26635.095,-7962.57,-17887.5,-25500.915,-5815.53,272.7
1764763200.3771913,-189.18,-1968.57,-26634.645,-7962.929999999999,-17888.04,-25502.895,-5815.889999999999,272.52
1764763200.3771913,-185.895,-1963.755,-26628.03,-7957.62,-17886.105,-25502.31,-5814.945,274.5
1764763200.3771913,-185.76,-1961.64,-26625.6,-7955.28,-17885.969999999998,-25501.815,-5815.98,274.68
1764763200.3771913,-189.27,-1967.445,-26632.665,-7961.49,-17887.995,-25502.445,-5817.285,272.295
1764763200.3771913,-196.38,-1979.145,-26646.345,-7972.83,-17893.26,-25506.27,-5820.705,266.985
1764763200.3771913,-197.595,-1980.405,-26646.93,-7974.315,-17896.41,-25509.78,-5821.965,264.645
1764763200.3771913,-189.765,-1970.73,-26635.59,-7965.315,-17890.785,-25504.83,-5818.455,271.035
1764763200.3771913,-193.32,-1973.07,-26637.03,-7967.88,-17894.25,-25508.655,-5820.615,267.21
1764763200.3771913,-194.94,-1973.7,-26638.605,-7968.735,-17895.555,-25509.105,-5821.56,266.13
1764763200.3771913,-193.365,-1973.115,-26639.28,-7969.455,-17893.665,-25507.08,-5820.435,267.885
1764763200.423344,-196.92,-1977.93,-26644.815,-7974.405,-17896.184999999998,-25510.455,-5823.135,264.735
1764763200.423344,-200.565,-1980.135,-26646.885,-7976.969999999999,-17898.795,-25514.055,-5825.655,260.145
1764763200.423344,-199.485,-1977.66,-26644.365,-7974.09,-17898.48,-25514.505,-5826.554999999999,259.83
1764763200.423344,-197.28,-1975.635,-26641.98,-7970.49,-17896.274999999998,-25512.165,-5824.665,262.26
1764763200.423344,-196.785,-1976.67,-26644.365,-7971.884999999999,-17895.465,-25509.915,-5823.855,264.33
1764763200.423344,-196.065,-1976.22,-26643.915,-7971.57,-17894.52,-25508.79,-5822.82,264.33
1764763200.423344,-193.365,-1972.17,-26638.74,-7966.98,-17892.09,-25508.16,-5821.695,265.635
1764763200.423344,-195.165,-1972.485,-26637.75,-7966.934999999999,-17892.809999999998,-25509.87,-5822.73,264.24
1764763200.423344,-201.87,-1978.83,-26644.86,-7975.259999999999,-17899.469999999998,-25515.315,-5827.005,259.47
1764763200.423344,-201.465,-1981.44,-26649.18,-7977.78,-17898.434999999998,-25511.94,-5826.014999999999,262.08
1764763200.423344,-201.105,-1981.755,-26650.35,-7977.554999999999,-17896.77,-25510.095,-5824.62,263.025
1764763200.423344,-198.315,-1976.49,-26644.14,-7971.929999999999,-17895.149999999998,-25510.32,-5823.27,263.52
1764763200.423344,-198.0,-1974.555,-26639.595,-7969.32,-17895.915,-25512.795,-5824.665,261.135
1764763200.423344,-192.06,-1967.49,-26630.82,-7961.219999999999,-17890.515,-25509.24,-5822.235,265.86
1764763200.423344,-196.785,-1972.8,-26636.67,-7966.844999999999,-17895.915,-25513.65,-5825.385,261.855
1764763200.423344,-197.82,-1977.165,-26643.78,-7971.165,-17894.88,-25510.275,-5823.719999999999,263.43
1764763200.423344,-199.395,-1981.17,-26649.18,-7974.855,-17895.69,-25508.745,-5823.045,263.385
1764763200.423344,-200.745,-1981.08,-26648.28,-7974.179999999999,-17896.184999999998,-25509.195,-5824.53,261.99
1764763200.423344,-203.13,-1984.005,-26650.98,-7977.644999999999,-17900.28,-25513.515,-5825.88,258.93
1764763200.423344,-200.79,-1980.81,-26648.28,-7975.215,-17899.155,-25512.345,-5825.52,261.945
1764763200.423344,-200.97,-1979.145,-26645.94,-7975.215,-17900.864999999998,-25515.0,-5826.69,260.82
1764763200.423344,-200.52,-1977.435,-26643.78,-7974.0,-17901.405,-25516.845,-5825.79,259.965
1764763200.4683297,-197.505,-1973.565,-26640.315,-7969.769999999999,-17896.995,-25512.48,-5823.224999999999,263.52
1764763200.4683297,-199.62,-1977.435,-26643.24,-7972.605,-17898.975,-25514.955,-5825.16,261.315
1764763200.4683297,-198.36,-1975.905,-26642.16,-7971.884999999999,-17897.895,-25513.56,-5823.99,262.395
1764763200.4683297,-200.43,-1978.515,-26644.86,-7973.73,-17899.065,-25513.56,-5823.09,261.135
1764763200.4683297,-198.09,-1978.74,-26646.885,-7974.405,-17897.13,-25509.555,-5820.48,264.78
1764763200.4683297,-202.05,-1983.555,-26652.285,-7978.049999999999,-17899.38,-25512.075,-5822.955,262.53
1764763200.4683297,-197.37,-1976.805,-26644.455,-7971.21,-17895.375,-25509.96,-5821.965,265.77
1764763200.4683297,-196.245,-1974.465,-26640.855,-7968.78,-17894.745,-25509.42,-5821.065,266.49
1764763200.4683297,-196.65,-1973.745,-26640.09,-7969.724999999999,-17897.13,-25511.895,-5822.594999999999,265.41
1764763200.469336,-195.165,-1971.315,-26637.93,-7968.24,-17895.87,-25510.59,-5821.245,266.355
1764763200.469336,-195.345,-1972.44,-26639.505,-7968.375,-17894.52,-25509.42,-5819.849999999999,266.895
1764763200.469336,-195.345,-1972.395,-26638.065,-7967.07,-17895.96,-25511.22,-5820.21,265.275
1764763200.469336,-189.27,-1964.16,-26628.255,-7959.465,-17893.71,-25509.33,-5818.455,268.47
1764763200.469336,-186.345,-1959.165,-26620.605,-7953.299999999999,-17888.94,-25506.09,-5816.474999999999,270.585
1764763200.4703405,-188.91,-1963.845,-26627.715,-7958.429999999999,-17889.344999999998,-25504.83,-5816.429999999999,269.595
1764763200.4703405,-207.99,-1992.6,-26663.76,-7989.525,-17906.445,-25514.145,-5826.42,256.41
1764763200.4703405,-210.825,-1997.73,-26670.015,-7994.07,-17908.649999999998,-25516.035,-5828.4,254.745
1764763200.4703405,-203.85,-1987.65,-26658.135,-7983.09,-17904.059999999998,-25513.605,-5825.88,259.065
1764763200.4703405,-204.615,-1985.985,-26656.245,-7983.36,-17905.995,-25517.115,-5827.455,257.49
1764763200.4703405,-202.095,-1982.79,-26652.195,-7980.795,-17904.195,-25516.665,-5826.285,258.975
1764763200.4703405,-197.37,-1978.02,-26646.03,-7975.08,-17899.829999999998,-25512.435,-5823.675,262.62
1764763200.4703405,-199.44,-1977.975,-26644.95,-7974.945,-17900.954999999998,-25514.37,-5825.385,260.73
1764763200.4703405,-196.38,-1974.33,-26640.99,-7971.075,-17898.75,-25512.435,-5824.485,262.305
1764763200.4709835,-192.555,-1971.36,-26637.705,-7967.295,-17895.105,-25508.52,-5819.67,266.04
1764763200.4709835,-189.54,-1967.895,-26634.51,-7963.74,-17891.64,-25505.415,-5816.925,268.605
1764763200.4709835,-189.27,-1966.365,-26632.53,-7962.929999999999,-17892.18,-25506.405,-5817.375,268.11
1764763200.5167873,-195.165,-1972.62,-26640.315,-7969.769999999999,-17896.05,-25509.78,-5819.895,264.105
1764763200.5167873,-194.04,-1972.89,-26641.98,-7969.41,-17893.26,-25506.27,-5817.285,267.39
1764763200.5167873,-198.18,-1977.705,-26648.19,-7974.315,-17897.219999999998,-25509.015,-5818.905,264.195
1764763200.5167873,-194.67,-1973.52,-26643.33,-7970.355,-17895.6,-25508.745,-5818.59,266.04
1764763200.5167873,-195.345,-1971.54,-26639.955,-7967.969999999999,-17895.6,-25511.22,-5819.67,265.32
1764763200.5167873,-190.98,-1967.31,-26635.275,-7963.559999999999,-17891.64,-25508.34,-5817.87,268.785
1764763200.5167873,-196.245,-1973.88,-26644.095,-7971.12,-17896.995,-25511.175,-5819.445,265.545
1764763200.5167873,-201.87,-1982.115,-26654.265,-7979.94,-17901.54,-25513.65,-5822.235,261.585
1764763200.5167873,-200.205,-1980.495,-26653.5,-7979.849999999999,-17900.64,-25512.75,-5822.28,262.485
1764763200.5167873,-203.265,-1982.16,-26654.85,-7981.695,-17904.78,-25516.845,-5824.395,259.56
1764763200.5167873,-198.405,-1976.58,-26648.73,-7976.07,-17902.215,-25515.315,-5821.965,262.98
1764763200.5167873,-194.22,-1971.855,-26643.465,-7971.48,-17899.335,-25512.615,-5820.615,267.12
1764763200.5167873,-196.245,-1974.42,-26646.03,-7974.179999999999,-17901.18,-25514.37,-5821.29,265.455
1764763200.5167873,-198.495,-1976.355,-26647.83,-7975.98,-17901.495,-25514.91,-5822.054999999999,263.025
1764763200.5167873,-200.88,-1978.515,-26649.855,-7977.465,-17902.035,-25516.62,-5824.215,259.65
1764763200.5167873,-197.91,-1974.69,-26644.815,-7973.235,-17900.864999999998,-25515.54,-5822.73,260.91
1764763200.5167873,-191.07,-1965.78,-26634.735,-7964.82,-17896.005,-25510.59,-5817.735,267.66
1764763200.5167873,-186.93,-1959.21,-26626.23,-7956.99,-17889.75,-25505.82,-5813.594999999999,271.53
1764763200.5167873,-183.915,-1957.005,-26624.115,-7954.83,-17889.21,-25505.865,-5812.56,273.195
1764763200.5167873,-189.09,-1966.725,-26638.245,-7966.844999999999,-17896.094999999998,-25509.87,-5816.295,270.855
1764763200.5167873,-196.65,-1975.77,-26647.47,-7974.63,-17900.37,-25513.29,-5818.815,265.23
1764763200.5167873,-197.955,-1977.3,-26648.055,-7975.485,-17900.73,-25514.1,-5819.67,264.105
1764763200.56005,-193.905,-1971.315,-26642.43,-7968.24,-17893.98,-25508.655,-5816.7,268.065
1764763200.56005,-196.065,-1971.81,-26640.99,-7968.554999999999,-17896.995,-25511.49,-5818.679999999999,265.32
1764763200.5613985,-199.62,-1977.345,-26648.415,-7976.519999999999,-17903.204999999998,-25515.765,-5822.054999999999,261.81
1764763200.5613985,-200.52,-1981.755,-26654.085,-7980.929999999999,-17903.88,-25514.55,-5822.46,262.395
1764763200.5613985,-201.915,-1983.33,-26656.29,-7983.719999999999,-17908.02,-25517.88,-5823.719999999999,260.37
1764763200.5613985,-202.14,-1982.52,-26654.85,-7982.054999999999,-17908.065,-25519.545,-5824.035,258.615
1764763200.5613985,-195.255,-1973.88,-26644.005,-7972.065,-17900.415,-25513.695,-5820.344999999999,264.285
1764763200.5613985,-198.765,-1976.76,-26645.715,-7976.115,-17905.635,-25519.725,-5823.945,260.055
1764763200.5613985,-199.845,-1977.84,-26648.145,-7978.769999999999,-17908.965,-25522.515,-5825.52,258.48
1764763200.5613985,-200.34,-1978.56,-26649.765,-7979.94,-17909.37,-25522.38,-5825.79,258.705
1764763200.5613985,-200.295,-1980.27,-26652.015,-7981.065,-17908.649999999998,-25521.03,-5825.205,260.505
1764763200.5613985,-201.69,-1980.63,-26651.16,-7980.03,-17907.75,-25520.085,-5824.395,259.425
1764763200.5613985,-198.135,-1975.455,-26644.455,-7974.179999999999,-17904.015,-25517.79,-5822.145,261.45
1764763200.5613985,-196.065,-1972.395,-26640.945,-7971.344999999999,-17901.855,-25516.215,-5820.84,263.835
1764763200.5613985,-196.875,-1975.68,-26644.5,-7972.74,-17900.145,-25514.19,-5820.435,263.7
1764763200.5613985,-200.88,-1980.495,-26650.53,-7977.96,-17904.059999999998,-25516.17,-5822.325,260.82
1764763200.5613985,-199.71,-1979.82,-26651.115,-7978.365,-17903.385,-25514.505,-5821.605,262.935
1764763200.5613985,-199.395,-1978.245,-26648.415,-7976.025,-17902.89,-25515.225,-5821.74,261.495
1764763200.5613985,-200.025,-1978.47,-26647.065,-7975.17,-17902.89,-25517.07,-5822.054999999999,260.415
1764763200.5613985,-201.42,-1981.035,-26650.305,-7978.769999999999,-17905.725,-25518.915,-5823.179999999999,259.83
1764763200.562402,-201.555,-1981.62,-26652.645,-7980.84,-17908.245,-25520.715,-5825.205,258.885
1764763200.562402,-200.61,-1980.765,-26652.105,-7979.625,-17907.39,-25518.87,-5824.844999999999,260.325
1764763200.562402,-205.245,-1984.68,-26654.355,-7981.424999999999,-17910.27,-25522.515,-5827.77,255.105
1764763200.562402,-205.065,-1984.455,-26653.32,-7981.019999999999,-17909.325,-25521.93,-5828.219999999999,254.61
1764763200.6081269,-206.505,-1987.245,-26655.84,-7983.405,-17910.315,-25521.885,-5828.355,254.88
1764763200.6081269,-199.8,-1980.405,-26648.865,-7976.745,-17904.555,-25516.845,-5824.215,260.595
1764763200.6081269,-197.01,-1975.455,-26643.96,-7973.82,-17905.5,-25518.015,-5824.304999999999,262.125
1764763200.6081269,-199.935,-1974.96,-26643.42,-7974.36,-17908.695,-25522.425,-5826.465,258.93
1764763200.6081269,-198.27,-1974.06,-26641.89,-7972.695,-17905.364999999998,-25519.095,-5823.405,261.18
1764763200.6081269,-196.83,-1975.095,-26643.015,-7972.605,-17901.09,-25514.37,-5820.84,264.6
1764763200.6081269,-197.46,-1976.94,-26648.325,-7976.07,-17902.665,-25514.415,-5820.255,264.78
1764763200.6081269,-199.8,-1980.63,-26654.22,-7979.94,-17905.14,-25515.27,-5821.02,263.835
1764763200.6081269,-201.33,-1980.855,-26653.32,-7980.03,-17907.434999999998,-25518.285,-5824.215,259.965
1764763200.6081269,-201.33,-1980.765,-26651.61,-7979.715,-17908.29,-25519.86,-5824.62,258.885
1764763200.6081269,-197.595,-1976.13,-26646.84,-7974.855,-17904.555,-25516.71,-5821.695,262.44
1764763200.6081269,-192.915,-1968.435,-26637.57,-7966.755,-17900.505,-25514.73,-5819.715,264.915
1764763200.6081269,-188.73,-1962.765,-26631.0,-7961.355,-17897.04,-25512.57,-5818.05,267.93
1764763200.6081269,-195.435,-1972.575,-26641.89,-7971.165,-17902.215,-25516.26,-5821.335,263.7
1764763200.6081269,-195.885,-1975.275,-26647.605,-7975.215,-17901.495,-25513.47,-5820.3,266.085
1764763200.6081269,-200.07,-1982.07,-26656.695,-7982.054999999999,-17904.015,-25513.605,-5820.57,264.285
1764763200.6081269,-204.705,-1986.3,-26658.585,-7985.474999999999,-17908.739999999998,-25519.365,-5824.62,258.885
1764763200.6081269,-204.075,-1983.51,-26654.94,-7983.045,-17907.614999999998,-25520.49,-5825.16,258.345
1764763200.609435,-203.985,-1983.645,-26656.065,-7983.945,-17909.19,-25522.515,-5825.88,257.76
1764763200.609435,-201.915,-1980.855,-26653.095,-7982.639999999999,-17909.55,-25522.605,-5826.195,259.02
1764763200.609435,-197.865,-1976.85,-26648.415,-7978.094999999999,-17907.03,-25519.5,-5825.295,262.35
1764763200.609435,-195.615,-1975.095,-26645.04,-7974.495,-17904.915,-25517.565,-5823.495,263.115
1764763200.609435,-198.9,-1979.01,-26649.495,-7978.455,-17906.489999999998,-25518.645,-5824.08,261.405
1764763200.609435,-208.35,-1990.35,-26662.68,-7990.469999999999,-17913.96,-25524.765,-5829.525,253.17
1764763200.6552308,-206.01,-1986.57,-26658.855,-7987.005,-17912.43,-25523.865,-5829.84,255.285
1764763200.6552308,-201.465,-1981.35,-26652.645,-7981.695,-17907.704999999998,-25519.995,-5826.78,259.29
1764763200.6552308,-202.725,-1982.07,-26652.33,-7981.875,-17909.594999999998,-25522.605,-5827.815,257.805
1764763200.6552308,-198.27,-1975.95,-26646.435,-7976.07,-17906.13,-25519.455,-5824.935,261.585
1764763200.6552308,-201.195,-1978.515,-26649.315,-7978.545,-17907.795,-25520.805,-5825.835,258.795
1764763200.6552308,-201.195,-1977.975,-26648.37,-7977.105,-17906.895,-25520.94,-5825.61,259.11
1764763200.6552308,-200.655,-1978.56,-26649.09,-7977.644999999999,-17907.344999999998,-25520.355,-5825.969999999999,258.75
1764763200.6552308,-199.17,-1979.82,-26649.675,-7976.924999999999,-17903.385,-25514.1,-5823.09,262.755
1764763200.6552308,-199.53,-1980.99,-26650.485,-7977.96,-17904.78,-25515.225,-5822.775,261.855
1764763200.6552308,-203.58,-1983.78,-26654.355,-7981.605,-17909.19,-25520.76,-5825.655,256.86
1764763200.6565225,-203.13,-1983.015,-26653.365,-7980.795,-17909.505,-25521.615,-5826.15,257.22
1764763200.6565225,-198.045,-1977.345,-26647.965,-7976.565,-17906.805,-25518.645,-5824.26,261.45
1764763200.6565225,-198.765,-1977.75,-26649.54,-7977.014999999999,-17907.255,-25518.69,-5824.215,260.73
1764763200.6565225,-200.52,-1979.55,-26650.62,-7977.105,-17906.67,-25518.645,-5824.844999999999,259.785
1764763200.6565225,-201.375,-1980.855,-26651.25,-7977.195,-17906.579999999998,-25519.005,-5826.195,257.58
1764763200.6565225,-205.065,-1984.545,-26655.435,-7981.695,-17910.315,-25521.93,-5828.219999999999,254.25
1764763200.6565225,-202.68,-1982.07,-26652.78,-7978.905,-17906.85,-25519.68,-5826.645,258.03
1764763200.6565225,-202.995,-1981.98,-26653.23,-7979.625,-17908.605,-25520.895,-5828.04,257.76
1764763200.657664,-202.455,-1981.17,-26653.41,-7980.255,-17909.145,-25521.57,-5828.355,257.04
1764763200.657664,-204.03,-1981.26,-26653.41,-7980.929999999999,-17912.385,-25524.72,-5830.965,255.285
1764763200.657664,-204.84,-1980.63,-26651.475,-7980.57,-17913.555,-25526.07,-5832.045,254.16
1764763200.657664,-207.09,-1984.68,-26655.12,-7985.115,-17916.704999999998,-25528.815,-5833.395,251.955
1764763200.7049055,-209.115,-1989.99,-26662.32,-7991.054999999999,-17917.245,-25527.42,-5834.565,251.73
1764763200.7049055,-215.01,-1998.135,-26671.095,-7998.57,-17920.665,-25531.02,-5836.995,247.275
1764763200.7049055,-212.94,-1995.165,-26667.405,-7995.509999999999,-17919.495,-25529.805,-5836.094999999999,249.66
1764763200.7049055,-212.58,-1992.105,-26663.13,-7992.54,-17920.44,-25531.695,-5836.23,248.985
1764763200.7054224,-206.685,-1984.815,-26655.615,-7985.07,-17914.635,-25526.115,-5832.405,254.025
1764763200.7054224,-204.84,-1981.98,-26652.015,-7982.009999999999,-17911.575,-25523.325,-5829.344999999999,255.735
1764763200.7054224,-202.86,-1981.845,-26652.69,-7981.605,-17909.145,-25520.49,-5827.185,258.57
1764763200.7054224,-207.855,-1987.695,-26657.865,-7985.519999999999,-17911.485,-25522.695,-5829.255,254.745
1764763200.7054224,-206.145,-1987.92,-26659.305,-7986.24,-17909.594999999998,-25519.545,-5827.455,256.995
1764763200.7054224,-210.24,-1991.745,-26664.705,-7991.594999999999,-17915.895,-25525.755,-5831.505,252.585
1764763200.7054224,-209.52,-1988.145,-26661.465,-7990.29,-17918.28,-25529.22,-5833.17,251.91
1764763200.7054224,-204.84,-1981.62,-26654.04,-7984.215,-17915.67,-25527.465,-5830.245,255.6
1764763200.7054224,-196.965,-1972.53,-26643.645,-7976.07,-17909.73,-25521.39,-5825.88,262.8
1764763200.7054224,-196.965,-1973.43,-26644.095,-7976.474999999999,-17908.605,-25520.13,-5824.26,263.16
1764763200.7054224,-199.485,-1978.02,-26650.62,-7980.705,-17909.46,-25519.365,-5824.395,262.665
1764763200.7054224,-200.34,-1979.64,-26652.87,-7982.549999999999,-17911.125,-25520.58,-5825.115,262.755
1764763200.7054224,-201.69,-1981.62,-26654.22,-7983.045,-17910.809999999998,-25520.49,-5824.844999999999,260.955
1764763200.7054224,-206.685,-1985.4,-26658.09,-7987.679999999999,-17915.085,-25524.765,-5828.895,255.375
1764763200.7054224,-208.71,-1989.27,-26662.545,-7992.045,-17916.84,-25526.52,-5830.245,254.385
1764763200.7054224,-209.52,-1990.575,-26663.895,-7993.665,-17919.045,-25528.05,-5831.639999999999,253.8
1764763200.7054224,-207.27,-1987.155,-26659.035,-7990.019999999999,-17918.055,-25529.175,-5832.495,253.89
1764763200.7054224,-201.825,-1980.765,-26652.465,-7982.505,-17912.07,-25524.0,-5829.435,259.335
1764763200.7054224,-204.93,-1984.185,-26657.73,-7986.554999999999,-17914.05,-25524.585,-5829.974999999999,257.13
1764763200.7054224,-208.08,-1987.92,-26661.69,-7989.974999999999,-17916.795,-25526.52,-5831.145,253.98
1764763200.7496834,-205.515,-1983.915,-26657.19,-7986.105,-17913.735,-25524.855,-5830.29,255.69
1764763200.7496834,-202.32,-1979.19,-26652.555,-7980.884999999999,-17909.954999999998,-25521.57,-5827.77,259.02
1764763200.7496834,-201.96,-1978.515,-26651.295,-7980.525,-17910.63,-25521.615,-5827.455,259.83
1764763200.7496834,-202.32,-1980.0,-26651.07,-7981.11,-17909.91,-25520.76,-5826.96,259.335
1764763200.7496834,-203.805,-1982.07,-26653.905,-7983.63,-17910.855,-25521.975,-5827.094999999999,258.57
1764763200.7496834,-206.505,-1985.445,-26659.26,-7987.815,-17912.835,-25523.685,-5828.085,256.23
1764763200.7496834,-203.04,-1982.79,-26657.145,-7986.059999999999,-17911.844999999998,-25521.795,-5827.005,258.885
1764763200.7496834,-202.095,-1979.82,-26653.5,-7984.44,-17912.204999999998,-25523.37,-5827.094999999999,258.48
1764763200.7512152,-203.895,-1980.315,-26652.555,-7984.215,-17912.88,-25524.45,-5828.175,256.005
1764763200.7512152,-200.385,-1976.895,-26648.145,-7979.445,-17908.425,-25519.365,-5825.07,260.19
1764763200.7512152,-205.515,-1983.015,-26654.58,-7985.025,-17913.329999999998,-25524.045,-5828.715,255.735
1764763200.7512152,-202.815,-1980.765,-26653.59,-7983.134999999999,-17910.405,-25521.075,-5825.88,259.335
1764763200.7512152,-202.59,-1979.865,-26652.42,-7982.415,-17911.665,-25521.84,-5826.465,259.11
1764763200.7523253,-205.785,-1982.925,-26655.48,-7986.599999999999,-17916.795,-25526.97,-5829.21,255.87
1764763200.7523253,-201.645,-1980.045,-26652.96,-7983.09,-17912.835,-25522.65,-5827.005,260.415
1764763200.7523253,-202.005,-1978.92,-26651.565,-7981.785,-17912.61,-25523.19,-5826.51,260.28
1764763200.7523253,-205.065,-1981.665,-26654.265,-7985.295,-17917.605,-25527.24,-5828.67,256.635
1764763200.7523253,-203.76,-1981.62,-26655.075,-7984.215,-17915.355,-25524.54,-5827.185,259.245
1764763200.7523253,-209.295,-1989.63,-26664.795,-7991.594999999999,-17919.315,-25527.24,-5829.929999999999,255.375
1764763200.7523253,-209.025,-1990.935,-26665.695,-7992.315,-17917.965,-25525.89,-5830.02,255.285
1764763200.7532403,-206.145,-1985.265,-26659.575,-7986.69,-17915.985,-25524.675,-5828.31,256.59
1764763200.7532403,-202.14,-1978.785,-26651.295,-7979.264999999999,-17912.114999999998,-25521.705,-5826.375,259.2
1764763200.7532403,-199.395,-1975.23,-26647.515,-7975.17,-17907.524999999998,-25517.925,-5824.304999999999,262.44
1764763200.7532403,-201.87,-1980.315,-26653.995,-7980.12,-17908.92,-25517.97,-5824.44,261.9
1764763200.7967136,-204.255,-1983.96,-26659.035,-7983.99,-17910.54,-25519.365,-5825.655,260.325
1764763200.7967136,-202.05,-1980.585,-26654.355,-7980.705,-17909.19,-25519.23,-5824.665,260.685
1764763200.7967136,-200.79,-1976.94,-26649.27,-7978.275,-17912.295,-25523.64,-5825.7,259.155
1764763200.7967136,-198.225,-1971.72,-26642.43,-7973.955,-17912.204999999998,-25524.99,-5825.52,261.135
1764763200.7967136,-196.47,-1971.315,-26642.475,-7973.684999999999,-17911.89,-25524.09,-5824.98,262.035
1764763200.7967136,-204.255,-1984.86,-26658.495,-7986.915,-17915.85,-25524.495,-5826.915,257.625
1764763200.7967136,-212.535,-1997.055,-26672.355,-7997.715,-17919.45,-25525.89,-5830.469999999999,253.53
1764763200.7967136,-209.97,-1993.59,-26668.35,-7994.745,-17917.29,-25525.26,-5829.615,255.42
1764763200.7967136,-204.84,-1987.38,-26661.645,-7988.49,-17914.545,-25522.605,-5827.77,258.57
1764763200.7967136,-203.49,-1983.42,-26656.29,-7983.54,-17913.42,-25522.29,-5826.87,258.39
1764763200.7967136,-199.755,-1978.11,-26650.485,-7977.915,-17910.18,-25520.94,-5824.44,260.595
1764763200.7967136,-199.665,-1977.615,-26649.0,-7976.924999999999,-17911.17,-25522.11,-5825.07,260.73
1764763200.797356,-205.155,-1983.105,-26656.515,-7983.809999999999,-17916.93,-25526.07,-5827.95,256.635
1764763200.797356,-204.03,-1983.285,-26657.19,-7984.08,-17915.579999999998,-25522.695,-5826.195,258.795
1764763200.797356,-205.56,-1986.93,-26660.79,-7987.32,-17917.695,-25524.495,-5825.969999999999,256.32
1764763200.797356,-204.165,-1984.545,-26657.82,-7984.62,-17916.39,-25523.55,-5825.925,257.58
1764763200.797356,-199.89,-1978.02,-26650.665,-7977.644999999999,-17911.079999999998,-25519.275,-5823.315,261.9
1764763200.797356,-197.55,-1974.51,-26647.38,-7974.045,-17907.84,-25517.565,-5822.28,263.52
1764763200.797356,-196.29,-1973.835,-26647.065,-7974.585,-17907.03,-25516.62,-5820.57,264.735
1764763200.797356,-199.26,-1976.895,-26650.305,-7977.33,-17909.235,-25518.645,-5822.505,262.08
1764763200.797356,-204.885,-1984.005,-26657.595,-7983.945,-17915.309999999998,-25523.415,-5826.33,257.13
1764763200.797356,-204.345,-1984.95,-26658.72,-7984.304999999999,-17913.87,-25521.03,-5826.599999999999,258.345
1764763200.8454766,-207.045,-1988.865,-26662.68,-7987.59,-17915.579999999998,-25522.83,-5828.625,256.32
1764763200.8454766,-210.645,-1992.105,-26667.36,-7992.045,-17920.305,-25527.465,-5831.415,252.765
1764763200.8454766,-208.935,-1988.91,-26663.49,-7988.804999999999,-17918.325,-25526.295,-5831.865,254.565
1764763200.8454766,-208.08,-1986.03,-26660.745,-7986.554999999999,-17918.64,-25527.465,-5831.28,253.71
1764763200.8454766,-204.66,-1981.26,-26654.895,-7981.92,-17916.93,-25526.88,-5830.155,255.465
1764763200.8454766,-197.955,-1975.995,-26648.28,-7976.07,-17911.62,-25521.345,-5826.105,261.315
1764763200.8454766,-200.88,-1981.215,-26654.265,-7981.245,-17912.835,-25522.245,-5826.735,258.48
1764763200.8454766,-208.35,-1990.53,-26664.75,-7989.795,-17918.505,-25526.61,-5831.19,252.27
1764763200.8454766,-205.335,-1986.93,-26663.49,-7986.915,-17915.04,-25522.245,-5828.264999999999,255.69
1764763200.8454766,-202.32,-1982.205,-26658.405,-7983.315,-17914.77,-25522.38,-5826.69,257.94
1764763200.8454766,-199.08,-1978.065,-26653.725,-7979.94,-17913.329999999998,-25521.705,-5825.429999999999,260.37
1764763200.8454766,-198.18,-1975.995,-26650.98,-7977.375,-17911.215,-25520.13,-5824.62,261.0
1764763200.8454766,-200.25,-1979.82,-26654.355,-7980.84,-17913.195,-25522.02,-5826.195,258.885
1764763200.8454766,-202.635,-1983.24,-26657.775,-7983.54,-17914.77,-25522.83,-5827.905,256.725
1764763200.8454766,-203.67,-1981.53,-26655.66,-7982.594999999999,-17916.39,-25525.71,-5828.58,254.475
1764763200.8454766,-202.455,-1981.62,-26655.435,-7981.785,-17914.14,-25523.595,-5826.87,255.78
1764763200.8454766,-202.095,-1984.185,-26659.125,-7983.269999999999,-17912.16,-25519.23,-5825.115,258.21
1764763200.8454766,-203.355,-1984.545,-26659.755,-7983.809999999999,-17914.77,-25522.155,-5827.815,256.23
1764763200.8454766,-203.265,-1981.62,-26656.02,-7981.38,-17914.77,-25524.315,-5828.445,255.735
1764763200.8454766,-200.565,-1974.87,-26647.425,-7974.269999999999,-17912.745,-25524.09,-5827.905,256.635
1764763200.8454766,-204.03,-1977.39,-26649.99,-7978.59,-17916.66,-25528.59,-5830.38,254.07
1764763200.8454766,-210.105,-1988.73,-26664.615,-7990.019999999999,-17920.079999999998,-25528.32,-5832.135,251.73
1764763200.8454766,-214.2,-1997.1,-26676.045,-7999.019999999999,-17922.555,-25527.915,-5833.26,250.65
1764763200.8454766,-214.65,-1997.235,-26675.505,-7998.389999999999,-17923.77,-25529.175,-5832.99,249.525
1764763200.8926184,-215.145,-1996.29,-26672.895,-7996.769999999999,-17925.975,-25531.92,-5834.474999999999,248.04
1764763200.8926184,-216.09,-1996.605,-26673.03,-7997.174999999999,-17928.27,-25533.855,-5835.735,246.735
1764763200.8926184,-211.005,-1989.99,-26665.83,-7991.235,-17922.78,-25529.445,-5833.98,250.38
1764763200.8926184,-212.895,-1990.44,-26665.785,-7991.865,-17924.67,-25532.46,-5835.375,247.905
1764763200.8926184,-210.06,-1988.37,-26663.13,-7989.84,-17923.95,-25531.155,-5835.33,249.48
1764763200.8926184,-210.69,-1988.145,-26662.635,-7990.65,-17926.92,-25534.53,-5836.05,247.95
1764763200.8926184,-206.37,-1982.52,-26656.245,-7983.99,-17921.88,-25531.605,-5834.07,252.36
1764763200.8926184,-202.455,-1978.605,-26651.61,-7978.679999999999,-17916.165,-25526.79,-5829.929999999999,256.455
1764763200.8926184,-207.495,-1989.18,-26663.94,-7988.67,-17919.585,-25526.655,-5830.2,254.43
1764763200.8926184,-214.695,-2000.07,-26676.585,-7999.514999999999,-17924.579999999998,-25529.355,-5833.53,248.94
1764763200.8926184,-210.015,-1993.815,-26670.555,-7994.205,-17921.79,-25527.78,-5832.315,251.91
1764763200.8926184,-207.36,-1988.55,-26665.065,-7989.255,-17920.755,-25527.555,-5831.28,254.07
1764763200.8926184,-206.37,-1986.21,-26661.96,-7986.465,-17918.774999999998,-25526.07,-5831.235,255.195
1764763200.8926184,-205.02,-1984.77,-26658.585,-7983.945,-17917.829999999998,-25526.115,-5831.505,255.645
1764763200.8926184,-207.54,-1985.22,-26658.54,-7984.53,-17921.835,-25531.155,-5833.44,252.135
1764763200.8926184,-208.17,-1984.32,-26657.055,-7983.855,-17921.745,-25532.28,-5834.429999999999,250.965
1764763200.8926184,-211.5,-1988.73,-26662.905,-7988.985,-17924.94,-25533.72,-5836.455,249.615
1764763200.8931365,-215.82,-1997.055,-26674.605,-7997.985,-17928.585,-25534.845,-5838.974999999999,246.915
1764763200.8931365,-215.145,-1996.2,-26673.165,-7996.995,-17929.575,-25536.33,-5839.38,245.43
1764763200.8931365,-208.62,-1987.155,-26662.32,-7988.535,-17924.265,-25533.36,-5836.005,249.795
1764763200.8931365,-207.855,-1986.795,-26661.915,-7987.005,-17921.43,-25530.165,-5834.79,251.82
1764763200.8931365,-211.05,-1990.215,-26665.335,-7990.65,-17924.265,-25531.92,-5836.455,249.795
1764763200.8931365,-207.495,-1986.48,-26660.835,-7987.365,-17921.7,-25529.895,-5835.195,251.64
1764763200.8931365,-208.755,-1985.715,-26658.405,-7985.429999999999,-17923.274999999998,-25533.315,-5837.264999999999,249.345
1764763200.940438,-204.57,-1982.115,-26654.22,-7980.57,-17919.18,-25529.085,-5833.665,253.53
1764763200.940438,-212.4,-1994.715,-26670.42,-7993.665,-17925.795,-25532.73,-5835.87,248.22
1764763200.940438,-216.225,-2002.68,-26680.725,-8002.17,-17928.899999999998,-25533.045,-5836.905,247.32
1764763200.940438,-215.37,-2000.25,-26677.53,-7999.695,-17928.045,-25532.775,-5836.635,248.04
1764763200.940438,-211.545,-1994.445,-26669.61,-7994.16,-17926.29,-25531.38,-5835.24,250.155
1764763200.940438,-208.845,-1989.945,-26663.805,-7989.57,-17925.12,-25530.84,-5833.395,251.73
1764763200.940438,-206.415,-1987.11,-26660.16,-7986.105,-17922.78,-25530.39,-5832.045,252.99
1764763200.940438,-202.32,-1983.42,-26657.19,-7982.505,-17916.885,-25525.08,-5828.804999999999,257.895
1764763200.940438,-206.145,-1991.43,-26666.415,-7989.12,-17919.0,-25526.115,-5830.02,254.97
1764763200.940438,-210.69,-1994.49,-26669.43,-7992.54,-17923.32,-25530.57,-5833.304999999999,250.56
1764763200.940438,-206.955,-1989.405,-26664.705,-7988.759999999999,-17921.34,-25528.455,-5832.764999999999,253.845
1764763200.940438,-204.84,-1986.57,-26661.015,-7986.375,-17921.07,-25528.545,-5831.594999999999,255.735
1764763200.940438,-207.72,-1987.47,-26660.97,-7987.455,-17924.94,-25533.81,-5833.935,251.775
1764763200.940438,-206.235,-1983.78,-26656.29,-7983.99,-17922.735,-25532.91,-5832.675,252.315
1764763200.940438,-204.48,-1982.565,-26655.615,-7982.73,-17920.17,-25529.49,-5830.29,254.52
1764763200.940438,-206.865,-1987.47,-26662.005,-7986.69,-17919.45,-25527.6,-5829.705,254.52
1764763200.940438,-202.455,-1984.005,-26658.495,-7982.144999999999,-17914.635,-25522.605,-5826.645,259.11
1764763200.940438,-200.565,-1981.98,-26655.165,-7979.804999999999,-17913.645,-25521.705,-5825.565,260.19
1764763200.940438,-201.87,-1982.745,-26655.93,-7981.469999999999,-17915.579999999998,-25522.74,-5826.24,258.705
1764763200.940438,-202.455,-1982.475,-26654.67,-7981.11,-17916.93,-25524.405,-5827.995,256.815
1764763200.940438,-204.705,-1984.32,-26656.965,-7982.684999999999,-17919.63,-25527.69,-5830.155,253.71
1764763200.940438,-206.415,-1986.75,-26660.34,-7985.565,-17921.295,-25527.6,-5830.965,252.99
1764763200.940438,-204.48,-1987.11,-26661.195,-7985.835,-17919.945,-25525.17,-5829.57,255.555
1764763200.940438,-203.715,-1985.805,-26658.18,-7983.674999999999,-17919.0,-25525.215,-5828.13,256.77
1764763200.9888744,-201.87,-1982.295,-26654.355,-7980.165,-17916.75,-25523.775,-5826.554999999999,257.94
1764763200.9888744,-198.18,-1977.345,-26650.125,-7975.44,-17910.719999999998,-25517.7,-5824.349999999999,261.99
1764763200.9888744,-196.83,-1976.04,-26647.155,-7972.965,-17908.605,-25516.8,-5822.639999999999,262.26
1764763200.9888744,-197.73,-1980.63,-26652.42,-7977.554999999999,-17911.395,-25517.88,-5821.875,262.35
1764763200.9888744,-198.27,-1981.89,-26655.57,-7981.38,-17915.625,-25521.255,-5823.45,261.45
1764763200.9888744,-198.18,-1980.09,-26653.86,-7979.535,-17915.85,-25521.57,-5823.81,261.27
1764763200.9888744,-198.855,-1980.045,-26654.355,-7980.165,-17916.344999999998,-25521.975,-5824.844999999999,260.37
1764763200.9888744,-200.79,-1982.97,-26656.74,-7982.775,-17918.145,-25522.965,-5825.025,259.785
1764763200.9888744,-205.56,-1990.08,-26665.965,-7989.705,-17921.385,-25525.98,-5827.005,257.13
1764763200.9888744,-209.565,-1993.005,-26669.385,-7992.764999999999,-17924.175,-25529.49,-5829.57,253.755
1764763200.9888744,-205.965,-1988.145,-26662.365,-7987.23,-17921.024999999998,-25526.88,-5828.58,255.96
1764763200.9888744,-205.83,-1985.76,-26658.045,-7983.809999999999,-17921.34,-25528.455,-5829.57,254.25
1764763200.9888744,-201.105,-1979.19,-26650.26,-7977.059999999999,-17915.715,-25524.63,-5827.05,257.94
1764763200.9888744,-196.38,-1972.755,-26642.115,-7970.67,-17912.114999999998,-25521.795,-5824.215,260.73
1764763200.9888744,-196.11,-1971.9,-26640.63,-7970.355,-17911.844999999998,-25521.255,-5823.945,261.9
1764763200.9888744,-200.295,-1980.135,-26651.475,-7978.59,-17915.985,-25522.56,-5825.34,259.425
1764763200.9888744,-208.755,-1992.96,-26668.44,-7993.035,-17924.489999999998,-25527.285,-5829.525,254.745
1764763200.9888744,-217.305,-2003.265,-26680.275,-8002.215,-17929.215,-25531.605,-5832.945,248.04
1764763200.9888744,-215.28,-1999.26,-26675.19,-7998.03,-17928.719999999998,-25532.775,-5833.304999999999,248.445
1764763200.9888744,-210.195,-1992.195,-26667.945,-7992.269999999999,-17925.704999999998,-25531.065,-5832.405,252.405
1764763200.9888744,-210.69,-1992.015,-26667.36,-7992.719999999999,-17928.045,-25533.765,-5833.62,250.065
1764763200.9888744,-209.61,-1989.81,-26663.76,-7989.03,-17926.739999999998,-25533.585,-5833.44,249.93
1764763200.9888744,-209.925,-1989.045,-26662.23,-7988.264999999999,-17926.739999999998,-25533.45,-5834.295,250.02
1764763200.9888744,-206.865,-1986.66,-26660.025,-7986.014999999999,-17923.635,-25529.22,-5831.19,253.305
1764763201.0323875,-209.7,-1990.575,-26664.12,-7989.75,-17925.75,-25529.985,-5832.179999999999,251.055
1764763201.0323875,-215.73,-1998.63,-26672.94,-7998.48,-17931.69,-25535.475,-5836.139999999999,246.06
1764763201.0323875,-214.29,-1995.705,-26668.755,-7994.16,-17930.114999999998,-25535.25,-5836.5,246.78
1764763201.0323875,-207.63,-1986.345,-26658.18,-7983.269999999999,-17923.545,-25530.615,-5833.395,251.685
1764763201.0323875,-208.62,-1986.48,-26658.405,-7984.125,-17925.344999999998,-25532.415,-5833.844999999999,249.705
1764763201.0323875,-212.67,-1992.915,-26666.055,-7991.415,-17931.555,-25537.185,-5835.69,246.06
1764763201.0323875,-216.18,-2000.025,-26675.82,-7999.155,-17934.57,-25538.58,-5837.445,244.08
1764763201.0323875,-214.2,-1998.765,-26674.605,-7997.804999999999,-17932.545,-25536.015,-5836.185,246.105
1764763201.0323875,-215.82,-1999.71,-26674.74,-7999.065,-17934.57,-25538.355,-5837.355,244.44
1764763201.0323875,-216.54,-1999.305,-26674.47,-7998.525,-17935.695,-25539.165,-5837.13,243.495
1764763201.0323875,-212.58,-1994.445,-26669.61,-7993.575,-17932.05,-25534.98,-5833.71,247.455
1764763201.0323875,-214.515,-1995.75,-26670.42,-7995.554999999999,-17935.469999999998,-25538.58,-5835.554999999999,244.17
1764763201.0323875,-212.085,-1992.33,-26666.955,-7992.315,-17933.715,-25538.22,-5835.285,246.42
1764763201.0323875,-209.385,-1988.505,-26662.86,-7988.625,-17929.71,-25535.385,-5833.665,250.02
1764763201.0323875,-209.34,-1989.045,-26663.31,-7989.57,-17929.17,-25535.205,-5833.844999999999,249.435
1764763201.0323875,-206.37,-1984.905,-26657.46,-7984.215,-17926.469999999998,-25534.17,-5832.855,251.055
1764763201.0323875,-208.575,-1986.12,-26658.63,-7985.16,-17929.755,-25537.815,-5834.205,248.76
1764763201.0323875,-210.15,-1989.765,-26662.095,-7987.634999999999,-17930.07,-25536.78,-5835.15,248.355
1764763201.0323875,-211.995,-1993.32,-26665.965,-7990.065,-17929.44,-25535.025,-5835.465,248.265
1764763201.0323875,-216.945,-1999.755,-26674.425,-7998.57,-17934.075,-25538.22,-5836.77,244.98
1764763201.0323875,-220.59,-2005.155,-26682.705,-8004.87,-17936.415,-25539.345,-5839.514999999999,243.405
1764763201.0323875,-219.33,-2001.105,-26678.565,-8002.125,-17938.305,-25542.36,-5841.495,242.28
1764763201.0802014,-217.665,-1997.865,-26672.805,-7998.84,-17939.114999999998,-25544.565,-5841.945,241.065
1764763201.0802014,-212.805,-1991.925,-26665.02,-7991.684999999999,-17933.805,-25540.245,-5839.155,245.295
1764763201.0802014,-216.18,-1994.985,-26668.08,-7995.24,-17936.28,-25542.945,-5840.325,242.73
1764763201.0802014,-217.17,-1998.495,-26673.345,-7997.759999999999,-17936.19,-25540.965,-5838.389999999999,243.765
1764763201.0802014,-217.89,-2001.24,-26677.44,-8000.144999999999,-17936.505,-25539.93,-5838.84,243.405
1764763201.0802014,-221.58,-2002.905,-26678.475,-8002.53,-17939.88,-25543.395,-5841.54,239.85
1764763201.0802014,-219.87,-2000.655,-26675.55,-7999.875,-17939.204999999998,-25543.53,-5841.99,240.03
1764763201.0802014,-213.075,-1994.895,-26669.97,-7993.755,-17932.41,-25536.915,-5837.355,245.88
1764763201.0802014,-213.435,-1996.245,-26672.265,-7995.69,-17933.219999999998,-25536.825,-5837.804999999999,246.42
1764763201.0802014,-215.28,-1996.38,-26672.49,-7996.95,-17936.325,-25541.145,-5840.865,244.485
1764763201.0802014,-215.73,-1995.975,-26671.77,-7997.264999999999,-17938.35,-25544.07,-5841.99,243.18
1764763201.0802014,-215.145,-1994.715,-26669.745,-7996.905,-17938.89,-25545.915,-5841.675,242.91
1764763201.0802014,-211.005,-1991.61,-26667.45,-7994.88,-17935.469999999998,-25542.0,-5838.66,246.105
1764763201.0802014,-216.315,-1999.08,-26676.99,-8002.17,-17939.204999999998,-25542.54,-5840.505,242.955
1764763201.0802014,-221.805,-2004.615,-26683.29,-8007.344999999999,-17944.515,-25547.535,-5843.88,237.6
1764763201.0802014,-218.25,-1999.305,-26676.27,-8001.134999999999,-17941.77,-25546.32,-5843.115,240.21
1764763201.0802014,-213.39,-1993.41,-26670.375,-7995.87,-17937.54,-25542.315,-5841.09,244.845
1764763201.0802014,-212.22,-1990.395,-26667.765,-7993.44,-17934.39,-25539.255,-5838.705,246.645
1764763201.0802014,-211.635,-1992.24,-26669.745,-7994.115,-17933.67,-25538.265,-5836.77,247.14
1764763201.0802014,-217.035,-1998.27,-26676.72,-8001.045,-17939.835,-25543.755,-5839.514999999999,242.91
1764763201.0802014,-215.325,-1997.055,-26675.37,-8000.054999999999,-17936.954999999998,-25540.335,-5838.435,245.475
1764763201.0802014,-215.055,-1996.02,-26672.31,-7997.94,-17936.46,-25540.38,-5838.48,245.61
1764763201.0802014,-218.43,-1998.315,-26673.93,-8000.054999999999,-17939.7,-25544.475,-5841.179999999999,241.875
1764763201.0802014,-216.09,-1996.785,-26673.345,-7999.2,-17939.655,-25543.08,-5840.28,244.305
1764763201.1264677,-222.21,-2003.4,-26680.23,-8005.275,-17943.75,-25547.04,-5843.835,239.175
1764763201.1264677,-223.425,-2004.93,-26681.985,-8005.455,-17943.03,-25546.68,-5844.599999999999,237.87
1764763201.1264677,-221.22,-2003.085,-26678.43,-8002.575,-17940.555,-25544.745,-5843.205,239.85
1764763201.1264677,-213.84,-1995.39,-26668.89,-7993.62,-17934.075,-25538.355,-5839.065,246.06
1764763201.1264677,-211.59,-1991.115,-26664.39,-7989.48,-17933.13,-25538.445,-5837.849999999999,247.545
1764763201.1264677,-213.975,-1992.015,-26664.57,-7990.38,-17935.155,-25540.245,-5839.514999999999,244.845
1764763201.1264677,-217.215,-1995.615,-26668.665,-7994.565,-17938.395,-25542.675,-5840.594999999999,241.56
1764763201.1264677,-216.405,-1994.445,-26668.35,-7994.07,-17938.305,-25542.855,-5841.224999999999,242.82
1764763201.1264677,-217.395,-1997.73,-26674.2,-7998.299999999999,-17938.26,-25541.685,-5841.719999999999,243.63
1764763201.1264677,-220.545,-2003.67,-26681.67,-8004.285,-17940.825,-25541.865,-5842.71,242.235
1764763201.1264677,-222.57,-2005.92,-26684.235,-8006.309999999999,-17942.895,-25543.305,-5844.285,240.12
1764763201.1264677,-222.345,-2004.795,-26682.66,-8005.905,-17943.39,-25544.655,-5844.24,239.445
1764763201.1269937,-218.655,-2000.97,-26679.24,-8003.79,-17943.075,-25543.62,-5842.98,242.595
1764763201.1269937,-219.15,-2000.745,-26679.15,-8003.16,-17942.715,-25543.125,-5842.08,242.235
1764763201.1269937,-213.57,-1994.355,-26671.005,-7994.474999999999,-17934.795,-25536.78,-5837.264999999999,247.77
1764763201.1269937,-216.36,-1997.1,-26673.165,-7997.715,-17938.89,-25541.775,-5840.955,244.035
1764763201.1269937,-215.73,-1996.92,-26674.38,-7999.605,-17941.094999999998,-25543.665,-5842.575,243.99
1764763201.1269937,-218.07,-1998.18,-26675.325,-8000.82,-17942.85,-25546.5,-5843.655,242.145
1764763201.1269937,-215.82,-1995.39,-26674.02,-7998.48,-17940.059999999998,-25543.215,-5840.82,245.115
1764763201.1269937,-222.39,-2002.995,-26682.57,-8005.23,-17944.11,-25546.635,-5843.655,239.985
1764763201.1269937,-224.28,-2005.695,-26683.965,-8007.57,-17946.63,-25549.38,-5846.31,237.24
1764763201.1269937,-221.715,-2004.165,-26681.175,-8005.634999999999,-17944.245,-25547.58,-5845.365,239.085
1764763201.174599,-218.925,-2001.285,-26677.71,-8000.955,-17940.465,-25543.485,-5843.115,243.045
1764763201.174599,-218.88,-1999.305,-26676.135,-7999.38,-17940.645,-25544.115,-5842.71,242.235
1764763201.174599,-216.27,-1995.615,-26671.545,-7996.139999999999,-17938.305,-25543.215,-5842.62,243.495
1764763201.174599,-219.87,-1997.82,-26674.065,-7999.469999999999,-17943.12,-25548.3,-5846.219999999999,239.355
1764763201.174599,-219.375,-1997.46,-26673.75,-7998.389999999999,-17942.579999999998,-25547.94,-5845.545,239.31
1764763201.174599,-219.015,-1997.82,-26675.82,-7999.245,-17941.59,-25546.095,-5844.105,241.605
1764763201.174599,-219.24,-1998.54,-26677.035,-7999.695,-17942.76,-25545.645,-5844.69,242.37
1764763201.174599,-220.545,-1999.62,-26675.235,-7999.245,-17942.535,-25546.005,-5845.545,241.02
1764763201.174599,-213.615,-1992.78,-26667.945,-7992.495,-17936.415,-25540.515,-5841.045,246.555
1764763201.174599,-217.53,-1997.415,-26674.02,-7998.255,-17938.53,-25541.73,-5841.54,244.395
1764763201.174599,-222.3,-2002.95,-26680.365,-8003.384999999999,-17942.309999999998,-25544.295,-5843.474999999999,239.31
1764763201.174599,-216.045,-1995.12,-26670.69,-7994.34,-17938.71,-25541.955,-5841.0,243.495
1764763201.174599,-208.575,-1985.985,-26660.205,-7985.34,-17932.59,-25536.96,-5836.41,250.065
1764763201.174599,-212.04,-1988.82,-26663.13,-7987.815,-17934.93,-25539.48,-5838.165,246.6
1764763201.174599,-215.235,-1994.94,-26670.6,-7993.844999999999,-17937.27,-25540.47,-5839.02,244.71
1764763201.174599,-218.565,-2002.005,-26680.725,-8001.674999999999,-17937.18,-25537.68,-5839.155,244.395
1764763201.174599,-220.815,-2003.265,-26682.75,-8003.115,-17938.89,-25539.57,-5841.54,242.46
1764763201.174599,-222.75,-2005.155,-26683.83,-8004.69,-17941.86,-25543.215,-5843.115,240.12
1764763201.174599,-219.465,-2001.465,-26679.915,-8000.549999999999,-17938.62,-25540.785,-5841.585,243.945
1764763201.174599,-217.935,-2000.16,-26677.845,-7999.019999999999,-17938.305,-25540.29,-5840.505,244.215
1764763201.174599,-220.23,-2002.095,-26679.465,-8001.855,-17944.29,-25545.105,-5843.025,240.435
1764763201.174599,-217.71,-1997.685,-26672.895,-7996.815,-17940.105,-25542.36,-5841.9,243.36
1764763201.174599,-210.78,-1989.27,-26663.31,-7988.04,-17933.04,-25536.96,-5838.84,248.76
1764763201.174599,-210.87,-1989.045,-26664.48,-7988.67,-17934.57,-25538.445,-5839.514999999999,248.445
1764763201.174599,-212.49,-1991.295,-26667.315,-7990.019999999999,-17934.614999999998,-25540.065,-5840.235,246.285
1764763201.174599,-213.75,-1992.105,-26667.765,-7991.144999999999,-17935.695,-25542.315,-5840.639999999999,244.17
1764763201.2211485,-217.53,-1997.865,-26674.695,-7996.365,-17937.809999999998,-25542.27,-5840.82,242.82
1764763201.2211485,-216.27,-1999.395,-26676.945,-7997.219999999999,-17934.704999999998,-25536.78,-5837.355,246.735
1764763201.2211485,-216.945,-1999.305,-26676.945,-7997.67,-17935.92,-25537.275,-5837.49,246.06
1764763201.2211485,-219.06,-2000.07,-26676.945,-7998.255,-17937.63,-25540.02,-5838.929999999999,243.495
1764763201.2211485,-213.795,-1995.57,-26671.725,-7993.215,-17934.93,-25537.275,-5836.905,247.545
1764763201.2211485,-214.515,-1996.2,-26674.065,-7996.815,-17939.925,-25541.415,-5839.469999999999,245.61
1764763201.2211485,-213.84,-1996.515,-26675.19,-7997.264999999999,-17938.215,-25540.065,-5838.795,246.735
1764763201.2211485,-217.215,-2000.295,-26679.15,-8000.415,-17940.42,-25541.865,-5840.099999999999,243.99
1764763201.2211485,-219.78,-2002.32,-26682.165,-8001.945,-17942.219999999998,-25543.71,-5840.639999999999,242.055
1764763201.2211485,-213.435,-1996.155,-26674.335,-7994.79,-17935.469999999998,-25538.715,-5836.905,247.185
1764763201.2211485,-214.74,-1996.515,-26672.67,-7993.934999999999,-17935.829999999998,-25540.245,-5836.455,245.025
1764763201.2211485,-214.29,-1996.065,-26672.13,-7992.405,-17934.48,-25538.175,-5835.105,246.78
1764763201.2211485,-213.39,-1996.335,-26672.94,-7993.349999999999,-17934.614999999998,-25536.645,-5834.429999999999,248.04
1764763201.2211485,-207.315,-1989.54,-26666.235,-7987.679999999999,-17930.79,-25532.955,-5831.775,252.675
1764763201.2211485,-206.685,-1986.3,-26662.005,-7985.295,-17932.545,-25535.52,-5832.63,252.18
1764763201.2211485,-207.18,-1984.275,-26657.955,-7982.505,-17932.995,-25537.77,-5833.755,250.74
1764763201.2211485,-203.625,-1981.665,-26655.84,-7977.96,-17927.37,-25532.415,-5830.605,254.385
1764763201.2211485,-209.61,-1991.295,-26668.44,-7988.894999999999,-17930.61,-25534.395,-5832.585,250.83
1764763201.2211485,-219.825,-2006.01,-26685.945,-8003.295,-17936.82,-25538.805,-5836.455,243.27
1764763201.2211485,-215.595,-2001.105,-26681.13,-7998.03,-17933.355,-25535.295,-5834.565,247.545
1764763201.2211485,-214.695,-1998.675,-26677.755,-7996.455,-17936.46,-25539.03,-5835.87,247.32
1764763201.2211485,-215.055,-1998.045,-26674.83,-7995.825,-17938.53,-25541.82,-5836.995,245.205
1764763201.2676406,-210.195,-1992.78,-26669.295,-7991.054999999999,-17935.065,-25539.255,-5835.24,249.66
1764763201.2676406,-213.345,-1995.435,-26672.4,-7994.07,-17938.17,-25542.495,-5837.13,247.05
1764763201.2676406,-210.15,-1992.69,-26669.43,-7990.965,-17933.94,-25538.94,-5835.014999999999,249.975
1764763201.2676406,-207.045,-1989.315,-26666.595,-7988.219999999999,-17930.79,-25535.79,-5832.315,252.81
1764763201.2676406,-206.595,-1988.865,-26666.865,-7988.085,-17932.094999999998,-25535.61,-5832.0,253.08
1764763201.2676406,-209.295,-1992.105,-26669.835,-7990.424999999999,-17932.454999999998,-25536.195,-5832.719999999999,250.785
1764763201.2676406,-208.17,-1988.055,-26665.515,-7986.78,-17931.329999999998,-25536.195,-5831.865,251.01
1764763201.2676406,-207.945,-1987.56,-26665.11,-7986.24,-17931.42,-25535.745,-5830.785,251.46
1764763201.2676406,-205.74,-1987.83,-26664.705,-7984.799999999999,-17927.19,-25530.975,-5827.77,255.69
1764763201.2676406,-204.66,-1986.885,-26664.975,-7985.745,-17927.64,-25531.47,-5827.365,257.76
1764763201.2676406,-207.405,-1990.98,-26670.915,-7990.695,-17930.385,-25533.495,-5828.804999999999,255.87
1764763201.2676406,-207.855,-1991.025,-26670.465,-7990.29,-17930.16,-25533.585,-5829.165,254.88
1764763201.2676406,-207.945,-1990.845,-26669.79,-7989.84,-17929.8,-25533.27,-5829.929999999999,254.52
1764763201.2676406,-207.9,-1991.565,-26671.275,-7991.415,-17931.015,-25532.955,-5830.56,254.565
1764763201.2676406,-210.015,-1993.77,-26672.985,-7993.304999999999,-17932.68,-25535.43,-5831.19,252.0
1764763201.2676406,-212.985,-1994.895,-26673.345,-7993.889999999999,-17935.739999999998,-25538.895,-5833.17,248.67
1764763201.2676406,-208.44,-1989.495,-26667.27,-7988.67,-17932.545,-25536.33,-5831.865,252.09
1764763201.2676406,-207.495,-1989.72,-26667.495,-7989.12,-17932.995,-25537.815,-5832.09,252.36
1764763201.2676406,-209.43,-1991.79,-26669.07,-7990.335,-17933.355,-25538.805,-5833.44,250.605
1764763201.2676406,-211.59,-1993.68,-26670.87,-7992.045,-17934.03,-25538.355,-5833.665,250.11
1764763201.2676406,-216.72,-1999.125,-26678.07,-7998.21,-17939.34,-25542.045,-5836.455,245.7
1764763201.2676406,-211.005,-1993.095,-26671.815,-7992.99,-17934.84,-25537.725,-5833.44,251.145
1764763201.2676406,-209.205,-1989.855,-26668.53,-7991.37,-17935.065,-25538.4,-5833.755,252.18
1764763201.2676406,-209.25,-1988.64,-26666.37,-7989.344999999999,-17934.165,-25538.31,-5832.764999999999,251.685
1764763201.313774,-208.305,-1989.225,-26666.46,-7989.255,-17933.445,-25537.14,-5832.224999999999,252.315
1764763201.313774,-217.71,-2000.79,-26680.14,-8001.405,-17942.04,-25543.665,-5836.995,243.945
1764763201.313774,-218.655,-2003.94,-26682.615,-8003.745,-17942.445,-25543.62,-5838.03,243.63
1764763201.313774,-215.775,-2000.79,-26678.79,-8000.91,-17940.87,-25542.54,-5837.264999999999,246.195
1764763201.313774,-213.3,-1996.2,-26674.74,-7996.724999999999,-17938.53,-25540.47,-5835.915,249.255
1764763201.313774,-215.145,-1997.595,-26676.27,-7997.625,-17940.195,-25542.405,-5836.455,246.915
1764763201.313774,-212.94,-1996.38,-26673.39,-7995.915,-17938.44,-25541.055,-5835.195,247.32
1764763201.313774,-212.265,-1995.345,-26671.365,-7993.62,-17936.82,-25539.84,-5835.78,247.545
1764763201.313774,-211.23,-1993.14,-26670.24,-7992.63,-17935.605,-25538.49,-5835.915,248.76
1764763201.313774,-211.5,-1993.545,-26671.86,-7995.285,-17938.395,-25540.245,-5835.195,249.435
1764763201.313774,-203.94,-1986.84,-26665.83,-7988.985,-17932.77,-25533.945,-5829.615,256.77
1764763201.313774,-207.63,-1990.62,-26669.7,-7992.764999999999,-17936.864999999998,-25538.04,-5832.315,252.45
1764763201.313774,-203.67,-1985.49,-26663.715,-7987.455,-17933.13,-25534.215,-5829.615,255.735
1764763201.313774,-203.355,-1984.32,-26663.085,-7985.115,-17931.195,-25532.82,-5828.355,256.68
1764763201.313774,-209.52,-1991.07,-26669.79,-7991.46,-17935.829999999998,-25537.455,-5831.37,251.55
1764763201.313774,-207.0,-1989.315,-26669.655,-7990.469999999999,-17934.39,-25535.745,-5830.065,255.015
1764763201.313774,-209.745,-1993.365,-26673.93,-7994.565,-17937.27,-25537.995,-5831.46,252.135
1764763201.313774,-213.57,-1997.73,-26676.63,-7997.58,-17941.094999999998,-25540.965,-5833.755,247.725
1764763201.313774,-212.805,-1996.155,-26674.335,-7995.599999999999,-17940.87,-25541.37,-5834.34,247.68
1764763201.313774,-204.12,-1984.365,-26661.42,-7984.349999999999,-17934.39,-25536.015,-5829.48,254.25
1764763201.313774,-193.23,-1969.065,-26643.195,-7969.86,-17928.18,-25531.92,-5824.665,261.945
1764763201.313774,-191.025,-1963.89,-26634.555,-7963.695,-17927.145,-25533.945,-5825.565,261.36
1764763201.313774,-197.955,-1973.115,-26646.39,-7971.795,-17929.26,-25535.565,-5828.264999999999,256.77
1764763201.3147838,-208.71,-1994.49,-26674.47,-7993.304999999999,-17934.075,-25534.44,-5830.56,253.035
1764763201.3611596,-220.32,-2011.95,-26694.405,-8009.865,-17941.77,-25539.48,-5836.275,245.7
1764763201.3611596,-222.39,-2011.32,-26693.325,-8009.505,-17944.515,-25542.18,-5838.165,244.035
1764763201.3611596,-215.19,-2001.33,-26682.255,-8000.37,-17941.14,-25539.795,-5835.915,247.815
1764763201.3611596,-216.36,-2000.925,-26681.625,-7998.615,-17941.364999999998,-25542.045,-5836.139999999999,245.52
1764763201.3611596,-216.405,-1999.305,-26679.24,-7997.219999999999,-17940.51,-25541.28,-5835.96,246.105
1764763201.3611596,-210.645,-1994.265,-26674.38,-7992.764999999999,-17935.965,-25535.475,-5832.179999999999,251.73
1764763201.3611596,-211.23,-1995.615,-26676.54,-7994.429999999999,-17938.215,-25537.635,-5833.665,250.83
1764763201.3611596,-211.365,-1995.21,-26675.145,-7994.474999999999,-17939.88,-25539.57,-5834.745,250.56
1764763201.3611596,-207.63,-1989.63,-26668.035,-7987.455,-17935.559999999998,-25536.78,-5832.855,252.855
1764763201.3611596,-205.965,-1987.74,-26666.37,-7984.71,-17932.86,-25534.62,-5831.325,254.205
1764763201.3611596,-209.925,-1991.565,-26668.935,-7988.625,-17937.27,-25539.39,-5833.935,250.56
1764763201.3611596,-210.42,-1992.15,-26668.08,-7987.995,-17936.594999999998,-25538.895,-5833.17,250.335
1764763201.3611596,-209.295,-1991.475,-26668.35,-7987.094999999999,-17934.614999999998,-25536.96,-5832.54,251.415
1764763201.3611596,-212.805,-1997.37,-26675.19,-7993.62,-17939.925,-25540.245,-5834.655,248.58
1764763201.3611596,-214.515,-2002.545,-26682.885,-7999.965,-17941.95,-25539.705,-5833.575,249.03
1764763201.3621635,-209.565,-1996.92,-26675.64,-7993.575,-17936.19,-25533.855,-5829.974999999999,254.25
1764763201.3621635,-207.765,-1994.4,-26672.94,-7990.965,-17935.02,-25533.675,-5829.48,254.475
1764763201.3621635,-208.485,-1994.67,-26673.705,-7991.594999999999,-17936.82,-25536.15,-5830.83,252.72
1764763201.3621635,-210.33,-1995.75,-26674.605,-7993.349999999999,-17939.7,-25539.93,-5832.315,250.155
1764763201.3621635,-207.27,-1992.06,-26670.105,-7989.525,-17936.325,-25537.23,-5832.0,251.91
1764763201.3621635,-208.8,-1992.015,-26669.835,-7989.165,-17937.135,-25538.58,-5833.215,249.975
1764763201.3621635,-205.695,-1987.83,-26665.11,-7984.53,-17933.355,-25535.745,-5830.469999999999,253.71
1764763201.4090393,-207.945,-1990.215,-26667.18,-7986.42,-17936.19,-25537.32,-5831.325,251.685
1764763201.4090393,-203.895,-1987.155,-26664.525,-7983.585,-17933.445,-25534.35,-5828.985,256.23
1764763201.4090393,-204.84,-1986.615,-26663.175,-7983.585,-17935.335,-25537.59,-5831.01,253.395
1764763201.4090393,-198.405,-1977.84,-26653.545,-7974.495,-17928.45,-25532.235,-5827.455,258.57
1764763201.4090393,-201.87,-1982.43,-26659.26,-7978.455,-17929.8,-25533.405,-5829.255,256.005
1764763201.4090393,-208.755,-1991.79,-26671.005,-7989.344999999999,-17936.055,-25537.815,-5833.575,251.64
1764763201.4090393,-213.615,-1997.28,-26675.865,-7995.195,-17941.274999999998,-25542.72,-5836.545,247.05
1764763201.4090393,-207.945,-1988.91,-26665.965,-7986.105,-17935.245,-25538.175,-5833.665,252.18
1764763201.4090393,-211.995,-1995.795,-26675.91,-7993.934999999999,-17937.719999999998,-25539.255,-5834.565,250.56
1764763201.4090393,-219.915,-2008.665,-26691.84,-8007.21,-17943.12,-25541.505,-5837.13,245.61
1764763201.4090393,-219.735,-2006.775,-26689.545,-8005.86,-17943.93,-25543.62,-5839.2,244.845
1764763201.4090393,-216.63,-2001.195,-26682.165,-8000.144999999999,-17942.985,-25543.8,-5839.065,244.935
1764763201.4090393,-218.34,-2001.195,-26680.635,-7999.29,-17944.785,-25547.04,-5839.92,242.19
1764763201.4090393,-214.695,-1998.585,-26678.07,-7996.275,-17940.149999999998,-25541.55,-5835.465,246.645
1764763201.4090393,-214.155,-2001.195,-26681.22,-7997.849999999999,-17937.315,-25537.905,-5833.44,249.66
1764763201.4090393,-218.475,-2004.93,-26684.775,-8001.269999999999,-17941.094999999998,-25542.54,-5836.094999999999,246.105
1764763201.4090393,-215.1,-2000.43,-26680.68,-7997.49,-17938.755,-25539.84,-5834.925,249.03
1764763201.4090393,-215.28,-2000.475,-26680.095,-7996.995,-17939.88,-25541.055,-5835.375,247.23
1764763201.4090393,-209.655,-1994.31,-26672.985,-7989.84,-17934.075,-25536.69,-5832.09,252.0
1764763201.4090393,-208.08,-1991.79,-26669.745,-7988.445,-17934.165,-25536.87,-5832.135,252.855
1764763201.4090393,-209.655,-1992.465,-26670.105,-7990.424999999999,-17937.855,-25541.055,-5834.969999999999,250.38
1764763201.4090393,-214.29,-1995.39,-26672.625,-7993.62,-17941.86,-25544.745,-5838.03,246.51
1764763201.4090393,-211.815,-1994.49,-26672.67,-7992.405,-17940.105,-25542.27,-5836.185,250.155
1764763201.4090393,-210.87,-1994.715,-26675.415,-7993.799999999999,-17939.745,-25540.02,-5834.565,251.415
1764763201.4516275,-211.14,-1995.03,-26676.045,-7993.755,-17939.25,-25539.21,-5834.385,250.56
1764763201.4516275,-215.55,-2000.745,-26682.12,-7999.245,-17944.29,-25542.27,-5836.724999999999,247.365
1764763201.4516275,-213.525,-1999.305,-26680.725,-7997.985,-17941.545,-25539.705,-5834.565,250.2
1764763201.4516275,-214.74,-1999.215,-26680.185,-7997.759999999999,-17941.635,-25541.91,-5834.88,248.67
1764763201.4516275,-211.32,-1994.85,-26675.505,-7993.259999999999,-17938.53,-25539.345,-5833.125,251.055
1764763201.4516275,-210.555,-1994.04,-26673.57,-7991.82,-17938.755,-25538.67,-5832.855,251.505
1764763201.4753354,-213.165,-1995.39,-26674.02,-7993.215,-17942.535,-25542.63,-5835.42,247.635
1764763201.4753354,-210.015,-1991.52,-26669.34,-7989.03,-17939.475,-25542.0,-5834.52,249.345
1764763201.4753354,-209.97,-1990.395,-26668.125,-7988.715,-17938.8,-25541.595,-5834.745,249.03
1764763201.4753354,-210.195,-1993.635,-26673.21,-7991.28,-17937.989999999998,-25538.04,-5832.405,250.83
1764763201.4753354,-210.78,-1996.2,-26677.395,-7994.025,-17938.079999999998,-25536.33,-5832.179999999999,252.135
1764763201.476842,-210.96,-1996.425,-26676.405,-7994.16,-17939.43,-25539.12,-5833.304999999999,251.595
1764763201.476842,-213.975,-1997.82,-26677.89,-7996.634999999999,-17943.524999999998,-25543.935,-5836.275,247.995
1764763201.476842,-216.225,-1999.665,-26679.555,-7998.48,-17945.774999999998,-25544.835,-5838.165,247.005
1764763201.476842,-217.215,-2000.655,-26681.355,-7998.884999999999,-17946.045,-25544.835,-5838.705,246.78
1764763201.4773605,-215.82,-1999.665,-26679.87,-7997.264999999999,-17943.84,-25543.215,-5836.5,247.635
1764763201.4773605,-212.175,-1995.795,-26675.91,-7993.17,-17940.78,-25540.56,-5834.565,250.38
1764763201.4773605,-212.355,-1994.715,-26674.02,-7992.09,-17941.14,-25541.37,-5834.565,249.435
1764763201.4773605,-207.72,-1989.945,-26669.79,-7987.59,-17936.91,-25536.195,-5831.19,253.935
1764763201.4773605,-210.915,-1995.75,-26675.55,-7993.44,-17939.565,-25538.085,-5831.82,251.415
1764763201.4773605,-208.89,-1993.05,-26672.445,-7989.795,-17935.875,-25535.205,-5830.11,253.62
1764763201.4773605,-209.745,-1992.24,-26670.105,-7987.905,-17936.73,-25538.31,-5831.37,252.405
1764763201.495541,-204.705,-1985.895,-26662.95,-7981.965,-17933.805,-25535.295,-5829.885,255.555
1764763201.495541,-206.28,-1985.445,-26662.32,-7981.83,-17934.93,-25537.05,-5829.795,254.385
1764763201.496556,-204.705,-1983.78,-26660.79,-7980.255,-17934.795,-25536.78,-5828.445,255.375
1764763201.496556,-201.78,-1981.35,-26657.505,-7977.195,-17932.95,-25535.43,-5826.78,257.67
1764763201.496556,-199.89,-1978.875,-26653.995,-7973.415,-17931.645,-25533.855,-5826.195,258.435
1764763201.496556,-199.755,-1980.18,-26656.695,-7974.63,-17929.89,-25530.615,-5824.304999999999,260.145
1764763201.496556,-209.52,-1992.105,-26671.68,-7987.139999999999,-17936.774999999998,-25536.105,-5827.995,253.17
1764763201.496556,-210.645,-1993.77,-26673.165,-7987.545,-17935.559999999998,-25535.205,-5828.76,252.405
1764763201.496556,-210.105,-1995.48,-26677.035,-7991.28,-17936.325,-25533.855,-5828.715,254.745
1764763201.496556,-216.9,-2003.22,-26686.755,-8000.505,-17943.84,-25540.74,-5834.025,248.625
1764763201.496556,-214.965,-1999.17,-26681.94,-7997.49,-17944.515,-25542.99,-5834.61,248.085
1764763201.496556,-212.355,-1995.48,-26678.025,-7994.07,-17942.94,-25542.495,-5832.945,249.48
1764763201.496556,-212.625,-1996.335,-26679.06,-7994.969999999999,-17942.489999999998,-25541.145,-5832.135,250.155
1764763201.496556,-213.75,-1999.125,-26681.715,-7996.905,-17942.489999999998,-25540.245,-5831.955,250.875
1764763201.496556,-216.945,-2001.51,-26683.29,-7998.84,-17946.045,-25544.43,-5834.79,247.23
1764763201.496556,-213.93,-1997.325,-26679.645,-7995.644999999999,-17943.75,-25543.17,-5834.25,248.67
1764763201.496556,-211.05,-1993.995,-26676.27,-7992.045,-17940.105,-25540.065,-5832.045,251.235
1764763201.496556,-209.43,-1991.115,-26673.345,-7989.57,-17937.989999999998,-25537.23,-5830.29,252.81
1764763201.496556,-210.42,-1990.935,-26671.68,-7989.03,-17938.17,-25537.995,-5831.28,252.405
1764763201.496556,-209.61,-1989.27,-26668.98,-7985.88,-17937.09,-25538.49,-5831.235,252.135
1764763201.496556,-209.205,-1987.245,-26666.865,-7985.519999999999,-17938.26,-25540.425,-5830.469999999999,251.73
1764763201.496556,-207.045,-1984.455,-26663.265,-7982.865,-17936.28,-25539.3,-5829.21,253.71
1764763201.5433967,-203.985,-1982.295,-26660.88,-7980.389999999999,-17932.815,-25535.295,-5827.86,256.59
1764763201.5433967,-207.9,-1990.53,-26671.905,-7989.434999999999,-17935.469999999998,-25535.34,-5827.59,255.69
1764763201.5433967,-214.065,-1998.99,-26682.615,-7997.804999999999,-17940.149999999998,-25537.86,-5830.155,252.81
1764763201.5433967,-211.815,-1996.02,-26678.925,-7995.24,-17940.69,-25538.985,-5830.245,253.53
1764763201.5433967,-209.34,-1992.825,-26674.29,-7991.82,-17938.665,-25537.455,-5828.625,255.15
1764763201.5433967,-208.575,-1992.555,-26673.165,-7989.795,-17937.36,-25536.24,-5828.04,255.6
1764763201.5433967,-209.475,-1992.645,-26673.075,-7990.38,-17938.395,-25537.23,-5829.705,253.665
1764763201.5433967,-210.645,-1993.815,-26673.57,-7990.514999999999,-17939.114999999998,-25538.175,-5830.38,252.495
1764763201.5447671,-213.21,-1996.065,-26675.55,-7992.63,-17941.59,-25540.695,-5831.505,250.065
1764763201.5447671,-210.645,-1993.23,-26673.75,-7990.514999999999,-17939.655,-25538.49,-5829.435,251.505
1764763201.5447671,-209.88,-1992.645,-26672.94,-7989.884999999999,-17939.745,-25539.03,-5829.525,252.63
1764763201.5447671,-208.305,-1990.125,-26670.24,-7987.139999999999,-17937.945,-25537.68,-5827.905,254.61
1764763201.5447671,-202.59,-1983.825,-26662.905,-7979.264999999999,-17932.094999999998,-25532.505,-5824.665,259.47
1764763201.5447671,-201.645,-1983.42,-26662.23,-7978.769999999999,-17931.735,-25532.505,-5824.395,259.515
1764763201.5457811,-204.705,-1986.66,-26665.425,-7981.965,-17934.93,-25535.61,-5826.87,257.13
1764763201.5457811,-207.135,-1987.83,-26666.685,-7983.99,-17936.505,-25536.78,-5827.86,255.33
1764763201.5457811,-209.43,-1991.205,-26671.095,-7987.815,-17938.35,-25537.23,-5830.155,253.98
1764763201.5457811,-211.005,-1994.445,-26674.695,-7990.74,-17940.195,-25539.57,-5831.37,252.585
1764763201.5467908,-210.96,-1992.6,-26671.59,-7988.264999999999,-17939.745,-25540.515,-5831.46,251.73
1764763201.5467908,-211.23,-1991.07,-26669.52,-7986.78,-17939.204999999998,-25540.02,-5830.425,252.495
1764763201.5467908,-206.64,-1989.27,-26667.9,-7985.34,-17936.28,-25536.105,-5826.69,256.995
1764763201.5467908,-210.465,-1994.715,-26674.875,-7990.38,-17940.78,-25538.58,-5827.679999999999,253.08
1764763201.5467908,-209.79,-1993.68,-26673.39,-7989.255,-17940.375,-25538.13,-5827.905,253.35
1764763201.5467908,-206.505,-1989.81,-26669.52,-7986.42,-17936.28,-25534.44,-5825.835,257.4
1764763201.5902138,-205.65,-1989.585,-26670.33,-7986.825,-17936.82,-25534.35,-5825.7,257.94
1764763201.5902138,-205.02,-1990.08,-26670.69,-7986.96,-17936.235,-25532.73,-5824.98,258.75
1764763201.5902138,-201.015,-1985.67,-26666.55,-7982.28,-17933.67,-25530.57,-5822.594999999999,261.9
1764763201.5902138,-203.625,-1988.145,-26670.78,-7986.69,-17937.27,-25533.54,-5824.08,259.695
1764763201.5902138,-209.97,-1995.705,-26678.745,-7992.945,-17941.23,-25536.825,-5827.185,255.555
1764763201.5902138,-214.425,-1999.755,-26681.67,-7996.545,-17944.829999999998,-25540.335,-5829.435,251.145
1764763201.5902138,-215.505,-2000.79,-26682.12,-7996.365,-17944.829999999998,-25540.245,-5830.11,250.2
1764763201.5902138,-212.13,-1996.02,-26676.63,-7991.91,-17941.454999999998,-25537.95,-5827.995,253.035
1764763201.5902138,-207.855,-1991.205,-26672.13,-7987.679999999999,-17937.765,-25535.295,-5826.42,256.59
1764763201.5902138,-207.99,-1989.27,-26669.835,-7985.25,-17937.63,-25536.42,-5826.69,255.465
1764763201.5915873,-204.165,-1984.14,-26664.39,-7981.155,-17936.145,-25535.565,-5826.105,258.12
1764763201.5915873,-205.785,-1986.48,-26666.19,-7983.09,-17936.73,-25537.095,-5826.06,256.05
1764763201.5915873,-204.39,-1986.3,-26665.065,-7981.695,-17933.489999999998,-25533.72,-5824.844999999999,258.975
1764763201.5915873,-212.04,-1995.885,-26675.37,-7990.065,-17938.98,-25536.105,-5828.67,254.61
1764763201.5915873,-214.155,-1997.82,-26677.215,-7991.415,-17941.184999999998,-25537.59,-5828.49,252.855
1764763201.5915873,-206.505,-1988.28,-26668.035,-7983.179999999999,-17935.29,-25532.82,-5824.44,258.345
1764763201.5915873,-209.07,-1990.845,-26671.005,-7986.69,-17938.17,-25536.555,-5827.094999999999,254.835
1764763201.5915873,-210.375,-1993.725,-26675.415,-7990.514999999999,-17940.105,-25536.24,-5826.375,255.015
1764763201.5915873,-209.205,-1992.42,-26673.84,-7988.58,-17939.295,-25535.205,-5825.52,256.68
1764763201.5915873,-206.19,-1987.605,-26667.405,-7982.054999999999,-17934.84,-25532.325,-5823.405,259.245
1764763201.5915873,-203.49,-1984.77,-26665.515,-7981.065,-17934.434999999998,-25531.245,-5823.0,260.775
1764763201.5915873,-203.715,-1985.265,-26665.11,-7980.795,-17934.795,-25531.155,-5821.514999999999,260.46
1764763201.5931098,-195.75,-1977.615,-26657.73,-7973.415,-17927.28,-25523.865,-5814.81,269.1
1764763201.5931098,-198.45,-1982.97,-26665.515,-7980.795,-17930.925,-25525.89,-5815.844999999999,267.39
1764763201.6387892,-202.59,-1988.595,-26671.725,-7986.014999999999,-17934.57,-25529.04,-5819.4,263.34
1764763201.6387892,-202.545,-1986.255,-26667.27,-7982.82,-17933.309999999998,-25530.39,-5820.974999999999,262.26
1764763201.6387892,-202.725,-1984.95,-26664.84,-7982.009999999999,-17935.335,-25533.855,-5823.179999999999,260.235
1764763201.6387892,-202.95,-1984.275,-26664.165,-7981.245,-17935.739999999998,-25534.755,-5823.54,258.84
1764763201.6393013,-204.615,-1985.31,-26663.94,-7981.019999999999,-17936.594999999998,-25536.24,-5825.385,256.635
1764763201.6393013,-198.765,-1978.02,-26655.03,-7972.245,-17931.149999999998,-25531.02,-5821.514999999999,262.035
1764763201.6393013,-201.735,-1980.315,-26658.09,-7975.44,-17934.57,-25533.765,-5821.65,259.74
1764763201.6393013,-204.57,-1984.5,-26663.13,-7979.58,-17935.29,-25533.54,-5822.594999999999,258.66
1764763201.6393013,-205.605,-1989.18,-26670.105,-7984.08,-17933.355,-25529.58,-5821.29,260.235
1764763201.6393013,-212.31,-1999.305,-26681.76,-7995.195,-17938.71,-25533.36,-5824.755,256.095
1764763201.6393013,-217.125,-2003.49,-26685.315,-7999.424999999999,-17946.0,-25540.965,-5829.48,249.39
1764763201.6393013,-212.985,-1996.695,-26676.99,-7992.99,-17944.605,-25541.55,-5828.715,251.055
1764763201.6393013,-207.99,-1991.655,-26671.995,-7988.174999999999,-17940.015,-25537.455,-5825.79,256.095
1764763201.6393013,-210.915,-1995.39,-26677.305,-7992.855,-17943.39,-25539.21,-5827.365,254.205
1764763201.6393013,-211.32,-1996.695,-26680.005,-7995.599999999999,-17946.495,-25540.245,-5828.58,253.89
1764763201.6393013,-209.61,-1995.615,-26677.485,-7993.304999999999,-17944.469999999998,-25538.13,-5827.365,255.645
1764763201.6393013,-205.155,-1989.27,-26670.87,-7987.769999999999,-17941.68,-25536.33,-5826.33,258.435
1764763201.6393013,-203.22,-1986.165,-26668.035,-7986.69,-17942.715,-25537.005,-5824.98,258.705
1764763201.6393013,-202.365,-1984.995,-26667.81,-7985.655,-17940.51,-25535.475,-5824.17,258.93
1764763201.6393013,-210.465,-1994.49,-26677.62,-7994.61,-17946.63,-25539.165,-5828.085,254.205
1764763201.686087,-210.33,-1995.03,-26677.845,-7994.429999999999,-17945.954999999998,-25538.625,-5827.545,255.87
1764763201.686087,-211.545,-1996.785,-26678.07,-7995.33,-17947.17,-25540.695,-5829.165,253.08
1764763201.686087,-207.405,-1990.44,-26671.455,-7988.219999999999,-17942.175,-25537.545,-5827.5,256.545
1764763201.686087,-205.785,-1988.28,-26668.215,-7984.755,-17940.285,-25536.33,-5826.06,257.67
1764763201.686087,-208.215,-1990.35,-26670.105,-7987.005,-17942.94,-25538.985,-5827.365,255.06
1764763201.686087,-199.935,-1980.585,-26659.53,-7976.88,-17935.38,-25532.685,-5821.965,261.99
1764763201.686087,-202.32,-1984.905,-26665.2,-7981.74,-17937.045,-25533.9,-5823.09,260.46
1764763201.686087,-205.83,-1991.565,-26672.175,-7987.32,-17937.225,-25532.505,-5823.27,259.38
1764763201.686087,-209.205,-1995.165,-26675.64,-7990.514999999999,-17939.34,-25533.765,-5825.474999999999,256.455
1764763201.686087,-210.825,-1995.93,-26677.26,-7991.91,-17940.87,-25536.33,-5826.78,254.52
1764763201.686087,-213.93,-1998.09,-26679.78,-7994.16,-17944.02,-25539.615,-5828.219999999999,251.955
1764763201.686087,-208.665,-1992.69,-26674.29,-7989.525,-17939.295,-25535.52,-5825.25,256.5
1764763201.686087,-209.25,-1993.23,-26675.19,-7990.469999999999,-17942.219999999998,-25538.13,-5826.87,254.115
1764763201.686087,-207.045,-1991.16,-26672.85,-7987.365,-17940.329999999998,-25536.465,-5825.969999999999,256.32
1764763201.686087,-210.42,-1993.365,-26674.74,-7989.974999999999,-17943.93,-25540.47,-5829.03,253.485
1764763201.686087,-206.19,-1988.91,-26669.34,-7984.755,-17939.52,-25535.34,-5825.79,258.705
1764763201.686087,-210.24,-1993.59,-26673.435,-7989.389999999999,-17943.165,-25538.13,-5827.005,254.88
1764763201.686087,-208.08,-1992.33,-26672.67,-7988.085,-17941.77,-25536.06,-5825.34,256.725
1764763201.686087,-201.33,-1985.895,-26666.82,-7982.28,-17937.0,-25530.795,-5821.155,262.305
1764763201.686087,-203.94,-1987.065,-26665.875,-7981.965,-17939.43,-25534.89,-5823.585,259.29
1764763201.686087,-200.52,-1981.845,-26660.34,-7976.295,-17936.055,-25532.145,-5821.92,261.045
1764763201.686087,-199.485,-1982.07,-26660.88,-7977.105,-17934.48,-25530.795,-5821.29,262.755
1764763201.686087,-207.99,-1994.13,-26674.785,-7988.625,-17939.745,-25535.34,-5824.26,256.635
1764763201.686087,-209.745,-1996.56,-26677.26,-7990.245,-17939.655,-25534.755,-5823.855,256.635
1764763201.686087,-208.71,-1993.995,-26673.39,-7987.41,-17940.465,-25535.835,-5824.304999999999,257.85
1764763201.686087,-206.955,-1991.295,-26669.385,-7984.394999999999,-17940.465,-25535.205,-5824.349999999999,259.02
1764763201.686087,-201.6,-1984.41,-26662.14,-7977.509999999999,-17935.065,-25530.57,-5821.155,262.845
1764763201.686087,-200.43,-1984.32,-26662.05,-7976.79,-17934.165,-25529.355,-5820.21,263.43
1764763201.7337058,-205.065,-1990.395,-26669.79,-7982.865,-17936.19,-25531.02,-5822.594999999999,260.505
1764763201.7342155,-207.945,-1993.635,-26673.93,-7985.969999999999,-17938.395,-25533.045,-5823.495,257.58
1764763201.7342155,-209.655,-1994.13,-26674.38,-7987.32,-17941.005,-25536.6,-5824.755,255.825
1764763201.7342155,-204.84,-1988.955,-26667.54,-7981.245,-17936.055,-25531.515,-5821.155,260.775
1764763201.7342155,-204.795,-1988.37,-26667.225,-7980.03,-17936.64,-25532.28,-5820.974999999999,260.28
1764763201.7342155,-201.6,-1983.69,-26661.69,-7975.485,-17933.489999999998,-25530.075,-5818.995,263.475
1764763201.7342155,-194.76,-1976.22,-26654.265,-7968.375,-17927.73,-25524.495,-5814.179999999999,270.045
1764763201.7342155,-196.065,-1977.885,-26656.155,-7970.49,-17930.204999999998,-25527.24,-5815.215,267.48
1764763201.7342155,-193.545,-1972.305,-26648.46,-7965.495,-17930.52,-25529.04,-5816.429999999999,267.255
1764763201.7342155,-185.715,-1961.775,-26636.13,-7954.514999999999,-17923.41,-25524.0,-5812.83,273.195
1764763201.7342155,-191.565,-1969.83,-26644.32,-7960.95,-17925.84,-25526.205,-5815.53,268.965
1764763201.7342155,-206.01,-1989.27,-26667.18,-7981.2,-17937.045,-25532.865,-5822.415,259.38
1764763201.7342155,-217.215,-2008.62,-26692.245,-8001.405,-17944.559999999998,-25534.53,-5826.06,253.98
1764763201.7342155,-213.12,-2004.21,-26686.62,-7995.195,-17938.17,-25530.255,-5823.945,257.13
1764763201.7342155,-206.1,-1993.005,-26672.94,-7983.99,-17933.535,-25528.41,-5821.155,261.45
1764763201.7342155,-201.285,-1986.165,-26665.515,-7978.679999999999,-17932.05,-25527.78,-5819.04,264.375
1764763201.7342155,-202.005,-1986.255,-26664.615,-7978.59,-17933.94,-25529.715,-5820.66,262.305
1764763201.7342155,-205.83,-1989.855,-26668.17,-7981.469999999999,-17936.415,-25531.965,-5822.28,258.93
1764763201.7342155,-202.995,-1986.165,-26664.705,-7977.69,-17932.5,-25528.095,-5819.49,261.99
1764763201.7342155,-195.66,-1980.585,-26659.08,-7970.894999999999,-17924.895,-25519.59,-5813.37,270.27
1764763201.7342155,-190.98,-1975.95,-26652.87,-7965.495,-17921.204999999998,-25515.855,-5808.554999999999,274.905
1764763201.7342155,-193.995,-1977.525,-26655.48,-7969.724999999999,-17925.975,-25520.895,-5812.065,271.215
1764763201.781613,-195.345,-1979.055,-26658.495,-7973.73,-17931.015,-25525.665,-5813.37,268.785
1764763201.781613,-198.405,-1984.77,-26666.28,-7981.155,-17936.19,-25529.22,-5815.26,267.66
1764763201.781613,-199.53,-1986.93,-26669.61,-7982.91,-17937.405,-25529.31,-5816.115,266.76
1764763201.781613,-196.065,-1981.35,-26663.625,-7977.42,-17932.815,-25525.62,-5814.54,269.64
1764763201.781613,-197.865,-1984.14,-26666.865,-7980.615,-17935.559999999998,-25527.69,-5816.429999999999,267.66
1764763201.781613,-198.135,-1984.77,-26666.19,-7978.455,-17933.805,-25526.655,-5815.215,266.76
1764763201.781613,-195.615,-1980.99,-26661.735,-7975.035,-17929.844999999998,-25523.55,-5813.145,268.47
1764763201.781613,-194.355,-1980.315,-26660.34,-7972.605,-17925.614999999998,-25519.05,-5809.679999999999,270.315
1764763201.781613,-192.6,-1977.75,-26657.28,-7970.13,-17924.265,-25519.455,-5809.094999999999,270.72
1764763201.781613,-193.905,-1977.165,-26655.93,-7970.264999999999,-17928.405,-25524.0,-5811.57,268.245
1764763201.781613,-190.8,-1973.34,-26651.43,-7966.44,-17924.579999999998,-25521.12,-5810.264999999999,271.62
1764763201.781613,-195.93,-1981.305,-26661.33,-7976.565,-17932.005,-25525.98,-5814.45,267.345
1764763201.781613,-197.28,-1983.825,-26665.515,-7979.94,-17933.94,-25526.385,-5814.09,267.48
1764763201.781613,-199.98,-1987.74,-26668.35,-7981.29,-17934.165,-25526.925,-5814.54,265.86
1764763201.781613,-195.84,-1983.915,-26663.49,-7976.88,-17930.43,-25523.505,-5812.83,269.865
1764763201.781613,-193.815,-1980.0,-26659.08,-7973.865,-17930.7,-25523.955,-5812.335,271.08
1764763201.781613,-192.915,-1977.39,-26656.56,-7972.514999999999,-17932.68,-25526.205,-5812.605,269.955
1764763201.781613,-186.165,-1968.75,-26646.57,-7963.065,-17926.875,-25521.48,-5809.41,274.23
1764763201.781613,-186.255,-1969.02,-26645.355,-7961.94,-17926.38,-25521.3,-5809.905,273.735
1764763201.781613,-191.835,-1976.445,-26653.995,-7967.79,-17927.594999999998,-25521.795,-5810.49,271.035
1764763201.781613,-198.675,-1985.715,-26664.705,-7977.105,-17932.005,-25525.17,-5812.469999999999,266.67
1764763201.781613,-200.07,-1988.865,-26668.215,-7979.58,-17931.239999999998,-25524.09,-5811.795,266.625
1764763201.781613,-197.505,-1986.165,-26665.875,-7976.205,-17927.864999999998,-25520.58,-5809.41,269.37
1764763201.781613,-196.695,-1983.96,-26663.355,-7975.035,-17928.585,-25521.975,-5809.455,269.505
1764763201.8289704,-192.645,-1979.64,-26659.17,-7970.849999999999,-17925.84,-25520.13,-5807.925,273.015
1764763201.8289704,-194.76,-1982.115,-26660.655,-7973.594999999999,-17930.34,-25523.595,-5809.094999999999,270.72
1764763201.8289704,-194.04,-1980.495,-26659.665,-7973.144999999999,-17931.465,-25523.46,-5808.735,271.08
1764763201.8289704,-190.44,-1975.86,-26655.705,-7968.87,-17926.829999999998,-25519.68,-5806.125,274.905
1764763201.8289704,-191.61,-1978.92,-26658.63,-7971.12,-17927.684999999998,-25520.805,-5806.889999999999,272.925
1764763201.8289704,-196.29,-1984.14,-26662.905,-7975.53,-17932.274999999998,-25525.62,-5810.355,268.785
1764763201.8289704,-194.805,-1982.07,-26660.88,-7973.28,-17930.114999999998,-25523.82,-5809.005,270.045
1764763201.8289704,-193.41,-1978.92,-26657.01,-7970.04,-17927.82,-25522.155,-5808.15,272.07
1764763201.8289704,-189.54,-1973.97,-26651.61,-7964.19,-17923.59,-25518.24,-5805.675,276.21
1764763201.8289704,-185.445,-1970.19,-26647.83,-7960.995,-17920.665,-25515.63,-5804.01,279.135
1764763201.8289704,-189.54,-1973.475,-26650.44,-7964.415,-17923.68,-25519.59,-5806.844999999999,274.86
1764763201.8289704,-196.47,-1980.0,-26657.055,-7970.58,-17930.34,-25525.305,-5812.065,268.335
1764763201.8289704,-194.67,-1979.865,-26657.955,-7972.469999999999,-17931.42,-25524.45,-5811.929999999999,270.09
1764763201.8289704,-197.73,-1983.285,-26661.69,-7977.15,-17935.38,-25528.14,-5813.46,267.705
1764763201.8289704,-191.52,-1975.725,-26653.365,-7970.804999999999,-17931.51,-25525.08,-5810.355,272.88
1764763201.8289704,-192.645,-1975.725,-26651.475,-7969.139999999999,-17932.05,-25526.385,-5810.13,270.945
1764763201.8289704,-192.555,-1977.48,-26654.04,-7970.04,-17929.575,-25524.63,-5809.59,272.385
1764763201.8289704,-199.575,-1986.57,-26665.74,-7980.48,-17935.92,-25528.995,-5813.37,267.435
1764763201.8289704,-201.915,-1990.62,-26671.23,-7985.34,-17937.945,-25529.355,-5814.63,266.445
1764763201.8289704,-198.63,-1985.85,-26664.975,-7979.894999999999,-17935.155,-25527.915,-5812.29,269.415
1764763201.8289704,-194.49,-1979.775,-26657.64,-7972.83,-17931.42,-25524.315,-5809.275,272.925
1764763201.8289704,-191.835,-1976.4,-26653.725,-7969.139999999999,-17928.989999999998,-25522.335,-5808.33,274.23
1764763201.8289704,-189.99,-1974.33,-26650.755,-7967.025,-17926.2,-25519.905,-5806.755,276.3
1764763201.8289704,-188.325,-1972.89,-26651.43,-7965.855,-17922.149999999998,-25515.54,-5804.054999999999,278.505
1764763201.8763506,-189.72,-1972.665,-26650.89,-7965.269999999999,-17922.915,-25516.44,-5805.36,276.39
1764763201.8763506,-195.12,-1977.12,-26655.255,-7970.625,-17929.755,-25524.09,-5810.4,270.945
1764763201.8763506,-192.105,-1975.005,-26654.22,-7969.049999999999,-17928.585,-25522.605,-5809.32,273.69
1764763201.8763506,-197.325,-1981.8,-26661.15,-7975.62,-17932.005,-25524.855,-5811.03,270.405
1764763201.8763506,-198.18,-1985.625,-26666.19,-7980.344999999999,-17933.67,-25525.305,-5812.065,270.81
1764763201.8763506,-199.71,-1984.68,-26664.975,-7980.344999999999,-17936.28,-25529.04,-5813.594999999999,269.595
1764763201.8763506,-192.465,-1975.5,-26654.805,-7971.344999999999,-17930.925,-25524.63,-5809.545,274.86
1764763201.8763506,-191.34,-1971.855,-26650.485,-7969.139999999999,-17932.14,-25526.07,-5809.77,273.78
1764763201.8763506,-186.165,-1966.005,-26644.545,-7962.884999999999,-17928.18,-25522.065,-5807.969999999999,277.56
1764763201.8763506,-185.445,-1966.815,-26645.985,-7963.155,-17925.57,-25518.78,-5804.955,279.63
1764763201.8763506,-188.595,-1973.295,-26653.275,-7966.844999999999,-17925.03,-25517.475,-5804.19,278.055
1764763201.8763506,-191.52,-1975.14,-26654.94,-7969.815,-17928.54,-25520.895,-5806.98,275.94
1764763201.8763506,-194.265,-1978.38,-26658.9,-7974.224999999999,-17931.735,-25523.145,-5808.87,273.78
1764763201.8763506,-188.37,-1971.495,-26649.72,-7964.415,-17924.85,-25518.465,-5805.495,278.37
1764763201.8763506,-185.445,-1966.815,-26644.14,-7959.915,-17921.88,-25517.25,-5803.92,279.945
1764763201.8763506,-192.24,-1976.805,-26655.39,-7970.04,-17927.55,-25520.31,-5806.08,275.76
1764763201.8763506,-199.98,-1987.965,-26669.16,-7981.29,-17934.614999999998,-25524.945,-5809.905,270.36
1764763201.8763506,-198.54,-1985.895,-26667.09,-7979.58,-17932.905,-25523.28,-5810.264999999999,271.89
1764763201.8763506,-196.02,-1982.115,-26662.095,-7976.34,-17932.364999999998,-25523.145,-5809.5,272.745
1764763201.8763506,-193.635,-1979.28,-26658.63,-7972.785,-17931.059999999998,-25522.965,-5807.79,273.69
1764763201.8763506,-195.84,-1981.53,-26662.455,-7975.304999999999,-17932.41,-25523.28,-5809.23,272.205
1764763201.8763506,-199.71,-1986.705,-26667.045,-7979.715,-17936.64,-25527.195,-5812.425,268.47
1764763201.919097,-200.25,-1987.38,-26667.18,-7980.165,-17937.09,-25528.725,-5812.83,267.48
1764763201.91965,-191.295,-1975.77,-26654.085,-7968.375,-17927.864999999998,-25521.255,-5806.844999999999,275.535
1764763201.91965,-190.575,-1974.105,-26652.96,-7966.394999999999,-17926.2,-25519.815,-5805.63,275.94
1764763201.91965,-194.805,-1979.28,-26659.305,-7971.705,-17930.835,-25523.37,-5808.014999999999,272.205
1764763201.91965,-190.665,-1975.815,-26656.29,-7968.554999999999,-17927.505,-25520.265,-5805.719999999999,276.345
1764763201.91965,-194.355,-1980.72,-26661.645,-7973.684999999999,-17930.655,-25522.515,-5806.844999999999,273.78
1764763201.91965,-190.215,-1976.355,-26656.2,-7968.059999999999,-17926.965,-25519.32,-5803.785,277.245
1764763201.91965,-181.44,-1964.97,-26642.97,-7955.865,-17917.829999999998,-25511.175,-5797.485,284.895
1764763201.91965,-180.945,-1963.17,-26640.675,-7953.12,-17916.255,-25509.645,-5795.19,284.94
1764763201.91965,-189.27,-1973.97,-26651.97,-7963.424999999999,-17923.454999999998,-25515.99,-5800.77,277.92
1764763201.91965,-189.18,-1976.085,-26655.03,-7965.54,-17921.88,-25513.74,-5800.23,280.08
1764763201.91965,-188.055,-1975.5,-26654.85,-7964.639999999999,-17920.844999999998,-25512.345,-5799.87,281.07
1764763201.91965,-188.325,-1975.14,-26655.975,-7966.394999999999,-17922.735,-25514.01,-5800.77,281.34
1764763201.91965,-188.37,-1974.555,-26655.21,-7966.575,-17924.13,-25514.91,-5800.77,280.89
1764763201.91965,-187.83,-1974.825,-26655.39,-7966.889999999999,-17925.524999999998,-25516.98,-5801.985,280.17
1764763201.91965,-186.795,-1973.115,-26653.005,-7964.73,-17926.335,-25516.8,-5801.445,280.17
1764763201.91965,-186.57,-1972.26,-26650.305,-7962.705,-17924.13,-25514.865,-5800.95,280.215
1764763201.91965,-185.13,-1970.415,-26647.56,-7960.32,-17921.204999999998,-25512.795,-5798.7,282.24
1764763201.91965,-185.04,-1970.505,-26649.63,-7961.264999999999,-17921.25,-25512.165,-5797.62,282.51
1764763201.91965,-185.13,-1969.74,-26648.91,-7960.139999999999,-17921.295,-25512.165,-5798.565,281.97
1764763201.91965,-180.225,-1963.485,-26642.295,-7955.054999999999,-17921.024999999998,-25511.94,-5797.53,285.3
1764763201.91965,-174.78,-1953.765,-26630.37,-7946.144999999999,-17918.954999999998,-25511.4,-5796.585,288.855
1764763201.91965,-171.495,-1948.05,-26620.74,-7937.28,-17913.465,-25509.42,-5794.155,289.98
1764763201.91965,-178.605,-1958.715,-26633.97,-7947.99,-17916.165,-25511.49,-5795.955,285.21
1764763201.9667585,-189.225,-1979.73,-26662.095,-7970.219999999999,-17923.41,-25511.355,-5799.195,281.16
1764763201.9667585,-195.255,-1990.575,-26674.56,-7980.344999999999,-17928.18,-25513.29,-5801.76,276.795
1764763201.9667585,-191.25,-1982.25,-26663.355,-7972.019999999999,-17926.515,-25514.955,-5802.705,278.19
1764763201.9667585,-189.63,-1977.57,-26657.865,-7968.059999999999,-17925.885,-25515.765,-5802.165,278.055
1764763201.9667585,-184.23,-1971.27,-26650.62,-7962.03,-17920.44,-25510.005,-5797.98,283.32
1764763201.9667585,-185.805,-1973.565,-26652.465,-7963.38,-17921.114999999998,-25510.77,-5798.115,281.925
1764763201.9667585,-182.565,-1968.975,-26647.74,-7958.88,-17917.739999999998,-25507.98,-5796.54,285.12
1764763201.9667585,-181.035,-1966.455,-26644.95,-7957.035,-17917.605,-25508.115,-5795.82,286.11
1764763201.9667585,-176.04,-1961.415,-26638.785,-7951.59,-17913.195,-25504.245,-5792.49,290.925
1764763201.9667585,-176.85,-1962.99,-26640.405,-7952.715,-17914.545,-25504.695,-5792.264999999999,290.205
1764763201.9667585,-183.375,-1969.965,-26649.0,-7960.5,-17919.855,-25508.925,-5795.415,284.625
1764763201.9667585,-185.265,-1971.45,-26650.935,-7961.94,-17920.305,-25509.06,-5796.54,282.645
1764763201.96778,-185.85,-1971.315,-26650.755,-7960.769999999999,-17920.44,-25509.195,-5796.945,281.655
1764763201.96778,-183.645,-1970.37,-26650.305,-7960.365,-17920.079999999998,-25508.52,-5795.594999999999,283.635
1764763201.96778,-179.235,-1966.68,-26646.57,-7957.304999999999,-17917.02,-25505.595,-5792.94,287.685
1764763201.9687753,-183.78,-1970.19,-26649.27,-7960.815,-17920.89,-25510.815,-5797.035,282.87
1764763201.9687753,-182.34,-1967.085,-26644.995,-7957.44,-17919.09,-25510.455,-5797.26,283.5
1764763201.9687753,-178.965,-1963.845,-26640.81,-7952.894999999999,-17914.95,-25507.035,-5795.19,287.01
1764763201.9687753,-177.84,-1962.765,-26639.145,-7950.825,-17912.835,-25505.82,-5794.469999999999,287.145
1764763201.9687753,-179.235,-1963.755,-26639.37,-7950.825,-17914.005,-25505.73,-5794.56,285.615
1764763201.9687753,-184.5,-1972.17,-26648.055,-7958.745,-17919.315,-25509.555,-5796.45,281.43
1764763201.9687753,-186.165,-1973.88,-26651.025,-7960.545,-17919.27,-25508.88,-5796.27,281.34
1764763201.9687753,-185.04,-1972.755,-26651.88,-7961.355,-17918.055,-25507.035,-5796.405,283.905
1764763201.9687753,-186.435,-1975.23,-26655.615,-7965.134999999999,-17920.755,-25508.655,-5797.935,282.645
1764763202.016147,-184.5,-1971.27,-26650.305,-7960.545,-17918.505,-25507.89,-5796.315,283.185
1764763202.016147,-187.38,-1973.07,-26651.655,-7963.38,-17924.445,-25513.65,-5798.745,280.125
1764763202.016147,-183.915,-1968.12,-26646.3,-7961.174999999999,-17925.795,-25514.595,-5798.205,282.96
1764763202.016147,-179.95499999999998,-1964.655,-26641.53,-7956.36,-17922.915,-25513.2,-5797.215,285.255
1764763202.016147,-176.715,-1961.46,-26638.56,-7952.174999999999,-17918.28,-25508.655,-5794.92,288.63
1764763202.016147,-183.96,-1969.965,-26648.505,-7960.679999999999,-17922.465,-25511.445,-5796.764999999999,283.815
1764763202.016147,-183.78,-1970.775,-26649.63,-7960.275,-17921.25,-25508.88,-5795.865,284.985
1764763202.016147,-190.26,-1977.12,-26655.435,-7965.945,-17925.93,-25513.83,-5799.915,279.09
1764763202.016147,-189.09,-1975.905,-26654.445,-7964.37,-17924.895,-25513.38,-5799.645,279.18
1764763202.016147,-181.89,-1968.3,-26647.155,-7956.585,-17916.795,-25505.82,-5793.84,286.335
1764763202.016147,-181.62,-1969.02,-26648.145,-7956.63,-17915.445,-25504.38,-5791.545,287.73
1764763202.016147,-185.085,-1972.89,-26651.925,-7960.86,-17921.565,-25508.52,-5795.054999999999,283.59
1764763202.016147,-180.72,-1968.12,-26645.94,-7954.605,-17916.57,-25505.055,-5792.4,287.145
1764763202.016147,-180.63,-1966.77,-26644.365,-7953.48,-17916.704999999998,-25506.27,-5792.445,287.235
1764763202.016147,-184.365,-1970.595,-26649.18,-7960.094999999999,-17924.579999999998,-25512.615,-5795.639999999999,282.735
1764763202.016147,-184.725,-1971.99,-26650.62,-7961.309999999999,-17924.625,-25513.605,-5797.26,280.935
1764763202.016147,-181.62,-1966.545,-26643.69,-7954.83,-17921.655,-25512.345,-5796.27,283.185
1764763202.016147,-180.0,-1964.61,-26641.215,-7952.535,-17920.89,-25511.67,-5795.28,284.67
1764763202.016147,-183.96,-1970.955,-26649.27,-7958.7,-17921.88,-25510.77,-5796.675,282.645
1764763202.016147,-182.16,-1969.695,-26648.19,-7956.405,-17918.1,-25505.685,-5794.83,285.795
1764763202.016147,-182.52,-1971.54,-26651.07,-7958.384999999999,-17918.37,-25504.38,-5793.435,286.47
1764763202.016147,-187.065,-1976.49,-26656.515,-7964.009999999999,-17923.094999999998,-25509.915,-5796.9,281.7
1764763202.0594282,-185.13,-1973.295,-26653.32,-7960.86,-17921.295,-25508.88,-5796.719999999999,283.59
1764763202.0594282,-183.915,-1972.08,-26650.755,-7959.33,-17920.934999999998,-25509.51,-5796.719999999999,283.725
1764763202.0594282,-181.26,-1969.2,-26646.255,-7956.674999999999,-17919.765,-25508.835,-5794.92,285.255
1764763202.0594282,-185.4,-1971.99,-26649.765,-7961.355,-17925.93,-25514.595,-5798.655,280.755
1764763202.0594282,-186.255,-1970.73,-26648.73,-7960.455,-17925.39,-25514.82,-5799.825,280.08
1764763202.0594282,-185.67,-1971.36,-26650.17,-7959.24,-17922.239999999998,-25511.04,-5797.98,281.16
1764763202.0594282,-184.59,-1970.055,-26649.045,-7957.215,-17920.125,-25509.15,-5797.665,283.41
1764763202.0594282,-184.455,-1968.435,-26646.84,-7955.955,-17919.719999999998,-25510.545,-5798.25,282.33
1764763202.0594282,-187.38,-1972.665,-26652.375,-7959.554999999999,-17919.945,-25510.77,-5798.88,280.305
1764763202.0594282,-193.185,-1980.045,-26660.925,-7966.799999999999,-17926.695,-25516.935,-5803.965,274.77
1764763202.0594282,-198.18,-1985.085,-26665.74,-7973.865,-17935.739999999998,-25524.495,-5809.139999999999,270.36
1764763202.0594282,-196.47,-1982.97,-26663.13,-7971.255,-17933.175,-25521.48,-5808.465,272.43
1764763202.0594282,-196.695,-1983.33,-26663.085,-7971.929999999999,-17932.5,-25521.84,-5808.51,272.25
1764763202.0594282,-194.58,-1981.755,-26661.51,-7969.905,-17931.555,-25521.075,-5806.71,274.23
1764763202.0594282,-196.065,-1982.52,-26663.49,-7971.389999999999,-17934.12,-25523.01,-5808.105,272.205
1764763202.0594282,-196.695,-1982.475,-26663.31,-7972.605,-17936.91,-25525.305,-5810.219999999999,270.9
1764763202.0594282,-200.07,-1984.725,-26665.83,-7975.98,-17941.05,-25530.435,-5813.28,267.345
1764763202.0594282,-193.995,-1976.94,-26657.145,-7966.889999999999,-17933.805,-25523.91,-5809.185,271.98
