Timestamp,Channel1,Channel2,Channel3,Channel4,Channel5,Channel6,Channel7,Channel8
1764764837.0652072,-8565.255,-19050.705,-4917.195,-9778.32,-22825.53,-27915.12,-12629.745,-8608.904999999999
1764764837.0652072,-8569.845,-19056.105,-4922.595,-9783.9,-22830.57,-27919.44,-12632.445,-8612.865
1764764837.0652072,-8571.96,-19057.95,-4924.395,-9785.43,-22831.83,-27920.43,-12633.345,-8614.529999999999
1764764837.0652072,-8570.115,-19056.195,-4922.82,-9783.36,-22829.895,-27919.35,-12632.535,-8613.225
1764764837.0652072,-8561.88,-19048.59,-4914.405,-9776.07,-22823.055,-27915.12,-12628.71,-8607.015
1764764837.0652072,-8564.22,-19050.21,-4916.115,-9778.545,-22825.575,-27917.73,-12631.905,-8608.904999999999
1764764837.0652072,-8566.56,-19051.74,-4918.005,-9780.57,-22827.78,-27919.395,-12634.11,-8610.975
1764764837.0652072,-8566.65,-19051.155,-4917.96,-9780.255,-22826.79,-27919.215,-12635.1,-8611.425
1764764837.0662186,-8567.505,-19052.145,-4918.95,-9780.705,-22827.33,-27919.62,-12635.055,-8611.289999999999
1764764837.0662186,-8566.65,-19051.02,-4917.915,-9779.715,-22825.98,-27918.765,-12634.29,-8610.39
1764764837.0662186,-8563.545,-19047.24,-4913.775,-9776.565,-22822.29,-27915.435,-12631.14,-8606.654999999999
1764764837.0662186,-8565.164999999999,-19048.905,-4915.8,-9778.815,-22824.09,-27916.515,-12633.12,-8608.635
1764764837.0662186,-8567.955,-19052.685,-4919.895,-9782.415,-22828.095,-27920.295,-12636.36,-8612.865
1764764837.0662186,-8568.72,-19053.855,-4920.435,-9782.685,-22828.725,-27921.195,-12637.98,-8613.225
1764764837.0662186,-8568.945,-19053.72,-4920.525,-9781.965,-22828.32,-27920.97,-12638.07,-8613.045
1764764837.0662186,-8569.619999999999,-19054.08,-4920.929999999999,-9782.505,-22829.625,-27922.545,-12637.845,-8614.44
1764764837.0662186,-8568.99,-19053.09,-4920.48,-9782.46,-22828.905,-27922.095,-12636.855,-8613.72
1764764837.0662186,-8564.535,-19049.13,-4916.565,-9778.545,-22824.945,-27917.73,-12632.49,-8609.715
1764764837.0662186,-8565.345,-19050.12,-4917.735,-9779.67,-22825.305,-27918.18,-12633.705,-8610.66
1764764837.0662186,-8567.64,-19052.64,-4920.705,-9782.64,-22828.365,-27921.33,-12637.17,-8612.91
1764764837.0662186,-8562.779999999999,-19047.33,-4916.205,-9777.33,-22823.91,-27917.145,-12633.705,-8608.275
1764764837.0662186,-8563.5,-19047.33,-4916.565,-9777.78,-22823.505,-27917.145,-12634.155,-8608.545
1764764837.1109424,-8567.91,-19052.505,-4921.245,-9783.135,-22828.77,-27922.185,-12639.015,-8614.125
1764764837.1109424,-8568.675,-19052.505,-4921.605,-9783.405,-22828.815,-27922.68,-12640.68,-8615.43
1764764837.1109424,-8567.865,-19052.145,-4920.57,-9782.415,-22828.77,-27922.095,-12639.42,-8615.295
1764764837.1109424,-8565.255,-19050.255,-4917.825,-9780.165,-22826.52,-27920.34,-12637.89,-8612.505
1764764837.1109424,-8569.17,-19053.18,-4921.2,-9783.225,-22830.255,-27923.94,-12639.915,-8615.565
1764764837.1109424,-8568.675,-19053.405,-4921.605,-9783.99,-22831.065,-27923.13,-12637.35,-8615.34
1764764837.1109424,-8567.279999999999,-19052.55,-4920.615,-9782.775,-22829.355,-27921.33,-12635.1,-8613.045
1764764837.1109424,-8562.33,-19046.79,-4915.349999999999,-9778.14,-22824.045,-27916.515,-12632.535,-8608.32
1764764837.1109424,-8561.789999999999,-19046.52,-4915.26,-9777.555,-22824.18,-27916.02,-12632.58,-8607.24
1764764837.1109424,-8563.545,-19048.455,-4916.25,-9779.22,-22825.98,-27918.18,-12634.29,-8609.22
1764764837.1109424,-8564.31,-19049.535,-4916.565,-9780.21,-22826.565,-27919.665,-12635.01,-8610.255
1764764837.1109424,-8565.75,-19050.435,-4918.139999999999,-9782.055,-22827.87,-27921.33,-12636.72,-8611.47
1764764837.1109424,-8568.675,-19053.135,-4921.425,-9785.295,-22830.84,-27923.895,-12639.105,-8613.945
1764764837.112252,-8565.705,-19049.805,-4918.455,-9782.145,-22827.6,-27921.105,-12636.27,-8611.199999999999
1764764837.112252,-8567.955,-19052.46,-4921.965,-9785.25,-22830.12,-27924.615,-12638.655,-8614.485
1764764837.112252,-8564.94,-19049.895,-4918.77,-9782.505,-22827.24,-27921.555,-12636.54,-8611.38
1764764837.112252,-8569.26,-19054.17,-4922.325,-9786.87,-22831.245,-27925.515,-12640.14,-8615.52
1764764837.112252,-8564.535,-19049.625,-4918.545,-9782.82,-22827.24,-27921.645,-12636.54,-8610.93
1764764837.112252,-8562.824999999999,-19048.005,-4917.24,-9780.66,-22825.575,-27919.665,-12634.56,-8609.625
1764764837.112252,-8565.615,-19051.245,-4919.625,-9783.495,-22828.95,-27922.23,-12637.62,-8612.64
1764764837.112252,-8567.865,-19053.495,-4921.695,-9786.15,-22831.38,-27924.84,-12640.095,-8615.295
1764764837.112252,-8564.67,-19050.075,-4919.175,-9783.18,-22828.23,-27922.14,-12637.98,-8612.369999999999
1764764837.112252,-8566.65,-19051.83,-4922.37,-9785.97,-22831.29,-27925.335,-12642.57,-8615.025
1764764837.112252,-8564.22,-19049.085,-4919.49,-9783.225,-22828.32,-27922.23,-12641.13,-8611.875
1764764837.1556048,-8567.414999999999,-19051.92,-4922.099999999999,-9786.06,-22831.38,-27924.57,-12641.895,-8614.71
1764764837.1556048,-8564.58,-19050.255,-4919.94,-9784.125,-22829.49,-27922.77,-12639.33,-8612.595
1764764837.1556048,-8561.565,-19047.195,-4916.655,-9781.335,-22826.385,-27918.855,-12632.94,-8608.23
1764764837.1556048,-8565.119999999999,-19050.39,-4919.67,-9784.62,-22828.86,-27921.915,-12636.54,-8611.11
1764764837.1556048,-8562.645,-19047.915,-4916.88,-9781.92,-22826.79,-27919.44,-12636.0,-8609.625
1764764837.1567996,-8564.895,-19049.715,-4918.77,-9784.485,-22828.995,-27921.015,-12637.8,-8611.74
1764764837.1567996,-8568.315,-19053.045,-4921.83,-9788.13,-22832.19,-27925.02,-12640.545,-8614.529999999999
1764764837.1567996,-8564.039999999999,-19048.32,-4917.285,-9784.08,-22828.68,-27920.97,-12637.035,-8610.615
1764764837.1567996,-8563.904999999999,-19048.095,-4917.33,-9784.08,-22829.355,-27921.78,-12637.305,-8610.93
1764764837.1567996,-8567.865,-19051.65,-4920.885,-9787.995,-22832.82,-27926.055,-12640.455,-8614.845
1764764837.1567996,-8566.154999999999,-19049.49,-4919.67,-9786.87,-22831.29,-27924.57,-12638.565,-8613.27
1764764837.1567996,-8567.955,-19052.46,-4921.74,-9789.12,-22833.225,-27926.91,-12640.995,-8614.845
1764764837.1567996,-8565.029999999999,-19049.355,-4918.455,-9785.745,-22829.355,-27923.49,-12638.565,-8611.74
1764764837.1567996,-8566.92,-19050.75,-4919.49,-9787.32,-22830.84,-27924.165,-12640.275,-8614.619999999999
1764764837.1567996,-8562.195,-19046.655,-4915.8,-9782.865,-22826.835,-27920.34,-12636.855,-8610.39
1764764837.1567996,-8563.545,-19047.105,-4916.79,-9783.315,-22827.195,-27920.655,-12637.845,-8610.525
1764764837.1567996,-8565.3,-19048.095,-4918.275,-9785.745,-22829.13,-27922.725,-12638.88,-8611.47
1764764837.1567996,-8567.955,-19050.255,-4920.615,-9788.22,-22832.055,-27925.02,-12641.265,-8613.539999999999
1764764837.1567996,-8563.949999999999,-19047.06,-4916.79,-9784.305,-22828.68,-27921.87,-12638.34,-8610.255
1764764837.1567996,-8563.455,-19047.24,-4916.16,-9784.26,-22828.545,-27922.635,-12638.565,-8610.615
1764764837.1567996,-8567.505,-19050.93,-4921.065,-9788.04,-22832.595,-27926.28,-12643.515,-8614.935
1764764837.1567996,-8566.74,-19050.795,-4921.47,-9787.95,-22832.28,-27925.965,-12643.47,-8614.71
1764764837.2067723,-8565.48,-19049.13,-4919.94,-9786.465,-22831.74,-27925.695,-12642.255,-8613.27
1764764837.2067723,-8561.25,-19044.405,-4916.07,-9782.19,-22827.33,-27921.42,-12638.295,-8609.49
1764764837.2067723,-8560.17,-19043.64,-4915.17,-9782.01,-22826.025,-27920.025,-12636.045,-8608.365
1764764837.2079928,-8562.105,-19046.43,-4917.195,-9784.755,-22828.995,-27921.42,-12635.91,-8609.13
1764764837.2079928,-8565.029999999999,-19049.58,-4920.435,-9787.14,-22831.92,-27924.795,-12640.23,-8612.865
1764764837.2079928,-8561.07,-19045.35,-4917.42,-9783.855,-22828.455,-27921.105,-12637.665,-8609.039999999999
1764764837.2079928,-8563.77,-19047.69,-4919.804999999999,-9786.645,-22830.885,-27923.625,-12640.455,-8611.83
1764764837.2079928,-8560.529999999999,-19043.595,-4915.53,-9782.73,-22826.43,-27919.71,-12638.385,-8608.68
1764764837.2079928,-8559.855,-19042.56,-4914.99,-9781.47,-22825.35,-27918.63,-12637.98,-8607.645
1764764837.2079928,-8558.775,-19040.94,-4912.875,-9779.67,-22823.955,-27918.72,-12636.63,-8606.565
1764764837.2079928,-8562.195,-19044.72,-4915.304999999999,-9782.595,-22827.465,-27921.915,-12637.125,-8609.67
1764764837.2079928,-8562.33,-19045.125,-4916.565,-9783.09,-22827.825,-27921.6,-12637.35,-8609.355
1764764837.2079928,-8560.17,-19042.92,-4914.54,-9780.93,-22824.765,-27919.35,-12637.89,-8606.475
1764764837.2079928,-8565.39,-19047.69,-4919.58,-9786.015,-22828.905,-27923.355,-12642.255,-8611.74
1764764837.2079928,-8564.265,-19046.475,-4919.04,-9784.755,-22828.995,-27923.265,-12640.005,-8611.695
1764764837.2079928,-8560.664999999999,-19043.055,-4916.07,-9781.74,-22826.115,-27919.62,-12634.92,-8607.869999999999
1764764837.2079928,-8562.869999999999,-19046.475,-4919.22,-9784.53,-22829.13,-27921.87,-12637.755,-8610.435
1764764837.2079928,-8559.18,-19042.875,-4915.395,-9781.02,-22825.71,-27919.35,-12635.505,-8606.97
1764764837.2079928,-8561.97,-19045.98,-4918.365,-9784.215,-22829.175,-27922.995,-12638.565,-8610.164999999999
1764764837.2079928,-8561.744999999999,-19045.485,-4917.96,-9783.63,-22828.545,-27922.725,-12638.52,-8609.355
1764764837.2079928,-8565.119999999999,-19048.185,-4921.47,-9786.915,-22831.74,-27925.695,-12641.895,-8613.0
1764764837.2079928,-8563.59,-19045.845,-4919.085,-9784.845,-22828.905,-27922.545,-12640.365,-8611.154999999999
1764764837.2079928,-8560.664999999999,-19043.235,-4916.385,-9782.37,-22826.295,-27920.295,-12636.855,-8607.51
1764764837.2079928,-8564.13,-19046.565,-4919.355,-9786.195,-22830.66,-27924.21,-12641.895,-8611.065
1764764837.251353,-8560.98,-19043.505,-4915.935,-9782.73,-22827.195,-27921.015,-12639.105,-8608.635
1764764837.251353,-8564.13,-19046.79,-4919.804999999999,-9786.69,-22830.84,-27924.84,-12642.03,-8611.695
1764764837.251353,-8565.975,-19048.68,-4922.325,-9788.76,-22833.135,-27926.775,-12643.38,-8613.225
1764764837.251353,-8566.47,-19048.725,-4922.19,-9788.535,-22832.955,-27926.64,-12644.055,-8612.955
1764764837.251353,-8565.57,-19048.365,-4922.505,-9788.22,-22832.775,-27926.865,-12644.145,-8613.135
1764764837.251353,-8564.49,-19046.79,-4921.83,-9788.04,-22831.38,-27925.875,-12644.82,-8612.55
1764764837.251353,-8562.24,-19044.18,-4919.264999999999,-9785.295,-22828.95,-27923.13,-12642.705,-8610.074999999999
1764764837.251353,-8557.965,-19040.715,-4914.99,-9781.38,-22825.62,-27919.395,-12638.655,-8606.654999999999
1764764837.251353,-8559.449999999999,-19042.29,-4916.205,-9782.595,-22826.115,-27920.52,-12640.455,-8607.42
1764764837.251353,-8563.949999999999,-19047.33,-4921.335,-9786.645,-22830.66,-27925.695,-12643.245,-8612.145
1764764837.251353,-8561.52,-19045.215,-4919.895,-9784.8,-22829.265,-27923.265,-12637.62,-8608.635
1764764837.251353,-8566.02,-19049.58,-4924.665,-9789.39,-22833.675,-27928.395,-12643.695,-8613.63
1764764837.251353,-8565.975,-19049.535,-4924.125,-9789.345,-22833.81,-27928.98,-12644.415,-8613.765
1764764837.251353,-8562.195,-19045.89,-4920.3,-9785.745,-22830.48,-27925.785,-12641.22,-8609.985
1764764837.251353,-8566.02,-19049.67,-4923.99,-9789.12,-22834.71,-27929.925,-12644.73,-8613.81
1764764837.2523646,-8565.3,-19048.77,-4923.315,-9788.175,-22833.225,-27928.53,-12644.19,-8613.09
1764764837.2529373,-8560.17,-19044.045,-4918.815,-9783.72,-22828.095,-27923.085,-12640.275,-8608.005
1764764837.2529373,-8558.055,-19041.345,-4917.375,-9781.83,-22826.385,-27921.645,-12639.555,-8606.385
1764764837.2529373,-8558.46,-19041.615,-4917.915,-9783.09,-22826.52,-27922.5,-12640.635,-8607.195
1764764837.2529373,-8563.59,-19046.565,-4923.0,-9787.815,-22831.38,-27927.495,-12646.215,-8612.595
1764764837.2529373,-8563.23,-19046.88,-4922.73,-9786.87,-22831.2,-27928.125,-12645.99,-8612.145
1764764837.2529373,-8563.095,-19047.015,-4921.965,-9786.465,-22830.84,-27928.485,-12645.225,-8611.965
1764764837.2529373,-8562.869999999999,-19046.295,-4921.245,-9786.96,-22831.2,-27928.035,-12645.315,-8611.199999999999
1764764837.2529373,-8562.33,-19045.575,-4920.795,-9786.645,-22830.48,-27927.765,-12645.0,-8610.84
1764764837.300104,-8559.225,-19042.605,-4918.005,-9784.08,-22827.78,-27925.425,-12643.245,-8608.77
1764764837.300104,-8559.27,-19042.425,-4918.365,-9784.35,-22827.555,-27925.47,-12644.01,-8608.545
1764764837.300104,-8560.755,-19043.64,-4919.58,-9786.6,-22828.095,-27925.515,-12643.92,-8609.85
1764764837.300104,-8561.835,-19045.485,-4920.66,-9787.86,-22829.4,-27926.73,-12644.01,-8611.74
1764764837.300104,-8556.705,-19041.03,-4917.195,-9783.045,-22825.44,-27921.69,-12637.71,-8606.97
1764764837.300104,-8556.84,-19040.85,-4917.554999999999,-9783.135,-22825.26,-27921.105,-12638.34,-8606.34
1764764837.300104,-8558.01,-19041.39,-4917.06,-9784.44,-22826.475,-27922.68,-12640.185,-8607.824999999999
1764764837.300104,-8559.18,-19041.795,-4918.455,-9785.52,-22827.465,-27924.21,-12642.165,-8608.815
1764764837.300104,-8563.23,-19046.745,-4922.73,-9790.605,-22832.64,-27928.44,-12646.71,-8613.045
1764764837.300104,-8563.14,-19046.43,-4922.37,-9790.425,-22833.18,-27928.08,-12646.395,-8612.82
1764764837.300104,-8562.555,-19045.53,-4921.425,-9788.76,-22831.47,-27926.595,-12645.27,-8611.515
1764764837.300104,-8559.27,-19042.38,-4918.365,-9785.79,-22828.14,-27923.76,-12642.93,-8608.365
1764764837.300104,-8563.185,-19046.205,-4921.875,-9789.615,-22832.865,-27927.225,-12646.575,-8612.145
1764764837.300104,-8561.07,-19044.54,-4920.255,-9787.23,-22829.85,-27925.29,-12644.955,-8610.029999999999
1764764837.300104,-8556.3,-19040.13,-4915.935,-9782.865,-22825.17,-27920.97,-12640.275,-8605.71
1764764837.300104,-8557.92,-19041.435,-4917.375,-9784.215,-22826.79,-27922.14,-12642.03,-8607.285
1764764837.300104,-8560.89,-19043.37,-4919.13,-9786.42,-22829.535,-27923.985,-12644.685,-8609.94
1764764837.300104,-8565.119999999999,-19047.78,-4923.0,-9790.515,-22833.585,-27928.215,-12648.51,-8614.529999999999
1764764837.3007824,-8561.61,-19044.945,-4920.84,-9788.085,-22831.065,-27926.415,-12645.855,-8611.065
1764764837.3007824,-8562.015,-19045.71,-4922.505,-9788.805,-22831.875,-27927.045,-12646.98,-8611.515
1764764837.3007824,-8566.425,-19050.3,-4926.554999999999,-9792.63,-22836.645,-27931.545,-12650.715,-8616.285
1764764837.3007824,-8565.75,-19048.455,-4924.845,-9791.28,-22835.565,-27930.015,-12649.005,-8614.8
1764764837.3428934,-8565.164999999999,-19047.105,-4924.215,-9789.93,-22834.62,-27928.845,-12649.32,-8614.26
1764764837.3428934,-8561.115,-19042.785,-4919.985,-9785.295,-22829.355,-27923.895,-12647.475,-8609.94
1764764837.3428934,-8560.485,-19042.38,-4918.679999999999,-9785.115,-22828.23,-27922.23,-12646.935,-8609.76
1764764837.3428934,-8560.98,-19042.65,-4918.77,-9785.295,-22828.23,-27923.265,-12648.555,-8610.39
1764764837.3428934,-8560.619999999999,-19042.74,-4919.264999999999,-9785.835,-22829.535,-27925.245,-12647.43,-8611.02
1764764837.3428934,-8561.07,-19043.775,-4920.389999999999,-9786.105,-22830.435,-27924.705,-12642.03,-8609.58
1764764837.3428934,-8560.89,-19044.18,-4920.57,-9787.23,-22830.795,-27924.93,-12641.94,-8610.345
1764764837.3428934,-8561.88,-19044.63,-4921.83,-9788.13,-22831.29,-27925.965,-12645.63,-8611.92
1764764837.3428934,-8564.265,-19047.51,-4924.575,-9791.055,-22834.08,-27929.07,-12649.59,-8614.485
1764764837.3428934,-8561.789999999999,-19045.305,-4922.054999999999,-9788.805,-22831.83,-27926.595,-12648.105,-8612.235
1764764837.3428934,-8565.48,-19049.265,-4925.34,-9792.045,-22834.845,-27929.565,-12651.48,-8616.15
1764764837.3428934,-8563.635,-19047.51,-4922.91,-9790.065,-22832.415,-27927.315,-12649.68,-8614.8
1764764837.3428934,-8558.73,-19042.065,-4918.275,-9784.935,-22826.97,-27922.545,-12645.315,-8609.355
1764764837.3428934,-8560.35,-19043.505,-4920.48,-9786.87,-22829.76,-27924.075,-12648.24,-8611.515
1764764837.3428934,-8563.904999999999,-19047.78,-4924.53,-9791.19,-22834.125,-27927.9,-12652.155,-8615.654999999999
1764764837.3434017,-8562.824999999999,-19046.79,-4923.855,-9789.885,-22832.64,-27927.18,-12651.705,-8614.71
1764764837.3434017,-8560.529999999999,-19044.09,-4921.74,-9787.68,-22831.38,-27925.83,-12647.34,-8611.605
1764764837.3434017,-8555.85,-19040.67,-4917.465,-9784.305,-22827.78,-27921.735,-12642.705,-8606.925
1764764837.3434017,-8559.315,-19043.235,-4920.48,-9786.825,-22830.525,-27925.605,-12647.205,-8610.3
1764764837.3434017,-8558.82,-19042.065,-4919.715,-9786.24,-22829.67,-27923.805,-12646.215,-8609.13
1764764837.3434017,-8554.86,-19037.79,-4915.215,-9782.145,-22825.665,-27920.025,-12641.94,-8605.17
1764764837.3434017,-8553.42,-19036.395,-4913.505,-9779.625,-22823.415,-27917.28,-12641.4,-8603.055
1764764837.3434017,-8554.59,-19038.24,-4915.53,-9780.255,-22825.17,-27918.945,-12642.75,-8604.315
1764764837.3434017,-8559.99,-19044.18,-4920.615,-9786.51,-22831.155,-27925.245,-12648.06,-8610.3
1764764837.3921266,-8559.135,-19043.685,-4919.985,-9785.79,-22830.705,-27924.57,-12647.34,-8609.265
1764764837.3921266,-8555.085,-19039.5,-4916.52,-9781.155,-22826.115,-27920.115,-12643.47,-8604.63
1764764837.3921266,-8558.279999999999,-19042.47,-4919.49,-9785.07,-22830.255,-27922.815,-12646.215,-8608.77
1764764837.3921266,-8555.265,-19038.69,-4916.115,-9781.875,-22826.79,-27919.89,-12643.29,-8605.485
1764764837.3921266,-8556.57,-19039.725,-4917.285,-9782.82,-22827.195,-27921.105,-12644.28,-8605.98
1764764837.3921266,-8559.09,-19042.335,-4920.389999999999,-9786.015,-22830.705,-27923.94,-12646.89,-8608.455
1764764837.3921266,-8556.39,-19039.725,-4916.97,-9783.18,-22828.725,-27921.195,-12644.595,-8606.744999999999
1764764837.3921266,-8557.74,-19040.715,-4918.139999999999,-9784.8,-22830.255,-27922.5,-12649.545,-8609.039999999999
1764764837.3921266,-8555.355,-19038.42,-4916.474999999999,-9782.28,-22827.015,-27919.62,-12649.05,-8606.25
1764764837.3921266,-8555.085,-19038.555,-4917.195,-9782.055,-22825.845,-27920.25,-12649.05,-8606.385
1764764837.3921266,-8554.86,-19038.42,-4916.97,-9782.37,-22826.43,-27921.69,-12648.015,-8605.8
1764764837.3921266,-8558.235,-19041.84,-4919.94,-9785.655,-22829.31,-27923.805,-12647.88,-8609.13
1764764837.3921266,-8553.824999999999,-19037.88,-4915.26,-9781.38,-22825.44,-27918.855,-12641.4,-8603.955
1764764837.3926332,-8553.69,-19038.105,-4915.395,-9782.19,-22825.8,-27918.585,-12640.545,-8603.414999999999
1764764837.3926332,-8558.324999999999,-19042.245,-4919.76,-9786.645,-22830.885,-27922.77,-12646.98,-8608.545
1764764837.3926332,-8558.73,-19042.74,-4920.165,-9787.05,-22831.155,-27923.13,-12648.51,-8609.22
1764764837.3926332,-8558.235,-19042.065,-4919.895,-9786.195,-22830.21,-27922.77,-12647.88,-8608.59
1764764837.3926332,-8553.69,-19037.52,-4915.304999999999,-9781.245,-22825.035,-27918.63,-12644.055,-8603.73
1764764837.3926332,-8552.789999999999,-19037.07,-4914.495,-9780.075,-22824.495,-27918.36,-12645.54,-8603.595
1764764837.3926332,-8555.715,-19040.58,-4917.735,-9782.955,-22827.42,-27921.42,-12649.365,-8606.61
1764764837.3926332,-8559.09,-19043.415,-4921.065,-9785.52,-22830.075,-27923.175,-12650.4,-8609.76
1764764837.3926332,-8553.824999999999,-19038.42,-4915.44,-9781.38,-22825.755,-27917.955,-12644.37,-8604.81
1764764837.3926332,-8551.98,-19037.475,-4914.405,-9780.165,-22824.855,-27916.38,-12640.59,-8602.335
1764764837.3926332,-8552.565,-19038.42,-4916.16,-9781.515,-22826.07,-27918.27,-12642.795,-8604.045
1764764837.4387617,-8557.47,-19043.73,-4921.425,-9787.275,-22831.965,-27924.39,-12649.815,-8609.445
1764764837.4387617,-8558.235,-19044.585,-4921.514999999999,-9787.05,-22832.595,-27924.615,-12650.31,-8609.76
1764764837.4387617,-8556.975,-19042.65,-4919.085,-9784.755,-22830.48,-27921.555,-12648.78,-8608.23
1764764837.4387617,-8552.205,-19037.7,-4914.45,-9780.165,-22825.08,-27916.965,-12644.955,-8604.045
1764764837.4387617,-8552.34,-19037.745,-4914.99,-9780.885,-22825.305,-27916.965,-12645.18,-8604.585
1764764837.4387617,-8557.515,-19042.245,-4919.895,-9785.205,-22829.94,-27921.555,-12649.905,-8608.994999999999
1764764837.4387617,-8556.75,-19041.93,-4919.49,-9785.205,-22830.165,-27921.825,-12649.77,-8608.815
1764764837.4387617,-8555.985,-19040.895,-4918.455,-9784.845,-22829.085,-27921.105,-12648.735,-8608.23
1764764837.4387617,-8555.355,-19039.725,-4917.915,-9783.99,-22828.545,-27920.205,-12648.015,-8606.61
1764764837.4387617,-8552.16,-19036.575,-4914.855,-9781.02,-22825.35,-27917.28,-12645.405,-8602.92
1764764837.4387617,-8552.385,-19036.755,-4915.08,-9780.885,-22824.945,-27917.19,-12645.495,-8602.74
1764764837.4387617,-8552.07,-19036.35,-4915.215,-9780.435,-22825.575,-27918.045,-12645.63,-8603.505
1764764837.4387617,-8553.645,-19037.745,-4916.655,-9782.19,-22826.565,-27919.395,-12647.205,-8605.529999999999
1764764837.4387617,-8555.355,-19039.77,-4918.86,-9784.26,-22828.77,-27920.925,-12649.32,-8607.779999999999
1764764837.4387617,-8549.73,-19034.73,-4913.595,-9779.58,-22824.225,-27915.84,-12644.685,-8602.965
1764764837.4387617,-8550.765,-19035.315,-4913.82,-9781.11,-22824.945,-27916.695,-12645.225,-8603.505
1764764837.4387617,-8554.455,-19039.095,-4918.23,-9784.215,-22828.14,-27920.16,-12649.095,-8606.654999999999
1764764837.4387617,-8553.869999999999,-19038.015,-4916.655,-9782.73,-22826.115,-27917.955,-12648.87,-8605.08
1764764837.4387617,-8551.935,-19035.765,-4914.179999999999,-9780.48,-22824.18,-27916.245,-12647.61,-8603.505
1764764837.4387617,-8549.324999999999,-19033.2,-4912.65,-9779.13,-22822.74,-27915.3,-12645.54,-8601.615
1764764837.4387617,-8553.69,-19037.25,-4917.69,-9783.63,-22827.105,-27920.52,-12649.545,-8606.205
1764764837.4387617,-8555.49,-19039.32,-4918.679999999999,-9785.475,-22828.86,-27922.23,-12648.915,-8607.24
1764764837.4387617,-8555.4,-19039.59,-4918.724999999999,-9785.16,-22828.815,-27921.465,-12647.745,-8606.744999999999
1764764837.4387617,-8551.845,-19035.36,-4915.08,-9780.93,-22823.595,-27916.56,-12645.315,-8602.83
1764764837.4822826,-8552.43,-19035.81,-4914.945,-9781.065,-22823.37,-27916.245,-12645.72,-8602.875
1764764837.4822826,-8553.33,-19036.62,-4915.845,-9782.145,-22824.99,-27918.63,-12648.87,-8604.404999999999
1764764837.483312,-8555.94,-19039.455,-4918.5,-9785.835,-22829.625,-27923.715,-12651.255,-8607.42
1764764837.483312,-8555.49,-19040.22,-4918.5,-9785.97,-22829.445,-27922.095,-12646.62,-8606.34
1764764837.483312,-8552.025,-19036.575,-4915.08,-9782.46,-22826.115,-27919.08,-12644.1,-8602.83
1764764837.483312,-8552.115,-19036.215,-4915.17,-9782.01,-22825.89,-27919.35,-12645.855,-8603.505
1764764837.483312,-8553.42,-19037.61,-4916.79,-9782.82,-22826.88,-27920.07,-12647.07,-8604.225
1764764837.483312,-8557.965,-19042.2,-4921.65,-9787.95,-22831.83,-27924.03,-12651.84,-8608.994999999999
1764764837.483312,-8558.595,-19042.38,-4921.875,-9788.67,-22832.055,-27924.84,-12653.145,-8609.355
1764764837.483312,-8557.695,-19040.76,-4920.615,-9786.645,-22830.345,-27923.625,-12654.18,-8608.815
1764764837.483312,-8554.14,-19037.295,-4917.375,-9783.315,-22827.87,-27921.285,-12651.84,-8605.44
1764764837.483312,-8557.65,-19040.94,-4921.155,-9787.095,-22832.19,-27925.02,-12654.045,-8608.455
1764764837.483312,-8554.635,-19038.06,-4918.59,-9784.755,-22829.355,-27921.375,-12648.915,-8605.529999999999
1764764837.483312,-8556.39,-19040.355,-4920.795,-9786.195,-22830.84,-27922.5,-12648.51,-8606.925
1764764837.483312,-8553.465,-19037.745,-4918.5,-9782.955,-22828.05,-27919.71,-12645.09,-8604.0
1764764837.483312,-8557.244999999999,-19040.22,-4920.974999999999,-9786.33,-22831.47,-27923.4,-12651.03,-8608.59
1764764837.483312,-8554.5,-19036.71,-4917.735,-9783.585,-22828.275,-27920.925,-12649.725,-8605.574999999999
1764764837.483312,-8555.895,-19037.745,-4918.5,-9784.395,-22828.68,-27921.69,-12650.31,-8606.385
1764764837.483312,-8560.125,-19042.29,-4922.73,-9788.265,-22832.505,-27926.37,-12653.595,-8610.48
1764764837.483312,-8557.92,-19039.905,-4921.02,-9786.42,-22830.705,-27923.715,-12651.795,-8608.59
1764764837.483312,-8553.69,-19035.945,-4917.15,-9782.37,-22827.105,-27919.665,-12648.105,-8604.765
1764764837.483312,-8555.715,-19037.655,-4918.995,-9784.26,-22829.31,-27921.555,-12649.905,-8606.205
1764764837.5305858,-8560.17,-19041.705,-4922.82,-9789.075,-22833.045,-27925.695,-12653.595,-8609.715
1764764837.5305858,-8561.385,-19042.56,-4923.54,-9790.38,-22833.72,-27927.09,-12655.35,-8610.75
1764764837.5305858,-8559.494999999999,-19040.895,-4922.325,-9788.805,-22832.82,-27925.83,-12655.62,-8610.345
1764764837.5305858,-8555.94,-19038.015,-4919.58,-9785.25,-22829.49,-27922.95,-12652.875,-8607.735
1764764837.5305858,-8559.135,-19041.39,-4922.415,-9788.265,-22832.505,-27925.875,-12657.015,-8610.255
1764764837.5305858,-8558.055,-19039.365,-4920.795,-9787.005,-22831.515,-27924.66,-12656.07,-8608.77
1764764837.5305858,-8556.885,-19038.465,-4919.58,-9786.555,-22830.39,-27923.175,-12651.975,-8607.6
1764764837.5305858,-8552.07,-19034.235,-4915.395,-9781.785,-22825.215,-27917.73,-12644.955,-8601.885
1764764837.5305858,-8553.824999999999,-19035.09,-4916.655,-9783.09,-22825.8,-27919.485,-12648.105,-8603.955
1764764837.5305858,-8560.395,-19041.255,-4922.37,-9789.165,-22832.19,-27925.65,-12654.99,-8610.48
1764764837.5305858,-8559.72,-19040.985,-4922.775,-9788.58,-22832.1,-27925.245,-12654.945,-8610.119999999999
1764764837.5305858,-8556.119999999999,-19037.52,-4919.355,-9785.655,-22828.68,-27922.095,-12652.83,-8606.789999999999
1764764837.5305858,-8555.76,-19037.79,-4919.895,-9785.97,-22829.355,-27923.4,-12653.73,-8607.465
1764764837.5305858,-8556.84,-19038.465,-4921.065,-9787.32,-22830.345,-27925.83,-12655.53,-8608.185
1764764837.5305858,-8560.89,-19042.785,-4924.575,-9791.055,-22834.485,-27930.465,-12658.005,-8611.154999999999
1764764837.5305858,-8561.385,-19043.82,-4925.295,-9791.64,-22834.755,-27929.88,-12656.79,-8611.65
1764764837.5305858,-8560.619999999999,-19042.29,-4924.215,-9790.83,-22833.405,-27929.61,-12658.905,-8611.38
1764764837.5305858,-8554.005,-19036.215,-4917.69,-9785.07,-22827.51,-27922.95,-12653.55,-8605.08
1764764837.5305858,-8552.475,-19035.045,-4916.205,-9783.495,-22826.205,-27919.845,-12649.905,-8604.09
1764764837.5305858,-8553.6,-19036.08,-4917.915,-9784.665,-22827.645,-27920.97,-12648.87,-8605.755
1764764837.5305858,-8553.914999999999,-19036.305,-4918.32,-9785.88,-22828.455,-27921.105,-12645.72,-8604.72
1764764837.5305858,-8556.029999999999,-19038.555,-4921.155,-9788.49,-22831.245,-27923.985,-12650.58,-8606.97
1764764837.5763917,-8552.97,-19034.865,-4917.51,-9784.89,-22827.06,-27920.205,-12647.97,-8603.055
1764764837.5763917,-8553.195,-19035.09,-4917.195,-9785.205,-22827.105,-27921.33,-12649.59,-8603.369999999999
1764764837.5763917,-8555.445,-19037.115,-4919.67,-9787.32,-22830.57,-27924.93,-12653.955,-8605.845
1764764837.5763917,-8553.015,-19034.955,-4917.645,-9784.755,-22827.42,-27922.23,-12650.67,-8603.64
1764764837.5763917,-8555.4,-19037.61,-4919.985,-9787.14,-22829.265,-27923.805,-12651.885,-8606.025
1764764837.5763917,-8550.404999999999,-19031.715,-4915.304999999999,-9782.325,-22824.27,-27918.27,-12647.745,-8602.065
1764764837.5763917,-8551.035,-19033.29,-4916.429999999999,-9782.865,-22824.81,-27918.99,-12648.6,-8602.515
1764764837.5763917,-8556.705,-19039.05,-4921.02,-9788.445,-22830.255,-27924.075,-12653.91,-8608.14
1764764837.5763917,-8554.86,-19037.43,-4919.849999999999,-9786.42,-22828.95,-27922.905,-12653.37,-8606.88
1764764837.5763917,-8551.395,-19034.19,-4916.745,-9783.18,-22826.115,-27921.195,-12652.29,-8605.215
1764764837.5773995,-8552.475,-19035.405,-4918.32,-9785.34,-22827.15,-27922.995,-12652.965,-8606.61
1764764837.5773995,-8555.039999999999,-19038.105,-4920.885,-9787.905,-22829.895,-27924.885,-12654.99,-8608.41
1764764837.5773995,-8550.539999999999,-19033.065,-4915.98,-9783.045,-22825.665,-27920.61,-12651.12,-8603.955
1764764837.5773995,-8548.47,-19030.68,-4914.27,-9781.605,-22823.415,-27918.585,-12648.015,-8601.75
1764764837.5773995,-8550.765,-19034.64,-4917.24,-9785.07,-22826.655,-27920.16,-12647.16,-8603.865
1764764837.5773995,-8548.02,-19031.94,-4915.08,-9782.145,-22824.045,-27917.595,-12646.08,-8600.985
1764764837.5773995,-8547.795,-19031.04,-4914.81,-9781.83,-22823.865,-27917.955,-12647.34,-8600.715
1764764837.5773995,-8550.449999999999,-19035.045,-4918.5,-9785.88,-22826.79,-27921.555,-12651.345,-8604.585
1764764837.5773995,-8550.945,-19035.315,-4918.77,-9786.555,-22826.88,-27921.33,-12651.12,-8604.9
1764764837.5773995,-8550.225,-19033.965,-4917.014999999999,-9784.755,-22825.71,-27920.025,-12650.535,-8604.045
1764764837.5773995,-8547.39,-19030.725,-4914.72,-9781.875,-22823.775,-27918.09,-12648.33,-8601.029999999999
1764764837.5773995,-8551.215,-19034.505,-4918.23,-9785.745,-22827.195,-27921.465,-12652.065,-8604.63
1764764837.5773995,-8548.38,-19032.12,-4915.17,-9783.045,-22824.315,-27918.99,-12649.68,-8602.244999999999
1764764837.5773995,-8548.695,-19032.795,-4916.205,-9783.9,-22824.63,-27919.305,-12650.49,-8603.595
1764764837.6232586,-8552.43,-19035.99,-4919.58,-9787.59,-22828.59,-27923.13,-12654.45,-8607.6
1764764837.6232586,-8549.865,-19033.29,-4917.554999999999,-9785.295,-22827.24,-27920.385,-12652.65,-8604.404999999999
1764764837.6232586,-8546.445,-19029.24,-4914.135,-9781.92,-22823.64,-27916.785,-12649.23,-8601.074999999999
1764764837.6232586,-8550.99,-19034.505,-4918.995,-9786.15,-22828.68,-27921.735,-12653.505,-8606.34
1764764837.6232586,-8550.63,-19033.83,-4918.41,-9785.52,-22827.645,-27921.645,-12652.605,-8605.574999999999
1764764837.6232586,-8546.94,-19029.6,-4914.855,-9781.245,-22823.82,-27918.225,-12649.14,-8601.525
1764764837.6232586,-8551.17,-19033.2,-4918.59,-9785.655,-22827.69,-27922.365,-12653.505,-8605.89
1764764837.6232586,-8551.26,-19033.74,-4918.679999999999,-9785.43,-22828.365,-27923.76,-12655.98,-8606.25
1764764837.6232586,-8547.119999999999,-19029.87,-4915.845,-9781.785,-22824.585,-27919.665,-12652.695,-8602.56
1764764837.6232586,-8545.59,-19028.43,-4914.764999999999,-9780.075,-22822.695,-27917.595,-12650.175,-8600.94
1764764837.6232586,-8544.51,-19027.575,-4913.46,-9779.535,-22821.84,-27916.47,-12647.79,-8599.725
1764764837.6232586,-8542.935,-19025.46,-4912.29,-9777.96,-22820.355,-27913.77,-12642.705,-8596.845
1764764837.6232586,-8544.465,-19027.44,-4913.82,-9780.255,-22822.245,-27915.48,-12645.315,-8598.779999999999
1764764837.6232586,-8548.289999999999,-19031.67,-4917.42,-9784.305,-22825.665,-27919.665,-12650.445,-8603.19
1764764837.6232586,-8545.41,-19028.97,-4914.495,-9782.055,-22822.92,-27916.74,-12647.565,-8600.355
1764764837.6232586,-8546.31,-19029.825,-4915.215,-9782.82,-22824.045,-27917.955,-12647.88,-8600.895
1764764837.6232586,-8550.404999999999,-19033.245,-4919.535,-9787.32,-22828.095,-27922.32,-12652.02,-8604.404999999999
1764764837.6232586,-8551.26,-19033.605,-4920.3,-9787.77,-22830.03,-27924.75,-12653.775,-8605.574999999999
1764764837.6232586,-8551.125,-19033.74,-4919.985,-9786.96,-22829.49,-27925.335,-12653.82,-8605.44
1764764837.6232586,-8549.955,-19032.165,-4918.995,-9785.295,-22827.06,-27922.68,-12652.83,-8603.775
1764764837.6232586,-8547.705,-19029.87,-4916.25,-9782.55,-22823.775,-27919.215,-12650.22,-8601.525
1764764837.6232586,-8550.0,-19032.12,-4918.005,-9784.98,-22825.845,-27920.565,-12652.605,-8603.865
1764764837.6232586,-8547.21,-19030.005,-4915.62,-9782.505,-22823.82,-27918.585,-12650.67,-8601.39
1764764837.6232586,-8551.89,-19033.74,-4920.525,-9786.825,-22827.87,-27922.995,-12654.72,-8606.025
1764764837.6703477,-8549.82,-19030.995,-4917.96,-9784.755,-22825.53,-27921.375,-12653.235,-8602.74
1764764837.6703477,-8552.43,-19033.605,-4920.21,-9787.275,-22828.635,-27924.975,-12657.555,-8606.025
1764764837.6703477,-8550.27,-19031.895,-4917.87,-9784.89,-22826.655,-27922.23,-12656.205,-8604.945
1764764837.6703477,-8552.97,-19034.595,-4920.929999999999,-9787.41,-22828.86,-27924.48,-12658.545,-8607.645
1764764837.6703477,-8552.43,-19033.29,-4919.94,-9787.14,-22828.095,-27924.705,-12657.87,-8607.195
1764764837.6703477,-8550.765,-19031.895,-4918.41,-9785.88,-22825.755,-27922.185,-12651.84,-8604.765
1764764837.6703477,-8549.279999999999,-19031.94,-4919.31,-9785.565,-22825.845,-27920.34,-12647.79,-8603.19
1764764837.6703477,-8547.885,-19030.095,-4917.105,-9783.81,-22824.54,-27919.305,-12649.275,-8601.84
1764764837.6703477,-8544.195,-19026.09,-4913.145,-9779.4,-22820.445,-27915.75,-12646.26,-8597.43
1764764837.6703477,-8546.13,-19027.08,-4914.27,-9780.255,-22821.39,-27916.875,-12647.745,-8599.095
1764764837.6703477,-8546.895,-19028.025,-4914.99,-9780.84,-22822.875,-27918.045,-12649.365,-8600.4
1764764837.6703477,-8549.73,-19030.455,-4917.599999999999,-9783.45,-22825.935,-27921.465,-12651.705,-8603.19
1764764837.6703477,-8546.175,-19027.395,-4913.955,-9780.57,-22822.92,-27918.495,-12648.915,-8599.994999999999
1764764837.6703477,-8547.029999999999,-19027.845,-4914.945,-9782.28,-22823.82,-27919.44,-12649.95,-8600.355
1764764837.6703477,-8550.09,-19031.535,-4918.815,-9786.06,-22826.88,-27923.04,-12653.415,-8603.91
1764764837.6703477,-8550.045,-19031.445,-4918.59,-9785.61,-22826.475,-27922.59,-12653.28,-8603.73
1764764837.6703477,-8547.795,-19028.295,-4915.62,-9782.28,-22824.18,-27919.665,-12650.895,-8600.535
1764764837.6703477,-8547.345,-19027.98,-4914.224999999999,-9780.48,-22823.055,-27918.315,-12650.67,-8600.175
1764764837.6703477,-8549.505,-19029.69,-4916.655,-9782.505,-22824.54,-27919.845,-12652.92,-8602.965
1764764837.6703477,-8553.869999999999,-19033.74,-4921.514999999999,-9787.05,-22829.49,-27925.155,-12657.42,-8607.6
1764764837.6703477,-8552.744999999999,-19033.335,-4921.155,-9786.285,-22828.545,-27924.57,-12658.455,-8607.06
1764764837.6703477,-8549.055,-19029.465,-4917.42,-9782.46,-22825.53,-27921.465,-12656.34,-8603.414999999999
1764764837.6703477,-8549.369999999999,-19030.455,-4917.645,-9783.36,-22826.745,-27922.455,-12655.62,-8603.64
1764764837.6703477,-8551.619999999999,-19032.75,-4919.625,-9785.97,-22828.365,-27923.76,-12656.565,-8605.845
1764764837.7170749,-8547.795,-19029.195,-4916.025,-9782.325,-22824.945,-27919.665,-12651.435,-8602.02
1764764837.7170749,-8549.595,-19031.04,-4917.69,-9783.9,-22826.79,-27921.06,-12651.615,-8603.595
1764764837.7170749,-8547.21,-19028.295,-4916.205,-9781.38,-22824.18,-27918.72,-12650.895,-8601.39
1764764837.7170749,-8550.315,-19030.455,-4918.905,-9783.495,-22826.745,-27921.915,-12654.045,-8604.315
1764764837.7170749,-8548.38,-19028.295,-4917.014999999999,-9781.83,-22824.09,-27919.89,-12652.695,-8602.38
1764764837.7170749,-8552.744999999999,-19033.02,-4921.83,-9786.24,-22828.77,-27924.12,-12658.32,-8607.51
1764764837.7170749,-8549.19,-19030.005,-4918.455,-9783.585,-22825.08,-27920.79,-12655.17,-8604.72
1764764837.7170749,-8548.199999999999,-19029.375,-4917.915,-9782.595,-22824.36,-27919.755,-12653.91,-8603.595
1764764837.7170749,-8549.01,-19030.095,-4918.275,-9783.045,-22826.475,-27921.375,-12655.125,-8604.765
1764764837.7170749,-8552.115,-19032.705,-4921.02,-9786.06,-22829.265,-27925.74,-12659.67,-8608.545
1764764837.7170749,-8551.98,-19032.795,-4921.29,-9786.105,-22828.95,-27925.29,-12656.475,-8608.005
1764764837.7170749,-8550.9,-19031.265,-4920.57,-9785.61,-22827.915,-27923.22,-12652.83,-8605.08
1764764837.7170749,-8549.775,-19029.825,-4918.995,-9783.405,-22826.205,-27921.825,-12653.595,-8604.225
1764764837.7170749,-8544.42,-19024.245,-4913.73,-9777.195,-22820.715,-27916.74,-12649.455,-8600.22
1764764837.7170749,-8545.23,-19025.55,-4914.99,-9778.365,-22821.615,-27917.19,-12650.265,-8601.525
1764764837.7170749,-8548.605,-19028.565,-4917.69,-9780.93,-22824.495,-27919.44,-12653.19,-8603.279999999999
1764764837.7170749,-8552.07,-19031.895,-4920.615,-9784.755,-22827.42,-27922.455,-12657.15,-8606.43
1764764837.7170749,-8548.38,-19028.295,-4917.285,-9781.02,-22823.775,-27919.305,-12654.315,-8603.369999999999
1764764837.7170749,-8547.93,-19027.935,-4917.06,-9781.02,-22824.27,-27919.98,-12653.865,-8603.369999999999
1764764837.7170749,-8547.615,-19028.07,-4917.69,-9781.47,-22824.855,-27921.825,-12653.28,-8603.82
1764764837.7170749,-8548.965,-19029.105,-4919.625,-9782.775,-22826.205,-27922.14,-12651.3,-8604.09
1764764837.7170749,-8548.83,-19029.33,-4918.905,-9782.415,-22826.52,-27921.24,-12651.705,-8603.775
1764764837.7170749,-8550.045,-19029.285,-4919.445,-9782.37,-22826.34,-27921.6,-12654.45,-8604.404999999999
1764764837.7170749,-8549.595,-19028.565,-4919.22,-9782.37,-22826.07,-27920.97,-12654.99,-8604.09
1764764837.764081,-8545.32,-19024.65,-4914.675,-9778.14,-22821.57,-27916.065,-12650.22,-8599.59
1764764837.764081,-8546.085,-19025.1,-4914.764999999999,-9778.455,-22822.38,-27916.965,-12651.03,-8600.355
1764764837.764081,-8547.525,-19026.54,-4916.07,-9779.49,-22823.145,-27918.72,-12652.74,-8601.705
1764764837.764081,-8551.395,-19030.905,-4919.49,-9783.81,-22826.745,-27922.815,-12657.87,-8605.98
1764764837.764081,-8550.494999999999,-19030.905,-4919.67,-9784.26,-22827.465,-27923.445,-12657.105,-8606.88
1764764837.764081,-8546.265,-19026.855,-4916.34,-9780.345,-22823.64,-27918.45,-12651.885,-8602.199999999999
1764764837.764081,-8545.14,-19025.865,-4914.63,-9779.805,-22822.695,-27917.28,-12650.805,-8600.355
1764764837.764081,-8545.59,-19026.405,-4915.215,-9780.345,-22822.92,-27919.215,-12653.46,-8600.355
1764764837.764081,-8549.505,-19030.185,-4918.635,-9783.54,-22826.295,-27922.455,-12657.915,-8604.63
1764764837.764081,-8548.199999999999,-19028.61,-4916.88,-9781.74,-22824.945,-27920.205,-12655.89,-8603.865
1764764837.764081,-8543.205,-19022.94,-4912.425,-9776.475,-22820.13,-27915.255,-12650.49,-8598.645
1764764837.764081,-8546.895,-19027.395,-4916.61,-9780.75,-22824.405,-27919.17,-12651.66,-8601.75
1764764837.764081,-8545.904999999999,-19026.81,-4915.62,-9779.76,-22823.595,-27919.215,-12650.22,-8601.48
1764764837.764081,-8541.585,-19021.995,-4911.345,-9775.125,-22818.69,-27914.31,-12645.27,-8597.475
1764764837.764081,-8541.449999999999,-19021.545,-4910.985,-9774.72,-22819.14,-27914.355,-12646.62,-8597.385
1764764837.764081,-8544.195,-19023.93,-4914.495,-9778.455,-22821.975,-27917.46,-12649.77,-8599.949999999999
1764764837.764081,-8542.125,-19022.085,-4912.695,-9776.88,-22820.49,-27915.93,-12648.555,-8599.23
1764764837.764081,-8538.93,-19019.43,-4909.59,-9774.315,-22817.565,-27912.645,-12645.315,-8596.574999999999
1764764837.764081,-8539.92,-19020.51,-4910.715,-9776.07,-22818.465,-27913.635,-12646.665,-8597.205
1764764837.764081,-8542.215,-19022.58,-4912.74,-9777.645,-22819.905,-27915.345,-12649.005,-8598.42
1764764837.764081,-8536.635,-19016.1,-4906.755,-9771.075,-22814.595,-27910.215,-12644.055,-8592.66
1764764837.764081,-8538.84,-19017.495,-4908.375,-9772.74,-22816.575,-27913.005,-12646.53,-8594.64
1764764837.764081,-8540.414999999999,-19019.115,-4909.995,-9774.63,-22818.15,-27914.85,-12649.005,-8596.395
1764764837.764081,-8541.315,-19020.42,-4911.12,-9775.89,-22819.05,-27916.155,-12650.445,-8597.654999999999
1764764837.8118129,-8544.51,-19023.975,-4914.54,-9779.31,-22822.065,-27920.475,-12653.505,-8601.164999999999
1764764837.8118129,-8543.16,-19022.49,-4913.19,-9778.005,-22820.4,-27919.08,-12653.415,-8600.085
1764764837.8118129,-8541.539999999999,-19021.095,-4911.66,-9777.285,-22818.87,-27917.505,-12649.545,-8597.88
1764764837.8123195,-8540.324999999999,-19019.34,-4910.355,-9775.935,-22817.565,-27914.535,-12645.36,-8595.045
1764764837.8123195,-8538.345,-19017.63,-4908.69,-9773.46,-22815.72,-27912.825,-12644.505,-8593.38
1764764837.8123195,-8540.145,-19019.43,-4911.66,-9775.215,-22817.43,-27915.12,-12648.375,-8595.675
1764764837.8123195,-8536.904999999999,-19015.83,-4907.34,-9771.345,-22814.19,-27911.655,-12646.395,-8592.66
1764764837.8123195,-8540.505,-19019.79,-4911.21,-9774.9,-22817.655,-27915.255,-12649.185,-8596.529999999999
1764764837.8123195,-8537.13,-19016.28,-4907.745,-9771.48,-22814.595,-27912.51,-12645.45,-8592.66
1764764837.8123195,-8536.86,-19015.38,-4906.53,-9770.76,-22814.145,-27911.79,-12645.45,-8592.39
1764764837.8123195,-8536.994999999999,-19016.28,-4907.745,-9771.57,-22815.09,-27912.42,-12645.72,-8593.335
1764764837.8133602,-8538.029999999999,-19017.495,-4908.554999999999,-9772.785,-22815.765,-27912.51,-12647.655,-8593.965
1764764837.8133602,-8541.765,-19021.275,-4912.02,-9776.88,-22819.005,-27916.065,-12651.525,-8597.07
1764764837.8133602,-8541.9,-19021.05,-4911.75,-9776.925,-22819.41,-27916.875,-12650.895,-8597.52
1764764837.8133602,-8539.199999999999,-19018.08,-4908.465,-9773.775,-22815.72,-27913.14,-12647.43,-8594.324999999999
1764764837.8133602,-8537.085,-19015.56,-4906.304999999999,-9771.12,-22813.515,-27911.115,-12645.495,-8591.805
1764764837.8133602,-8537.355,-19015.74,-4906.44,-9771.3,-22813.83,-27911.205,-12645.945,-8592.029999999999
1764764837.8133602,-8542.395,-19020.69,-4911.795,-9776.655,-22819.365,-27917.55,-12651.84,-8598.285
1764764837.8143592,-8539.695,-19018.44,-4909.455,-9774.54,-22816.98,-27915.615,-12649.095,-8595.855
1764764837.8143592,-8543.34,-19022.265,-4912.605,-9778.005,-22819.995,-27919.305,-12652.29,-8599.23
1764764837.8143592,-8543.52,-19021.68,-4912.965,-9777.555,-22820.535,-27919.62,-12652.02,-8599.23
1764764837.8143592,-8538.84,-19017.45,-4908.465,-9772.695,-22815.405,-27915.615,-12647.79,-8594.145
1764764837.8572795,-8538.255,-19016.505,-4907.52,-9771.795,-22814.055,-27914.31,-12647.07,-8593.065
1764764837.8572795,-8543.295,-19020.87,-4912.695,-9776.88,-22819.185,-27919.215,-12653.28,-8597.97
1764764837.8572795,-8542.845,-19020.6,-4912.29,-9776.52,-22819.275,-27919.395,-12653.415,-8597.52
1764764837.8572795,-8539.289999999999,-19016.865,-4908.645,-9773.235,-22816.215,-27914.67,-12648.69,-8594.235
1764764837.8572795,-8538.164999999999,-19016.415,-4908.69,-9772.515,-22815.54,-27914.04,-12647.79,-8593.56
1764764837.8572795,-8541.855,-19020.42,-4912.875,-9776.205,-22819.23,-27917.01,-12648.375,-8596.305
1764764837.8572795,-8539.02,-19017.045,-4909.139999999999,-9772.29,-22815.54,-27913.455,-12644.82,-8592.705
1764764837.8572795,-8540.414999999999,-19017.9,-4910.31,-9773.46,-22816.755,-27914.895,-12646.98,-8594.369999999999
1764764837.8572795,-8540.369999999999,-19017.72,-4910.715,-9774.045,-22816.71,-27914.895,-12647.79,-8595.09
1764764837.8572795,-8536.635,-19014.075,-4906.575,-9770.58,-22813.47,-27912.15,-12644.145,-8591.58
1764764837.8572795,-8536.949999999999,-19014.615,-4907.07,-9771.525,-22814.37,-27913.05,-12644.955,-8592.029999999999
1764764837.8572795,-8538.119999999999,-19016.1,-4908.33,-9772.515,-22815.99,-27914.31,-12647.925,-8593.875
1764764837.8572795,-8539.47,-19017.045,-4909.905,-9773.37,-22817.07,-27915.075,-12651.48,-8595.855
1764764837.8572795,-8541.0,-19018.665,-4911.75,-9773.955,-22818.645,-27916.65,-12653.325,-8597.52
1764764837.8572795,-8538.029999999999,-19015.92,-4908.645,-9770.625,-22815.36,-27914.175,-12649.365,-8593.695
1764764837.8572795,-8539.695,-19017.315,-4911.48,-9773.46,-22816.665,-27915.75,-12647.7,-8595.09
1764764837.8586872,-8541.81,-19019.07,-4912.83,-9775.395,-22818.87,-27916.38,-12647.205,-8597.43
1764764837.8586872,-8537.445,-19015.155,-4907.97,-9771.885,-22814.73,-27911.43,-12642.39,-8592.57
1764764837.8586872,-8537.22,-19015.02,-4908.24,-9771.48,-22814.82,-27911.34,-12644.28,-8592.164999999999
1764764837.8586872,-8537.49,-19015.425,-4909.005,-9771.75,-22815.54,-27911.79,-12645.36,-8592.57
1764764837.8586872,-8541.494999999999,-19019.565,-4912.74,-9775.53,-22819.725,-27916.47,-12648.51,-8596.755
1764764837.8586872,-8537.895,-19015.92,-4909.455,-9771.975,-22816.17,-27913.5,-12645.765,-8593.154999999999
1764764837.9061236,-8541.855,-19019.34,-4913.054999999999,-9775.395,-22819.905,-27917.685,-12649.905,-8596.935
1764764837.9061236,-8541.09,-19019.115,-4912.695,-9775.395,-22819.32,-27916.74,-12649.68,-8597.295
1764764837.9061236,-8537.625,-19016.19,-4909.724999999999,-9772.335,-22816.53,-27914.04,-12646.305,-8594.1
1764764837.9061236,-8540.955,-19019.79,-4912.38,-9775.62,-22820.04,-27917.01,-12650.535,-8597.835
1764764837.9061236,-8537.58,-19016.37,-4909.185,-9772.245,-22816.44,-27913.32,-12647.7,-8594.46
1764764837.9061236,-8537.94,-19016.91,-4910.22,-9773.595,-22817.385,-27915.075,-12649.005,-8595.09
1764764837.9061236,-8535.195,-19013.76,-4907.61,-9771.3,-22815.72,-27912.78,-12645.99,-8592.3
1764764837.9061236,-8534.744999999999,-19013.895,-4907.565,-9771.075,-22814.505,-27912.06,-12644.955,-8591.715
1764764837.9061236,-8535.33,-19014.345,-4908.195,-9771.075,-22815.045,-27912.645,-12645.54,-8592.39
1764764837.9061236,-8539.154999999999,-19018.17,-4911.795,-9775.26,-22819.23,-27916.785,-12650.04,-8596.98
1764764837.9061236,-8535.869999999999,-19014.525,-4908.24,-9771.885,-22814.955,-27912.51,-12646.89,-8593.65
1764764837.9061236,-8536.095,-19014.12,-4907.7,-9771.03,-22813.785,-27911.205,-12646.17,-8593.244999999999
1764764837.9061236,-8536.14,-19015.425,-4908.014999999999,-9771.345,-22814.28,-27912.24,-12646.125,-8593.425
1764764837.9061236,-8540.19,-19018.89,-4912.155,-9776.07,-22818.42,-27916.74,-12650.715,-8597.295
1764764837.9061236,-8540.82,-19019.16,-4913.325,-9776.43,-22819.365,-27917.325,-12651.39,-8597.295
1764764837.9061236,-8540.64,-19019.97,-4913.639999999999,-9776.43,-22820.49,-27918.585,-12653.73,-8598.195
1764764837.9061236,-8539.74,-19019.34,-4913.415,-9775.845,-22820.445,-27919.305,-12654.36,-8597.744999999999
1764764837.9071312,-8542.08,-19020.42,-4914.54,-9777.015,-22821.21,-27920.88,-12655.08,-8599.365
1764764837.9071312,-8542.35,-19021.095,-4915.26,-9778.005,-22821.75,-27920.61,-12654.765,-8599.815
1764764837.9071312,-8541.855,-19020.195,-4914.54,-9777.51,-22821.48,-27918.585,-12651.255,-8598.33
1764764837.9071312,-8541.315,-19019.565,-4914.855,-9776.79,-22821.165,-27918.405,-12650.94,-8597.789999999999
1764764837.9071312,-8537.039999999999,-19014.705,-4910.22,-9771.885,-22816.395,-27914.58,-12647.7,-8593.335
1764764837.9071312,-8537.67,-19016.055,-4910.58,-9772.74,-22816.935,-27915.03,-12649.095,-8594.145
1764764837.9071312,-8542.935,-19021.59,-4915.71,-9778.095,-22821.48,-27920.16,-12654.63,-8599.545
1764764837.9495268,-8542.395,-19021.095,-4915.845,-9777.96,-22822.155,-27920.79,-12655.44,-8599.77
1764764837.9495268,-8540.73,-19018.935,-4913.91,-9776.565,-22821.21,-27919.71,-12654.225,-8597.88
1764764837.9495268,-8536.815,-19015.11,-4910.355,-9773.055,-22817.025,-27915.525,-12649.365,-8593.56
1764764837.9495268,-8536.815,-19015.11,-4908.87,-9772.605,-22815.495,-27914.76,-12649.68,-8593.47
1764764837.9495268,-8537.13,-19014.795,-4909.005,-9772.335,-22815.945,-27914.715,-12648.78,-8592.615
1764764837.9495268,-8537.715,-19016.73,-4911.389999999999,-9774.225,-22817.97,-27916.065,-12646.17,-8593.74
1764764837.9495268,-8541.585,-19020.15,-4915.755,-9778.14,-22821.57,-27920.25,-12651.345,-8598.285
1764764837.9495268,-8537.49,-19015.2,-4910.175,-9773.28,-22816.8,-27915.795,-12648.645,-8593.785
1764764837.9500456,-8537.355,-19014.705,-4909.365,-9772.425,-22815.72,-27914.175,-12648.375,-8593.425
1764764837.9500456,-8542.845,-19020.42,-4914.405,-9777.915,-22821.93,-27920.79,-12653.73,-8599.32
1764764837.9500456,-8542.98,-19019.79,-4914.54,-9778.14,-22822.47,-27921.285,-12653.685,-8599.095
1764764837.9500456,-8539.785,-19017.09,-4912.2,-9775.53,-22819.095,-27918.135,-12650.895,-8595.765
1764764837.9500456,-8543.34,-19021.32,-4916.205,-9779.445,-22823.595,-27923.22,-12655.62,-8599.815
1764764837.9500456,-8543.295,-19021.095,-4916.205,-9779.085,-22823.145,-27924.03,-12656.565,-8599.635
1764764837.9500456,-8544.195,-19020.825,-4916.565,-9779.265,-22822.74,-27922.905,-12656.295,-8600.13
1764764837.9500456,-8543.07,-19019.16,-4915.17,-9777.69,-22821.705,-27921.33,-12655.665,-8599.815
1764764837.9500456,-8539.605,-19016.46,-4912.245,-9774.27,-22818.69,-27918.45,-12652.695,-8596.664999999999
1764764837.9500456,-8541.225,-19017.765,-4913.145,-9775.26,-22820.445,-27919.665,-12653.64,-8598.555
1764764837.9500456,-8537.355,-19013.895,-4909.32,-9772.29,-22816.845,-27915.84,-12649.86,-8594.82
1764764837.9500456,-8538.074999999999,-19015.11,-4909.679999999999,-9773.82,-22817.565,-27916.515,-12650.895,-8595.27
1764764837.9500456,-8535.06,-19011.915,-4906.215,-9770.13,-22814.37,-27913.095,-12647.385,-8591.445
1764764837.9500456,-8536.455,-19013.04,-4907.97,-9771.84,-22815.99,-27914.175,-12650.04,-8592.84
1764764837.9500456,-8539.605,-19015.38,-4911.12,-9774.81,-22818.465,-27917.46,-12654.18,-8596.08
1764764837.9500456,-8536.05,-19012.68,-4908.06,-9771.345,-22814.415,-27914.805,-12650.895,-8592.615
1764764837.9999998,-8537.895,-19014.255,-4909.635,-9772.875,-22816.35,-27917.235,-12650.355,-8593.92
1764764837.9999998,-8540.1,-19017.405,-4912.335,-9775.44,-22819.23,-27917.865,-12649.995,-8596.08
1764764837.9999998,-8536.455,-19013.67,-4909.679999999999,-9772.02,-22816.08,-27914.22,-12647.52,-8592.705
1764764837.9999998,-8534.835,-19012.095,-4908.24,-9770.265,-22815.0,-27912.96,-12646.62,-8590.77
1764764838.0010228,-8536.23,-19012.905,-4909.32,-9771.615,-22816.845,-27914.895,-12647.925,-8591.535
1764764838.0010228,-8538.39,-19015.38,-4911.21,-9773.82,-22819.77,-27917.865,-12650.94,-8594.279999999999
1764764838.0010228,-8540.775,-19017.45,-4913.145,-9775.395,-22821.615,-27921.24,-12654.495,-8596.574999999999
1764764838.0010228,-8537.445,-19013.13,-4908.78,-9770.67,-22817.07,-27916.965,-12653.415,-8594.1
1764764838.0010228,-8539.74,-19014.885,-4910.49,-9772.92,-22818.735,-27919.395,-12655.755,-8597.43
1764764838.0010228,-8536.5,-19013.31,-4908.915,-9771.345,-22818.06,-27917.955,-12651.345,-8592.84
1764764838.0010228,-8535.869999999999,-19014.3,-4910.264999999999,-9771.84,-22818.915,-27919.26,-12650.49,-8590.365
1764764838.0010228,-8537.49,-19015.605,-4912.155,-9773.82,-22821.165,-27920.07,-12650.22,-8591.22
1764764838.0010228,-8540.46,-19017.18,-4913.099999999999,-9774.45,-22821.795,-27921.06,-12653.955,-8596.619999999999
1764764838.0010228,-8537.355,-19014.57,-4910.22,-9770.58,-22817.565,-27916.2,-12651.39,-8594.595
1764764838.0010228,-8538.029999999999,-19015.965,-4912.02,-9772.47,-22819.14,-27917.55,-12651.705,-8593.74
1764764838.0010228,-8541.135,-19019.79,-4915.53,-9776.34,-22822.11,-27921.015,-12654.18,-8595.404999999999
1764764838.0020149,-8537.985,-19015.605,-4910.849999999999,-9772.65,-22817.34,-27917.595,-12650.805,-8594.369999999999
1764764838.0020149,-8539.605,-19015.695,-4910.58,-9772.92,-22818.015,-27918.495,-12652.155,-8598.015
1764764838.0020149,-8537.13,-19013.175,-4908.33,-9771.165,-22816.53,-27918.54,-12650.625,-8595.404999999999
1764764838.0020149,-8540.955,-19018.845,-4915.44,-9777.87,-22824.54,-27925.47,-12656.34,-8596.98
1764764838.0020149,-8542.17,-19020.915,-4918.005,-9779.13,-22825.8,-27925.605,-12656.925,-8595.765
1764764838.0020149,-8539.695,-19018.17,-4914.135,-9775.215,-22820.94,-27920.61,-12653.145,-8593.38
1764764838.0020149,-8539.515,-19016.28,-4912.02,-9773.235,-22820.22,-27921.015,-12655.845,-8597.565
1764764838.0020149,-8535.285,-19012.365,-4908.645,-9770.4,-22816.89,-27917.91,-12651.165,-8593.83
1764764838.0445197,-8536.725,-19014.795,-4910.13,-9772.38,-22817.43,-27916.74,-12648.06,-8592.66
1764764838.0445197,-8536.949999999999,-19013.535,-4909.095,-9770.13,-22815.99,-27915.93,-12649.005,-8594.145
1764764838.0445197,-8536.23,-19012.455,-4908.554999999999,-9770.625,-22817.295,-27918.63,-12651.165,-8593.425
1764764838.0445197,-8541.315,-19018.845,-4914.045,-9776.61,-22822.29,-27923.4,-12656.295,-8596.755
1764764838.0445197,-8543.88,-19021.095,-4914.675,-9777.015,-22821.3,-27922.59,-12656.565,-8599.14
1764764838.0445197,-8542.08,-19018.17,-4912.335,-9773.955,-22817.88,-27918.495,-12653.505,-8599.5
1764764838.0445197,-8537.805,-19013.94,-4908.645,-9770.355,-22813.605,-27912.87,-12648.33,-8595.99
1764764838.0445197,-8537.265,-19014.12,-4910.355,-9771.435,-22815.765,-27915.615,-12649.32,-8593.92
1764764838.0445197,-8537.039999999999,-19014.03,-4910.58,-9771.075,-22815.81,-27917.28,-12652.2,-8593.38
1764764838.0445197,-8536.994999999999,-19013.625,-4909.23,-9769.32,-22814.37,-27915.84,-12652.11,-8592.975
1764764838.0445197,-8537.58,-19013.4,-4909.05,-9769.455,-22814.73,-27914.805,-12651.345,-8594.595
1764764838.0445197,-8540.82,-19016.595,-4913.415,-9773.82,-22819.95,-27919.755,-12655.305,-8599.005
1764764838.0445197,-8541.539999999999,-19017.18,-4913.955,-9774.27,-22820.13,-27920.07,-12655.125,-8599.994999999999
1764764838.0445197,-8541.99,-19018.125,-4914.09,-9774.9,-22820.445,-27920.34,-12654.99,-8599.365
1764764838.0445197,-8541.81,-19018.62,-4914.99,-9775.17,-22820.805,-27921.69,-12655.845,-8598.015
1764764838.0445197,-8540.73,-19017.945,-4914.855,-9774.63,-22819.725,-27921.24,-12655.71,-8597.115
1764764838.0445197,-8541.27,-19017.315,-4914.09,-9773.865,-22819.095,-27919.8,-12655.08,-8598.24
1764764838.0445197,-8541.765,-19017.045,-4912.74,-9772.74,-22818.015,-27919.215,-12655.845,-8598.375
1764764838.0445197,-8538.39,-19014.255,-4910.4,-9770.895,-22815.585,-27918.09,-12654.9,-8595.09
1764764838.0445197,-8540.55,-19016.28,-4912.965,-9773.46,-22818.375,-27920.7,-12657.15,-8597.565
1764764838.0445197,-8537.13,-19013.355,-4910.085,-9770.22,-22814.685,-27916.47,-12653.235,-8594.865
1764764838.0445197,-8540.955,-19016.235,-4912.47,-9773.145,-22817.43,-27918.81,-12655.845,-8598.33
1764764838.0459805,-8540.01,-19015.695,-4912.2,-9773.37,-22817.97,-27919.17,-12653.955,-8597.475
1764764838.0459805,-8536.545,-19012.14,-4909.455,-9770.985,-22815.72,-27917.82,-12651.75,-8593.785
1764764838.0937717,-8540.19,-19016.91,-4913.685,-9774.855,-22819.185,-27920.745,-12652.29,-8596.98
1764764838.0937717,-8538.57,-19015.695,-4911.57,-9772.695,-22817.385,-27919.44,-12652.335,-8596.619999999999
1764764838.0937717,-8534.699999999999,-19011.96,-4908.105,-9768.87,-22813.74,-27915.975,-12650.58,-8593.335
1764764838.0937717,-8533.664999999999,-19010.25,-4907.429999999999,-9767.52,-22812.525,-27915.03,-12650.715,-8592.029999999999
1764764838.0937717,-8536.545,-19013.31,-4910.804999999999,-9770.85,-22814.955,-27917.91,-12652.875,-8594.369999999999
1764764838.0937717,-8534.295,-19011.195,-4908.105,-9768.555,-22812.795,-27915.165,-12650.805,-8591.13
1764764838.0937717,-8534.61,-19010.925,-4907.385,-9768.06,-22812.795,-27915.48,-12651.84,-8591.67
1764764838.0937717,-8534.475,-19011.33,-4907.97,-9768.465,-22812.975,-27915.48,-12650.67,-8592.39
1764764838.0937717,-8533.215,-19011.15,-4908.33,-9768.555,-22813.425,-27914.715,-12646.08,-8590.904999999999
1764764838.0937717,-8533.755,-19011.78,-4909.32,-9769.455,-22814.415,-27916.29,-12648.105,-8592.029999999999
1764764838.0937717,-8537.67,-19014.39,-4912.83,-9772.155,-22817.43,-27919.53,-12651.795,-8595.585
1764764838.0937717,-8536.77,-19012.86,-4911.21,-9771.165,-22815.045,-27918.585,-12649.545,-8593.74
1764764838.0937717,-8539.515,-19016.1,-4914.36,-9774.45,-22818.015,-27921.555,-12653.46,-8596.8
1764764838.0937717,-8535.33,-19011.915,-4909.86,-9770.445,-22814.73,-27917.28,-12650.04,-8592.39
1764764838.0937717,-8535.195,-19011.465,-4909.23,-9770.04,-22814.055,-27916.02,-12650.04,-8591.895
1764764838.0937717,-8534.744999999999,-19010.475,-4907.925,-9768.51,-22813.065,-27915.03,-12649.995,-8591.039999999999
1764764838.0937717,-8534.25,-19009.71,-4907.52,-9768.24,-22812.795,-27915.165,-12650.715,-8590.68
1764764838.0937717,-8534.115,-19009.125,-4907.429999999999,-9767.97,-22812.255,-27914.76,-12651.255,-8590.05
1764764838.0937717,-8535.779999999999,-19011.42,-4909.815,-9771.03,-22814.595,-27918.045,-12652.65,-8592.75
1764764838.0937717,-8536.59,-19012.545,-4910.67,-9771.93,-22815.63,-27919.125,-12653.28,-8594.324999999999
1764764838.0937717,-8537.94,-19013.805,-4911.705,-9772.875,-22817.16,-27920.565,-12654.45,-8595.494999999999
1764764838.0937717,-8541.72,-19017.135,-4915.53,-9776.07,-22820.04,-27924.165,-12657.78,-8598.555
1764764838.1404448,-8541.494999999999,-19016.73,-4914.764999999999,-9775.575,-22819.59,-27923.85,-12656.925,-8598.015
1764764838.1404448,-8540.279999999999,-19015.515,-4912.92,-9774.855,-22818.78,-27922.545,-12656.115,-8597.43
1764764838.1404448,-8539.02,-19014.615,-4911.929999999999,-9773.775,-22817.295,-27921.105,-12655.35,-8596.305
1764764838.1404448,-8534.34,-19010.07,-4907.565,-9769.095,-22812.795,-27916.605,-12650.265,-8591.445
1764764838.1404448,-8533.755,-19009.53,-4907.025,-9769.23,-22812.12,-27915.93,-12649.905,-8591.039999999999
1764764838.1404448,-8537.805,-19013.085,-4911.345,-9772.92,-22816.035,-27919.89,-12654.54,-8594.775
1764764838.1404448,-8534.475,-19009.71,-4908.554999999999,-9769.59,-22813.2,-27916.74,-12651.75,-8592.164999999999
1764764838.1404448,-8536.005,-19012.275,-4911.21,-9771.93,-22815.765,-27919.305,-12653.685,-8594.414999999999
1764764838.1404448,-8535.24,-19011.78,-4910.67,-9771.48,-22815.945,-27919.395,-12653.415,-8593.244999999999
1764764838.1404448,-8534.34,-19010.7,-4909.59,-9770.58,-22815.495,-27919.08,-12654.585,-8592.57
1764764838.1404448,-8533.035,-19009.125,-4907.429999999999,-9769.77,-22814.1,-27918.0,-12653.82,-8591.31
1764764838.1404448,-8529.93,-19005.255,-4903.785,-9766.17,-22809.69,-27913.455,-12648.915,-8587.35
1764764838.1404448,-8530.154999999999,-19006.245,-4904.639999999999,-9766.665,-22810.455,-27913.41,-12649.095,-8588.07
1764764838.1404448,-8530.695,-19006.785,-4904.955,-9767.43,-22810.995,-27913.455,-12648.105,-8588.115
1764764838.1404448,-8531.19,-19006.785,-4905.315,-9768.195,-22811.67,-27913.14,-12646.98,-8587.845
1764764838.1404448,-8535.735,-19011.465,-4909.724999999999,-9772.92,-22816.035,-27917.955,-12653.325,-8593.38
1764764838.1409483,-8534.385,-19010.07,-4909.32,-9771.255,-22814.955,-27917.415,-12653.415,-8592.435
1764764838.1409483,-8530.965,-19006.245,-4906.215,-9767.7,-22810.995,-27913.995,-12647.745,-8588.115
1764764838.1409483,-8534.97,-19010.34,-4910.49,-9772.02,-22815.54,-27918.315,-12650.49,-8591.355
1764764838.1409483,-8537.355,-19012.815,-4912.425,-9774.495,-22817.655,-27921.465,-12654.765,-8594.324999999999
1764764838.1409483,-8536.68,-19012.23,-4911.165,-9773.955,-22817.07,-27921.33,-12655.395,-8594.595
1764764838.1409483,-8536.14,-19012.005,-4911.48,-9773.73,-22816.665,-27921.015,-12654.72,-8594.46
1764764838.1409483,-8535.285,-19011.24,-4911.255,-9773.415,-22815.9,-27919.395,-12653.37,-8593.74
1764764838.1409483,-8530.38,-19006.38,-4906.304999999999,-9768.645,-22811.13,-27914.175,-12649.095,-8589.779999999999
1764764838.1834073,-8529.975,-19005.705,-4905.405,-9768.24,-22811.625,-27913.77,-12648.87,-8589.105
1764764838.1834073,-8532.315,-19008.045,-4908.285,-9770.985,-22814.73,-27916.74,-12651.255,-8591.355
1764764838.1834073,-8536.455,-19012.005,-4912.514999999999,-9774.9,-22819.185,-27921.69,-12655.845,-8595.135
1764764838.1834073,-8536.904999999999,-19012.455,-4913.145,-9775.89,-22819.455,-27922.32,-12656.295,-8595.99
1764764838.1834073,-8535.24,-19010.565,-4911.12,-9774.405,-22817.475,-27921.555,-12654.45,-8593.83
1764764838.1834073,-8529.3,-19005.93,-4906.304999999999,-9769.185,-22811.4,-27915.57,-12649.275,-8589.285
1764764838.1834073,-8530.605,-19006.74,-4907.34,-9769.905,-22811.805,-27916.2,-12650.445,-8590.5
1764764838.1834073,-8533.529999999999,-19009.395,-4910.04,-9773.505,-22815.27,-27918.855,-12653.64,-8593.244999999999
1764764838.1834073,-8531.1,-19007.46,-4906.889999999999,-9770.265,-22811.85,-27915.615,-12650.805,-8591.175
1764764838.183916,-8531.865,-19008.09,-4907.52,-9771.3,-22813.335,-27916.515,-12651.39,-8592.074999999999
1764764838.183916,-8528.85,-19005.165,-4905.405,-9769.185,-22810.545,-27913.86,-12648.33,-8588.34
1764764838.183916,-8532.539999999999,-19008.72,-4908.42,-9772.29,-22813.965,-27917.64,-12652.29,-8591.715
1764764838.183916,-8529.795,-19005.165,-4905.495,-9770.265,-22811.49,-27915.975,-12651.39,-8589.33
1764764838.183916,-8532.045,-19007.55,-4908.24,-9772.785,-22813.155,-27917.505,-12653.19,-8590.86
1764764838.183916,-8528.985,-19003.95,-4905.179999999999,-9768.555,-22810.41,-27914.67,-12649.14,-8587.664999999999
1764764838.183916,-8529.255,-19004.355,-4905.09,-9769.455,-22811.58,-27915.75,-12650.175,-8588.654999999999
1764764838.183916,-8534.835,-19009.755,-4910.58,-9775.485,-22816.89,-27921.015,-12655.575,-8594.775
1764764838.183916,-8536.455,-19012.23,-4912.11,-9776.97,-22818.015,-27922.59,-12656.97,-8596.485
1764764838.183916,-8536.635,-19012.41,-4912.2,-9776.88,-22818.24,-27922.5,-12656.7,-8596.395
1764764838.183916,-8534.654999999999,-19010.115,-4909.41,-9774.045,-22816.17,-27920.025,-12654.495,-8593.199999999999
1764764838.183916,-8531.235,-19005.93,-4905.405,-9769.815,-22811.535,-27916.695,-12651.705,-8590.14
1764764838.183916,-8532.539999999999,-19006.56,-4905.99,-9770.445,-22811.895,-27916.965,-12653.865,-8592.119999999999
1764764838.2338758,-8532.0,-19006.695,-4906.71,-9770.895,-22812.39,-27917.01,-12654.99,-8592.48
1764764838.2338758,-8531.64,-19006.245,-4907.34,-9771.165,-22812.705,-27918.135,-12655.08,-8591.22
1764764838.2338758,-8532.18,-19006.92,-4908.15,-9771.66,-22813.605,-27918.765,-12653.775,-8591.31
1764764838.2338758,-8532.72,-19008.045,-4908.42,-9771.795,-22813.56,-27918.405,-12650.67,-8591.265
1764764838.2338758,-8533.71,-19008.315,-4908.915,-9772.515,-22814.91,-27919.305,-12653.37,-8592.119999999999
1764764838.2338758,-8537.265,-19011.465,-4912.38,-9775.53,-22817.835,-27922.41,-12658.905,-8595.81
1764764838.2338758,-8535.105,-19008.315,-4910.13,-9772.965,-22814.595,-27919.71,-12657.51,-8592.57
1764764838.2338758,-8533.17,-19006.02,-4907.429999999999,-9770.355,-22812.705,-27917.865,-12657.105,-8590.904999999999
1764764838.2338758,-8533.08,-19005.615,-4907.25,-9769.635,-22811.94,-27917.055,-12656.34,-8590.815
1764764838.2338758,-8536.904999999999,-19009.44,-4911.525,-9773.73,-22816.215,-27920.97,-12657.69,-8594.685
1764764838.2338758,-8535.645,-19009.26,-4911.795,-9773.865,-22816.755,-27919.35,-12651.615,-8592.57
1764764838.2338758,-8533.035,-19007.595,-4909.545,-9772.29,-22815.225,-27917.82,-12649.995,-8590.68
1764764838.2338758,-8529.21,-19004.49,-4905.135,-9768.42,-22810.905,-27914.94,-12648.105,-8587.755
1764764838.2338758,-8530.244999999999,-19005.795,-4907.025,-9769.095,-22811.94,-27916.38,-12650.22,-8589.24
1764764838.2338758,-8534.025,-19009.17,-4910.94,-9772.515,-22816.395,-27921.6,-12654.945,-8592.84
1764764838.2338758,-8530.785,-19004.67,-4907.205,-9769.095,-22813.785,-27919.62,-12652.335,-8588.925
1764764838.2338758,-8531.955,-19005.705,-4908.33,-9769.68,-22813.92,-27918.72,-12653.145,-8589.69
1764764838.2338758,-8534.295,-19008.99,-4909.995,-9772.065,-22815.405,-27919.71,-12655.17,-8593.154999999999
1764764838.2338758,-8530.74,-19004.49,-4905.945,-9767.79,-22811.04,-27915.57,-12651.165,-8590.455
1764764838.2338758,-8534.43,-19007.82,-4910.49,-9771.57,-22814.46,-27919.395,-12655.215,-8593.83
1764764838.2338758,-8533.215,-19007.64,-4909.995,-9771.345,-22813.83,-27919.035,-12654.585,-8592.345
1764764838.2338758,-8530.965,-19005.075,-4906.98,-9768.915,-22811.265,-27916.245,-12651.66,-8589.869999999999
1764764838.2338758,-8533.035,-19007.19,-4909.59,-9770.85,-22814.19,-27918.855,-12654.9,-8591.85
1764764838.234886,-8530.56,-19004.22,-4907.34,-9767.655,-22811.4,-27916.83,-12652.065,-8588.97
1764764838.2780323,-8531.19,-19004.625,-4908.105,-9768.51,-22811.49,-27917.73,-12652.695,-8589.51
1764764838.2780323,-8532.81,-19006.11,-4908.69,-9769.455,-22812.12,-27918.945,-12654.27,-8590.59
1764764838.2780323,-8532.81,-19006.83,-4908.51,-9769.005,-22812.03,-27918.72,-12655.08,-8590.904999999999
1764764838.2780323,-8531.145,-19005.21,-4907.52,-9767.97,-22810.185,-27917.055,-12653.46,-8589.465
1764764838.2780323,-8531.279999999999,-19004.94,-4907.88,-9768.375,-22810.59,-27917.505,-12653.55,-8589.285
1764764838.2780323,-8536.32,-19009.71,-4913.28,-9774.315,-22815.9,-27922.14,-12658.725,-8593.695
1764764838.2780323,-8536.365,-19010.745,-4913.73,-9774.765,-22816.44,-27923.04,-12659.355,-8594.73
1764764838.2780323,-8535.15,-19010.115,-4912.74,-9774.54,-22815.36,-27922.905,-12659.13,-8594.19
1764764838.2780323,-8530.47,-19004.22,-4907.61,-9768.87,-22810.815,-27918.405,-12654.855,-8590.14
1764764838.2780323,-8531.82,-19004.94,-4908.105,-9769.68,-22811.355,-27919.395,-12655.17,-8590.86
1764764838.2790444,-8534.16,-19007.82,-4910.22,-9771.615,-22814.1,-27921.735,-12658.815,-8593.425
1764764838.2790444,-8535.42,-19009.08,-4911.66,-9772.29,-22815.18,-27922.545,-12660.93,-8594.73
1764764838.2790444,-8539.065,-19013.04,-4915.485,-9776.205,-22818.33,-27926.1,-12662.865,-8597.61
1764764838.2790444,-8534.295,-19007.73,-4910.445,-9771.885,-22813.47,-27920.115,-12658.14,-8593.244999999999
1764764838.2790444,-8532.72,-19006.02,-4908.33,-9769.68,-22812.165,-27919.17,-12658.05,-8592.705
1764764838.2790444,-8537.49,-19010.205,-4913.054999999999,-9774.405,-22816.62,-27924.165,-12661.515,-8596.395
1764764838.2790444,-8537.805,-19010.88,-4913.955,-9774.855,-22817.16,-27923.805,-12659.49,-8596.305
1764764838.2800505,-8537.22,-19010.16,-4913.595,-9773.865,-22816.035,-27922.455,-12660.66,-8595.855
1764764838.2800505,-8535.645,-19008.315,-4911.929999999999,-9773.37,-22815.27,-27922.545,-12661.425,-8594.775
1764764838.2800505,-8534.61,-19006.875,-4910.58,-9772.74,-22814.37,-27923.625,-12662.19,-8594.369999999999
1764764838.2800505,-8535.42,-19008.63,-4912.065,-9773.28,-22815.315,-27923.76,-12658.095,-8594.369999999999
1764764838.2800505,-8531.505,-19004.67,-4908.105,-9768.78,-22810.32,-27917.37,-12650.4,-8589.69
1764764838.2800505,-8530.47,-19004.49,-4907.295,-9768.195,-22809.42,-27916.065,-12648.195,-8588.295
1764764838.2800505,-8530.515,-19004.715,-4908.24,-9768.69,-22809.33,-27915.705,-12649.32,-8588.52
1764764838.3263843,-8530.02,-19003.545,-4906.845,-9767.295,-22808.385,-27916.695,-12652.965,-8589.69
1764764838.3263843,-8531.19,-19005.345,-4907.474999999999,-9768.555,-22809.78,-27917.865,-12654.54,-8590.635
1764764838.3263843,-8533.395,-19006.38,-4908.96,-9770.175,-22810.995,-27919.08,-12655.71,-8592.029999999999
1764764838.3263843,-8535.6,-19008.315,-4910.895,-9772.065,-22813.695,-27922.32,-12659.49,-8595.045
1764764838.3263843,-8533.17,-19006.155,-4908.78,-9770.355,-22811.895,-27920.79,-12657.87,-8592.66
1764764838.3263843,-8537.13,-19010.295,-4912.83,-9774.54,-22816.215,-27923.76,-12661.605,-8596.529999999999
1764764838.3263843,-8533.08,-19006.515,-4909.724999999999,-9770.895,-22812.48,-27920.655,-12657.42,-8593.425
1764764838.3263843,-8532.404999999999,-19005.39,-4908.735,-9769.995,-22811.805,-27920.205,-12655.71,-8592.345
1764764838.3263843,-8534.385,-19008.09,-4911.48,-9772.605,-22814.595,-27922.59,-12657.78,-8594.414999999999
1764764838.3263843,-8533.529999999999,-19007.235,-4910.4,-9771.93,-22813.695,-27921.42,-12657.645,-8593.38
1764764838.3263843,-8529.164999999999,-19002.69,-4906.215,-9767.61,-22809.51,-27917.37,-12653.73,-8588.744999999999
1764764838.3263843,-8530.56,-19003.905,-4907.655,-9769.275,-22811.31,-27919.53,-12655.53,-8589.375
1764764838.3263843,-8534.25,-19005.93,-4909.86,-9771.525,-22813.695,-27921.645,-12657.015,-8591.895
1764764838.3263843,-8533.845,-19006.2,-4910.04,-9771.21,-22813.65,-27921.915,-12657.33,-8591.715
1764764838.3263843,-8533.215,-19006.965,-4910.085,-9771.435,-22814.19,-27922.815,-12657.51,-8591.535
1764764838.3263843,-8532.045,-19005.165,-4909.05,-9770.355,-22812.705,-27921.69,-12656.16,-8590.68
1764764838.3263843,-8530.65,-19003.59,-4908.42,-9768.105,-22811.22,-27920.295,-12654.855,-8589.465
1764764838.3263843,-8526.465,-18999.18,-4904.415,-9764.145,-22807.845,-27916.515,-12650.94,-8585.55
1764764838.3263843,-8529.48,-19001.88,-4906.889999999999,-9767.16,-22810.815,-27919.665,-12654.72,-8588.115
1764764838.3263843,-8524.529999999999,-18996.93,-4901.04,-9760.5,-22804.605,-27913.545,-12650.355,-8584.244999999999
1764764838.3263843,-8525.115,-18997.245,-4900.23,-9759.87,-22803.705,-27913.14,-12650.805,-8585.414999999999
1764764838.3263843,-8532.0,-19003.86,-4906.98,-9766.62,-22809.33,-27919.08,-12655.845,-8591.625
1764764838.3732812,-8533.98,-19006.02,-4909.05,-9768.825,-22810.5,-27920.07,-12657.15,-8592.345
1764764838.3732812,-8534.565,-19005.615,-4909.455,-9769.185,-22811.715,-27921.6,-12658.59,-8592.615
1764764838.3732812,-8534.97,-19006.245,-4910.175,-9769.95,-22812.795,-27922.545,-12657.915,-8593.154999999999
1764764838.3732812,-8533.664999999999,-19006.02,-4909.815,-9769.905,-22812.3,-27922.815,-12657.735,-8592.525
1764764838.3732812,-8532.27,-19004.49,-4908.195,-9768.33,-22810.05,-27921.87,-12656.79,-8591.805
1764764838.3732812,-8532.09,-19005.39,-4908.69,-9768.195,-22810.365,-27921.825,-12655.44,-8591.85
1764764838.3732812,-8531.46,-19003.905,-4907.25,-9766.53,-22809.24,-27920.34,-12654.72,-8590.725
1764764838.3732812,-8527.904999999999,-18999.18,-4902.705,-9761.625,-22803.3,-27913.86,-12649.545,-8586.315
1764764838.3732812,-8529.345,-19001.07,-4905.315,-9764.415,-22806.63,-27916.965,-12650.355,-8587.17
1764764838.3732812,-8532.675,-19005.255,-4909.365,-9769.14,-22810.995,-27921.87,-12652.92,-8589.645
1764764838.3732812,-8530.11,-19001.925,-4905.224999999999,-9764.64,-22807.08,-27919.035,-12650.13,-8587.215
1764764838.3732812,-8534.43,-19004.805,-4907.385,-9767.205,-22810.545,-27922.095,-12655.755,-8591.805
1764764838.3732812,-8533.98,-19005.66,-4908.645,-9768.465,-22811.94,-27922.59,-12655.215,-8591.715
1764764838.3732812,-8534.475,-19006.785,-4909.905,-9769.635,-22812.57,-27922.275,-12654.09,-8590.365
1764764838.3732812,-8535.51,-19007.055,-4910.4,-9768.51,-22812.075,-27922.365,-12654.315,-8591.49
1764764838.3732812,-8533.529999999999,-19004.085,-4907.97,-9765.27,-22808.655,-27919.53,-12653.91,-8590.41
1764764838.3732812,-8529.119999999999,-18999.54,-4904.91,-9761.175,-22804.74,-27915.795,-12649.905,-8586.315
1764764838.3732812,-8527.904999999999,-18998.1,-4903.155,-9760.59,-22804.155,-27914.715,-12648.915,-8585.01
1764764838.3732812,-8528.13,-18998.82,-4903.695,-9762.12,-22803.975,-27914.85,-12649.725,-8585.73
1764764838.3732812,-8529.705,-19000.17,-4905.179999999999,-9763.695,-22806.045,-27916.74,-12651.57,-8586.494999999999
1764764838.3732812,-8530.605,-19000.935,-4905.495,-9764.28,-22807.08,-27918.0,-12652.92,-8587.305
1764764838.3732812,-8534.295,-19004.4,-4908.51,-9767.745,-22810.5,-27921.33,-12656.61,-8591.039999999999
1764764838.3732812,-8533.664999999999,-19003.095,-4907.835,-9766.665,-22809.69,-27920.655,-12655.755,-8589.779999999999
1764764838.3732812,-8529.255,-18999.495,-4904.145,-9761.895,-22805.955,-27916.245,-12651.57,-8586.09
1764764838.4202974,-8529.3,-19000.08,-4903.92,-9761.805,-22806.315,-27916.515,-12650.895,-8586.404999999999
1764764838.4202974,-8530.875,-19000.665,-4905.45,-9763.83,-22807.35,-27917.64,-12652.47,-8587.619999999999
1764764838.4202974,-8533.89,-19002.78,-4907.34,-9766.44,-22809.15,-27919.575,-12655.485,-8589.869999999999
1764764838.4202974,-8529.75,-18999.45,-4903.605,-9762.705,-22804.965,-27915.615,-12651.39,-8585.73
1764764838.4202974,-8529.345,-18998.64,-4903.245,-9762.255,-22804.74,-27915.255,-12651.255,-8585.145
1764764838.4202974,-8532.09,-19000.665,-4905.27,-9764.955,-22807.08,-27918.405,-12653.55,-8587.574999999999
1764764838.4202974,-8535.465,-19004.625,-4909.005,-9767.925,-22810.59,-27921.24,-12656.88,-8590.994999999999
1764764838.4202974,-8534.699999999999,-19004.085,-4908.51,-9766.845,-22809.69,-27920.835,-12656.25,-8590.14
1764764838.4202974,-8533.35,-19002.78,-4907.34,-9765.99,-22809.015,-27921.105,-12655.53,-8588.835
1764764838.4202974,-8530.785,-18999.54,-4905.045,-9763.83,-22807.215,-27919.44,-12654.0,-8585.73
1764764838.4202974,-8534.43,-19003.14,-4908.285,-9766.755,-22810.32,-27923.49,-12658.455,-8588.789999999999
1764764838.4202974,-8532.9,-19001.34,-4906.395,-9764.64,-22807.665,-27921.465,-12656.79,-8588.34
1764764838.4202974,-8531.82,-19000.215,-4905.315,-9764.01,-22806.27,-27918.765,-12653.145,-8588.025
1764764838.4202974,-8530.065,-18999.09,-4903.965,-9762.84,-22804.74,-27916.38,-12649.545,-8585.145
1764764838.4202974,-8531.324999999999,-18999.72,-4904.145,-9763.11,-22805.775,-27918.27,-12653.55,-8585.82
1764764838.4202974,-8535.779999999999,-19004.355,-4909.365,-9768.24,-22810.905,-27923.895,-12658.815,-8590.994999999999
1764764838.4202974,-8534.25,-19002.87,-4907.565,-9766.8,-22809.15,-27922.185,-12656.52,-8589.465
1764764838.4202974,-8534.385,-19003.59,-4908.105,-9768.06,-22810.095,-27923.535,-12658.14,-8590.275
1764764838.4202974,-8532.765,-19001.745,-4906.845,-9767.295,-22809.42,-27921.735,-12654.54,-8588.43
1764764838.4202974,-8531.145,-18999.99,-4905.09,-9765.09,-22807.755,-27918.585,-12651.03,-8586.27
1764764838.4202974,-8526.735,-18995.31,-4900.455,-9760.59,-22803.165,-27913.95,-12646.575,-8582.039999999999
1764764838.4202974,-8528.13,-18996.345,-4901.849999999999,-9762.12,-22803.795,-27914.985,-12648.33,-8583.255
1764764838.4671824,-8529.525,-18997.83,-4903.155,-9763.38,-22805.91,-27916.605,-12651.39,-8584.38
1764764838.4671824,-8531.955,-19001.07,-4905.54,-9765.675,-22808.745,-27920.07,-12654.9,-8586.9
1764764838.4671824,-8527.05,-18996.255,-4900.995,-9761.625,-22803.615,-27915.795,-12650.625,-8582.58
1764764838.4671824,-8526.42,-18995.22,-4899.645,-9760.455,-22802.445,-27914.355,-12649.77,-8582.265
1764764838.4671824,-8528.805,-18997.38,-4902.21,-9762.615,-22805.325,-27917.46,-12651.66,-8583.435
1764764838.4671824,-8531.19,-19000.53,-4905.63,-9766.08,-22809.015,-27921.6,-12654.675,-8584.965
1764764838.4671824,-8531.505,-19001.025,-4906.26,-9766.44,-22808.43,-27920.97,-12654.27,-8585.414999999999
1764764838.4671824,-8532.0,-19000.98,-4905.764999999999,-9766.08,-22808.07,-27919.845,-12654.54,-8586.9
1764764838.4671824,-8531.235,-18999.315,-4904.639999999999,-9764.73,-22807.215,-27918.72,-12654.54,-8586.315
1764764838.4671824,-8529.21,-18997.2,-4902.84,-9763.335,-22804.83,-27916.065,-12652.74,-8583.885
1764764838.4671824,-8533.755,-19001.835,-4907.07,-9767.52,-22808.97,-27921.465,-12657.78,-8589.015
1764764838.4671824,-8533.035,-19001.205,-4906.98,-9766.44,-22808.295,-27920.88,-12658.005,-8588.565
1764764838.4671824,-8531.82,-18999.045,-4905.135,-9764.55,-22806.54,-27918.405,-12655.125,-8586.045
1764764838.4671824,-8536.5,-19003.5,-4909.545,-9769.455,-22811.175,-27922.86,-12657.78,-8590.68
1764764838.4671824,-8536.005,-19003.455,-4909.139999999999,-9768.24,-22810.635,-27922.77,-12658.455,-8590.365
1764764838.4671824,-8530.515,-18997.605,-4903.965,-9762.84,-22806.225,-27918.855,-12654.855,-8584.92
1764764838.4671824,-8532.0,-18998.64,-4905.54,-9765.225,-22807.485,-27921.105,-12654.9,-8585.955
1764764838.4671824,-8529.66,-18997.02,-4904.145,-9764.46,-22805.19,-27918.09,-12651.39,-8583.57
1764764838.4671824,-8532.225,-18999.9,-4906.889999999999,-9766.755,-22808.07,-27920.88,-12654.54,-8586.585
1764764838.4671824,-8529.119999999999,-18996.885,-4903.83,-9763.29,-22805.865,-27919.35,-12652.74,-8584.065
1764764838.4671824,-8532.99,-19000.08,-4906.845,-9766.71,-22809.645,-27922.455,-12657.285,-8587.619999999999
1764764838.4671824,-8532.045,-18998.64,-4905.54,-9765.225,-22807.395,-27920.025,-12655.44,-8586.945
1764764838.4681897,-8528.085,-18994.095,-4901.085,-9760.23,-22802.67,-27915.615,-12651.75,-8582.445
1764764838.4681897,-8531.369999999999,-18997.92,-4904.505,-9763.785,-22806.135,-27920.025,-12657.465,-8586.09
1764764838.510422,-8530.92,-18998.1,-4905.045,-9763.83,-22806.36,-27920.295,-12656.43,-8585.64
1764764838.510422,-8527.68,-18994.41,-4901.895,-9761.22,-22802.895,-27917.145,-12652.38,-8581.725
1764764838.510422,-8528.94,-18995.58,-4902.974999999999,-9763.065,-22804.785,-27918.225,-12652.515,-8583.84
1764764838.510422,-8531.775,-18998.82,-4905.36,-9766.35,-22807.89,-27920.565,-12652.065,-8585.369999999999
1764764838.510422,-8529.705,-18995.94,-4902.705,-9763.875,-22805.46,-27918.36,-12650.895,-8582.58
1764764838.510422,-8529.074999999999,-18995.445,-4902.84,-9763.38,-22804.695,-27918.18,-12652.785,-8583.164999999999
1764764838.510422,-8530.38,-18996.075,-4903.875,-9763.695,-22805.415,-27918.72,-12654.045,-8584.289999999999
1764764838.510422,-8532.27,-18998.145,-4906.349999999999,-9766.35,-22807.845,-27920.925,-12656.655,-8586.855
1764764838.510422,-8530.47,-18996.525,-4904.28,-9765.0,-22805.865,-27919.17,-12655.17,-8584.695
1764764838.510422,-8535.869999999999,-19000.71,-4908.915,-9769.365,-22810.455,-27922.77,-12660.12,-8589.15
1764764838.510422,-8532.72,-18997.155,-4906.395,-9766.395,-22807.305,-27920.34,-12656.745,-8585.955
1764764838.5115263,-8528.355,-18993.69,-4901.94,-9762.03,-22803.165,-27916.425,-12652.83,-8581.23
1764764838.5115263,-8532.81,-18997.47,-4905.72,-9765.72,-22807.8,-27920.745,-12656.07,-8584.92
1764764838.5115263,-8528.49,-18992.655,-4902.12,-9761.355,-22804.065,-27916.965,-12652.515,-8581.14
1764764838.5115263,-8525.295,-18990.315,-4900.5,-9759.465,-22801.455,-27914.895,-12650.445,-8578.574999999999
1764764838.5115263,-8526.555,-18992.43,-4902.345,-9761.67,-22802.895,-27916.695,-12652.065,-8580.105
1764764838.5115263,-8531.1,-18996.21,-4906.665,-9766.035,-22807.08,-27921.105,-12656.88,-8584.38
1764764838.5115263,-8530.065,-18994.41,-4906.035,-9764.145,-22805.865,-27919.98,-12657.465,-8583.029999999999
1764764838.5115263,-8526.555,-18991.44,-4902.48,-9760.68,-22802.76,-27916.83,-12653.145,-8580.735
1764764838.5115263,-8528.13,-18992.97,-4903.065,-9761.76,-22803.345,-27917.145,-12654.315,-8582.85
1764764838.5115263,-8530.695,-18996.165,-4905.99,-9764.955,-22805.82,-27919.89,-12657.015,-8584.92
1764764838.5115263,-8527.904999999999,-18993.87,-4903.38,-9763.335,-22803.615,-27916.695,-12651.705,-8581.365
1764764838.5115263,-8529.48,-18994.86,-4904.955,-9764.82,-22805.73,-27918.045,-12650.76,-8582.445
1764764838.5115263,-8534.385,-18999.09,-4908.96,-9769.095,-22809.015,-27922.365,-12657.42,-8586.99
1764764838.5568702,-8531.91,-18996.12,-4907.115,-9766.35,-22807.62,-27921.555,-12656.655,-8585.055
1764764838.5568702,-8528.985,-18992.385,-4904.28,-9762.795,-22805.37,-27919.215,-12655.26,-8582.715
1764764838.5568702,-8532.404999999999,-18997.47,-4907.88,-9766.395,-22808.655,-27922.905,-12659.94,-8587.305
1764764838.5568702,-8530.515,-18995.4,-4905.63,-9764.19,-22805.415,-27920.385,-12658.995,-8584.92
1764764838.5568702,-8524.305,-18988.695,-4899.105,-9758.385,-22799.025,-27914.31,-12651.39,-8577.675
1764764838.5568702,-8525.97,-18989.73,-4899.96,-9759.915,-22800.555,-27915.3,-12651.39,-8578.574999999999
1764764838.5568702,-8531.1,-18994.86,-4905.09,-9765.045,-22806.54,-27921.42,-12657.06,-8583.705
1764764838.5568702,-8531.595,-18995.265,-4905.09,-9764.955,-22806.81,-27922.365,-12659.715,-8584.38
1764764838.5568702,-8531.235,-18994.77,-4904.775,-9765.09,-22806.63,-27922.05,-12658.365,-8584.47
1764764838.5568702,-8526.69,-18991.125,-4901.355,-9761.445,-22802.805,-27917.46,-12653.595,-8580.914999999999
1764764838.5568702,-8526.6,-18991.08,-4900.905,-9760.995,-22802.355,-27916.515,-12651.12,-8580.195
1764764838.5568702,-8531.19,-18995.715,-4906.53,-9766.08,-22807.17,-27920.61,-12653.145,-8584.92
1764764838.5568702,-8531.145,-18995.715,-4906.98,-9767.025,-22807.665,-27921.51,-12655.08,-8585.82
1764764838.5568702,-8527.994999999999,-18991.98,-4903.155,-9762.615,-22804.065,-27916.965,-12652.695,-8581.815
1764764838.5568702,-8528.715,-18992.385,-4903.38,-9763.515,-22804.965,-27918.135,-12653.82,-8582.355
1764764838.5568702,-8533.935,-18997.65,-4908.42,-9768.915,-22810.365,-27924.66,-12659.58,-8588.34
1764764838.5568702,-8532.9,-18995.895,-4906.71,-9766.755,-22808.43,-27923.85,-12658.68,-8586.315
1764764838.5568702,-8527.77,-18991.665,-4901.625,-9762.12,-22804.2,-27919.08,-12654.09,-8581.545
1764764838.5568702,-8530.244999999999,-18994.32,-4904.955,-9765.54,-22807.395,-27921.285,-12656.16,-8584.289999999999
1764764838.5568702,-8530.83,-18994.32,-4904.595,-9765.855,-22807.305,-27920.97,-12656.88,-8584.47
1764764838.5568702,-8526.96,-18990.54,-4901.13,-9762.12,-22803.66,-27918.18,-12653.28,-8580.375
1764764838.5568702,-8526.914999999999,-18990.99,-4901.67,-9762.48,-22804.155,-27919.125,-12653.775,-8581.635
1764764838.5568702,-8531.19,-18994.95,-4905.315,-9765.405,-22807.89,-27922.545,-12656.565,-8585.775
1764764838.5568702,-8531.955,-18995.715,-4905.81,-9766.17,-22807.98,-27922.905,-12656.79,-8586.494999999999
1764764838.603437,-8526.824999999999,-18991.035,-4901.4,-9761.895,-22803.255,-27919.17,-12652.785,-8581.904999999999
1764764838.603437,-8531.505,-18994.905,-4906.395,-9766.305,-22807.89,-27924.39,-12658.5,-8585.82
1764764838.603437,-8531.369999999999,-18994.635,-4906.98,-9766.17,-22807.71,-27925.02,-12659.805,-8586.855
1764764838.603437,-8527.59,-18990.9,-4903.514999999999,-9762.93,-22804.515,-27921.33,-12656.07,-8582.94
1764764838.603437,-8528.535,-18992.61,-4903.83,-9763.83,-22805.145,-27921.735,-12656.565,-8583.074999999999
1764764838.603437,-8525.115,-18988.965,-4900.5,-9760.86,-22801.68,-27918.135,-12652.605,-8579.835
1764764838.603437,-8528.265,-18992.16,-4904.775,-9764.505,-22805.775,-27920.745,-12652.965,-8582.355
1764764838.603437,-8529.21,-18993.555,-4905.495,-9765.27,-22807.08,-27921.375,-12653.64,-8582.49
1764764838.603437,-8527.77,-18991.35,-4903.514999999999,-9762.75,-22804.605,-27919.62,-12652.74,-8580.914999999999
1764764838.603437,-8523.539999999999,-18987.12,-4899.465,-9758.565,-22798.98,-27914.265,-12649.14,-8576.73
1764764838.603437,-8523.449999999999,-18986.85,-4899.87,-9758.43,-22799.295,-27914.49,-12649.275,-8577.135
1764764838.603437,-8526.69,-18990.36,-4902.255,-9761.355,-22802.265,-27917.37,-12653.64,-8580.914999999999
1764764838.603437,-8530.38,-18994.14,-4905.855,-9765.585,-22806.63,-27922.95,-12657.87,-8584.335
1764764838.603437,-8529.75,-18993.33,-4906.395,-9765.405,-22806.315,-27923.67,-12657.285,-8584.289999999999
1764764838.603437,-8528.175,-18991.935,-4904.639999999999,-9764.055,-22804.92,-27921.78,-12655.125,-8581.815
1764764838.603437,-8524.89,-18989.235,-4901.355,-9761.04,-22801.68,-27918.765,-12652.02,-8578.755
1764764838.603437,-8527.994999999999,-18992.205,-4903.605,-9763.965,-22805.145,-27921.87,-12655.305,-8581.455
1764764838.603437,-8529.435,-18992.52,-4904.19,-9765.0,-22805.775,-27922.68,-12657.465,-8582.31
1764764838.6049595,-8529.39,-18992.475,-4904.145,-9764.415,-22805.1,-27922.005,-12656.97,-8582.355
1764764838.6049595,-8523.99,-18987.66,-4898.79,-9758.115,-22799.16,-27915.795,-12650.13,-8577.225
1764764838.6049595,-8524.08,-18987.165,-4898.7,-9757.62,-22799.565,-27915.93,-12649.095,-8577.045
1764764838.6049595,-8529.615,-18992.565,-4904.235,-9763.245,-22805.415,-27920.835,-12654.81,-8582.4
1764764838.651842,-8527.904999999999,-18990.45,-4903.155,-9761.805,-22803.48,-27919.53,-12654.405,-8580.195
1764764838.651842,-8526.285,-18988.02,-4900.59,-9759.6,-22801.095,-27918.72,-12653.955,-8577.81
1764764838.651842,-8528.535,-18990.405,-4902.929999999999,-9762.525,-22804.47,-27922.365,-12657.24,-8580.645
1764764838.651842,-8525.654999999999,-18987.3,-4899.69,-9759.465,-22800.465,-27918.09,-12652.29,-8577.81
1764764838.651842,-8526.24,-18988.29,-4900.95,-9760.77,-22801.275,-27918.495,-12652.74,-8579.385
1764764838.651842,-8522.145,-18984.69,-4897.395,-9757.44,-22797.315,-27913.725,-12647.25,-8574.66
1764764838.651842,-8525.925,-18988.02,-4901.535,-9760.5,-22800.915,-27917.01,-12649.5,-8577.945
1764764838.651842,-8522.595,-18984.96,-4897.845,-9757.035,-22797.765,-27914.04,-12648.645,-8576.145
1764764838.651842,-8522.505,-18984.915,-4898.115,-9757.08,-22798.215,-27914.535,-12648.78,-8574.93
1764764838.651842,-8528.039999999999,-18989.595,-4903.155,-9762.075,-22802.67,-27919.035,-12654.09,-8579.97
1764764838.651842,-8524.619999999999,-18985.725,-4899.465,-9758.16,-22797.9,-27915.39,-12650.22,-8576.73
1764764838.651842,-8525.205,-18986.445,-4900.185,-9758.88,-22798.53,-27916.695,-12650.4,-8576.91
1764764838.651842,-8526.33,-18986.58,-4900.905,-9759.78,-22799.835,-27917.64,-12650.355,-8577.63
1764764838.651842,-8525.295,-18986.715,-4900.59,-9758.79,-22799.43,-27917.415,-12650.67,-8577.945
1764764838.651842,-8527.32,-18987.975,-4901.849999999999,-9759.78,-22800.555,-27918.54,-12654.18,-8579.97
1764764838.651842,-8530.154999999999,-18990.63,-4904.639999999999,-9762.525,-22803.66,-27921.33,-12657.42,-8582.58
1764764838.651842,-8527.05,-18987.165,-4901.804999999999,-9759.78,-22799.97,-27917.145,-12653.145,-8579.025
1764764838.651842,-8525.205,-18985.23,-4899.33,-9757.845,-22798.53,-27915.705,-12652.2,-8577.404999999999
1764764838.651842,-8525.52,-18986.265,-4899.554999999999,-9757.98,-22798.575,-27915.795,-12652.02,-8577.855
1764764838.651842,-8530.92,-18991.665,-4905.27,-9763.155,-22804.065,-27920.115,-12654.045,-8582.895
1764764838.651842,-8531.145,-18992.25,-4905.945,-9764.145,-22804.92,-27921.645,-12655.755,-8583.39
1764764838.651842,-8529.795,-18990.585,-4905.135,-9762.39,-22803.795,-27920.745,-12655.305,-8582.085
1764764838.6957068,-8527.185,-18987.48,-4902.705,-9759.555,-22800.555,-27919.08,-12652.92,-8578.845
1764764838.6957068,-8531.73,-18992.25,-4907.25,-9764.19,-22805.01,-27923.895,-12657.645,-8583.345
1764764838.6957068,-8530.695,-18991.665,-4906.349999999999,-9762.795,-22803.57,-27923.085,-12656.835,-8582.625
1764764838.6957068,-8530.02,-18991.17,-4905.315,-9762.3,-22803.21,-27921.825,-12656.34,-8582.85
1764764838.6957068,-8528.535,-18988.965,-4904.46,-9760.68,-22802.445,-27920.34,-12655.08,-8581.725
1764764838.6957068,-8525.97,-18985.77,-4901.804999999999,-9757.8,-22798.89,-27917.595,-12651.39,-8578.44
1764764838.6957068,-8526.33,-18985.995,-4901.445,-9758.025,-22798.89,-27917.46,-12651.165,-8578.44
1764764838.6957068,-8527.77,-18987.345,-4902.615,-9759.645,-22799.97,-27918.54,-12652.875,-8579.835
1764764838.6957068,-8528.22,-18987.84,-4902.75,-9760.095,-22801.23,-27920.295,-12654.63,-8579.34
1764764838.6957068,-8530.199999999999,-18989.82,-4905.27,-9762.525,-22803.255,-27923.265,-12658.41,-8581.77
1764764838.6957068,-8525.61,-18984.87,-4900.545,-9757.665,-22799.07,-27917.595,-12653.505,-8576.775
1764764838.6957068,-8526.195,-18984.87,-4901.04,-9757.485,-22798.89,-27916.515,-12652.65,-8577.045
1764764838.6957068,-8530.875,-18989.55,-4905.585,-9762.75,-22803.615,-27921.465,-12657.195,-8581.59
1764764838.6957068,-8530.289999999999,-18988.83,-4904.505,-9761.805,-22802.22,-27920.52,-12656.115,-8580.735
1764764838.6957068,-8527.05,-18985.545,-4901.715,-9758.7,-22799.07,-27917.37,-12652.785,-8578.35
1764764838.6957068,-8528.265,-18987.255,-4903.155,-9759.87,-22800.735,-27919.08,-12653.64,-8579.97
1764764838.6957068,-8524.845,-18984.105,-4899.915,-9756.27,-22797.585,-27916.155,-12650.58,-8576.145
1764764838.6957068,-8527.32,-18985.545,-4901.94,-9757.755,-22799.565,-27918.585,-12653.235,-8578.17
1764764838.6957068,-8531.369999999999,-18989.28,-4906.44,-9761.805,-22803.66,-27922.905,-12658.275,-8582.49
1764764838.6957068,-8527.86,-18986.13,-4903.155,-9758.745,-22801.005,-27920.61,-12657.555,-8580.015
1764764838.6957068,-8527.635,-18986.715,-4903.02,-9758.97,-22801.455,-27921.33,-12657.915,-8580.42
1764764838.6957068,-8530.83,-18989.01,-4905.81,-9761.22,-22803.84,-27922.905,-12657.69,-8582.94
1764764838.6957068,-8526.105,-18984.465,-4900.365,-9756.045,-22798.395,-27917.595,-12650.805,-8577.945
1764764838.6957068,-8526.869999999999,-18984.78,-4900.545,-9756.81,-22798.71,-27916.965,-12648.69,-8577.449999999999
1764764838.743621,-8530.38,-18988.605,-4904.325,-9760.455,-22803.165,-27920.475,-12652.83,-8581.23
1764764838.743621,-8526.42,-18984.24,-4900.635,-9755.55,-22798.485,-27916.65,-12650.355,-8577.855
1764764838.743621,-8526.15,-18984.195,-4900.41,-9755.505,-22798.08,-27917.19,-12651.3,-8577.494999999999
1764764838.743621,-8531.1,-18988.74,-4905.495,-9760.32,-22803.03,-27922.14,-12656.295,-8582.265
1764764838.743621,-8530.244999999999,-18988.155,-4904.595,-9759.69,-22802.085,-27921.78,-12655.935,-8581.23
1764764838.743621,-8527.275,-18984.825,-4901.67,-9757.44,-22799.115,-27919.17,-12654.54,-8578.89
1764764838.743621,-8523.99,-18981.09,-4898.429999999999,-9754.155,-22795.965,-27916.605,-12652.02,-8575.965
1764764838.743621,-8525.115,-18982.845,-4900.455,-9755.415,-22796.73,-27917.415,-12653.775,-8577.765
1764764838.743621,-8530.154999999999,-18987.39,-4905.045,-9759.555,-22800.195,-27921.24,-12656.565,-8582.039999999999
1764764838.743621,-8530.335,-18987.93,-4905.405,-9759.96,-22800.195,-27921.285,-12656.34,-8582.445
1764764838.743621,-8526.24,-18984.195,-4901.535,-9756.09,-22797.45,-27917.775,-12653.28,-8579.16
1764764838.743621,-8525.925,-18983.745,-4901.715,-9756.54,-22797.9,-27917.505,-12651.705,-8578.89
1764764838.743621,-8523.36,-18981.54,-4898.655,-9753.975,-22795.605,-27914.04,-12647.61,-8575.065
1764764838.743621,-8526.465,-18984.42,-4902.705,-9757.215,-22798.395,-27917.415,-12652.02,-8578.619999999999
1764764838.743621,-8530.02,-18987.705,-4906.304999999999,-9760.365,-22802.22,-27921.645,-12655.665,-8582.13
1764764838.743621,-8526.96,-18983.925,-4902.21,-9756.18,-22798.98,-27919.305,-12653.28,-8578.98
1764764838.743621,-8526.285,-18983.385,-4901.58,-9755.64,-22798.665,-27918.63,-12652.695,-8578.08
1764764838.743621,-8526.105,-18983.835,-4901.76,-9756.63,-22799.025,-27919.08,-12653.64,-8578.8
1764764838.743621,-8527.005,-18984.555,-4902.21,-9757.53,-22799.34,-27919.98,-12654.18,-8578.755
1764764838.743621,-8527.949999999999,-18984.78,-4902.84,-9757.665,-22799.79,-27920.655,-12654.315,-8579.295
1764764838.743621,-8531.955,-18988.02,-4906.8,-9760.905,-22803.165,-27924.3,-12658.365,-8583.21
1764764838.743621,-8530.425,-18987.12,-4905.72,-9759.6,-22801.23,-27922.41,-12656.745,-8583.074999999999
1764764838.743621,-8526.779999999999,-18983.16,-4902.705,-9756.54,-22797.405,-27918.495,-12652.29,-8579.34
1764764838.743621,-8531.145,-18987.21,-4906.755,-9760.32,-22802.13,-27922.815,-12656.565,-8582.67
1764764838.7912292,-8528.31,-18984.24,-4903.47,-9757.845,-22799.52,-27920.25,-12653.64,-8579.385
1764764838.7912292,-8528.58,-18984.555,-4903.83,-9758.61,-22799.88,-27920.88,-12654.27,-8580.015
1764764838.7912292,-8533.664999999999,-18989.28,-4908.599999999999,-9763.875,-22804.695,-27925.38,-12658.68,-8584.47
1764764838.7912292,-8533.71,-18989.865,-4908.014999999999,-9763.155,-22804.83,-27925.605,-12660.39,-8584.785
1764764838.7912292,-8530.244999999999,-18986.31,-4904.865,-9759.33,-22801.095,-27922.365,-12658.005,-8582.22
1764764838.7912292,-8532.945,-18988.425,-4907.835,-9762.3,-22803.885,-27924.84,-12660.525,-8585.1
1764764838.7912292,-8530.38,-18985.32,-4905.63,-9759.69,-22800.915,-27922.32,-12658.185,-8582.535
1764764838.7912292,-8529.255,-18985.545,-4904.73,-9759.24,-22799.115,-27921.42,-12658.32,-8581.815
1764764838.7912292,-8528.895,-18985.23,-4905.045,-9759.06,-22798.935,-27921.33,-12659.49,-8582.039999999999
1764764838.7912292,-8530.425,-18986.13,-4905.764999999999,-9760.32,-22800.87,-27923.175,-12659.805,-8582.895
1764764838.7912292,-8527.5,-18982.665,-4901.985,-9757.125,-22797.855,-27919.89,-12654.99,-8579.744999999999
1764764838.7912292,-8532.494999999999,-18987.39,-4906.755,-9761.985,-22802.49,-27924.39,-12659.22,-8584.74
1764764838.7912292,-8532.135,-18986.67,-4907.205,-9761.535,-22802.58,-27923.895,-12657.735,-8583.345
1764764838.7912292,-8529.255,-18983.385,-4903.83,-9758.7,-22800.105,-27920.79,-12655.26,-8580.645
1764764838.792235,-8532.09,-18986.67,-4905.945,-9761.31,-22802.715,-27923.58,-12658.68,-8584.425
1764764838.792235,-8531.64,-18986.265,-4906.304999999999,-9760.365,-22801.77,-27923.175,-12658.77,-8584.02
1764764838.792235,-8530.47,-18984.735,-4905.675,-9758.79,-22800.15,-27922.14,-12658.095,-8582.67
1764764838.792235,-8526.869999999999,-18981.315,-4901.804999999999,-9755.235,-22796.685,-27918.045,-12654.63,-8578.89
1764764838.792235,-8527.365,-18981.945,-4902.255,-9756.09,-22797.54,-27919.035,-12656.07,-8579.88
1764764838.792235,-8529.93,-18984.555,-4905.045,-9758.835,-22800.33,-27922.455,-12659.58,-8582.58
1764764838.792235,-8531.055,-18985.365,-4906.215,-9759.6,-22801.05,-27922.32,-12660.03,-8582.58
1764764838.792235,-8532.27,-18986.445,-4907.205,-9760.905,-22802.4,-27924.435,-12660.84,-8584.154999999999
1764764838.8350568,-8532.99,-18986.94,-4908.15,-9762.12,-22803.03,-27926.01,-12661.875,-8585.145
1764764838.8350568,-8535.105,-18989.775,-4911.615,-9765.09,-22805.91,-27928.08,-12662.28,-8587.529999999999
1764764838.8350568,-8534.025,-18989.19,-4910.445,-9764.235,-22804.56,-27925.875,-12659.58,-8585.595
1764764838.8350568,-8531.01,-18985.05,-4906.665,-9760.545,-22800.195,-27922.5,-12657.195,-8582.22
1764764838.8350568,-8533.17,-18987.345,-4909.005,-9762.48,-22802.67,-27924.615,-12660.255,-8584.335
1764764838.8350568,-8528.805,-18983.745,-4905.224999999999,-9759.015,-22800.15,-27921.42,-12657.555,-8580.869999999999
1764764838.8350568,-8528.31,-18982.935,-4904.505,-9758.655,-22799.88,-27921.24,-12656.925,-8581.05
1764764838.8350568,-8530.47,-18984.96,-4906.304999999999,-9759.78,-22801.41,-27922.995,-12658.995,-8583.074999999999
1764764838.8350568,-8531.19,-18985.365,-4906.845,-9760.23,-22801.86,-27923.625,-12659.355,-8583.705
1764764838.8350568,-8535.735,-18989.28,-4911.075,-9764.145,-22805.64,-27927.99,-12662.55,-8587.08
1764764838.8350568,-8535.6,-18988.11,-4910.715,-9763.74,-22805.19,-27927.855,-12661.56,-8586.539999999999
1764764838.8350568,-8530.785,-18983.79,-4906.44,-9759.645,-22801.32,-27923.985,-12657.465,-8582.085
1764764838.8350568,-8530.92,-18984.96,-4907.16,-9761.13,-22803.12,-27925.425,-12658.545,-8582.805
1764764838.8350568,-8534.699999999999,-18989.415,-4910.58,-9764.955,-22806.72,-27928.08,-12662.955,-8585.91
1764764838.8350568,-8532.449999999999,-18986.805,-4907.34,-9761.715,-22803.03,-27926.055,-12661.515,-8583.48
1764764838.8350568,-8527.815,-18981.315,-4902.165,-9755.37,-22797.315,-27919.935,-12656.475,-8578.664999999999
1764764838.8350568,-8530.47,-18983.205,-4905.135,-9757.395,-22799.61,-27921.33,-12657.285,-8581.455
1764764838.8350568,-8535.105,-18988.38,-4910.175,-9762.93,-22804.65,-27926.64,-12662.28,-8586.494999999999
1764764838.8350568,-8534.025,-18988.56,-4910.22,-9763.695,-22804.965,-27927.54,-12662.145,-8586.855
1764764838.8350568,-8533.71,-18987.48,-4909.275,-9762.795,-22803.66,-27926.82,-12661.335,-8586.09
1764764838.8350568,-8532.449999999999,-18986.805,-4908.465,-9762.075,-22802.76,-27925.605,-12659.805,-8585.19
1764764838.8350568,-8527.86,-18982.8,-4903.965,-9758.07,-22798.89,-27921.825,-12656.385,-8580.735
1764764838.8820207,-8526.914999999999,-18982.575,-4903.83,-9757.665,-22799.52,-27921.78,-12657.15,-8580.285
1764764838.8820207,-8530.199999999999,-18985.095,-4907.205,-9760.95,-22801.815,-27924.165,-12659.31,-8583.975
1764764838.8820207,-8530.605,-18985.68,-4907.655,-9761.76,-22802.355,-27924.57,-12659.49,-8584.38
1764764838.8820207,-8529.705,-18983.7,-4905.495,-9759.69,-22800.555,-27922.59,-12657.645,-8582.895
1764764838.8820207,-8525.97,-18979.785,-4902.255,-9756.63,-22798.17,-27919.62,-12654.99,-8579.52
1764764838.8820207,-8530.02,-18983.88,-4907.429999999999,-9760.86,-22801.905,-27924.39,-12659.355,-8583.615
1764764838.8820207,-8528.22,-18982.215,-4905.99,-9759.105,-22799.385,-27923.4,-12657.69,-8581.275
1764764838.8820207,-8531.279999999999,-18985.41,-4908.78,-9762.705,-22802.85,-27926.865,-12663.09,-8583.615
1764764838.8820207,-8532.27,-18986.67,-4908.69,-9763.83,-22803.75,-27927.675,-12663.945,-8585.145
1764764838.8820207,-8532.18,-18987.075,-4908.105,-9762.885,-22803.48,-27927.36,-12663.495,-8585.955
1764764838.8820207,-8532.315,-18986.895,-4908.105,-9762.345,-22803.255,-27927.585,-12662.64,-8585.775
1764764838.8820207,-8532.225,-18987.345,-4908.825,-9763.47,-22804.155,-27927.18,-12661.74,-8585.279999999999
1764764838.8820207,-8532.045,-18987.165,-4908.915,-9763.065,-22803.345,-27925.83,-12661.695,-8584.425
1764764838.8820207,-8527.32,-18981.675,-4903.605,-9757.62,-22796.73,-27920.115,-12655.62,-8579.115
1764764838.8820207,-8528.895,-18982.485,-4903.83,-9758.025,-22798.17,-27921.555,-12657.33,-8580.555
1764764838.8820207,-8533.215,-18986.895,-4908.195,-9762.255,-22802.625,-27926.055,-12660.255,-8585.279999999999
1764764838.8820207,-8530.875,-18984.87,-4907.34,-9760.68,-22800.78,-27923.805,-12656.475,-8582.445
1764764838.8820207,-8527.949999999999,-18982.08,-4904.955,-9758.745,-22798.485,-27922.365,-12654.675,-8579.699999999999
1764764838.8820207,-8529.975,-18984.24,-4907.07,-9760.545,-22801.05,-27924.705,-12658.32,-8581.904999999999
1764764838.8820207,-8527.815,-18981.765,-4904.82,-9758.34,-22798.755,-27923.22,-12655.89,-8579.88
1764764838.8820207,-8530.244999999999,-18984.645,-4907.565,-9761.04,-22801.455,-27926.055,-12657.69,-8582.67
1764764838.8820207,-8527.14,-18980.955,-4904.55,-9757.08,-22798.35,-27921.87,-12654.72,-8579.52
1764764838.8820207,-8526.6,-18980.1,-4903.74,-9756.9,-22797.675,-27921.33,-12654.045,-8579.205
1764764838.8820207,-8525.97,-18979.92,-4903.02,-9756.72,-22796.505,-27920.43,-12653.415,-8578.44
1764764838.8820207,-8526.24,-18980.685,-4904.19,-9757.44,-22796.595,-27921.78,-12653.73,-8578.664999999999
1764764838.8820207,-8528.039999999999,-18982.665,-4907.205,-9760.275,-22800.06,-27924.66,-12656.61,-8581.095
1764764838.9299853,-8531.46,-18985.77,-4910.67,-9763.425,-22803.75,-27927.72,-12659.445,-8584.695
1764764838.9299853,-8531.369999999999,-18985.635,-4910.04,-9762.615,-22803.48,-27927.72,-12659.625,-8584.154999999999
1764764838.9299853,-8531.279999999999,-18985.32,-4910.264999999999,-9761.805,-22803.705,-27928.26,-12658.815,-8583.3
1764764838.9299853,-8530.875,-18985.32,-4909.77,-9761.445,-22802.67,-27927.54,-12658.455,-8582.985
1764764838.9299853,-8528.49,-18982.215,-4906.755,-9759.105,-22799.655,-27924.705,-12656.565,-8580.375
1764764838.9299853,-8530.92,-18984.465,-4909.545,-9761.13,-22802.175,-27927.315,-12659.49,-8583.164999999999
1764764838.9299853,-8532.404999999999,-18985.545,-4910.76,-9762.435,-22802.31,-27927.72,-12659.58,-8584.605
1764764838.9299853,-8530.38,-18983.97,-4909.545,-9761.355,-22801.77,-27925.65,-12658.275,-8583.975
1764764838.9299853,-8525.925,-18980.46,-4905.99,-9756.9,-22798.62,-27923.04,-12654.495,-8580.69
1764764838.9299853,-8528.535,-18983.16,-4909.095,-9759.915,-22801.77,-27926.325,-12658.23,-8583.119999999999
1764764838.9299853,-8524.619999999999,-18978.345,-4904.099999999999,-9755.1,-22796.865,-27921.645,-12654.9,-8578.619999999999
1764764838.9299853,-8523.225,-18977.58,-4903.155,-9754.38,-22795.965,-27920.79,-12653.595,-8577.99
1764764838.9299853,-8524.44,-18978.84,-4904.415,-9755.64,-22797.315,-27922.5,-12655.755,-8579.205
1764764838.9299853,-8525.565,-18979.65,-4905.0,-9756.54,-22798.44,-27923.49,-12657.825,-8580.195
1764764838.9299853,-8530.875,-18984.195,-4909.23,-9761.04,-22802.535,-27927.945,-12662.775,-8584.605
1764764838.9299853,-8533.71,-18985.77,-4910.175,-9761.805,-22803.84,-27929.205,-12663.09,-8586.36
1764764838.9299853,-8530.83,-18983.385,-4907.835,-9759.42,-22801.455,-27926.28,-12659.85,-8584.289999999999
1764764838.9299853,-8524.935,-18977.49,-4902.255,-9753.615,-22796.505,-27920.07,-12653.145,-8577.585
1764764838.9299853,-8527.005,-18979.695,-4904.82,-9756.045,-22797.99,-27922.995,-12655.845,-8579.205
1764764838.9299853,-8533.574999999999,-18985.77,-4911.03,-9761.31,-22802.94,-27928.98,-12662.64,-8585.73
1764764838.9299853,-8531.414999999999,-18983.295,-4908.69,-9759.15,-22800.33,-27926.37,-12660.975,-8584.47
1764764838.9299853,-8525.25,-18977.4,-4903.29,-9753.255,-22794.705,-27920.43,-12652.065,-8577.494999999999
1764764838.9735217,-8525.565,-18977.85,-4904.145,-9753.93,-22795.29,-27919.8,-12648.42,-8575.74
1764764838.9735217,-8527.904999999999,-18980.415,-4906.889999999999,-9756.855,-22797.675,-27923.085,-12654.27,-8579.295
1764764838.9735217,-8525.25,-18977.445,-4903.965,-9753.435,-22794.84,-27920.79,-12652.965,-8576.19
1764764838.9735217,-8528.22,-18980.28,-4906.125,-9755.235,-22797.225,-27922.635,-12655.62,-8579.295
1764764838.9740286,-8526.779999999999,-18979.155,-4904.595,-9754.425,-22795.83,-27920.835,-12653.55,-8577.945
1764764838.9740286,-8529.795,-18981.72,-4907.79,-9757.575,-22798.62,-27923.4,-12656.61,-8581.545
1764764838.9740286,-8527.095,-18978.165,-4904.639999999999,-9754.785,-22796.19,-27921.015,-12653.82,-8578.215
1764764838.9740286,-8530.38,-18981.765,-4908.105,-9758.295,-22799.88,-27924.75,-12657.465,-8581.994999999999
1764764838.9740286,-8530.56,-18981.99,-4908.645,-9758.88,-22800.555,-27925.47,-12657.96,-8582.895
1764764838.9740286,-8530.38,-18981.855,-4908.915,-9758.655,-22800.555,-27925.83,-12657.825,-8582.58
1764764838.9740286,-8530.83,-18981.63,-4908.78,-9758.52,-22800.555,-27925.74,-12657.645,-8581.994999999999
1764764838.9740286,-8527.5,-18978.345,-4905.54,-9755.19,-22797.09,-27922.365,-12654.99,-8578.935
1764764838.9740286,-8530.515,-18981.495,-4908.599999999999,-9759.06,-22800.24,-27925.785,-12657.915,-8582.31
1764764838.9740286,-8529.975,-18981.405,-4907.655,-9758.025,-22800.24,-27925.335,-12657.915,-8582.355
1764764838.9740286,-8526.555,-18977.58,-4904.955,-9755.055,-22796.73,-27921.915,-12654.54,-8579.295
1764764838.9740286,-8528.58,-18979.155,-4906.845,-9757.17,-22798.62,-27923.49,-12655.98,-8581.365
1764764838.9740286,-8525.34,-18975.915,-4903.29,-9753.48,-22795.02,-27920.115,-12652.83,-8577.855
1764764838.9740286,-8529.119999999999,-18979.74,-4907.115,-9756.945,-22799.61,-27924.84,-12657.285,-8581.455
1764764838.9740286,-8529.119999999999,-18978.93,-4907.16,-9757.305,-22800.105,-27924.975,-12656.52,-8581.14
1764764838.9740286,-8527.77,-18978.03,-4905.9,-9756.63,-22798.98,-27924.12,-12654.63,-8580.375
1764764838.9740286,-8526.24,-18976.005,-4903.695,-9754.245,-22796.46,-27921.78,-12652.47,-8577.99
1764764838.9740286,-8529.39,-18978.84,-4907.295,-9756.99,-22799.25,-27924.435,-12656.07,-8580.869999999999
1764764838.9740286,-8526.195,-18976.95,-4904.91,-9755.055,-22797.27,-27922.005,-12652.47,-8578.485
1764764838.9745357,-8526.779999999999,-18977.535,-4905.09,-9755.595,-22796.73,-27922.05,-12652.74,-8579.16
1764764839.020705,-8528.895,-18979.2,-4907.025,-9757.8,-22799.205,-27924.12,-12654.99,-8581.59
1764764839.020705,-8523.855,-18974.43,-4902.435,-9752.805,-22795.065,-27919.845,-12651.615,-8577.18
1764764839.020705,-8524.619999999999,-18974.565,-4903.65,-9753.84,-22796.1,-27920.34,-12652.155,-8577.945
1764764839.020705,-8525.97,-18975.87,-4904.685,-9755.19,-22797.81,-27922.95,-12655.53,-8579.789999999999
1764764839.020705,-8529.75,-18979.245,-4907.88,-9758.655,-22800.915,-27927.9,-12660.705,-8583.39
1764764839.020705,-8528.625,-18978.03,-4906.62,-9756.765,-22798.62,-27925.785,-12660.075,-8582.67
1764764839.020705,-8529.615,-18979.425,-4907.97,-9757.17,-22798.665,-27925.065,-12657.78,-8584.154999999999
1764764839.020705,-8530.244999999999,-18979.92,-4908.825,-9757.89,-22799.655,-27924.39,-12656.7,-8583.39
1764764839.020705,-8530.65,-18981.63,-4910.22,-9759.69,-22802.085,-27925.695,-12656.115,-8583.795
1764764839.020705,-8526.914999999999,-18978.12,-4906.349999999999,-9756.135,-22798.215,-27922.365,-12652.83,-8580.555
1764764839.020705,-8530.83,-18981.765,-4909.59,-9760.095,-22801.68,-27924.255,-12654.9,-8583.705
1764764839.020705,-8530.515,-18980.865,-4908.825,-9759.06,-22800.555,-27923.49,-12656.115,-8583.3
1764764839.020705,-8525.43,-18976.32,-4904.28,-9754.515,-22796.145,-27919.485,-12651.03,-8578.8
1764764839.020705,-8525.07,-18976.32,-4903.83,-9755.1,-22796.64,-27920.34,-12649.995,-8578.44
1764764839.020705,-8525.744999999999,-18976.68,-4904.775,-9755.64,-22798.08,-27922.5,-12651.21,-8578.619999999999
1764764839.0217533,-8525.744999999999,-18976.68,-4905.675,-9755.28,-22798.215,-27923.58,-12652.695,-8577.539999999999
1764764839.0217533,-8525.88,-18976.77,-4905.405,-9755.64,-22798.935,-27923.895,-12653.1,-8576.414999999999
1764764839.0217533,-8526.15,-18976.68,-4904.639999999999,-9756.225,-22798.71,-27924.255,-12654.72,-8578.529999999999
1764764839.0217533,-8529.164999999999,-18978.66,-4905.764999999999,-9756.54,-22798.845,-27924.66,-12657.015,-8583.164999999999
1764764839.0217533,-8526.555,-18976.095,-4903.695,-9753.975,-22796.055,-27920.88,-12653.505,-8580.285
1764764839.0217533,-8530.785,-18980.415,-4908.42,-9758.295,-22800.195,-27924.12,-12657.15,-8583.3
1764764839.0217533,-8529.75,-18979.83,-4907.61,-9758.295,-22799.61,-27923.04,-12656.205,-8581.994999999999
1764764839.067629,-8525.43,-18975.555,-4902.48,-9754.065,-22794.705,-27918.405,-12651.705,-8576.55
1764764839.067629,-8527.32,-18977.985,-4904.865,-9756.135,-22797.63,-27920.88,-12654.315,-8579.475
1764764839.067629,-8525.34,-18975.735,-4903.245,-9754.38,-22796.37,-27920.295,-12652.11,-8577.765
1764764839.067629,-8530.065,-18980.145,-4908.014999999999,-9758.88,-22800.465,-27925.515,-12656.61,-8582.355
1764764839.067629,-8530.11,-18980.1,-4908.33,-9758.88,-22801.05,-27926.64,-12658.05,-8582.085
1764764839.067629,-8528.265,-18979.065,-4906.71,-9757.395,-22799.79,-27924.615,-12657.33,-8580.24
1764764839.067629,-8527.14,-18978.03,-4905.495,-9756.09,-22798.485,-27922.68,-12656.88,-8579.52
1764764839.067629,-8523.72,-18974.34,-4902.03,-9752.04,-22794.255,-27919.215,-12652.74,-8576.55
1764764839.067629,-8524.125,-18974.52,-4902.12,-9751.995,-22794.03,-27918.99,-12652.335,-8576.369999999999
1764764839.067629,-8523.99,-18973.62,-4901.49,-9751.815,-22793.22,-27917.505,-12651.66,-8576.055
1764764839.067629,-8524.89,-18974.565,-4902.345,-9753.12,-22793.94,-27919.305,-12652.83,-8577.494999999999
1764764839.067629,-8529.93,-18979.92,-4907.295,-9758.52,-22799.61,-27924.705,-12658.005,-8581.77
1764764839.0681713,-8529.66,-18978.93,-4907.115,-9757.755,-22799.88,-27925.02,-12657.33,-8581.14
1764764839.0681713,-8524.755,-18974.565,-4903.56,-9753.75,-22795.605,-27920.61,-12652.92,-8575.92
1764764839.0681713,-8524.44,-18974.7,-4903.785,-9754.38,-22795.38,-27920.52,-12653.055,-8576.414999999999
1764764839.0681713,-8525.744999999999,-18975.735,-4904.73,-9754.83,-22795.11,-27920.745,-12652.875,-8578.17
1764764839.0681713,-8528.625,-18978.48,-4906.71,-9756.765,-22797.0,-27923.31,-12656.07,-8581.41
1764764839.0681713,-8526.69,-18976.455,-4903.92,-9754.425,-22795.83,-27922.32,-12656.79,-8578.98
1764764839.0681713,-8528.445,-18978.48,-4906.349999999999,-9756.675,-22798.08,-27924.255,-12658.68,-8580.645
1764764839.0681713,-8528.715,-18978.345,-4906.98,-9756.495,-22797.99,-27924.165,-12658.365,-8581.68
1764764839.0681713,-8524.89,-18974.205,-4903.29,-9752.445,-22794.66,-27921.24,-12655.305,-8578.08
1764764839.0681713,-8522.19,-18972.54,-4901.804999999999,-9751.95,-22793.13,-27917.955,-12648.645,-8574.255
1764764839.0681713,-8522.955,-18974.25,-4903.2,-9754.425,-22795.335,-27920.385,-12648.465,-8574.119999999999
1764764839.0681713,-8527.455,-18978.165,-4907.52,-9758.205,-22799.79,-27924.93,-12654.36,-8578.98
1764764839.1156332,-8523.765,-18973.395,-4903.514999999999,-9753.705,-22795.695,-27921.24,-12650.13,-8574.705
1764764839.1156332,-8523.81,-18973.53,-4902.255,-9752.94,-22794.57,-27920.43,-12649.545,-8574.885
1764764839.1156332,-8528.715,-18978.345,-4907.07,-9757.665,-22798.8,-27924.12,-12654.18,-8580.51
1764764839.1156332,-8527.77,-18977.67,-4906.575,-9756.99,-22798.305,-27924.165,-12654.27,-8580.105
1764764839.1156332,-8524.619999999999,-18974.43,-4902.21,-9753.345,-22794.705,-27920.97,-12650.895,-8576.505
1764764839.1156332,-8524.845,-18975.015,-4903.38,-9754.29,-22795.515,-27920.97,-12651.3,-8577.18
1764764839.1156332,-8520.39,-18970.92,-4899.69,-9750.105,-22791.6,-27916.875,-12647.385,-8573.085
1764764839.1156332,-8523.27,-18973.08,-4901.94,-9752.985,-22794.255,-27919.485,-12649.32,-8575.515
1764764839.1156332,-8527.05,-18977.49,-4906.215,-9757.08,-22798.17,-27923.58,-12653.505,-8579.565
1764764839.1156332,-8528.58,-18978.84,-4907.429999999999,-9758.205,-22799.655,-27925.155,-12654.18,-8580.33
1764764839.1156332,-8527.185,-18977.265,-4906.485,-9757.44,-22798.62,-27924.57,-12653.37,-8579.52
1764764839.1156332,-8523.18,-18972.99,-4901.895,-9752.76,-22794.165,-27919.53,-12648.87,-8574.57
1764764839.1156332,-8522.324999999999,-18972.63,-4901.715,-9752.49,-22792.905,-27919.53,-12648.42,-8574.029999999999
1764764839.1156332,-8521.74,-18972.585,-4901.67,-9752.355,-22793.265,-27919.71,-12649.59,-8574.75
1764764839.1156332,-8521.965,-18971.64,-4900.815,-9751.77,-22793.04,-27919.125,-12649.14,-8574.975
1764764839.1156332,-8521.02,-18970.875,-4900.905,-9752.22,-22792.68,-27919.215,-12648.87,-8574.615
1764764839.1156332,-8521.83,-18971.82,-4902.255,-9753.795,-22794.165,-27920.745,-12650.265,-8574.795
1764764839.1156332,-8527.455,-18977.04,-4907.745,-9758.79,-22799.43,-27925.74,-12654.945,-8579.925
1764764839.1156332,-8527.545,-18977.355,-4907.97,-9758.475,-22798.755,-27924.93,-12654.54,-8581.005
1764764839.1156332,-8527.545,-18976.365,-4906.98,-9757.53,-22799.025,-27925.29,-12654.09,-8580.24
1764764839.1156332,-8526.33,-18975.645,-4905.764999999999,-9756.63,-22798.53,-27925.65,-12652.515,-8579.205
1764764839.1156332,-8522.19,-18971.19,-4901.94,-9752.58,-22793.895,-27921.555,-12648.825,-8575.47
1764764839.1156332,-8525.385,-18973.935,-4904.639999999999,-9754.83,-22796.415,-27924.165,-12652.11,-8578.125
1764764839.1156332,-8523.315,-18972.045,-4902.615,-9752.94,-22794.075,-27921.24,-12649.545,-8575.515
1764764839.1630738,-8526.914999999999,-18975.645,-4906.935,-9757.62,-22797.27,-27924.39,-12653.37,-8579.115
1764764839.1630738,-8525.97,-18975.6,-4906.304999999999,-9756.99,-22797.72,-27923.805,-12652.785,-8578.664999999999
1764764839.1630738,-8521.74,-18971.145,-4901.804999999999,-9752.22,-22793.94,-27920.97,-12649.275,-8575.38
1764764839.1630738,-8526.24,-18975.825,-4906.215,-9756.765,-22797.72,-27925.02,-12653.19,-8580.869999999999
1764764839.1630738,-8522.595,-18973.44,-4903.245,-9754.56,-22795.875,-27922.725,-12651.66,-8577.855
1764764839.1630738,-8523.045,-18972.99,-4903.56,-9754.695,-22796.28,-27923.805,-12653.595,-8577.765
1764764839.1630738,-8528.805,-18977.76,-4908.825,-9759.24,-22800.825,-27928.935,-12659.535,-8582.985
1764764839.1630738,-8530.695,-18979.92,-4910.985,-9760.59,-22802.76,-27930.24,-12659.265,-8585.46
1764764839.1630738,-8525.295,-18975.015,-4906.035,-9755.64,-22798.17,-27924.615,-12653.865,-8580.285
1764764839.1630738,-8520.84,-18970.965,-4901.445,-9752.49,-22794.39,-27920.52,-12647.88,-8575.515
1764764839.1630738,-8527.365,-18977.445,-4908.51,-9758.43,-22801.23,-27926.235,-12652.56,-8581.005
1764764839.1630738,-8527.365,-18976.59,-4907.61,-9757.575,-22799.925,-27924.93,-12652.695,-8580.33
1764764839.1630738,-8522.82,-18972.405,-4902.705,-9754.02,-22795.29,-27921.15,-12648.87,-8575.74
1764764839.1630738,-8521.92,-18971.64,-4902.21,-9753.03,-22795.065,-27921.33,-12647.43,-8575.605
1764764839.1630738,-8522.46,-18972.18,-4903.65,-9754.065,-22796.595,-27922.68,-12647.97,-8577.045
1764764839.1630738,-8526.15,-18974.745,-4907.205,-9757.44,-22800.06,-27926.28,-12652.11,-8579.97
1764764839.1630738,-8524.485,-18973.35,-4905.81,-9755.73,-22798.395,-27924.93,-12650.58,-8578.574999999999
1764764839.1630738,-8521.74,-18970.695,-4903.785,-9753.3,-22795.29,-27921.87,-12648.96,-8575.92
1764764839.1630738,-8524.215,-18974.115,-4907.07,-9756.09,-22798.8,-27924.795,-12651.615,-8578.529999999999
1764764839.1630738,-8520.255,-18969.975,-4902.389999999999,-9751.815,-22795.02,-27921.645,-12647.61,-8574.66
1764764839.1630738,-8520.435,-18969.795,-4902.48,-9751.59,-22794.435,-27920.925,-12647.655,-8574.93
1764764839.1630738,-8520.074999999999,-18969.795,-4902.48,-9751.275,-22794.345,-27920.79,-12647.52,-8575.065
1764764839.2096517,-8520.029999999999,-18969.84,-4903.245,-9751.185,-22794.48,-27920.97,-12646.935,-8574.885
1764764839.2096517,-8524.845,-18974.43,-4908.06,-9756.63,-22799.925,-27926.595,-12652.02,-8579.565
1764764839.2096517,-8523.99,-18973.665,-4907.16,-9756.765,-22800.15,-27926.865,-12651.345,-8578.8
1764764839.2096517,-8522.505,-18971.235,-4904.73,-9754.02,-22797.99,-27924.39,-12649.545,-8577.72
1764764839.2096517,-8518.365,-18966.645,-4900.005,-9749.385,-22792.23,-27919.035,-12644.145,-8574.255
1764764839.2096517,-8519.895,-18968.94,-4901.22,-9749.925,-22793.13,-27919.935,-12645.675,-8575.65
1764764839.2096517,-8522.82,-18972.945,-4904.82,-9753.795,-22796.595,-27923.13,-12648.78,-8578.35
1764764839.2096517,-8517.33,-18966.87,-4899.33,-9749.115,-22792.5,-27918.81,-12644.055,-8572.77
1764764839.2096517,-8516.115,-18965.565,-4898.565,-9749.07,-22792.455,-27918.54,-12643.65,-8571.6
1764764839.2096517,-8516.205,-18966.015,-4899.06,-9748.8,-22792.005,-27918.27,-12644.685,-8571.42
1764764839.2096517,-8515.664999999999,-18964.935,-4898.16,-9748.44,-22791.285,-27918.18,-12643.65,-8570.699999999999
1764764839.2096517,-8517.195,-18966.195,-4899.375,-9749.835,-22792.59,-27918.945,-12644.955,-8572.545
1764764839.2096517,-8519.175,-18967.635,-4901.13,-9751.59,-22793.85,-27920.34,-12646.215,-8573.94
1764764839.2096517,-8523.855,-18972.405,-4905.72,-9756.585,-22798.665,-27925.515,-12650.58,-8578.35
1764764839.2096517,-8520.615,-18968.58,-4901.445,-9753.165,-22795.875,-27921.6,-12646.845,-8574.345
1764764839.2096517,-8521.56,-18969.3,-4902.389999999999,-9754.29,-22796.685,-27922.32,-12648.015,-8575.695
1764764839.2096517,-8524.125,-18972.405,-4905.855,-9756.9,-22798.98,-27925.065,-12651.03,-8578.44
1764764839.2096517,-8522.865,-18970.83,-4904.955,-9755.73,-22797.675,-27923.265,-12649.905,-8576.955
1764764839.2096517,-8519.49,-18967.86,-4901.4,-9752.175,-22793.895,-27919.44,-12646.44,-8573.67
1764764839.2096517,-8520.21,-18968.355,-4902.795,-9753.525,-22794.705,-27920.34,-12647.34,-8574.93
1764764839.2096517,-8517.015,-18964.53,-4898.34,-9750.285,-22791.42,-27917.28,-12644.055,-8571.69
1764764839.2096517,-8519.445,-18966.375,-4900.005,-9751.725,-22793.94,-27919.845,-12647.43,-8573.985
1764764839.25375,-8521.605,-18968.895,-4902.3,-9754.02,-22795.605,-27922.59,-12649.995,-8575.695
1764764839.25375,-8526.51,-18973.305,-4906.53,-9758.655,-22799.565,-27926.19,-12654.27,-8579.699999999999
1764764839.25375,-8524.98,-18971.73,-4904.955,-9756.945,-22797.765,-27925.515,-12652.65,-8578.619999999999
1764764839.25375,-8519.67,-18966.465,-4900.005,-9751.41,-22792.95,-27920.475,-12646.395,-8573.22
1764764839.25375,-8519.22,-18966.78,-4901.13,-9752.13,-22793.67,-27919.215,-12641.94,-8572.275
1764764839.25375,-8519.85,-18967.14,-4902.66,-9753.795,-22795.38,-27921.24,-12645.405,-8573.985
1764764839.25375,-8521.47,-18969.03,-4903.605,-9755.28,-22797.45,-27922.455,-12646.935,-8575.92
1764764839.25375,-8520.39,-18968.04,-4902.389999999999,-9753.3,-22795.245,-27921.015,-12645.585,-8574.3
1764764839.25375,-8513.865,-18960.615,-4895.91,-9745.92,-22788.27,-27915.21,-12640.005,-8567.46
1764764839.25375,-8514.404999999999,-18960.66,-4895.595,-9746.1,-22788.72,-27915.48,-12641.265,-8568.045
1764764839.25375,-8515.574999999999,-18962.325,-4896.72,-9747.405,-22789.755,-27917.1,-12642.075,-8568.585
1764764839.25375,-8520.705,-18967.365,-4902.345,-9753.435,-22795.065,-27922.14,-12645.855,-8572.994999999999
1764764839.25375,-8521.199999999999,-18968.445,-4903.2,-9753.255,-22795.695,-27922.455,-12646.44,-8573.13
1764764839.2548263,-8520.21,-18967.14,-4902.075,-9752.04,-22794.39,-27921.69,-12646.08,-8572.455
1764764839.2548263,-8516.565,-18963.99,-4899.195,-9748.755,-22790.97,-27918.09,-12643.065,-8569.305
1764764839.2548263,-8519.535,-18967.545,-4902.705,-9752.13,-22795.065,-27921.33,-12645.99,-8572.23
1764764839.2548263,-8520.029999999999,-18967.905,-4903.335,-9752.445,-22795.605,-27922.095,-12646.71,-8572.32
1764764839.2548263,-8516.97,-18964.26,-4899.69,-9748.395,-22792.14,-27918.09,-12643.29,-8569.89
1764764839.2548263,-8516.97,-18963.63,-4899.24,-9748.215,-22791.015,-27917.64,-12642.48,-8569.529999999999
1764764839.2548263,-8519.895,-18966.6,-4901.895,-9751.185,-22793.76,-27920.88,-12645.45,-8572.949999999999
1764764839.2558284,-8521.785,-18967.905,-4902.929999999999,-9752.58,-22795.065,-27922.14,-12647.025,-8573.94
1764764839.2558284,-8520.3,-18966.78,-4901.895,-9752.22,-22794.255,-27922.275,-12645.945,-8572.545
1764764839.2558284,-8520.48,-18966.195,-4901.94,-9752.445,-22794.525,-27922.5,-12646.08,-8572.5
1764764839.2558284,-8523.99,-18969.885,-4905.179999999999,-9755.955,-22797.945,-27924.93,-12649.59,-8576.279999999999
1764764839.2558284,-8520.93,-18966.78,-4902.165,-9752.445,-22794.12,-27920.565,-12645.72,-8573.22
1764764839.2558284,-8521.244999999999,-18967.455,-4902.48,-9752.535,-22793.625,-27920.7,-12645.495,-8573.49
1764764839.302284,-8521.74,-18967.5,-4902.705,-9752.31,-22792.995,-27920.7,-12646.305,-8573.49
1764764839.302284,-8520.3,-18966.24,-4901.49,-9750.645,-22791.555,-27919.935,-12645.225,-8572.635
1764764839.302284,-8521.065,-18967.23,-4903.065,-9752.175,-22792.86,-27920.745,-12646.8,-8573.265
1764764839.302284,-8526.15,-18972.315,-4908.285,-9758.34,-22798.845,-27925.875,-12653.82,-8579.295
1764764839.302284,-8526.015,-18971.415,-4908.24,-9758.34,-22799.385,-27926.55,-12653.235,-8578.619999999999
1764764839.302284,-8524.215,-18969.84,-4906.44,-9756.9,-22798.44,-27925.875,-12651.615,-8577.09
1764764839.302284,-8520.84,-18966.78,-4903.695,-9753.885,-22795.965,-27923.355,-12648.375,-8573.039999999999
1764764839.302284,-8522.01,-18967.77,-4905.36,-9754.965,-22796.595,-27924.66,-12650.175,-8573.355
1764764839.302284,-8523.72,-18968.985,-4906.755,-9756.225,-22797.765,-27925.83,-12652.785,-8574.795
1764764839.302284,-8528.535,-18973.395,-4910.22,-9759.915,-22801.5,-27928.98,-12656.745,-8579.835
1764764839.302284,-8527.635,-18972.18,-4908.599999999999,-9758.745,-22800.195,-27926.685,-12655.485,-8580.24
1764764839.302284,-8525.205,-18968.805,-4905.495,-9755.595,-22797.09,-27925.065,-12654.36,-8578.035
1764764839.302284,-8521.38,-18965.52,-4902.75,-9752.355,-22794.345,-27922.68,-12650.76,-8573.355
1764764839.302284,-8526.285,-18971.145,-4908.06,-9757.305,-22799.43,-27926.28,-12652.65,-8577.135
1764764839.302284,-8524.8,-18969.57,-4906.62,-9755.82,-22797.765,-27924.615,-12650.67,-8576.055
1764764839.302284,-8522.1,-18967.725,-4905.09,-9754.56,-22796.055,-27923.085,-12645.09,-8573.22
1764764839.302284,-8521.154999999999,-18966.78,-4903.92,-9753.255,-22795.47,-27922.815,-12645.945,-8572.32
1764764839.302284,-8517.869999999999,-18962.37,-4900.23,-9748.71,-22790.88,-27918.495,-12644.19,-8568.315
1764764839.302284,-8519.625,-18963.99,-4902.84,-9750.33,-22792.995,-27920.205,-12645.63,-8571.24
1764764839.302284,-8521.965,-18967.59,-4905.179999999999,-9752.895,-22794.795,-27922.23,-12647.88,-8573.895
1764764839.345929,-8520.57,-18965.97,-4903.38,-9751.59,-22793.715,-27920.655,-12645.99,-8571.779999999999
1764764839.345929,-8524.529999999999,-18969.075,-4906.17,-9754.605,-22797.27,-27924.705,-12649.86,-8575.289999999999
1764764839.345929,-8520.93,-18965.745,-4902.84,-9751.275,-22793.49,-27921.915,-12647.115,-8572.365
1764764839.345929,-8522.46,-18967.05,-4903.92,-9753.615,-22795.695,-27923.67,-12648.465,-8573.76
1764764839.3470826,-8525.025,-18969.795,-4907.835,-9757.035,-22799.205,-27927.63,-12651.21,-8576.73
1764764839.3470826,-8522.19,-18966.69,-4905.09,-9754.155,-22796.37,-27925.065,-12647.43,-8573.895
1764764839.3470826,-8523.539999999999,-18968.13,-4906.71,-9756.045,-22798.305,-27927.0,-12648.96,-8575.289999999999
1764764839.3470826,-8526.195,-18970.965,-4909.545,-9758.97,-22801.59,-27929.835,-12652.425,-8577.36
1764764839.3470826,-8522.505,-18966.6,-4905.09,-9754.065,-22797.315,-27926.325,-12649.005,-8573.13
1764764839.3470826,-8521.515,-18965.79,-4904.145,-9752.985,-22795.785,-27925.695,-12647.61,-8572.275
1764764839.3470826,-8521.154999999999,-18966.06,-4905.27,-9753.525,-22796.46,-27924.795,-12647.295,-8572.635
1764764839.3470826,-8523.045,-18967.77,-4906.845,-9755.01,-22797.99,-27926.415,-12649.725,-8574.48
1764764839.3470826,-8517.69,-18962.505,-4901.49,-9749.61,-22792.68,-27921.375,-12644.415,-8569.08
1764764839.3470826,-8519.13,-18963.18,-4903.11,-9750.105,-22793.625,-27923.805,-12645.99,-8570.07
1764764839.3470826,-8518.545,-18962.82,-4902.57,-9749.565,-22793.355,-27922.23,-12646.89,-8569.755
1764764839.3480735,-8519.22,-18964.17,-4903.74,-9751.86,-22795.29,-27924.165,-12647.43,-8571.33
1764764839.3480735,-8522.369999999999,-18967.05,-4906.98,-9755.28,-22798.71,-27926.82,-12649.59,-8574.615
1764764839.3480735,-8519.805,-18964.98,-4904.505,-9752.535,-22796.1,-27924.12,-12647.16,-8571.914999999999
1764764839.3480735,-8523.72,-18968.67,-4907.7,-9755.865,-22798.485,-27927.495,-12650.49,-8574.885
1764764839.3480735,-8524.08,-18968.49,-4907.745,-9756.045,-22798.8,-27927.855,-12651.12,-8575.199999999999
1764764839.3480735,-8522.19,-18966.195,-4905.764999999999,-9753.93,-22796.415,-27925.56,-12648.96,-8573.535
1764764839.3480735,-8516.699999999999,-18961.695,-4901.04,-9748.665,-22791.69,-27920.43,-12644.865,-8568.494999999999
1764764839.3480735,-8517.06,-18962.37,-4901.67,-9748.845,-22792.59,-27921.465,-12647.34,-8569.125
1764764839.3480735,-8523.36,-18967.905,-4907.52,-9754.965,-22798.26,-27927.585,-12654.54,-8575.11
1764764839.3916824,-8524.08,-18968.445,-4907.655,-9755.28,-22798.17,-27928.305,-12655.395,-8575.515
1764764839.3916824,-8522.145,-18966.735,-4906.215,-9753.39,-22795.605,-27926.325,-12651.75,-8573.355
1764764839.3916824,-8522.505,-18966.69,-4907.16,-9755.1,-22796.91,-27926.055,-12647.565,-8573.58
1764764839.3916824,-8519.22,-18964.44,-4904.91,-9753.75,-22796.055,-27923.13,-12640.905,-8570.025
1764764839.3916824,-8517.555,-18962.595,-4903.155,-9751.905,-22794.57,-27922.365,-12642.075,-8568.855
