Timestamp,Channel1,Channel2,Channel3,Channel4,Channel5,Channel6,Channel7,Channel8
1764763355.5628748,-366.345,-2173.32,-27129.78,-7627.139999999999,-17977.545,-25918.155,-6068.429999999999,468.81
1764763355.5628748,-368.235,-2175.615,-27133.02,-7629.884999999999,-17980.2,-25920.81,-6069.599999999999,467.19
1764763355.5628748,-367.695,-2174.895,-27134.1,-7631.28,-17982.315,-25923.33,-6070.545,466.515
1764763355.5628748,-367.425,-2175.48,-27135.135,-7633.844999999999,-17986.05,-25926.525,-6072.705,466.38
1764763355.5628748,-369.99,-2177.685,-27137.88,-7636.679999999999,-17989.245,-25930.665,-6075.0,464.31
1764763355.5628748,-366.93,-2175.03,-27134.145,-7633.44,-17987.04,-25928.415,-6072.795,467.28
1764763355.5628748,-366.84,-2174.805,-27133.74,-7633.394999999999,-17986.094999999998,-25926.795,-6071.49,467.28
1764763355.5628748,-366.84,-2175.39,-27134.865,-7633.17,-17985.329999999998,-25925.49,-6070.905,466.83
1764763355.5628748,-365.94,-2173.635,-27133.965,-7632.09,-17984.295,-25925.22,-6070.545,467.955
1764763355.5628748,-368.01,-2175.255,-27134.73,-7634.34,-17984.88,-25927.02,-6072.48,465.12
1764763355.5628748,-370.53,-2177.505,-27136.44,-7634.25,-17984.925,-25927.785,-6072.12,462.51
1764763355.5628748,-367.02,-2172.285,-27129.15,-7626.78,-17979.165,-25922.025,-6068.025,467.55
1764763355.5628748,-367.29,-2171.61,-27127.215,-7625.429999999999,-17979.075,-25922.07,-6067.844999999999,466.965
1764763355.5628748,-366.03,-2170.89,-27127.215,-7626.059999999999,-17980.785,-25924.545,-6069.195,466.335
1764763355.5628748,-367.965,-2173.995,-27131.445,-7631.549999999999,-17986.005,-25928.1,-6070.905,464.67
1764763355.5628748,-369.765,-2178.27,-27136.08,-7636.275,-17990.505,-25929.495,-6070.995,464.4
1764763355.5628748,-368.73,-2179.035,-27137.655,-7637.804999999999,-17993.7,-25929.18,-6070.679999999999,466.245
1764763355.5628748,-367.245,-2177.73,-27136.98,-7637.49,-17996.13,-25932.375,-6074.01,465.66
1764763355.564196,-366.795,-2175.075,-27134.415,-7634.474999999999,-17993.79,-25932.645,-6074.594999999999,466.605
1764763355.564196,-371.205,-2178.405,-27137.79,-7637.67,-17995.14,-25936.335,-6078.014999999999,463.005
1764763355.564196,-374.085,-2181.285,-27140.445,-7640.37,-17996.579999999998,-25940.7,-6080.895,459.0
1764763355.564196,-371.745,-2178.36,-27139.095,-7639.29,-17994.87,-25939.98,-6080.175,460.845
1764763355.564196,-366.885,-2173.095,-27133.875,-7634.25,-17990.325,-25934.94,-6076.71,464.58
1764763355.564196,-369.18,-2174.895,-27133.605,-7633.755,-17990.19,-25934.67,-6075.0,462.285
1764763355.60982,-367.065,-2170.98,-27128.745,-7628.309999999999,-17985.329999999998,-25928.28,-6070.32,465.075
1764763355.60982,-368.91,-2171.97,-27128.745,-7627.41,-17983.71,-25926.39,-6068.79,463.545
1764763355.60982,-369.585,-2172.42,-27129.24,-7627.59,-17983.665,-25923.42,-6067.215,463.32
1764763355.60982,-370.53,-2174.355,-27131.535,-7629.884999999999,-17984.565,-25921.17,-6066.045,463.725
1764763355.60982,-368.19,-2173.365,-27130.815,-7627.275,-17981.594999999998,-25921.305,-6065.145,465.705
1764763355.60982,-371.385,-2176.83,-27134.415,-7630.514999999999,-17984.43,-25927.065,-6066.945,462.51
1764763355.60982,-370.89,-2177.19,-27134.64,-7631.82,-17984.7,-25928.415,-6066.99,463.41
1764763355.60982,-370.215,-2179.215,-27139.905,-7638.12,-17988.434999999998,-25929.99,-6070.005,465.255
1764763355.60982,-374.22,-2185.965,-27148.68,-7646.535,-17995.094999999998,-25933.23,-6073.74,461.925
1764763355.60982,-377.775,-2188.53,-27151.47,-7650.674999999999,-18001.62,-25938.27,-6077.115,457.65
1764763355.60982,-375.615,-2185.92,-27147.78,-7647.344999999999,-17997.165,-25933.545,-6075.224999999999,458.82
1764763355.60982,-373.005,-2182.545,-27144.495,-7642.394999999999,-17989.965,-25925.175,-6072.615,461.34
1764763355.60982,-373.05,-2181.015,-27142.605,-7639.785,-17988.21,-25923.96,-6071.67,461.52
1764763355.60982,-372.645,-2180.25,-27140.085,-7636.995,-17986.14,-25923.375,-6070.139999999999,461.835
1764763355.60982,-372.105,-2179.44,-27138.69,-7635.735,-17984.969999999998,-25923.015,-6069.69,462.06
1764763355.60982,-373.095,-2180.16,-27139.05,-7637.759999999999,-17988.03,-25926.255,-6071.445,460.98
1764763355.60982,-366.48,-2173.77,-27132.48,-7632.09,-17983.44,-25921.665,-6067.98,466.83
1764763355.60982,-363.33,-2169.315,-27129.06,-7628.894999999999,-17982.27,-25922.34,-6067.08,470.07
1764763355.60982,-362.43,-2168.37,-27128.07,-7628.849999999999,-17984.07,-25924.905,-6068.025,470.295
1764763355.60982,-362.025,-2168.19,-27127.53,-7629.57,-17985.78,-25926.975,-6067.889999999999,470.385
1764763355.60982,-362.52,-2168.505,-27128.115,-7631.054999999999,-17987.13,-25929.405,-6068.474999999999,469.845
1764763355.6102877,-363.42,-2169.45,-27129.15,-7631.955,-17987.309999999998,-25930.26,-6068.34,469.395
1764763355.6102877,-366.615,-2173.77,-27135.045,-7637.94,-17990.82,-25931.295,-6069.78,467.235
1764763355.6102877,-367.695,-2174.49,-27136.35,-7639.605,-17992.44,-25931.07,-6070.365,467.145
1764763355.6565738,-364.68,-2171.88,-27133.515,-7636.139999999999,-17989.829999999998,-25929.045,-6069.465,469.62
1764763355.6565738,-370.08,-2177.73,-27139.05,-7639.875,-17992.755,-25932.465,-6071.625,464.085
1764763355.6565738,-368.46,-2176.92,-27138.15,-7637.759999999999,-17990.594999999998,-25929.315,-6069.554999999999,466.29
1764763355.6565738,-370.26,-2178.315,-27138.645,-7638.21,-17990.82,-25929.81,-6069.554999999999,465.435
1764763355.6565738,-367.74,-2175.57,-27134.19,-7633.934999999999,-17986.77,-25925.355,-6066.45,467.82
1764763355.6565738,-370.26,-2177.955,-27135.315,-7634.25,-17987.04,-25926.3,-6066.495,465.12
1764763355.6565738,-366.165,-2172.78,-27129.51,-7628.219999999999,-17979.795,-25920.045,-6063.3,469.125
1764763355.6565738,-366.93,-2173.095,-27129.78,-7630.11,-17981.055,-25920.54,-6063.84,467.28
1764763355.6565738,-368.73,-2174.04,-27131.445,-7631.865,-17984.43,-25923.69,-6065.415,464.445
1764763355.6565738,-362.835,-2168.595,-27125.865,-7626.375,-17979.57,-25918.965,-6060.915,470.61
1764763355.657082,-364.185,-2170.665,-27129.69,-7629.705,-17982.675,-25920.405,-6060.96,470.61
1764763355.657082,-369.405,-2176.83,-27136.395,-7635.465,-17987.13,-25923.195,-6064.83,466.92
1764763355.657082,-368.91,-2177.865,-27137.475,-7635.78,-17989.559999999998,-25923.06,-6064.695,467.145
1764763355.657082,-369.81,-2178.09,-27137.835,-7636.679999999999,-17996.265,-25928.28,-6065.955,466.695
1764763355.657082,-373.095,-2181.015,-27141.03,-7640.91,-18002.25,-25936.965,-6068.88,463.32
1764763355.657082,-371.745,-2178.99,-27138.285,-7639.875,-17999.954999999998,-25940.52,-6069.465,464.985
1764763355.657082,-368.055,-2175.345,-27135.675,-7636.995,-17996.76,-25937.505,-6067.665,468.18
1764763355.657082,-370.89,-2178.855,-27140.94,-7641.405,-18001.755,-25937.055,-6069.285,464.625
1764763355.657082,-368.505,-2175.75,-27137.79,-7637.94,-17998.02,-25932.555,-6069.105,466.56
1764763355.657082,-370.305,-2175.75,-27136.98,-7636.365,-17993.07,-25932.69,-6069.915,465.12
1764763355.7008393,-365.67,-2171.295,-27131.76,-7631.28,-17984.745,-25926.12,-6066.855,469.17
1764763355.7008393,-366.165,-2171.79,-27131.94,-7631.054999999999,-17984.295,-25926.165,-6067.665,468.585
1764763355.7008393,-367.515,-2171.7,-27131.67,-7630.695,-17985.78,-25930.575,-6070.094999999999,466.74
1764763355.7008393,-369.855,-2174.265,-27134.64,-7633.44,-17987.355,-25933.68,-6071.31,464.58
1764763355.7008393,-366.84,-2172.555,-27133.695,-7632.36,-17984.79,-25928.28,-6067.62,468.945
1764763355.7008393,-367.155,-2171.79,-27131.625,-7630.605,-17982.989999999998,-25926.66,-6066.63,468.945
1764763355.7018871,-371.385,-2176.38,-27135.72,-7633.889999999999,-17986.41,-25929.54,-6068.745,464.535
1764763355.7018871,-373.815,-2181.15,-27142.2,-7638.389999999999,-17987.355,-25929.135,-6068.474999999999,462.195
1764763355.7018871,-375.255,-2182.32,-27143.01,-7638.434999999999,-17986.5,-25927.92,-6068.7,461.565
1764763355.7018871,-371.7,-2177.73,-27136.53,-7632.495,-17982.855,-25924.815,-6065.55,464.67
1764763355.7018871,-367.425,-2172.915,-27130.815,-7627.545,-17978.895,-25920.675,-6062.49,468.585
1764763355.7018871,-369.99,-2175.21,-27134.64,-7632.315,-17984.969999999998,-25924.455,-6065.054999999999,466.335
1764763355.7018871,-376.2,-2183.04,-27145.665,-7643.519999999999,-17992.8,-25929.63,-6066.54,462.195
1764763355.7018871,-378.945,-2187.405,-27151.56,-7648.785,-17997.614999999998,-25934.49,-6070.005,459.045
1764763355.7018871,-376.605,-2184.48,-27147.78,-7647.12,-17999.055,-25935.345,-6069.465,459.855
1764763355.7028968,-375.525,-2182.5,-27144.405,-7645.545,-17998.875,-25933.635,-6067.62,460.485
1764763355.7028968,-373.59,-2179.305,-27141.57,-7642.71,-17996.625,-25931.88,-6065.775,461.61
1764763355.7028968,-372.645,-2176.29,-27138.195,-7638.165,-17991.315,-25929.27,-6065.82,463.41
1764763355.7028968,-368.055,-2170.845,-27129.87,-7628.13,-17983.35,-25921.17,-6060.87,468.0
1764763355.7028968,-364.95,-2167.83,-27125.865,-7624.62,-17984.43,-25918.56,-6057.945,471.51
1764763355.7028968,-365.265,-2170.44,-27131.355,-7630.92,-17990.505,-25921.44,-6059.115,471.78
1764763355.7028968,-368.955,-2176.965,-27139.995,-7638.344999999999,-17995.23,-25927.47,-6062.895,468.18
1764763355.7028968,-371.295,-2179.44,-27143.28,-7641.54,-17994.015,-25930.08,-6064.965,466.155
1764763355.7028968,-373.77,-2182.005,-27144.54,-7642.575,-17992.575,-25930.62,-6066.09,463.68
1764763355.7028968,-375.57,-2183.715,-27145.485,-7644.42,-17994.87,-25933.815,-6067.844999999999,461.88
1764763355.7028968,-371.88,-2178.855,-27141.705,-7640.46,-17990.594999999998,-25930.575,-6065.73,464.85
1764763355.749078,-371.25,-2177.955,-27140.22,-7638.57,-17987.13,-25926.885,-6064.83,465.435
1764763355.749078,-371.43,-2177.595,-27139.905,-7639.245,-17988.704999999998,-25926.165,-6064.83,465.84
1764763355.749078,-373.5,-2180.655,-27143.055,-7644.96,-17993.79,-25929.18,-6066.719999999999,462.285
1764763355.749078,-369.54,-2175.93,-27139.14,-7642.665,-17992.17,-25930.305,-6065.73,465.165
1764763355.749078,-366.57,-2171.61,-27134.37,-7638.255,-17991.495,-25933.725,-6065.955,466.785
1764763355.749078,-367.875,-2172.195,-27134.145,-7637.4,-17994.105,-25937.73,-6067.62,463.68
1764763355.749078,-365.94,-2168.64,-27129.69,-7630.965,-17988.57,-25930.89,-6064.92,465.975
1764763355.749078,-365.535,-2168.28,-27128.79,-7627.59,-17983.665,-25923.645,-6062.13,468.585
1764763355.749078,-371.835,-2176.65,-27138.555,-7634.07,-17986.14,-25924.545,-6063.075,464.445
1764763355.749078,-376.92,-2184.03,-27147.42,-7640.549999999999,-17986.364999999998,-25923.24,-6064.29,461.61
1764763355.749078,-375.84,-2183.085,-27144.225,-7635.599999999999,-17981.055,-25918.02,-6061.679999999999,462.51
1764763355.749078,-369.72,-2175.57,-27134.19,-7625.88,-17977.635,-25915.365,-6058.125,467.55
1764763355.749078,-367.245,-2171.52,-27130.995,-7626.465,-17985.285,-25920.405,-6059.025,469.215
1764763355.749078,-365.625,-2168.685,-27128.295,-7626.15,-17989.29,-25923.015,-6059.52,469.44
1764763355.749078,-365.445,-2169.675,-27129.51,-7629.525,-17989.965,-25925.85,-6061.32,468.945
1764763355.749078,-370.71,-2177.505,-27138.87,-7639.695,-17995.094999999998,-25933.23,-6068.61,464.445
1764763355.749078,-376.2,-2184.975,-27148.32,-7648.965,-18000.09,-25940.16,-6074.28,459.225
1764763355.749078,-377.01,-2184.57,-27148.68,-7649.28,-17996.579999999998,-25940.295,-6074.594999999999,458.145
1764763355.749078,-374.85,-2182.41,-27145.215,-7646.67,-17994.375,-25938.0,-6071.58,459.9
1764763355.749078,-374.04,-2179.755,-27142.695,-7644.465,-17996.355,-25935.885,-6069.195,461.25
1764763355.749078,-370.44,-2175.39,-27137.88,-7640.19,-17994.69,-25930.62,-6065.235,465.615
1764763355.749078,-371.025,-2176.65,-27138.195,-7639.965,-17994.825,-25930.44,-6064.83,464.67
1764763355.749078,-375.165,-2179.935,-27140.94,-7640.91,-17993.655,-25931.115,-6065.28,462.06
1764763355.749078,-371.43,-2174.625,-27134.37,-7632.36,-17984.204999999998,-25923.015,-6059.745,466.335
1764763355.794628,-368.865,-2171.34,-27129.285,-7626.465,-17978.85,-25919.28,-6057.315,466.335
1764763355.794628,-372.15,-2174.58,-27133.02,-7629.929999999999,-17981.774999999998,-25923.87,-6061.545,461.97
1764763355.7951417,-373.68,-2179.485,-27139.275,-7635.69,-17984.07,-25924.59,-6061.905,463.455
1764763355.7951417,-372.78,-2181.015,-27142.11,-7637.174999999999,-17982.765,-25922.835,-6060.554999999999,465.885
1764763355.7951417,-373.77,-2179.89,-27140.625,-7636.905,-17986.59,-25927.155,-6061.995,463.545
1764763355.7951417,-372.78,-2176.92,-27137.79,-7637.445,-17989.155,-25928.91,-6063.84,463.41
1764763355.7951417,-370.125,-2174.22,-27136.08,-7638.434999999999,-17989.245,-25929.675,-6064.065,465.66
1764763355.7951417,-365.715,-2169.99,-27133.83,-7637.4,-17989.29,-25928.28,-6063.344999999999,468.855
1764763355.7951417,-369.09,-2174.49,-27140.445,-7641.764999999999,-17991.765,-25929.99,-6064.74,466.38
1764763355.7951417,-374.04,-2179.395,-27145.215,-7644.554999999999,-17993.88,-25933.14,-6066.495,462.51
1764763355.7966833,-368.82,-2174.13,-27138.78,-7639.514999999999,-17993.52,-25931.52,-6065.415,467.415
1764763355.7966833,-369.315,-2175.39,-27139.095,-7639.29,-18000.0,-25935.48,-6066.495,466.56
1764763355.7966833,-372.555,-2178.72,-27140.85,-7639.83,-18003.195,-25940.115,-6067.08,464.085
1764763355.7966833,-371.07,-2176.785,-27137.745,-7637.355,-17996.13,-25937.91,-6064.245,465.48
1764763355.7966833,-371.115,-2176.2,-27137.925,-7638.389999999999,-17993.385,-25939.08,-6065.46,464.895
1764763355.7966833,-366.885,-2170.935,-27132.705,-7633.98,-17988.614999999998,-25937.73,-6066.495,467.955
1764763355.7966833,-368.73,-2171.205,-27133.02,-7635.24,-17990.91,-25939.935,-6067.8,465.66
1764763355.7966833,-366.57,-2167.38,-27130.41,-7633.035,-17990.64,-25938.855,-6067.08,467.235
1764763355.7966833,-363.195,-2163.51,-27127.26,-7629.84,-17988.704999999998,-25935.255,-6065.955,469.935
1764763355.7966833,-364.995,-2169.27,-27134.145,-7638.12,-17996.715,-25939.8,-6065.639999999999,468.765
1764763355.7966833,-364.545,-2170.935,-27137.295,-7640.865,-17998.155,-25939.215,-6063.929999999999,470.745
1764763355.7966833,-371.52,-2177.46,-27142.515,-7644.059999999999,-17999.505,-25939.17,-6066.135,463.905
1764763355.7966833,-374.49,-2179.395,-27142.965,-7641.179999999999,-17993.114999999998,-25932.69,-6064.245,462.375
1764763355.7966833,-376.47,-2180.88,-27142.65,-7639.695,-17989.02,-25927.695,-6062.445,461.88
1764763355.843313,-376.02,-2179.89,-27141.84,-7638.389999999999,-17986.77,-25924.23,-6060.645,462.195
1764763355.843313,-372.105,-2175.255,-27136.305,-7631.28,-17981.774999999998,-25920.945,-6057.855,465.345
1764763355.843313,-373.095,-2176.335,-27135.135,-7630.469999999999,-17982.855,-25921.98,-6058.215,463.68
1764763355.843313,-371.925,-2174.355,-27132.885,-7629.795,-17983.755,-25920.81,-6056.28,465.705
1764763355.843313,-368.415,-2171.115,-27130.545,-7628.67,-17982.719999999998,-25919.145,-6053.085,470.43
1764763355.843313,-369.72,-2173.14,-27133.29,-7632.855,-17986.545,-25923.465,-6055.29,467.955
1764763355.843313,-367.11,-2171.565,-27133.875,-7635.15,-17985.059999999998,-25920.72,-6053.76,471.96
1764763355.843313,-374.94,-2180.295,-27144.495,-7646.715,-17992.844999999998,-25926.975,-6059.16,464.67
1764763355.843313,-371.205,-2176.245,-27138.825,-7639.83,-17990.91,-25926.795,-6057.855,467.055
1764763355.843313,-373.095,-2179.17,-27141.21,-7639.29,-17994.87,-25929.63,-6059.205,464.94
1764763355.843313,-375.975,-2182.41,-27143.91,-7640.415,-17997.39,-25931.52,-6060.42,462.24
1764763355.843313,-369.27,-2174.625,-27135.09,-7632.54,-17990.145,-25926.12,-6056.55,467.955
1764763355.843313,-369.225,-2173.77,-27133.74,-7631.594999999999,-17988.255,-25925.895,-6056.01,468.18
1764763355.843313,-372.915,-2177.325,-27137.115,-7633.44,-17989.335,-25928.325,-6058.304999999999,464.805
1764763355.843313,-372.645,-2177.865,-27137.43,-7631.505,-17982.855,-25924.59,-6057.99,465.57
1764763355.843313,-374.76,-2179.575,-27137.565,-7630.065,-17978.715,-25923.555,-6057.495,464.22
1764763355.843313,-368.01,-2172.105,-27128.745,-7621.155,-17972.37,-25918.29,-6052.905,471.06
1764763355.843313,-367.92,-2170.62,-27127.305,-7623.0,-17978.805,-25921.215,-6053.715,470.925
1764763355.843313,-368.415,-2171.79,-27128.97,-7626.42,-17985.555,-25922.43,-6053.76,469.17
1764763355.843313,-371.205,-2174.31,-27132.03,-7630.695,-17997.57,-25925.895,-6055.29,466.335
1764763355.843313,-368.865,-2172.96,-27131.76,-7632.54,-18004.32,-25924.185,-6053.804999999999,469.395
1764763355.843313,-375.885,-2182.815,-27144.27,-7643.25,-18004.545,-25928.145,-6057.405,463.005
1764763355.891338,-377.055,-2183.85,-27146.88,-7645.905,-18000.09,-25929.945,-6059.385,461.835
1764763355.891338,-374.985,-2180.97,-27142.965,-7642.485,-17996.76,-25934.04,-6059.969999999999,462.96
1764763355.891338,-374.895,-2179.215,-27139.725,-7637.625,-17990.01,-25935.255,-6059.745,463.635
1764763355.891338,-370.395,-2174.985,-27135.09,-7632.495,-17980.965,-25932.195,-6058.485,466.11
1764763355.891338,-367.02,-2170.395,-27129.78,-7627.005,-17981.325,-25929.945,-6057.855,468.225
1764763355.891338,-368.01,-2171.835,-27130.905,-7628.67,-17990.01,-25930.845,-6059.295,466.65
1764763355.891338,-372.555,-2177.775,-27139.005,-7637.174999999999,-17997.57,-25932.69,-6060.825,463.725
1764763355.891338,-372.78,-2180.295,-27143.64,-7641.99,-17996.309999999998,-25930.08,-6060.554999999999,463.905
1764763355.891338,-377.595,-2185.245,-27148.995,-7646.759999999999,-17995.5,-25930.305,-6061.094999999999,460.395
1764763355.891338,-375.795,-2180.745,-27143.64,-7642.304999999999,-17993.204999999998,-25928.73,-6058.98,461.97
1764763355.891338,-373.68,-2177.505,-27138.15,-7636.545,-17993.114999999998,-25928.055,-6058.755,463.365
1764763355.891338,-373.05,-2175.885,-27136.215,-7632.54,-17988.21,-25925.94,-6058.304999999999,464.805
1764763355.891338,-375.795,-2178.72,-27139.23,-7635.599999999999,-17989.335,-25930.62,-6061.77,461.115
1764763355.891338,-373.905,-2177.64,-27139.32,-7636.139999999999,-17988.39,-25932.33,-6062.49,461.88
1764763355.891338,-370.89,-2174.535,-27136.665,-7631.865,-17982.719999999998,-25928.19,-6059.07,466.335
1764763355.891338,-374.355,-2177.955,-27138.51,-7632.495,-17982.54,-25930.62,-6060.915,463.095
1764763355.891338,-377.19,-2181.195,-27141.705,-7635.105,-17985.149999999998,-25932.195,-6061.86,459.945
1764763355.891338,-376.65,-2181.33,-27142.29,-7636.634999999999,-17989.245,-25932.105,-6060.825,460.305
1764763355.891338,-375.165,-2178.405,-27138.33,-7633.215,-17987.04,-25928.865,-6058.035,463.095
1764763355.891338,-375.03,-2178.36,-27137.295,-7633.394999999999,-17988.57,-25927.965,-6057.045,463.005
1764763355.891338,-375.12,-2178.315,-27137.565,-7635.599999999999,-17991.495,-25929.675,-6058.485,462.42
1764763355.891338,-373.59,-2178.27,-27138.87,-7637.759999999999,-17992.215,-25931.295,-6060.285,463.41
1764763355.891338,-370.395,-2176.47,-27138.825,-7639.065,-17990.1,-25931.34,-6060.33,467.1
1764763355.891338,-369.99,-2175.705,-27139.32,-7639.559999999999,-17990.46,-25931.61,-6060.014999999999,467.595
1764763355.9379897,-369.27,-2173.77,-27138.915,-7640.594999999999,-17992.89,-25933.275,-6059.295,467.505
1764763355.9379897,-375.39,-2180.565,-27146.97,-7649.054999999999,-18001.485,-25940.79,-6063.165,461.655
1764763355.9379897,-377.505,-2182.41,-27149.535,-7648.38,-18002.204999999998,-25940.655,-6063.66,459.945
1764763355.9379897,-376.29,-2182.455,-27149.22,-7646.445,-18001.395,-25938.945,-6062.985,459.495
1764763355.9379897,-375.435,-2179.575,-27145.125,-7640.73,-17997.48,-25935.39,-6062.13,459.72
1764763355.9379897,-373.68,-2174.895,-27134.19,-7626.78,-17987.489999999998,-25926.255,-6056.639999999999,462.465
1764763355.9379897,-370.17,-2170.755,-27126.81,-7618.049999999999,-17982.09,-25918.515,-6051.42,466.425
1764763355.9379897,-373.68,-2174.13,-27128.745,-7619.759999999999,-17983.53,-25920.63,-6051.465,462.735
1764763355.9393642,-372.69,-2175.165,-27130.095,-7621.74,-17982.495,-25920.855,-6050.52,463.725
1764763355.9393642,-372.87,-2177.595,-27135.99,-7627.905,-17984.204999999998,-25920.495,-6050.474999999999,465.57
1764763355.9393642,-372.78,-2178.72,-27140.04,-7631.505,-17984.024999999998,-25919.145,-6050.34,467.19
1764763355.9393642,-372.555,-2176.29,-27137.025,-7630.019999999999,-17983.62,-25921.53,-6052.905,465.615
1764763355.9393642,-369.135,-2171.565,-27132.345,-7625.205,-17982.45,-25921.53,-6052.905,467.685
1764763355.9393642,-369.72,-2172.24,-27131.67,-7627.049999999999,-17986.454999999998,-25924.77,-6055.29,465.66
1764763355.9393642,-368.685,-2170.98,-27130.905,-7627.724999999999,-17987.535,-25928.55,-6055.74,466.425
1764763355.9393642,-367.83,-2171.295,-27132.66,-7629.75,-17988.57,-25932.24,-6055.514999999999,467.955
1764763355.9393642,-374.04,-2178.9,-27142.38,-7639.019999999999,-17995.23,-25938.63,-6060.42,463.095
1764763355.9393642,-376.695,-2182.68,-27148.14,-7644.195,-17998.38,-25938.675,-6062.804999999999,461.07
1764763355.9393642,-375.705,-2182.365,-27147.96,-7644.644999999999,-17998.649999999998,-25937.28,-6062.715,461.34
1764763355.9393642,-371.295,-2176.83,-27142.02,-7640.19,-17994.69,-25932.06,-6059.429999999999,465.615
1764763355.9393642,-371.79,-2177.01,-27142.515,-7641.63,-17995.68,-25931.295,-6059.205,464.265
1764763355.939875,-377.1,-2182.14,-27148.14,-7649.144999999999,-18000.045,-25933.68,-6062.219999999999,458.01
1764763355.9823484,-375.885,-2180.52,-27145.08,-7644.105,-17995.274999999998,-25930.575,-6060.42,459.72
1764763355.9823484,-371.7,-2175.39,-27138.15,-7635.059999999999,-17989.065,-25924.815,-6055.965,464.895
1764763355.9823484,-374.445,-2179.035,-27142.605,-7639.065,-17994.195,-25927.83,-6056.415,463.41
1764763355.9823484,-377.145,-2182.68,-27147.555,-7644.509999999999,-18000.315,-25934.895,-6060.24,460.215
1764763355.9823484,-373.59,-2178.27,-27142.965,-7639.424999999999,-17995.14,-25931.97,-6059.745,462.735
1764763355.9823484,-374.715,-2177.865,-27142.965,-7638.344999999999,-17994.195,-25933.005,-6059.474999999999,460.755
1764763355.9823484,-371.565,-2173.95,-27138.555,-7633.665,-17989.875,-25929.585,-6055.469999999999,463.905
1764763355.9823484,-366.975,-2168.46,-27131.265,-7625.88,-17982.989999999998,-25924.23,-6051.87,467.91
1764763355.9833803,-361.89,-2163.42,-27124.425,-7617.509999999999,-17977.32,-25917.435,-6048.675,472.41
1764763355.9833803,-366.435,-2167.965,-27129.285,-7621.605,-17982.719999999998,-25919.505,-6050.115,468.855
1764763355.9833803,-369.765,-2172.6,-27135.09,-7628.804999999999,-17988.975,-25921.755,-6050.25,467.46
1764763355.9833803,-373.545,-2177.955,-27142.155,-7637.264999999999,-17997.12,-25928.28,-6052.23,465.12
1764763355.9833803,-370.08,-2174.265,-27140.13,-7636.455,-17995.454999999998,-25927.02,-6050.79,467.955
1764763355.9833803,-369.72,-2173.365,-27139.095,-7635.465,-17994.149999999998,-25926.84,-6051.195,467.775
1764763355.9833803,-373.59,-2176.11,-27141.255,-7637.355,-17995.5,-25930.305,-6053.67,463.995
1764763355.9833803,-374.895,-2177.145,-27139.905,-7635.105,-17992.53,-25929.765,-6054.885,462.78
1764763355.9833803,-373.23,-2176.155,-27138.6,-7633.485,-17992.079999999998,-25929.99,-6054.705,463.275
1764763355.9833803,-369.315,-2172.015,-27134.19,-7628.264999999999,-17987.219999999998,-25925.49,-6052.365,467.19
1764763355.9833803,-367.74,-2171.61,-27134.505,-7628.13,-17986.14,-25924.14,-6051.599999999999,468.585
1764763355.9833803,-371.07,-2175.165,-27138.69,-7633.394999999999,-17991.18,-25928.145,-6054.705,465.48
1764763355.9833803,-372.33,-2176.02,-27138.51,-7635.42,-17994.87,-25931.835,-6055.74,463.005
1764763355.9833803,-367.65,-2170.44,-27131.58,-7629.615,-17990.82,-25929.045,-6053.04,466.29
1764763355.9833803,-367.56,-2171.295,-27134.19,-7631.144999999999,-17990.864999999998,-25928.145,-6052.005,466.83
1764763355.9833803,-366.03,-2170.665,-27134.955,-7630.469999999999,-17987.445,-25924.32,-6051.06,469.17
1764763356.029975,-366.48,-2170.17,-27134.775,-7631.775,-17989.605,-25927.065,-6053.895,468.27
1764763356.029975,-369.45,-2173.77,-27139.995,-7637.58,-17995.23,-25931.565,-6056.685,465.885
1764763356.029975,-373.77,-2179.44,-27145.755,-7640.639999999999,-17997.12,-25932.015,-6057.495,463.5
1764763356.029975,-377.46,-2184.615,-27149.49,-7643.07,-17999.415,-25933.77,-6058.575,460.17
1764763356.029975,-375.03,-2182.005,-27147.465,-7640.37,-17995.59,-25928.055,-6055.469999999999,463.365
1764763356.029975,-374.94,-2180.025,-27145.98,-7640.144999999999,-17996.399999999998,-25928.325,-6056.19,462.06
1764763356.029975,-374.085,-2177.775,-27143.64,-7639.92,-18000.855,-25930.17,-6056.01,462.105
1764763356.0304918,-369.675,-2172.06,-27138.42,-7640.37,-18017.595,-25933.995,-6055.065,466.56
1764763356.0304918,-369.09,-2171.745,-27139.95,-7646.085,-18038.61,-25948.755,-6059.745,466.155
1764763356.0304918,-366.255,-2169.495,-27138.24,-7645.815,-18037.62,-25954.65,-6061.139999999999,468.45
1764763356.0304918,-369.81,-2171.205,-27138.78,-7646.355,-18027.855,-25958.97,-6064.695,464.535
1764763356.0304918,-367.11,-2168.865,-27136.305,-7641.179999999999,-18013.5,-25952.49,-6063.84,466.425
1764763356.0304918,-371.565,-2175.075,-27142.065,-7643.565,-18008.235,-25949.79,-6064.38,462.375
1764763356.0304918,-372.645,-2177.415,-27143.19,-7640.235,-17997.165,-25942.23,-6061.275,462.24
1764763356.0304918,-370.89,-2175.66,-27141.93,-7634.295,-17984.655,-25929.99,-6055.965,464.805
1764763356.0304918,-373.77,-2178.855,-27145.08,-7637.13,-17986.14,-25926.615,-6054.165,462.735
1764763356.0304918,-377.415,-2182.005,-27144.945,-7635.69,-17986.05,-25925.355,-6053.085,458.865
1764763356.0304918,-378.63,-2182.275,-27140.58,-7629.389999999999,-17982.54,-25921.845,-6050.88,458.82
1764763356.0304918,-377.775,-2181.285,-27138.465,-7626.24,-17980.875,-25918.74,-6049.304999999999,459.99
1764763356.0315094,-372.33,-2176.2,-27135.315,-7623.224999999999,-17975.024999999998,-25911.9,-6045.795,465.21
1764763356.0315094,-371.565,-2174.625,-27134.685,-7624.08,-17974.44,-25911.36,-6044.67,466.245
1764763356.0315094,-373.365,-2176.695,-27137.7,-7628.219999999999,-17981.73,-25918.29,-6047.955,464.31
1764763356.0755932,-374.445,-2179.26,-27142.065,-7634.25,-17990.82,-25925.31,-6050.969999999999,462.51
1764763356.0755932,-369.0,-2173.14,-27136.485,-7629.389999999999,-17986.274999999998,-25921.395,-6047.415,468.18
1764763356.0755932,-367.245,-2170.485,-27133.155,-7626.96,-17985.825,-25922.565,-6048.495,469.305
1764763356.0755932,-369.765,-2173.725,-27136.485,-7631.009999999999,-17991.719999999998,-25929.54,-6055.155,465.345
1764763356.0755932,-373.995,-2179.44,-27143.46,-7639.29,-17999.505,-25936.335,-6058.125,461.655
1764763356.0755932,-375.795,-2181.78,-27147.015,-7642.98,-18001.755,-25937.325,-6057.495,460.98
1764763356.0755932,-374.94,-2180.745,-27146.745,-7642.844999999999,-18001.62,-25936.74,-6055.514999999999,462.33
1764763356.0755932,-371.565,-2177.37,-27144.765,-7640.73,-18000.045,-25935.255,-6052.905,465.885
1764763356.0755932,-372.015,-2177.685,-27145.62,-7641.855,-18000.945,-25935.615,-6052.455,465.66
1764763356.0755932,-375.39,-2181.06,-27149.985,-7646.264999999999,-18005.085,-25937.865,-6053.49,462.06
1764763356.0766094,-372.24,-2178.09,-27146.97,-7643.655,-18002.34,-25935.21,-6052.094999999999,465.21
1764763356.0766094,-370.395,-2175.435,-27143.865,-7640.28,-17998.965,-25931.52,-6049.304999999999,467.145
1764763356.0766094,-367.065,-2171.745,-27139.32,-7635.15,-17993.565,-25927.965,-6045.255,470.34
1764763356.0766094,-369.495,-2174.4,-27140.67,-7636.679999999999,-17995.815,-25931.97,-6048.45,467.28
1764763356.0766094,-366.48,-2170.665,-27137.34,-7634.519999999999,-17995.05,-25932.15,-6048.045,469.755
1764763356.0766094,-368.505,-2172.105,-27137.88,-7635.24,-17998.155,-25937.145,-6053.13,467.1
1764763356.0766094,-371.205,-2173.68,-27137.52,-7636.139999999999,-18000.18,-25939.71,-6054.929999999999,464.31
1764763356.0766094,-367.29,-2169.405,-27133.155,-7632.315,-17995.545,-25934.49,-6052.05,467.685
1764763356.0766094,-365.715,-2168.145,-27134.055,-7634.565,-17997.12,-25937.145,-6051.69,468.765
1764763356.0766094,-368.37,-2170.935,-27138.915,-7642.394999999999,-18006.165,-25946.145,-6054.389999999999,466.245
1764763356.0766094,-367.38,-2169.855,-27139.14,-7645.455,-18011.565,-25949.475,-6056.235,466.38
1764763356.0766094,-363.42,-2164.455,-27134.145,-7643.16,-18012.42,-25946.28,-6054.84,468.63
1764763356.0766094,-365.04,-2167.515,-27136.665,-7644.554999999999,-18011.204999999998,-25941.375,-6052.59,469.215
1764763356.0766094,-375.345,-2181.96,-27152.235,-7654.094999999999,-18014.895,-25944.165,-6056.55,462.6
1764763356.1233828,-381.33,-2189.07,-27158.895,-7654.995,-18013.005,-25941.645,-6057.81,457.47
1764763356.1233828,-376.2,-2182.005,-27148.725,-7641.224999999999,-17997.795,-25927.065,-6052.05,460.8
1764763356.1233828,-373.32,-2178.225,-27142.335,-7631.639999999999,-17988.3,-25919.415,-6047.054999999999,464.31
1764763356.1233828,-372.96,-2177.685,-27140.13,-7628.174999999999,-17984.385,-25916.67,-6044.895,466.02
1764763356.1233828,-372.6,-2177.19,-27138.69,-7627.32,-17980.425,-25914.825,-6043.905,466.695
1764763356.1233828,-371.655,-2175.03,-27135.405,-7625.115,-17980.829999999998,-25916.535,-6043.995,467.64
1764763356.1233828,-371.745,-2174.22,-27134.955,-7626.554999999999,-17985.69,-25922.385,-6046.65,465.345
1764763356.1233828,-364.905,-2166.255,-27126.63,-7621.605,-17983.44,-25921.26,-6044.445,470.43
1764763356.1233828,-362.97,-2164.41,-27124.83,-7621.019999999999,-17983.89,-25920.9,-6043.545,472.77
1764763356.1233828,-367.47,-2170.53,-27132.93,-7628.58,-17988.48,-25924.905,-6046.11,469.305
1764763356.1233828,-372.105,-2176.965,-27141.93,-7637.625,-17993.204999999998,-25927.515,-6048.135,466.335
1764763356.1233828,-375.93,-2181.6,-27146.88,-7642.394999999999,-17999.415,-25933.905,-6051.915,462.06
1764763356.1233828,-373.545,-2179.08,-27145.665,-7642.44,-18002.79,-25940.655,-6058.215,463.275
1764763356.1233828,-368.37,-2174.175,-27141.75,-7641.809999999999,-18006.57,-25945.065,-6061.679999999999,466.38
1764763356.1233828,-370.35,-2175.795,-27144.36,-7645.59,-18012.51,-25949.88,-6062.31,464.31
1764763356.1233828,-365.535,-2170.53,-27139.59,-7642.08,-18008.055,-25944.975,-6057.719999999999,468.225
1764763356.1233828,-365.49,-2169.135,-27138.015,-7640.415,-18004.23,-25940.88,-6054.974999999999,468.045
1764763356.1233828,-368.955,-2171.79,-27138.42,-7639.92,-18002.024999999998,-25938.9,-6053.13,465.21
1764763356.1233828,-369.765,-2173.365,-27139.095,-7640.054999999999,-17998.965,-25933.635,-6051.24,465.705
1764763356.1233828,-377.37,-2182.23,-27148.5,-7646.49,-18000.36,-25932.33,-6052.635,460.08
1764763356.1233828,-379.755,-2185.47,-27149.895,-7645.365,-17999.73,-25931.52,-6052.23,457.695
1764763356.1233828,-377.055,-2182.095,-27143.91,-7638.48,-17993.43,-25923.78,-6046.695,461.52
1764763356.1233828,-379.305,-2183.805,-27146.025,-7640.639999999999,-17995.5,-25925.355,-6045.525,460.125
1764763356.1233828,-375.12,-2179.035,-27141.795,-7636.275,-17992.215,-25923.15,-6044.13,463.32
1764763356.1707845,-375.975,-2179.44,-27142.02,-7635.33,-17992.215,-25925.04,-6045.705,461.25
1764763356.1707845,-371.7,-2174.805,-27135.945,-7631.415,-17989.965,-25923.195,-6044.895,465.03
1764763356.1707845,-370.215,-2172.915,-27134.28,-7630.065,-17990.1,-25923.6,-6044.445,465.795
1764763356.1707845,-367.065,-2168.415,-27129.78,-7625.924999999999,-17987.535,-25923.33,-6043.05,468.135
1764763356.1707845,-366.345,-2169.0,-27133.02,-7630.965,-17992.755,-25925.895,-6043.635,468.945
1764763356.1707845,-373.365,-2178.585,-27146.97,-7645.455,-18008.19,-25934.355,-6050.025,463.455
1764763356.1707845,-373.995,-2180.34,-27148.5,-7647.48,-18012.149999999998,-25934.355,-6050.474999999999,463.5
1764763356.1707845,-372.645,-2178.945,-27147.375,-7648.065,-18009.765,-25936.92,-6050.7,463.995
1764763356.1707845,-369.495,-2174.985,-27143.325,-7644.69,-18003.6,-25938.63,-6050.07,466.875
1764763356.1707845,-371.79,-2176.425,-27144.225,-7644.33,-18003.329999999998,-25941.555,-6051.78,463.59
1764763356.1707845,-371.115,-2175.66,-27143.415,-7644.42,-18002.7,-25939.755,-6052.77,463.14
1764763356.1707845,-368.64,-2172.42,-27138.375,-7636.905,-17995.005,-25932.24,-6049.98,466.38
1764763356.1707845,-367.065,-2169.405,-27133.02,-7628.535,-17990.28,-25928.595,-6046.875,467.46
1764763356.1707845,-366.075,-2168.19,-27131.715,-7628.174999999999,-17990.82,-25927.155,-6045.389999999999,468.18
1764763356.1707845,-365.85,-2169.585,-27133.695,-7631.505,-17990.235,-25925.805,-6044.94,468.945
1764763356.1707845,-368.505,-2172.825,-27137.88,-7638.57,-17996.265,-25934.13,-6050.88,465.435
1764763356.1707845,-372.24,-2178.09,-27145.845,-7649.099999999999,-18005.04,-25943.04,-6054.615,461.61
1764763356.1707845,-373.32,-2181.195,-27152.145,-7657.469999999999,-18014.805,-25949.34,-6057.36,462.105
1764763356.1707845,-370.125,-2177.64,-27150.615,-7657.065,-18017.73,-25950.15,-6057.27,465.39
1764763356.1707845,-371.7,-2177.595,-27150.21,-7655.715,-18019.44,-25953.93,-6060.78,462.555
1764763356.1707845,-368.64,-2173.635,-27143.055,-7647.075,-18010.8,-25950.285,-6060.554999999999,465.21
1764763356.1707845,-370.035,-2174.67,-27142.92,-7645.139999999999,-18005.94,-25947.495,-6059.52,463.59
1764763356.1707845,-366.66,-2171.34,-27138.87,-7638.884999999999,-17997.255,-25937.775,-6052.86,466.38
1764763356.1707845,-365.355,-2168.1,-27133.425,-7631.955,-17990.864999999998,-25930.08,-6047.415,467.235
1764763356.218099,-367.245,-2169.45,-27132.12,-7627.995,-17987.355,-25924.905,-6044.04,466.29
1764763356.218099,-372.015,-2175.795,-27136.98,-7633.304999999999,-17999.28,-25924.23,-6044.13,463.14
1764763356.218099,-370.62,-2176.695,-27138.78,-7636.905,-17999.64,-25922.61,-6041.34,466.245
1764763356.218099,-373.635,-2181.15,-27144.495,-7642.665,-17999.73,-25927.47,-6043.77,464.445
1764763356.218099,-377.1,-2184.93,-27147.69,-7646.67,-18005.895,-25934.94,-6047.01,460.575
1764763356.218099,-375.84,-2182.365,-27144.855,-7644.78,-18006.075,-25937.28,-6046.695,461.25
1764763356.218099,-372.33,-2178.495,-27141.615,-7641.54,-18002.25,-25938.315,-6047.054999999999,463.455
1764763356.218099,-368.235,-2174.625,-27137.7,-7638.525,-17999.37,-25938.855,-6047.955,466.38
1764763356.218099,-369.135,-2174.265,-27138.015,-7637.94,-18001.395,-25942.14,-6050.025,463.95
1764763356.218099,-365.58,-2169.54,-27131.58,-7629.57,-17996.04,-25934.715,-6045.66,467.19
1764763356.219102,-364.5,-2168.46,-27129.87,-7626.285,-17993.655,-25928.64,-6041.474999999999,469.485
1764763356.219102,-367.695,-2172.465,-27133.245,-7629.929999999999,-17995.905,-25928.55,-6043.139999999999,466.695
1764763356.219102,-374.58,-2180.205,-27141.795,-7636.184999999999,-17995.86,-25928.685,-6044.355,461.835
1764763356.219102,-376.47,-2183.265,-27144.99,-7636.815,-17991.765,-25925.13,-6043.95,461.295
1764763356.219102,-375.705,-2181.51,-27143.505,-7636.005,-17990.37,-25923.825,-6043.545,461.25
1764763356.219102,-375.345,-2180.07,-27141.795,-7634.79,-17988.12,-25922.835,-6043.5,462.96
1764763356.219102,-372.78,-2178.315,-27139.68,-7631.865,-17983.305,-25918.92,-6041.52,465.165
1764763356.219102,-371.88,-2177.055,-27138.51,-7631.009999999999,-17983.665,-25918.65,-6039.81,465.615
1764763356.219102,-374.31,-2178.945,-27142.83,-7636.995,-17993.114999999998,-25926.345,-6043.455,461.835
1764763356.219102,-370.53,-2174.355,-27138.195,-7633.62,-17993.969999999998,-25926.57,-6043.545,464.13
1764763356.219102,-365.58,-2168.595,-27130.455,-7626.87,-17989.29,-25925.265,-6041.025,469.71
1764763356.219102,-367.245,-2171.07,-27132.48,-7629.615,-17993.07,-25933.05,-6043.679999999999,467.55
1764763356.219102,-366.66,-2170.26,-27133.515,-7632.315,-17996.265,-25936.92,-6044.67,468.45
1764763356.219102,-368.37,-2174.715,-27139.455,-7639.155,-17999.055,-25936.2,-6045.48,467.865
1764763356.2625709,-370.98,-2178.27,-27144.36,-7645.455,-18003.239999999998,-25938.27,-6048.09,465.12
1764763356.2625709,-373.95,-2180.385,-27146.475,-7649.639999999999,-18010.26,-25945.065,-6053.355,460.71
1764763356.2625709,-371.25,-2177.82,-27144.225,-7645.634999999999,-18010.485,-25942.095,-6052.139999999999,463.815
1764763356.2625709,-373.095,-2179.71,-27146.52,-7647.929999999999,-18014.309999999998,-25941.33,-6051.33,462.51
1764763356.2636013,-375.615,-2183.58,-27151.425,-7652.474999999999,-18017.28,-25944.795,-6052.23,459.855
1764763356.2636013,-370.215,-2178.315,-27146.43,-7648.785,-18009.719999999998,-25942.815,-6050.88,465.03
1764763356.2636013,-366.48,-2173.68,-27142.29,-7643.519999999999,-18005.579999999998,-25941.06,-6049.349999999999,468.045
1764763356.2636013,-364.995,-2171.565,-27139.32,-7640.82,-18003.465,-25939.575,-6047.594999999999,468.855
1764763356.2636013,-367.245,-2173.095,-27139.59,-7640.415,-18002.7,-25940.475,-6047.91,465.345
1764763356.2636013,-366.57,-2171.655,-27136.485,-7636.5,-18000.18,-25939.44,-6048.405,465.705
1764763356.2636013,-368.685,-2174.895,-27138.24,-7635.195,-17998.065,-25936.2,-6047.775,464.58
1764763356.2636013,-372.465,-2180.07,-27144.0,-7638.255,-17996.67,-25933.455,-6046.965,463.14
1764763356.2636013,-370.62,-2179.395,-27144.0,-7635.33,-17990.505,-25926.12,-6042.105,465.345
1764763356.2636013,-372.915,-2179.845,-27143.595,-7634.205,-17990.505,-25924.005,-6040.665,463.14
1764763356.2636013,-376.965,-2183.04,-27145.305,-7635.825,-17992.575,-25926.12,-6041.969999999999,460.215
1764763356.264624,-371.475,-2178.09,-27139.815,-7631.19,-17988.03,-25922.34,-6038.325,465.48
1764763356.264624,-369.945,-2176.74,-27138.87,-7632.09,-17989.38,-25924.095,-6038.55,466.02
1764763356.264624,-370.98,-2176.47,-27139.545,-7635.69,-17994.239999999998,-25929.45,-6042.24,463.995
1764763356.264624,-370.62,-2175.795,-27138.96,-7638.255,-18001.215,-25932.24,-6043.905,464.13
1764763356.264624,-372.915,-2177.82,-27141.795,-7643.205,-18012.149999999998,-25939.53,-6048.405,460.575
1764763356.264624,-369.0,-2172.96,-27137.655,-7640.235,-18009.719999999998,-25938.72,-6048.585,463.275
1764763356.264624,-371.52,-2176.605,-27142.425,-7646.445,-18010.89,-25944.39,-6051.554999999999,460.395
1764763356.3083327,-372.87,-2178.045,-27145.485,-7649.19,-18010.934999999998,-25946.28,-6052.23,459.945
1764763356.3083327,-375.345,-2181.96,-27150.255,-7653.24,-18014.67,-25949.835,-6054.48,457.695
1764763356.3083327,-377.595,-2185.83,-27155.295,-7656.255,-18017.955,-25949.385,-6054.615,456.705
1764763356.3083327,-378.315,-2186.64,-27154.845,-7654.365,-18012.465,-25943.715,-6052.815,456.93
1764763356.3083327,-375.255,-2183.895,-27151.065,-7650.269999999999,-18005.76,-25936.245,-6049.125,460.935
1764763356.3096564,-376.11,-2184.12,-27150.93,-7648.83,-18005.265,-25935.525,-6048.315,459.72
1764763356.3096564,-376.38,-2183.715,-27149.535,-7649.415,-18007.875,-25939.53,-6048.855,458.775
1764763356.3096564,-370.35,-2177.73,-27144.405,-7646.49,-18006.84,-25939.755,-6048.495,462.69
1764763356.3096564,-371.745,-2178.72,-27146.655,-7648.83,-18011.024999999998,-25943.985,-6049.665,461.61
1764763356.3096564,-368.955,-2175.255,-27143.01,-7644.644999999999,-18008.28,-25941.33,-6047.73,465.255
1764763356.3096564,-370.44,-2175.975,-27142.56,-7643.565,-18007.469999999998,-25941.015,-6046.74,464.31
1764763356.3096564,-374.94,-2180.79,-27146.52,-7646.985,-18008.82,-25942.005,-6047.054999999999,460.665
1764763356.3096564,-373.545,-2179.89,-27146.475,-7645.815,-18005.805,-25939.035,-6046.29,462.195
1764763356.3096564,-376.065,-2182.545,-27147.33,-7645.634999999999,-18004.86,-25938.18,-6046.38,459.315
1764763356.3096564,-371.52,-2178.27,-27142.11,-7639.29,-17996.895,-25930.53,-6042.014999999999,463.545
1764763356.3096564,-375.03,-2181.195,-27144.9,-7641.134999999999,-17999.055,-25931.565,-6043.905,459.36
1764763356.3096564,-374.175,-2179.575,-27143.955,-7639.155,-17999.505,-25932.105,-6042.33,460.35
1764763356.3096564,-369.72,-2175.03,-27139.095,-7635.465,-17996.265,-25932.915,-6041.07,464.76
1764763356.3096564,-369.54,-2176.245,-27139.725,-7636.139999999999,-17995.95,-25938.945,-6046.29,464.76
1764763356.3096564,-367.335,-2174.04,-27138.015,-7637.445,-17999.37,-25943.895,-6049.665,465.93
1764763356.3096564,-364.905,-2170.215,-27135.945,-7638.66,-18002.25,-25946.55,-6050.79,467.055
1764763356.3096564,-365.715,-2171.07,-27138.195,-7642.889999999999,-18006.165,-25947.405,-6051.915,466.02
1764763356.356569,-368.145,-2172.645,-27141.21,-7647.434999999999,-18009.719999999998,-25947.99,-6052.32,464.535
1764763356.356569,-363.195,-2168.37,-27137.97,-7643.429999999999,-18004.32,-25938.495,-6045.84,469.215
1764763356.356569,-363.555,-2168.1,-27136.845,-7640.325,-18000.855,-25933.545,-6042.105,469.44
1764763356.356569,-370.215,-2175.165,-27141.93,-7642.17,-18002.88,-25934.355,-6042.78,463.68
1764763356.356569,-369.405,-2176.155,-27140.22,-7636.23,-17996.04,-25926.345,-6037.605,466.38
1764763356.356569,-369.135,-2175.255,-27136.62,-7631.325,-17990.505,-25921.215,-6035.715,466.83
1764763356.356569,-365.805,-2168.955,-27126.54,-7620.84,-17982.945,-25917.21,-6034.32,468.36
1764763356.3576546,-363.15,-2163.69,-27119.52,-7613.28,-17977.545,-25914.645,-6031.665,470.295
1764763356.3576546,-365.58,-2169.09,-27128.025,-7623.09,-17989.29,-25918.245,-6032.655,469.125
1764763356.3576546,-374.13,-2182.995,-27145.485,-7642.17,-18007.38,-25925.805,-6036.255,463.275
1764763356.3576546,-374.895,-2182.545,-27145.215,-7641.36,-18002.745,-25925.895,-6036.48,462.105
1764763356.3576546,-369.54,-2174.4,-27136.17,-7633.349999999999,-17994.059999999998,-25925.22,-6034.77,465.345
1764763356.3576546,-370.53,-2175.93,-27139.905,-7637.804999999999,-17997.48,-25928.865,-6037.065,465.795
1764763356.3576546,-377.415,-2184.66,-27150.57,-7648.65,-18007.469999999998,-25937.37,-6044.355,458.73
1764763356.3576546,-376.83,-2185.65,-27151.965,-7649.325,-18009.315,-25939.395,-6046.83,460.035
1764763356.3576546,-372.42,-2180.745,-27147.555,-7646.04,-18009.765,-25939.665,-6046.875,464.49
1764763356.3576546,-373.635,-2181.915,-27149.22,-7648.2,-18014.805,-25944.615,-6049.26,462.24
1764763356.3576546,-369.63,-2178.09,-27145.08,-7646.174999999999,-18013.184999999998,-25944.75,-6048.585,465.3
1764763356.3576546,-368.865,-2177.865,-27146.97,-7649.955,-18015.03,-25946.595,-6049.17,465.615
1764763356.3576546,-367.38,-2174.175,-27144.36,-7649.82,-18013.5,-25946.64,-6048.27,465.66
1764763356.3576546,-371.115,-2177.595,-27148.05,-7654.59,-18013.995,-25947.405,-6049.44,462.555
1764763356.3576546,-365.715,-2170.215,-27138.735,-7644.33,-18001.62,-25935.255,-6043.635,466.92
1764763356.3576546,-361.98,-2166.345,-27131.49,-7634.655,-17993.43,-25927.92,-6039.315,469.17
1764763356.3576546,-367.965,-2173.68,-27138.24,-7637.94,-17995.32,-25927.155,-6040.53,464.535
1764763356.4009044,-369.855,-2175.165,-27140.31,-7636.815,-17994.105,-25924.32,-6038.639999999999,464.4
1764763356.4009044,-373.725,-2179.17,-27143.28,-7637.13,-17995.68,-25928.01,-6039.764999999999,461.52
1764763356.4009044,-368.505,-2172.915,-27135.9,-7630.065,-17991.63,-25929.585,-6037.695,466.11
1764763356.4009044,-366.705,-2171.295,-27135.675,-7630.11,-17993.565,-25932.015,-6037.02,467.37
1764763356.4009044,-369.72,-2174.985,-27141.975,-7636.005,-17999.19,-25932.78,-6039.27,466.335
1764763356.4009044,-367.065,-2171.295,-27136.035,-7631.955,-18002.295,-25936.11,-6042.465,465.48
1764763356.4009044,-366.93,-2170.125,-27134.91,-7634.565,-18008.01,-25942.05,-6046.11,463.275
1764763356.4009044,-370.98,-2179.665,-27148.815,-7646.849999999999,-18009.63,-25939.395,-6045.75,462.33
1764763356.4009044,-376.92,-2189.475,-27161.595,-7658.82,-18011.52,-25938.99,-6047.865,459.585
1764763356.4009044,-380.52,-2193.885,-27166.095,-7664.4,-18019.125,-25945.245,-6052.23,456.075
1764763356.4019446,-383.175,-2194.155,-27166.185,-7665.03,-18027.36,-25951.815,-6054.12,452.79
1764763356.4019446,-377.82,-2186.46,-27155.565,-7656.57,-18023.895,-25950.195,-6052.905,455.265
1764763356.4019446,-373.32,-2180.16,-27147.375,-7648.65,-18014.355,-25945.155,-6049.53,459.135
1764763356.4019446,-374.265,-2179.125,-27145.665,-7647.66,-18013.68,-25948.53,-6050.385,457.695
1764763356.4019446,-373.545,-2177.415,-27143.19,-7646.04,-18012.239999999998,-25946.415,-6048.63,459.0
1764763356.4019446,-374.715,-2178.945,-27144.36,-7644.195,-18006.12,-25940.07,-6046.514999999999,459.135
1764763356.4019446,-371.52,-2174.535,-27137.115,-7633.394999999999,-17993.475,-25930.53,-6042.15,461.205
1764763356.4019446,-374.76,-2179.62,-27141.39,-7633.889999999999,-17992.395,-25927.83,-6039.855,459.585
1764763356.4019446,-378.585,-2186.82,-27149.85,-7641.63,-17997.21,-25926.57,-6040.53,458.955
1764763356.4019446,-384.84,-2195.37,-27161.235,-7654.679999999999,-18009.315,-25934.445,-6045.705,454.725
1764763356.4019446,-386.595,-2198.97,-27166.815,-7661.79,-18016.74,-25941.24,-6050.07,453.375
1764763356.4019446,-383.355,-2194.155,-27161.55,-7658.82,-18015.705,-25942.815,-6049.844999999999,454.995
1764763356.4019446,-380.745,-2191.995,-27158.715,-7656.84,-18012.465,-25942.86,-6048.09,456.03
1764763356.4019446,-379.89,-2190.33,-27157.455,-7654.995,-18009.09,-25941.465,-6047.19,456.435
1764763356.4019446,-376.065,-2185.065,-27151.29,-7648.38,-18003.015,-25938.09,-6045.03,459.675
1764763356.4019446,-377.82,-2185.155,-27150.615,-7647.525,-18004.905,-25943.13,-6049.62,457.155
1764763356.4506376,-377.685,-2184.12,-27149.67,-7646.67,-18006.66,-25944.705,-6050.745,456.345
1764763356.4506376,-376.56,-2183.13,-27146.34,-7643.835,-18007.11,-25942.77,-6048.945,457.47
1764763356.4506376,-373.59,-2180.025,-27142.2,-7641.09,-18004.545,-25938.99,-6046.514999999999,460.89
1764763356.4506376,-376.875,-2183.535,-27145.935,-7644.24,-18006.03,-25940.88,-6047.955,458.055
1764763356.4506376,-377.415,-2183.4,-27147.375,-7646.804999999999,-18009.315,-25942.365,-6047.594999999999,457.47
1764763356.4506376,-378.405,-2185.65,-27151.29,-7650.945,-18012.329999999998,-25942.5,-6047.325,456.705
1764763356.4506376,-376.695,-2184.525,-27151.515,-7649.73,-18009.09,-25937.145,-6043.77,459.675
1764763356.4506376,-379.215,-2186.28,-27152.055,-7650.269999999999,-18010.665,-25939.305,-6045.435,455.985
1764763356.4506376,-379.485,-2186.19,-27149.22,-7645.139999999999,-18007.155,-25936.335,-6043.86,455.31
1764763356.4506376,-379.215,-2186.01,-27147.465,-7640.639999999999,-18001.71,-25930.845,-6040.8,456.48
1764763356.4506376,-377.19,-2184.21,-27147.33,-7640.235,-17998.965,-25928.235,-6039.719999999999,458.82
1764763356.4506376,-377.235,-2184.48,-27148.185,-7641.315,-17998.695,-25927.515,-6039.179999999999,460.08
1764763356.4506376,-377.055,-2184.93,-27146.925,-7641.179999999999,-17998.245,-25926.885,-6038.054999999999,460.755
1764763356.4506376,-377.37,-2184.93,-27147.465,-7642.17,-18000.585,-25928.91,-6038.37,459.72
1764763356.4506376,-378.585,-2186.01,-27148.725,-7644.599999999999,-18003.96,-25933.455,-6039.675,457.785
1764763356.4506376,-375.165,-2181.69,-27144.135,-7641.764999999999,-18003.329999999998,-25933.59,-6039.719999999999,461.16
1764763356.4506376,-376.965,-2183.85,-27146.97,-7643.924999999999,-18005.445,-25936.425,-6040.665,459.27
1764763356.4506376,-373.77,-2180.79,-27142.965,-7638.21,-18001.53,-25933.68,-6039.179999999999,463.185
1764763356.4506376,-372.33,-2177.955,-27138.87,-7635.285,-18000.899999999998,-25935.03,-6040.215,463.185
1764763356.4506376,-376.515,-2181.555,-27143.235,-7639.469999999999,-18003.465,-25938.45,-6042.33,459.675
1764763356.4506376,-376.875,-2182.68,-27144.765,-7639.559999999999,-18002.88,-25938.27,-6041.474999999999,460.215
1764763356.451647,-371.61,-2178.27,-27141.21,-7639.605,-18000.765,-25935.615,-6037.74,465.705
1764763356.4977462,-366.885,-2173.545,-27140.94,-7641.63,-18003.69,-25933.545,-6036.84,468.495
1764763356.4977462,-365.175,-2166.255,-27137.835,-7641.674999999999,-18007.649999999998,-25938.9,-6039.315,465.57
1764763356.4977462,-361.08,-2159.82,-27130.005,-7636.634999999999,-18005.67,-25940.43,-6037.92,468.0
1764763356.4977462,-361.125,-2162.61,-27128.205,-7635.285,-18001.035,-25937.82,-6035.49,469.44
1764763356.4977462,-372.69,-2181.78,-27142.74,-7644.33,-18002.024999999998,-25936.29,-6038.054999999999,463.545
1764763356.4977462,-382.905,-2202.21,-27158.355,-7655.445,-18010.305,-25940.43,-6042.42,458.37
1764763356.4977462,-386.64,-2204.145,-27159.12,-7659.179999999999,-18017.73,-25947.495,-6045.615,455.535
1764763356.4977462,-383.625,-2194.11,-27153.54,-7653.105,-18013.005,-25944.165,-6045.705,457.74
1764763356.4977462,-383.895,-2190.555,-27153.27,-7651.755,-18011.925,-25942.59,-6046.514999999999,455.355
1764763356.4977462,-377.685,-2184.705,-27150.255,-7648.83,-18008.46,-25940.565,-6045.344999999999,459.135
1764763356.4977462,-374.715,-2184.345,-27153.18,-7652.429999999999,-18010.755,-25943.445,-6046.11,460.44
1764763356.4977462,-377.955,-2188.305,-27156.735,-7658.19,-18015.705,-25947.315,-6047.865,457.245
1764763356.4977462,-375.255,-2183.94,-27150.93,-7653.33,-18012.149999999998,-25945.02,-6046.02,459.63
1764763356.4977462,-375.66,-2182.68,-27148.905,-7650.945,-18010.844999999998,-25945.605,-6045.48,458.595
1764763356.4977462,-371.34,-2178.495,-27145.305,-7647.165,-18008.82,-25942.14,-6042.87,463.32
1764763356.4977462,-373.77,-2182.005,-27150.525,-7654.049999999999,-18016.11,-25947.9,-6045.12,460.62
1764763356.4977462,-371.205,-2181.465,-27151.2,-7653.915,-18013.77,-25944.615,-6043.005,463.23
1764763356.4977462,-371.79,-2182.23,-27150.39,-7650.54,-18009.405,-25940.97,-6041.25,462.51
1764763356.4977462,-371.25,-2178.72,-27144.405,-7641.0,-18002.52,-25934.85,-6037.065,462.735
1764763356.4977462,-373.095,-2179.395,-27142.92,-7639.74,-18002.655,-25934.22,-6036.615,462.105
1764763356.4977462,-372.015,-2177.865,-27142.245,-7639.019999999999,-18002.655,-25934.67,-6036.615,462.42
1764763356.4977462,-375.3,-2180.025,-27144.675,-7640.865,-18003.329999999998,-25936.965,-6038.099999999999,460.17
1764763356.5449488,-371.385,-2175.93,-27140.04,-7636.59,-17998.02,-25931.07,-6034.094999999999,464.805
1764763356.5459943,-372.645,-2177.955,-27142.38,-7638.84,-17996.94,-25928.64,-6031.755,464.58
1764763356.5459943,-374.4,-2181.735,-27146.565,-7643.565,-18000.09,-25930.125,-6031.8,463.77
1764763356.5459943,-371.79,-2180.115,-27146.205,-7641.9,-17997.975,-25927.335,-6029.73,466.965
1764763356.5459943,-372.645,-2179.8,-27146.52,-7643.565,-18000.63,-25930.755,-6031.44,465.525
1764763356.5459943,-373.545,-2178.945,-27145.17,-7645.32,-18007.649999999998,-25939.89,-6036.255,462.015
1764763356.5459943,-366.345,-2168.595,-27132.885,-7635.915,-18005.309999999998,-25940.25,-6034.86,465.12
1764763356.5459943,-360.18,-2158.875,-27120.555,-7623.495,-17997.66,-25935.3,-6031.755,468.855
1764763356.5459943,-360.945,-2160.765,-27123.975,-7625.295,-17997.885,-25933.815,-6031.665,469.575
1764763356.5459943,-374.265,-2181.42,-27149.31,-7647.795,-18009.675,-25940.97,-6038.054999999999,461.07
1764763356.5459943,-382.545,-2196.405,-27168.615,-7662.285,-18015.615,-25943.895,-6041.88,456.03
1764763356.5459943,-377.64,-2188.845,-27160.38,-7658.009999999999,-18015.03,-25944.165,-6041.16,459.81
1764763356.5459943,-375.12,-2185.245,-27155.07,-7656.12,-18015.795,-25945.92,-6040.844999999999,461.295
1764763356.5459943,-376.245,-2187.495,-27157.77,-7658.639999999999,-18019.845,-25948.305,-6041.205,460.035
1764763356.5459943,-378.045,-2187.9,-27157.95,-7658.639999999999,-18023.715,-25950.105,-6040.8,457.83
1764763356.547018,-376.83,-2185.2,-27154.53,-7655.264999999999,-18021.69,-25948.62,-6040.08,458.46
1764763356.547018,-371.07,-2177.325,-27145.035,-7646.085,-18013.274999999998,-25942.545,-6036.435,463.68
1764763356.547018,-372.78,-2178.63,-27144.99,-7645.139999999999,-18009.719999999998,-25940.205,-6037.425,462.285
1764763356.547018,-383.94,-2190.645,-27156.87,-7653.644999999999,-18012.69,-25943.85,-6041.969999999999,453.87
1764763356.547018,-391.545,-2201.04,-27169.785,-7664.49,-18018.99,-25949.655,-6046.29,447.795
1764763356.5895455,-389.655,-2200.995,-27172.08,-7667.639999999999,-18019.845,-25950.24,-6047.505,450.225
1764763356.5895455,-390.015,-2199.285,-27171.315,-7670.295,-18025.02,-25954.74,-6049.53,449.055
1764763356.5895455,-387.855,-2194.92,-27167.67,-7669.394999999999,-18026.775,-25956.225,-6050.205,449.595
1764763356.5895455,-385.065,-2191.5,-27163.17,-7665.21,-18025.785,-25957.665,-6049.304999999999,451.395
1764763356.5895455,-383.895,-2189.88,-27160.605,-7662.78,-18024.66,-25961.85,-6050.52,452.295
1764763356.5895455,-381.96,-2188.89,-27158.805,-7661.429999999999,-18026.145,-25966.305,-6051.645,452.385
1764763356.5895455,-382.77,-2189.475,-27158.94,-7661.655,-18029.88,-25965.945,-6052.41,451.665
1764763356.5895455,-381.87,-2187.315,-27156.825,-7661.565,-18035.82,-25961.715,-6050.969999999999,452.88
1764763356.5895455,-381.465,-2186.91,-27155.925,-7660.259999999999,-18030.15,-25957.53,-6049.665,454.275
1764763356.5895455,-386.28,-2192.805,-27161.28,-7664.535,-18028.08,-25959.015,-6051.33,449.91
1764763356.5895455,-389.835,-2196.945,-27165.69,-7666.92,-18026.55,-25959.195,-6052.094999999999,445.86
1764763356.5895455,-386.865,-2193.12,-27162.0,-7661.205,-18018.72,-25952.67,-6048.405,450.315
1764763356.5905595,-388.08,-2193.345,-27159.66,-7655.715,-18014.265,-25950.825,-6047.415,449.82
1764763356.5905595,-394.605,-2199.555,-27164.79,-7657.245,-18014.49,-25951.32,-6049.215,444.195
1764763356.5905595,-393.345,-2199.015,-27163.485,-7654.455,-18010.844999999998,-25945.155,-6045.12,446.58
1764763356.5905595,-391.41,-2197.53,-27160.83,-7653.96,-18014.265,-25947.135,-6043.905,446.895
1764763356.5905595,-386.73,-2192.22,-27156.195,-7652.924999999999,-18016.605,-25947.27,-6042.599999999999,450.99
1764763356.5905595,-388.755,-2193.615,-27159.39,-7658.46,-18024.705,-25954.29,-6047.865,448.83
1764763356.5905595,-387.765,-2194.38,-27161.82,-7659.63,-18021.105,-25953.12,-6048.315,450.27
1764763356.5905595,-389.97,-2198.205,-27166.365,-7662.15,-18017.64,-25953.03,-6048.405,448.56
1764763356.5905595,-386.955,-2194.065,-27160.605,-7656.75,-18013.77,-25950.78,-6045.48,450.495
1764763356.5905595,-382.455,-2187.45,-27153.54,-7648.2,-18009.27,-25946.73,-6041.429999999999,453.87
1764763356.5905595,-384.975,-2190.6,-27156.195,-7649.415,-18009.945,-25946.865,-6041.52,451.125
1764763356.5905595,-381.915,-2186.64,-27151.2,-7644.105,-18004.545,-25941.285,-6037.02,454.725
1764763356.5905595,-383.715,-2186.865,-27151.47,-7644.014999999999,-18006.84,-25942.05,-6036.57,453.555
1764763356.5905595,-384.705,-2189.295,-27153.9,-7647.615,-18010.89,-25943.31,-6037.785,452.925
1764763356.5905595,-383.355,-2186.595,-27151.965,-7646.715,-18010.755,-25944.48,-6039.27,453.105
1764763356.5905595,-380.52,-2184.12,-27149.22,-7646.174999999999,-18009.63,-25945.02,-6039.585,456.12
1764763356.634016,-378.945,-2186.91,-27157.005,-7655.219999999999,-18013.545,-25946.955,-6040.44,459.72
1764763356.634016,-383.76,-2194.515,-27168.84,-7666.29,-18024.255,-25953.525,-6044.67,456.21
1764763356.634016,-383.445,-2193.705,-27167.445,-7665.344999999999,-18031.905,-25957.17,-6046.38,455.13
1764763356.634016,-380.7,-2190.06,-27163.17,-7663.32,-18033.795,-25957.305,-6045.57,456.075
1764763356.634016,-382.95,-2191.725,-27164.07,-7664.535,-18032.67,-25958.97,-6046.695,453.78
1764763356.6345284,-384.3,-2192.04,-27163.62,-7663.59,-18028.845,-25959.24,-6046.2,452.97
1764763356.6345284,-379.08,-2185.695,-27155.295,-7656.12,-18019.62,-25954.515,-6045.344999999999,457.02
1764763356.6345284,-376.515,-2180.745,-27149.355,-7649.639999999999,-18012.465,-25952.31,-6046.245,457.47
1764763356.6345284,-375.93,-2179.755,-27146.565,-7643.655,-18004.77,-25945.695,-6044.355,457.425
1764763356.6345284,-377.955,-2183.67,-27151.83,-7648.514999999999,-18009.54,-25946.37,-6041.474999999999,457.875
1764763356.6345284,-382.23,-2191.905,-27162.72,-7662.014999999999,-18021.645,-25951.86,-6039.764999999999,456.795
1764763356.6345284,-388.89,-2199.375,-27170.865,-7672.815,-18032.49,-25959.24,-6044.31,451.26
1764763356.6345284,-385.92,-2193.705,-27164.475,-7669.08,-18032.445,-25954.785,-6041.835,453.015
1764763356.6345284,-380.205,-2187.63,-27158.04,-7661.025,-18028.575,-25947.675,-6036.929999999999,458.46
1764763356.6345284,-380.475,-2189.52,-27161.145,-7663.724999999999,-18031.725,-25950.78,-6037.469999999999,458.325
1764763356.6345284,-379.035,-2189.52,-27161.01,-7662.33,-18024.795,-25946.235,-6035.4,460.26
1764763356.6355472,-383.49,-2194.38,-27164.385,-7663.724999999999,-18020.88,-25944.12,-6035.94,455.535
1764763356.6355472,-378.27,-2187.855,-27157.32,-7658.054999999999,-18014.49,-25944.21,-6036.974999999999,459.18
1764763356.6355472,-376.29,-2184.21,-27151.38,-7648.74,-18005.895,-25943.355,-6036.66,459.27
1764763356.6355472,-373.86,-2180.88,-27146.34,-7639.245,-17995.454999999998,-25934.67,-6032.61,462.015
1764763356.6355472,-375.57,-2185.245,-27151.515,-7642.53,-17996.579999999998,-25931.295,-6029.73,461.16
1764763356.6355472,-382.725,-2192.355,-27157.32,-7646.67,-17999.64,-25932.915,-6031.665,455.175
1764763356.6355472,-380.745,-2187.99,-27152.055,-7639.155,-17994.239999999998,-25927.47,-6029.955,457.605
1764763356.6355472,-382.32,-2189.79,-27154.125,-7641.45,-17997.165,-25931.79,-6031.304999999999,455.76
1764763356.681432,-381.78,-2189.97,-27154.44,-7644.014999999999,-18000.989999999998,-25935.705,-6032.925,456.48
1764763356.681432,-376.155,-2182.05,-27144.045,-7632.99,-17994.51,-25930.62,-6030.45,460.755
1764763356.681432,-373.275,-2176.74,-27137.115,-7627.139999999999,-17991.63,-25929.405,-6028.155,462.42
1764763356.681432,-374.265,-2177.28,-27137.565,-7628.174999999999,-17992.215,-25929.675,-6027.389999999999,460.845
1764763356.681432,-375.615,-2183.175,-27146.25,-7636.769999999999,-17994.195,-25926.615,-6026.13,462.33
1764763356.681432,-380.88,-2192.04,-27159.03,-7650.179999999999,-18002.7,-25930.395,-6028.425,459.315
1764763356.681432,-380.025,-2192.13,-27161.055,-7653.33,-18007.425,-25933.455,-6029.73,460.26
1764763356.681432,-382.59,-2195.1,-27162.36,-7656.389999999999,-18012.195,-25938.405,-6031.844999999999,456.435
1764763356.681432,-377.145,-2188.26,-27154.89,-7649.91,-18008.46,-25935.48,-6029.28,460.755
1764763356.681432,-379.485,-2189.88,-27156.465,-7651.755,-18012.915,-25940.295,-6031.71,457.605
1764763356.681432,-380.16,-2190.285,-27157.005,-7651.98,-18014.85,-25943.67,-6034.455,455.58
1764763356.681432,-378.945,-2188.62,-27154.665,-7650.315,-18013.005,-25943.895,-6035.31,456.075
1764763356.681432,-378.27,-2188.215,-27154.395,-7650.09,-18011.204999999998,-25941.78,-6035.04,457.74
1764763356.681432,-383.31,-2196.72,-27163.755,-7659.45,-18022.68,-25948.98,-6039.54,454.275
1764763356.681432,-378.99,-2191.545,-27159.165,-7656.705,-18027.045,-25950.24,-6040.08,457.425
1764763356.681432,-377.37,-2186.955,-27153.99,-7652.115,-18022.14,-25953.03,-6039.54,457.155
1764763356.681432,-373.32,-2181.105,-27148.995,-7647.705,-18013.725,-25950.15,-6038.099999999999,460.26
1764763356.6819494,-377.685,-2185.38,-27153.27,-7652.565,-18016.695,-25951.545,-6038.865,456.66
1764763356.6819494,-370.98,-2177.46,-27145.08,-7644.554999999999,-18015.84,-25947.765,-6032.565,464.22
1764763356.6819494,-367.695,-2173.905,-27139.815,-7639.514999999999,-18013.815,-25948.62,-6029.73,466.245
1764763356.6819494,-372.915,-2181.555,-27148.635,-7647.12,-18014.13,-25950.24,-6030.27,462.51
1764763356.6819494,-379.305,-2188.845,-27154.935,-7651.125,-18012.645,-25947.855,-6032.745,456.525
1764763356.7278528,-377.73,-2187.18,-27151.515,-7644.465,-18003.555,-25938.45,-6030.54,458.37
1764763356.7278528,-382.23,-2191.905,-27156.24,-7648.245,-18004.005,-25935.39,-6030.81,454.635
1764763356.7278528,-381.915,-2191.23,-27157.32,-7648.965,-18000.945,-25930.755,-6030.585,455.715
1764763356.7278528,-383.94,-2193.57,-27161.73,-7654.95,-18003.78,-25932.555,-6032.115,453.33
1764763356.7278528,-379.665,-2189.655,-27158.355,-7655.985,-18006.614999999998,-25932.915,-6030.945,457.38
1764763356.7278528,-378.99,-2188.215,-27156.375,-7656.795,-18008.91,-25932.735,-6030.135,457.56
1764763356.7278528,-379.755,-2188.125,-27155.295,-7655.58,-18007.559999999998,-25929.045,-6027.344999999999,458.145
1764763356.7278528,-381.15,-2190.24,-27156.915,-7656.84,-18012.195,-25932.15,-6028.605,456.615
1764763356.7278528,-385.74,-2195.19,-27162.675,-7662.195,-18021.6,-25939.665,-6031.755,452.07
1764763356.7278528,-386.505,-2196.09,-27163.665,-7661.79,-18023.31,-25942.545,-6034.005,450.945
1764763356.728378,-382.185,-2190.42,-27155.655,-7651.665,-18015.39,-25937.955,-6031.215,455.4
1764763356.728378,-381.42,-2190.015,-27156.465,-7651.17,-18014.58,-25937.415,-6028.469999999999,456.705
1764763356.728378,-377.64,-2187.18,-27155.07,-7649.46,-18008.19,-25934.04,-6026.355,460.71
1764763356.728378,-379.395,-2188.17,-27154.395,-7649.37,-18006.165,-25937.775,-6030.09,458.235
1764763356.728378,-379.53,-2186.37,-27151.335,-7644.825,-18003.465,-25936.38,-6031.8,457.695
1764763356.728378,-384.345,-2190.51,-27153.27,-7644.644999999999,-18006.075,-25939.08,-6033.78,452.745
1764763356.7745552,-383.22,-2189.34,-27150.615,-7643.025,-18004.14,-25936.515,-6031.08,454.185
1764763356.7745552,-383.58,-2189.745,-27152.82,-7644.465,-18001.215,-25934.445,-6030.179999999999,454.905
1764763356.7750587,-383.04,-2189.43,-27154.485,-7646.67,-17999.415,-25931.34,-6027.165,456.255
1764763356.7750587,-382.32,-2188.845,-27154.44,-7646.58,-17998.29,-25928.73,-6024.96,457.335
1764763356.7750587,-382.995,-2189.61,-27155.07,-7646.94,-17998.559999999998,-25927.02,-6023.88,457.245
1764763356.7750587,-382.815,-2189.565,-27152.505,-7643.429999999999,-17996.67,-25924.815,-6023.16,456.435
1764763356.7755709,-382.77,-2188.755,-27150.615,-7642.304999999999,-17998.605,-25927.74,-6024.645,455.31
1764763356.7755709,-382.815,-2189.52,-27153.315,-7645.679999999999,-18002.79,-25931.79,-6026.715,455.58
1764763356.7755709,-382.005,-2191.095,-27156.24,-7648.065,-18002.565,-25930.35,-6026.58,457.425
1764763356.7755709,-388.08,-2199.105,-27166.23,-7657.469999999999,-18008.73,-25936.335,-6031.395,452.16
1764763356.7755709,-392.445,-2202.615,-27170.28,-7662.915,-18012.329999999998,-25942.995,-6037.02,446.985
1764763356.7755709,-389.88,-2198.655,-27166.23,-7661.295,-18013.635,-25945.65,-6039.99,448.02
1764763356.7765868,-390.87,-2198.97,-27167.13,-7662.915,-18018.72,-25949.88,-6042.195,446.355
1764763356.7765868,-388.395,-2197.755,-27166.995,-7662.644999999999,-18018.765,-25948.215,-6040.215,447.93
1764763356.7765868,-390.195,-2198.925,-27167.355,-7661.7,-18018.045,-25946.685,-6038.505,446.715
1764763356.7765868,-386.19,-2193.705,-27160.065,-7656.075,-18014.265,-25938.495,-6034.139999999999,450.45
1764763356.7765868,-386.235,-2192.715,-27158.76,-7655.085,-18014.67,-25934.895,-6032.115,449.595
1764763356.7765868,-376.74,-2180.745,-27144.0,-7640.054999999999,-18001.98,-25924.005,-6023.88,457.245
1764763356.7765868,-371.52,-2173.905,-27135.27,-7629.12,-17992.125,-25918.74,-6016.094999999999,462.51
1764763356.7765868,-380.835,-2186.73,-27149.895,-7640.37,-17997.12,-25924.68,-6019.785,456.57
1764763356.7765868,-381.78,-2189.835,-27153.18,-7643.115,-17995.364999999998,-25920.855,-6019.245,457.515
1764763356.7775831,-386.28,-2195.865,-27160.695,-7650.269999999999,-17999.594999999998,-25921.395,-6021.179999999999,454.095
1764763356.7775831,-392.31,-2204.055,-27170.145,-7659.63,-18006.165,-25924.365,-6024.42,448.695
1764763356.7775831,-390.33,-2200.32,-27165.87,-7655.264999999999,-18004.77,-25923.69,-6025.005,449.685
1764763356.7775831,-385.83,-2195.19,-27159.3,-7650.585,-18000.54,-25919.73,-6022.304999999999,452.97
1764763356.7775831,-382.41,-2190.6,-27155.295,-7647.795,-17999.055,-25920.09,-6022.08,455.805
1764763356.7775831,-375.57,-2182.77,-27146.745,-7638.929999999999,-17993.43,-25916.76,-6018.615,461.385
1764763356.7775831,-377.145,-2184.345,-27146.34,-7640.28,-17997.48,-25921.305,-6020.505,458.505
1764763356.7775831,-371.43,-2178.09,-27140.85,-7638.795,-18003.915,-25920.18,-6018.929999999999,462.87
1764763356.7775831,-375.21,-2183.265,-27147.915,-7647.884999999999,-18016.605,-25927.695,-6022.71,458.82
1764763356.824049,-378.45,-2189.07,-27153.99,-7652.429999999999,-18012.735,-25927.38,-6023.835,457.92
1764763356.824049,-380.61,-2191.905,-27157.32,-7654.094999999999,-18010.934999999998,-25930.305,-6025.724999999999,456.03
1764763356.824049,-380.115,-2191.32,-27156.33,-7653.42,-18010.62,-25933.23,-6025.77,456.705
1764763356.824049,-385.02,-2199.06,-27167.49,-7662.735,-18015.03,-25938.495,-6029.37,453.87
1764763356.824049,-387.855,-2201.265,-27171.45,-7666.155,-18018.765,-25947.72,-6036.435,450.36
1764763356.824049,-380.115,-2190.6,-27160.065,-7657.38,-18018.495,-25948.17,-6036.929999999999,456.03
1764763356.824049,-377.865,-2186.865,-27156.78,-7656.57,-18025.92,-25947.81,-6036.344999999999,457.92
1764763356.824049,-377.415,-2185.02,-27157.005,-7656.075,-18025.74,-25944.345,-6033.465,457.785
1764763356.824049,-380.07,-2186.865,-27157.14,-7653.69,-18015.345,-25935.57,-6029.505,455.49
1764763356.824049,-387.36,-2194.92,-27161.28,-7656.165,-18013.995,-25934.94,-6030.855,449.325
1764763356.824049,-381.195,-2186.415,-27149.895,-7644.87,-18004.635,-25926.93,-6025.094999999999,454.32
1764763356.824049,-382.635,-2188.125,-27150.66,-7645.769999999999,-18003.42,-25928.82,-6022.98,452.745
1764763356.824049,-387.0,-2196.495,-27162.63,-7657.424999999999,-18005.265,-25932.51,-6025.86,450.675
1764763356.824049,-394.065,-2205.315,-27173.655,-7669.17,-18015.66,-25943.04,-6032.429999999999,445.185
1764763356.824049,-393.39,-2203.425,-27171.855,-7668.0,-18017.595,-25944.345,-6034.995,445.41
1764763356.824049,-392.085,-2201.58,-27170.19,-7666.065,-18020.205,-25942.905,-6035.13,446.4
1764763356.824049,-388.935,-2198.52,-27167.22,-7664.535,-18025.29,-25939.935,-6033.42,449.235
1764763356.824049,-386.37,-2195.055,-27161.415,-7658.775,-18024.12,-25934.22,-6029.73,450.9
1764763356.824049,-386.145,-2194.02,-27159.12,-7654.005,-18016.83,-25928.415,-6025.995,450.945
1764763356.824049,-392.04,-2201.445,-27166.545,-7659.0,-18014.715,-25932.06,-6028.245,446.445
1764763356.824049,-400.23,-2211.345,-27178.02,-7668.0,-18016.695,-25938.405,-6033.69,439.605
1764763356.824049,-401.355,-2211.885,-27178.515,-7666.559999999999,-18013.005,-25938.855,-6037.514999999999,437.67
1764763356.870904,-397.665,-2207.16,-27170.1,-7656.929999999999,-18006.75,-25935.165,-6033.78,440.595
1764763356.870904,-389.97,-2196.675,-27156.825,-7644.465,-17998.38,-25928.37,-6027.929999999999,447.795
1764763356.870904,-389.52,-2195.73,-27157.59,-7647.705,-18004.14,-25933.815,-6030.0,446.76
1764763356.870904,-390.6,-2198.52,-27163.44,-7655.4,-18009.54,-25935.39,-6030.855,446.31
1764763356.870904,-391.59,-2201.445,-27166.77,-7657.469999999999,-18006.795,-25929.765,-6029.054999999999,447.48
1764763356.870904,-390.42,-2198.88,-27163.08,-7652.61,-18002.52,-25926.345,-6026.49,449.055
1764763356.870904,-390.825,-2198.205,-27161.145,-7652.969999999999,-18006.255,-25929.63,-6027.615,447.795
1764763356.870904,-394.92,-2201.445,-27165.015,-7657.38,-18014.58,-25937.1,-6032.16,442.755
1764763356.870904,-394.92,-2199.195,-27161.775,-7654.59,-18013.905,-25936.47,-6031.98,443.16
1764763356.870904,-391.86,-2195.46,-27157.68,-7650.764999999999,-18011.295,-25933.365,-6030.63,445.68
1764763356.870904,-387.45,-2191.14,-27153.495,-7647.57,-18008.774999999998,-25929.9,-6027.03,449.91
1764763356.870904,-393.48,-2201.94,-27168.255,-7660.349999999999,-18013.23,-25931.655,-6028.065,446.85
1764763356.870904,-396.765,-2207.205,-27175.635,-7667.009999999999,-18015.84,-25932.915,-6029.73,445.185
1764763356.870904,-396.54,-2207.295,-27175.545,-7667.82,-18016.2,-25934.22,-6031.53,444.78
1764763356.870904,-397.62,-2208.06,-27175.635,-7668.719999999999,-18019.26,-25936.83,-6031.665,443.43
1764763356.8719308,-391.32,-2200.005,-27165.555,-7658.054999999999,-18010.89,-25928.955,-6026.13,449.685
1764763356.8719308,-389.565,-2196.54,-27161.955,-7654.724999999999,-18010.44,-25927.695,-6025.635,450.405
1764763356.8719308,-394.38,-2201.31,-27166.95,-7660.53,-18016.695,-25935.165,-6031.395,445.05
1764763356.8719308,-391.995,-2200.365,-27166.59,-7660.62,-18014.94,-25935.615,-6031.395,446.13
1764763356.8719308,-390.195,-2197.935,-27164.295,-7659.0,-18013.274999999998,-25934.625,-6030.719999999999,447.885
1764763356.8719308,-389.88,-2197.035,-27163.17,-7658.82,-18016.695,-25938.315,-6032.205,446.985
1764763356.8719308,-393.48,-2199.78,-27167.445,-7661.474999999999,-18018.945,-25942.14,-6033.69,443.25
1764763356.8719308,-394.11,-2200.59,-27168.075,-7661.429999999999,-18018.405,-25940.07,-6032.745,443.97
1764763356.8719308,-389.655,-2195.505,-27161.955,-7656.57,-18015.165,-25936.785,-6031.349999999999,447.12
1764763356.9183462,-390.15,-2196.18,-27162.27,-7656.795,-18014.85,-25936.875,-6031.71,446.625
1764763356.9183462,-388.53,-2193.615,-27157.68,-7650.764999999999,-18008.145,-25931.835,-6028.56,448.11
1764763356.9183462,-389.16,-2193.435,-27157.005,-7649.37,-18005.535,-25930.215,-6027.48,447.345
1764763356.9183462,-394.605,-2201.265,-27165.51,-7657.65,-18010.934999999998,-25933.14,-6030.224999999999,443.61
1764763356.9183462,-400.23,-2210.04,-27176.49,-7666.605,-18016.11,-25935.255,-6031.304999999999,439.92
1764763356.9183462,-395.595,-2205.27,-27170.955,-7660.665,-18010.395,-25929.855,-6028.155,444.915
1764763356.9183462,-393.93,-2201.805,-27166.32,-7657.92,-18009.54,-25930.305,-6027.885,445.815
1764763356.9183462,-398.16,-2204.865,-27171.045,-7662.69,-18015.39,-25936.56,-6030.945,441.585
1764763356.9183462,-396.9,-2203.515,-27169.02,-7661.745,-18015.525,-25936.605,-6031.53,441.585
1764763356.9183462,-395.145,-2202.075,-27167.985,-7662.014999999999,-18015.705,-25936.605,-6030.585,443.61
1764763356.9183462,-390.825,-2196.99,-27162.36,-7657.605,-18014.265,-25934.94,-6030.495,446.625
1764763356.9183462,-380.97,-2186.19,-27149.805,-7646.58,-18007.695,-25930.755,-6026.94,453.645
1764763356.9183462,-380.43,-2186.73,-27152.28,-7651.62,-18014.85,-25936.605,-6026.445,453.96
1764763356.9183462,-390.645,-2199.24,-27168.03,-7666.695,-18027.315,-25947.765,-6032.565,446.85
1764763356.9183462,-388.845,-2198.07,-27167.265,-7665.84,-18024.795,-25947.765,-6033.915,449.235
1764763356.9183462,-386.64,-2194.875,-27163.215,-7662.69,-18022.095,-25948.8,-6036.344999999999,449.235
1764763356.9183462,-387.495,-2193.93,-27161.055,-7662.509999999999,-18024.03,-25954.56,-6041.474999999999,446.355
1764763356.9183462,-388.665,-2195.325,-27164.475,-7669.08,-18035.415,-25958.43,-6043.59,446.4
1764763356.9183462,-391.455,-2201.04,-27172.89,-7678.035,-18042.795,-25956.765,-6043.23,445.005
1764763356.9198594,-392.715,-2202.84,-27174.87,-7677.674999999999,-18034.515,-25950.105,-6040.26,445.725
1764763356.9198594,-396.765,-2206.98,-27179.055,-7679.115,-18032.895,-25952.4,-6040.62,442.125
1764763356.9198594,-393.57,-2204.055,-27174.375,-7671.69,-18024.525,-25946.505,-6035.58,445.14
1764763356.9622366,-389.115,-2197.935,-27167.22,-7663.365,-18016.38,-25938.495,-6029.73,450.495
1764763356.9622366,-393.03,-2201.535,-27170.19,-7666.514999999999,-18017.55,-25940.52,-6031.8,447.165
1764763356.9622366,-398.79,-2207.925,-27175.95,-7668.99,-18019.485,-25941.69,-6033.42,441.72
1764763356.9622366,-397.89,-2207.655,-27173.025,-7664.445,-18018.675,-25935.93,-6029.19,443.025
1764763356.9622366,-392.355,-2200.365,-27165.15,-7657.469999999999,-18018.54,-25933.905,-6026.76,447.48
1764763356.9622366,-392.76,-2200.545,-27164.34,-7657.695,-18019.125,-25938.36,-6029.865,445.32
1764763356.9622366,-388.305,-2194.11,-27157.995,-7651.44,-18011.34,-25936.065,-6028.74,449.46
1764763356.9622366,-391.005,-2196.225,-27161.82,-7655.58,-18014.219999999998,-25940.07,-6030.54,448.56
1764763356.9622366,-396.09,-2204.64,-27173.475,-7666.155,-18020.34,-25944.345,-6032.88,446.13
1764763356.9622366,-395.415,-2204.595,-27173.205,-7667.144999999999,-18021.87,-25946.685,-6034.32,446.4
1764763356.9622366,-391.005,-2198.43,-27167.895,-7666.065,-18025.92,-25950.87,-6035.4,447.705
1764763356.9622366,-392.13,-2198.61,-27168.615,-7671.735,-18034.515,-25958.295,-6038.955,445.725
1764763356.9622366,-392.805,-2199.015,-27169.83,-7674.75,-18037.08,-25962.435,-6039.63,444.285
1764763356.9622366,-392.22,-2197.305,-27166.365,-7670.969999999999,-18031.95,-25959.42,-6038.82,445.005
1764763356.9627578,-392.31,-2196.945,-27164.655,-7666.605,-18025.11,-25955.145,-6038.01,445.86
1764763356.9627578,-390.465,-2194.29,-27161.415,-7660.08,-18018.63,-25951.23,-6036.615,446.22
1764763356.9627578,-388.575,-2191.905,-27156.69,-7651.215,-18011.204999999998,-25942.725,-6032.205,448.785
1764763356.9627578,-390.24,-2194.335,-27158.805,-7652.565,-18013.454999999998,-25942.905,-6031.349999999999,448.02
1764763356.9627578,-395.01,-2199.78,-27165.87,-7658.955,-18018.81,-25946.865,-6033.554999999999,443.97
1764763356.9627578,-391.77,-2197.125,-27163.665,-7655.445,-18015.84,-25944.21,-6031.53,447.66
1764763356.9638572,-389.07,-2192.13,-27156.465,-7648.469999999999,-18013.14,-25944.03,-6030.45,449.01
1764763356.9638572,-390.69,-2191.905,-27155.88,-7649.009999999999,-18016.02,-25948.89,-6033.465,446.94
1764763356.9638572,-391.905,-2195.145,-27160.965,-7654.724999999999,-18019.215,-25952.22,-6035.13,446.67
1764763356.9638572,-393.435,-2197.98,-27165.15,-7658.73,-18019.98,-25955.595,-6038.19,445.05
1764763356.9638572,-394.605,-2201.715,-27169.02,-7663.005,-18023.67,-25959.915,-6041.745,444.15
1764763356.9638572,-394.335,-2202.615,-27169.47,-7664.445,-18027.585,-25962.84,-6043.23,444.42
1764763357.0099618,-390.915,-2195.64,-27161.73,-7658.91,-18025.47,-25961.13,-6041.16,447.435
1764763357.0099618,-388.845,-2192.76,-27159.795,-7659.63,-18028.755,-25965.27,-6039.36,448.56
1764763357.0099618,-390.735,-2196.585,-27165.375,-7667.009999999999,-18036.945,-25974.9,-6040.395,446.76
1764763357.0099618,-390.465,-2198.16,-27168.435,-7668.674999999999,-18036.045,-25972.335,-6039.224999999999,448.785
1764763357.0099618,-392.715,-2201.085,-27173.115,-7671.195,-18035.28,-25968.015,-6038.28,447.12
1764763357.0099618,-396.765,-2203.605,-27176.265,-7673.759999999999,-18039.015,-25970.265,-6040.844999999999,442.935
1764763357.0099618,-392.94,-2198.88,-27168.48,-7666.74,-18034.29,-25965.135,-6039.09,445.635
1764763357.0104775,-396.945,-2201.805,-27169.515,-7668.54,-18035.64,-25965.45,-6041.34,441.45
1764763357.0104775,-397.395,-2202.39,-27171.225,-7670.295,-18035.055,-25965.225,-6041.88,442.08
1764763357.0104775,-392.67,-2196.765,-27167.67,-7668.315,-18034.56,-25967.88,-6042.42,446.805
1764763357.0104775,-389.97,-2194.56,-27165.645,-7669.125,-18039.78,-25973.865,-6045.75,448.02
1764763357.0104775,-391.32,-2196.18,-27168.48,-7673.985,-18047.115,-25982.46,-6049.935,445.545
1764763357.0104775,-390.33,-2195.37,-27168.165,-7673.445,-18045.405,-25981.515,-6048.495,447.21
1764763357.0104775,-393.66,-2197.755,-27168.48,-7669.575,-18041.49,-25976.88,-6044.76,444.735
1764763357.0104775,-391.725,-2196.315,-27163.665,-7659.99,-18032.175,-25966.62,-6038.82,447.885
1764763357.0104775,-397.53,-2201.76,-27167.175,-7661.16,-18032.67,-25969.14,-6040.62,443.745
1764763357.0104775,-395.73,-2199.51,-27163.845,-7657.74,-18028.62,-25966.755,-6038.325,444.465
1764763357.0104775,-395.19,-2199.69,-27163.98,-7657.469999999999,-18025.92,-25963.335,-6035.58,446.31
1764763357.0104775,-392.355,-2195.73,-27158.625,-7652.429999999999,-18022.59,-25961.22,-6033.195,449.37
1764763357.0104775,-390.555,-2194.83,-27158.355,-7652.115,-18022.005,-25959.465,-6031.395,452.61
1764763357.0104775,-394.02,-2199.69,-27164.565,-7656.974999999999,-18023.58,-25961.535,-6034.365,449.73
1764763357.0104775,-393.39,-2197.845,-27161.505,-7654.905,-18023.67,-25963.695,-6036.03,449.775
1764763357.0564358,-392.67,-2196.585,-27162.18,-7657.785,-18029.835,-25971.705,-6039.27,450.405
1764763357.0564358,-392.625,-2195.595,-27162.27,-7660.575,-18033.795,-25978.185,-6042.78,448.02
1764763357.0564358,-384.975,-2187.18,-27153.54,-7654.005,-18031.68,-25976.07,-6039.99,452.97
1764763357.0564358,-386.28,-2188.755,-27155.7,-7659.0,-18040.365,-25979.85,-6041.969999999999,452.655
1764763357.0564358,-389.79,-2194.245,-27162.99,-7666.83,-18046.98,-25982.37,-6043.679999999999,450.63
1764763357.0564358,-391.68,-2196.72,-27164.925,-7668.315,-18046.755,-25984.98,-6045.615,447.795
1764763357.0564358,-387.72,-2191.5,-27159.93,-7663.995,-18038.88,-25984.845,-6046.02,451.035
1764763357.0564358,-392.13,-2197.17,-27167.04,-7670.924999999999,-18045.81,-25991.37,-6048.405,448.695
1764763357.0564358,-393.12,-2199.96,-27171.63,-7676.775,-18062.415,-25994.61,-6049.844999999999,448.155
1764763357.0564358,-390.465,-2195.91,-27166.5,-7673.445,-18064.395,-25997.715,-6051.78,448.245
1764763357.0564358,-386.73,-2189.835,-27159.48,-7666.245,-18053.865,-25996.365,-6049.304999999999,450.495
1764763357.0564358,-382.185,-2184.93,-27154.395,-7659.495,-18042.345,-25991.1,-6044.04,454.185
1764763357.0564358,-381.465,-2185.155,-27154.935,-7658.19,-18035.505,-25988.04,-6040.755,456.795
1764763357.0564358,-391.77,-2195.775,-27166.59,-7667.684999999999,-18041.49,-25995.24,-6045.389999999999,448.335
1764763357.0564358,-394.065,-2198.835,-27168.975,-7665.615,-18036.675,-25991.055,-6045.795,446.175
1764763357.0564358,-394.02,-2198.07,-27164.25,-7658.865,-18030.555,-25982.01,-6042.105,446.67
1764763357.0564358,-393.705,-2196.27,-27160.245,-7654.59,-18025.65,-25974.18,-6037.695,448.155
1764763357.0564358,-390.42,-2191.455,-27154.53,-7647.389999999999,-18017.19,-25966.305,-6034.32,451.035
1764763357.0569525,-396.36,-2198.79,-27163.17,-7655.58,-18024.21,-25969.275,-6035.895,446.085
1764763357.0569525,-399.465,-2202.795,-27170.055,-7662.42,-18028.08,-25970.175,-6038.145,444.42
1764763357.0569525,-397.62,-2199.33,-27166.365,-7659.945,-18028.215,-25971.255,-6038.054999999999,445.545
1764763357.0569525,-391.41,-2192.625,-27158.13,-7654.139999999999,-18024.21,-25969.455,-6035.4,450.36
1764763357.103516,-388.845,-2190.375,-27155.925,-7655.04,-18025.38,-25971.12,-6035.445,451.89
1764763357.103516,-392.67,-2194.515,-27162.045,-7663.455,-18033.84,-25976.97,-6039.99,447.885
1764763357.103516,-391.59,-2193.03,-27161.64,-7665.929999999999,-18038.88,-25980.84,-6041.205,449.1
1764763357.103516,-390.87,-2191.995,-27160.38,-7668.0,-18044.19,-25986.33,-6042.465,449.55
1764763357.103516,-386.64,-2188.305,-27157.905,-7668.045,-18044.19,-25985.97,-6040.844999999999,454.185
1764763357.1050377,-386.955,-2189.52,-27160.47,-7669.215,-18047.43,-25990.515,-6043.185,453.195
1764763357.1050377,-391.365,-2193.795,-27165.915,-7671.42,-18051.66,-25995.78,-6047.505,447.795
1764763357.1050377,-393.165,-2194.695,-27164.88,-7667.82,-18047.295,-25994.205,-6048.54,446.4
1764763357.1050377,-390.87,-2190.87,-27159.075,-7659.405,-18038.655,-25988.715,-6047.054999999999,447.48
1764763357.1050377,-385.155,-2185.155,-27151.02,-7649.505,-18030.915,-25979.31,-6039.855,454.23
1764763357.1050377,-385.38,-2185.245,-27149.985,-7647.48,-18027.9,-25974.09,-6036.48,454.23
1764763357.1050377,-391.77,-2194.965,-27160.515,-7656.795,-18031.995,-25976.61,-6039.45,448.875
1764763357.1050377,-395.64,-2199.915,-27166.77,-7662.554999999999,-18034.74,-25979.265,-6041.969999999999,446.13
1764763357.1050377,-398.79,-2203.335,-27169.83,-7665.615,-18038.205,-25984.845,-6045.929999999999,442.935
1764763357.1050377,-395.28,-2197.89,-27164.97,-7662.554999999999,-18037.53,-25983.765,-6045.615,445.995
1764763357.1050377,-396.0,-2198.205,-27165.24,-7665.03,-18042.57,-25987.365,-6046.29,444.87
1764763357.1050377,-395.28,-2197.665,-27166.185,-7666.65,-18045.945,-25986.915,-6044.31,446.13
1764763357.1050377,-391.14,-2193.03,-27161.685,-7663.905,-18046.53,-25986.69,-6043.32,449.46
1764763357.1050377,-387.99,-2188.62,-27155.745,-7659.134999999999,-18044.595,-25987.77,-6042.78,451.08
1764763357.1050377,-386.055,-2186.46,-27152.82,-7656.344999999999,-18041.04,-25986.285,-6041.07,451.35
1764763357.1050377,-388.395,-2189.655,-27157.95,-7660.844999999999,-18040.365,-25986.105,-6042.465,450.495
1764763357.1050377,-392.895,-2194.65,-27163.44,-7666.74,-18044.055,-25990.695,-6045.885,447.12
1764763357.1050377,-394.47,-2196.63,-27164.745,-7667.73,-18044.19,-25989.795,-6045.03,444.915
1764763357.1050377,-395.145,-2198.115,-27169.155,-7669.799999999999,-18041.49,-25985.205,-6043.95,446.535
1764763357.1050377,-398.07,-2201.445,-27172.845,-7673.445,-18044.82,-25987.05,-6045.12,444.105
1764763357.1050377,-396.09,-2199.465,-27170.91,-7672.59,-18046.755,-25984.8,-6043.365,445.905
1764763357.1486516,-396.09,-2199.735,-27171.405,-7673.219999999999,-18047.88,-25983.27,-6041.429999999999,446.085
1764763357.1486516,-398.745,-2202.66,-27173.07,-7673.04,-18047.16,-25985.34,-6041.205,443.925
1764763357.1486516,-398.565,-2202.39,-27172.08,-7671.15,-18047.97,-25990.02,-6042.78,443.7
1764763357.1486516,-394.155,-2197.17,-27165.51,-7665.884999999999,-18046.08,-25990.38,-6043.365,446.445
1764763357.1486516,-389.97,-2192.31,-27159.435,-7661.969999999999,-18042.84,-25985.925,-6041.88,450.9
1764763357.1486516,-393.615,-2195.28,-27162.315,-7665.344999999999,-18046.17,-25986.78,-6044.13,447.525
1764763357.1486516,-392.085,-2193.84,-27160.965,-7662.735,-18042.48,-25980.03,-6040.53,449.685
1764763357.1486516,-395.505,-2196.225,-27163.17,-7663.365,-18040.095,-25978.23,-6039.9,445.995
1764763357.1486516,-395.91,-2195.64,-27162.27,-7661.745,-18034.155,-25972.245,-6037.38,444.645
1764763357.1486516,-397.53,-2197.62,-27165.87,-7665.344999999999,-18035.28,-25972.83,-6036.705,443.79
1764763357.1486516,-396.99,-2196.765,-27163.44,-7662.915,-18034.875,-25971.525,-6034.139999999999,444.915
1764763357.1486516,-391.14,-2189.16,-27154.125,-7656.48,-18040.545,-25967.025,-6029.19,450.9
1764763357.1486516,-392.805,-2191.905,-27158.805,-7666.29,-18063.99,-25972.56,-6030.27,450.495
1764763357.1486516,-390.915,-2195.73,-27166.725,-7677.09,-18065.52,-25974.045,-6030.315,452.88
1764763357.1486516,-394.245,-2201.58,-27175.365,-7685.505,-18057.69,-25977.285,-6032.52,450.45
1764763357.1486516,-396.99,-2203.335,-27177.48,-7685.594999999999,-18051.39,-25980.93,-6037.335,446.445
1764763357.1486516,-395.415,-2200.905,-27174.6,-7680.24,-18045.045,-25980.165,-6037.65,446.535
1764763357.1486516,-397.215,-2202.795,-27175.095,-7677.764999999999,-18041.94,-25980.165,-6038.37,445.185
1764763357.1486516,-398.34,-2202.39,-27172.485,-7670.61,-18034.245,-25976.655,-6038.55,443.475
1764763357.1486516,-398.385,-2200.68,-27168.21,-7665.03,-18033.21,-25976.205,-6037.56,443.43
1764763357.1486516,-395.505,-2196.09,-27162.27,-7658.19,-18031.32,-25974.99,-6036.3,446.175
1764763357.1486516,-389.925,-2188.26,-27151.425,-7646.94,-18023.715,-25967.655,-6032.07,449.55
1764763357.1954305,-391.725,-2188.71,-27149.13,-7644.599999999999,-18022.77,-25964.505,-6030.27,447.705
1764763357.1954305,-387.045,-2186.19,-27147.825,-7645.005,-18025.29,-25962.165,-6027.929999999999,451.98
1764763357.1954305,-387.675,-2191.32,-27156.33,-7654.724999999999,-18032.985,-25969.41,-6032.61,452.025
1764763357.1954305,-391.32,-2195.145,-27161.595,-7661.7,-18038.07,-25977.06,-6038.01,448.83
1764763357.1954305,-392.67,-2196.54,-27163.89,-7663.905,-18043.29,-25979.85,-6037.11,447.435
1764763357.1954305,-393.03,-2198.07,-27167.805,-7667.505,-18043.29,-25976.205,-6034.995,448.47
1764763357.1954305,-397.35,-2201.76,-27171.09,-7672.365,-18045.405,-25977.15,-6035.76,445.5
1764763357.1954305,-394.56,-2197.53,-27165.825,-7668.315,-18040.275,-25971.435,-6032.115,447.93
1764763357.1954305,-393.66,-2195.955,-27162.72,-7664.715,-18034.29,-25965.09,-6029.55,447.885
1764763357.1954305,-395.28,-2197.215,-27163.98,-7663.995,-18037.395,-25966.44,-6029.145,447.435
1764763357.1954305,-397.665,-2199.735,-27166.005,-7665.57,-18044.55,-25972.83,-6031.935,445.365
1764763357.1954305,-397.845,-2200.32,-27167.625,-7666.065,-18044.865,-25972.875,-6032.52,444.87
1764763357.1954305,-394.74,-2198.43,-27165.42,-7663.634999999999,-18040.32,-25969.77,-6031.17,447.75
1764763357.1954305,-395.055,-2199.06,-27166.275,-7664.58,-18038.79,-25968.375,-6030.54,447.435
1764763357.1954305,-395.595,-2199.375,-27166.905,-7665.389999999999,-18038.205,-25965.405,-6029.73,447.48
1764763357.1954305,-398.88,-2201.715,-27167.58,-7666.605,-18038.385,-25969.275,-6031.44,442.845
1764763357.1954305,-395.37,-2197.8,-27161.955,-7659.945,-18032.04,-25968.195,-6029.28,446.31
1764763357.1954305,-397.035,-2198.295,-27162.81,-7662.24,-18035.37,-25973.055,-6030.99,444.96
1764763357.1954305,-393.48,-2194.92,-27159.885,-7660.304999999999,-18035.73,-25969.185,-6030.315,448.425
1764763357.1954305,-392.445,-2192.355,-27157.59,-7658.505,-18036.0,-25968.465,-6031.575,448.38
1764763357.1954305,-394.02,-2194.38,-27159.84,-7660.755,-18038.07,-25969.95,-6033.375,445.95
1764763357.1964264,-392.04,-2193.975,-27160.695,-7660.889999999999,-18034.2,-25965.81,-6031.17,448.695
1764763357.1964264,-392.445,-2194.02,-27161.775,-7661.565,-18034.2,-25964.685,-6030.9,448.605
1764763357.1964264,-399.375,-2199.87,-27167.76,-7669.62,-18043.38,-25973.82,-6035.94,442.17
1764763357.2395048,-399.555,-2201.265,-27169.47,-7670.07,-18043.335,-25973.955,-6035.13,442.395
1764763357.2395048,-396.405,-2200.59,-27169.605,-7668.585,-18040.41,-25970.49,-6032.88,445.275
1764763357.2395048,-402.795,-2207.52,-27177.39,-7675.065,-18043.65,-25972.83,-6034.545,440.505
1764763357.2395048,-406.125,-2210.895,-27180.945,-7678.259999999999,-18046.08,-25974.27,-6035.895,437.94
1764763357.2400098,-402.795,-2207.655,-27176.94,-7675.2,-18046.935,-25975.53,-6034.995,440.235
1764763357.2400098,-396.945,-2200.815,-27170.01,-7670.519999999999,-18045.135,-25974.045,-6033.014999999999,445.905
1764763357.2400098,-399.105,-2201.22,-27170.28,-7670.205,-18045.54,-25976.565,-6035.58,442.935
1764763357.2400098,-397.44,-2199.555,-27168.84,-7669.889999999999,-18045.63,-25978.32,-6036.48,443.025
1764763357.2400098,-392.625,-2194.605,-27163.44,-7665.705,-18042.705,-25976.655,-6035.895,447.66
1764763357.2400098,-396.45,-2197.845,-27165.915,-7669.215,-18046.62,-25981.47,-6039.135,444.51
1764763357.2400098,-393.84,-2193.3,-27161.28,-7663.95,-18042.84,-25977.555,-6036.84,447.435
1764763357.2400098,-397.215,-2197.845,-27167.265,-7670.384999999999,-18047.925,-25980.705,-6038.82,444.69
1764763357.2400098,-403.965,-2207.205,-27180.0,-7681.634999999999,-18053.64,-25983.63,-6040.44,439.245
1764763357.2400098,-401.445,-2204.865,-27177.975,-7678.394999999999,-18048.645,-25977.06,-6036.75,441.81
1764763357.2400098,-401.58,-2204.685,-27176.355,-7677.09,-18049.68,-25976.205,-6034.77,440.865
1764763357.2400098,-398.79,-2200.815,-27167.94,-7666.74,-18040.77,-25967.475,-6029.145,444.015
1764763357.2400098,-398.655,-2199.195,-27162.99,-7660.125,-18037.755,-25966.305,-6026.895,443.655
1764763357.2400098,-393.3,-2194.155,-27158.715,-7656.974999999999,-18036.09,-25968.6,-6026.94,447.705
1764763357.2400098,-390.06,-2191.77,-27156.915,-7656.03,-18034.605,-25971.075,-6029.594999999999,450.945
1764763357.2400098,-399.6,-2201.985,-27169.83,-7670.519999999999,-18046.845,-25985.88,-6041.34,442.89
1764763357.2400098,-400.095,-2202.075,-27171.45,-7673.804999999999,-18051.615,-25988.715,-6042.195,441.81
1764763357.2400098,-394.74,-2194.65,-27163.89,-7666.965,-18053.595,-25983.945,-6038.145,445.995
1764763357.2875051,-394.245,-2193.975,-27163.62,-7669.844999999999,-18060.255,-25983.99,-6036.255,446.76
1764763357.2875051,-399.87,-2201.805,-27174.24,-7679.61,-18062.865,-25985.925,-6038.91,443.25
1764763357.2875051,-400.365,-2204.64,-27178.92,-7681.275,-18055.89,-25978.005,-6035.49,444.87
1764763357.2875051,-399.105,-2203.245,-27177.705,-7679.745,-18059.715,-25974.315,-6032.79,445.185
1764763357.2875051,-398.97,-2202.84,-27175.455,-7677.719999999999,-18061.02,-25973.505,-6031.62,444.735
1764763357.2875051,-401.13,-2204.64,-27174.105,-7672.769999999999,-18047.475,-25972.605,-6030.855,442.485
1764763357.2875051,-396.225,-2199.33,-27164.07,-7660.259999999999,-18034.785,-25970.625,-6028.065,447.705
1764763357.2875051,-396.99,-2198.295,-27163.125,-7660.394999999999,-18038.52,-25978.23,-6033.645,445.86
1764763357.2875051,-392.715,-2191.815,-27156.24,-7653.96,-18034.83,-25977.015,-6033.87,448.335
1764763357.2875051,-392.445,-2192.805,-27157.59,-7654.815,-18033.345,-25976.835,-6035.13,449.055
1764763357.2875051,-399.105,-2201.67,-27168.84,-7665.03,-18039.015,-25979.13,-6036.929999999999,443.835
1764763357.2875051,-401.31,-2204.55,-27173.205,-7669.62,-18042.57,-25977.465,-6034.905,442.575
1764763357.2875051,-401.13,-2204.37,-27173.79,-7672.545,-18046.98,-25976.34,-6033.014999999999,442.845
1764763357.2875051,-402.525,-2205.09,-27174.555,-7676.415,-18057.78,-25978.41,-6033.825,441.675
1764763357.2875051,-402.795,-2205.315,-27174.645,-7677.99,-18064.98,-25978.41,-6034.679999999999,440.865
1764763357.2875051,-400.545,-2202.57,-27171.27,-7675.424999999999,-18058.23,-25971.075,-6031.08,442.44
1764763357.2875051,-395.37,-2197.215,-27163.755,-7667.37,-18045.99,-25961.805,-6023.745,447.435
1764763357.2875051,-398.61,-2199.78,-27167.22,-7668.945,-18041.13,-25961.445,-6023.7,445.005
1764763357.2875051,-406.89,-2211.03,-27177.795,-7677.36,-18042.48,-25963.65,-6025.77,439.38
1764763357.2875051,-408.285,-2213.145,-27180.54,-7678.125,-18040.995,-25964.685,-6027.03,439.47
1764763357.2875051,-403.29,-2205.675,-27172.35,-7669.53,-18034.695,-25963.425,-6026.715,442.62
1764763357.2875051,-402.39,-2203.47,-27169.785,-7667.91,-18036.9,-25965.09,-6027.84,442.08
1764763357.2885132,-400.68,-2200.995,-27167.355,-7667.054999999999,-18038.565,-25966.755,-6028.514999999999,444.06
1764763357.2885132,-397.845,-2198.205,-27164.88,-7664.04,-18034.65,-25964.865,-6027.57,446.49
1764763357.334218,-397.755,-2199.69,-27166.275,-7663.59,-18030.645,-25961.22,-6025.77,446.445
1764763357.334218,-399.105,-2201.13,-27167.985,-7665.615,-18033.345,-25962.57,-6027.03,445.23
1764763357.334218,-398.97,-2201.13,-27169.02,-7667.37,-18037.17,-25965.405,-6029.054999999999,444.87
1764763357.334218,-399.15,-2201.13,-27169.29,-7668.36,-18040.275,-25969.455,-6032.295,443.52
1764763357.334218,-399.15,-2200.365,-27167.67,-7666.245,-18038.655,-25969.005,-6031.665,443.25
1764763357.334218,-398.25,-2197.845,-27164.115,-7662.69,-18036.045,-25966.305,-6029.37,444.42
1764763357.334218,-398.16,-2198.835,-27166.815,-7665.84,-18038.16,-25966.62,-6028.92,444.87
1764763357.334218,-400.41,-2204.19,-27175.32,-7674.75,-18044.55,-25968.87,-6028.965,444.87
1764763357.334218,-400.005,-2202.975,-27173.07,-7674.344999999999,-18047.115,-25969.68,-6028.514999999999,445.77
1764763357.334218,-398.97,-2200.005,-27168.39,-7671.105,-18045.135,-25967.79,-6027.165,446.04
1764763357.3347352,-397.08,-2197.08,-27166.275,-7671.195,-18043.335,-25966.305,-6025.679999999999,447.255
1764763357.3347352,-396.99,-2198.655,-27169.56,-7672.634999999999,-18041.805,-25965.18,-6024.33,447.435
1764763357.3347352,-399.105,-2200.905,-27171.27,-7671.15,-18040.095,-25964.325,-6024.105,446.715
1764763357.3347352,-403.38,-2203.92,-27173.205,-7672.365,-18045.0,-25970.58,-6029.054999999999,442.26
1764763357.3347352,-401.94,-2203.2,-27172.44,-7671.24,-18046.305,-25971.48,-6028.65,443.7
1764763357.3347352,-398.745,-2200.41,-27169.515,-7666.74,-18042.795,-25969.635,-6026.895,447.21
1764763357.3347352,-399.87,-2201.58,-27170.37,-7667.46,-18044.73,-25972.695,-6029.145,445.545
1764763357.3347352,-400.59,-2202.03,-27168.03,-7665.389999999999,-18043.155,-25974.18,-6030.63,442.71
1764763357.3347352,-400.455,-2198.565,-27161.82,-7658.505,-18039.915,-25974.495,-6029.054999999999,442.755
1764763357.3347352,-395.37,-2192.13,-27155.565,-7652.88,-18036.63,-25970.94,-6025.77,446.985
1764763357.3347352,-397.8,-2194.425,-27156.96,-7654.365,-18036.09,-25970.895,-6025.59,444.42
1764763357.3347352,-397.71,-2196.18,-27160.155,-7657.11,-18035.91,-25968.285,-6025.139999999999,445.185
1764763357.3798308,-397.8,-2199.78,-27167.49,-7664.894999999999,-18038.43,-25966.35,-6024.105,447.48
1764763357.3798308,-406.71,-2211.165,-27181.845,-7680.33,-18051.165,-25974.45,-6031.08,441.135
1764763357.3798308,-403.335,-2206.845,-27179.37,-7680.644999999999,-18052.155,-25979.805,-6033.96,443.43
1764763357.3798308,-400.815,-2203.92,-27176.13,-7681.005,-18057.645,-25994.34,-6040.304999999999,442.665
1764763357.3798308,-398.115,-2201.355,-27174.33,-7680.375,-18058.185,-25997.4,-6041.745,445.095
1764763357.3808498,-401.04,-2203.965,-27177.84,-7683.165,-18060.795,-25997.715,-6042.33,441.855
1764763357.3808498,-400.95,-2203.335,-27177.075,-7682.894999999999,-18061.335,-25993.845,-6041.205,441.9
1764763357.3808498,-400.23,-2202.795,-27175.68,-7679.969999999999,-18058.32,-25987.725,-6037.83,442.485
1764763357.3808498,-397.98,-2199.195,-27167.04,-7668.764999999999,-18045.99,-25973.055,-6029.639999999999,445.185
1764763357.3808498,-399.555,-2199.825,-27165.06,-7664.894999999999,-18040.005,-25964.55,-6024.33,444.06
1764763357.3808498,-394.245,-2193.75,-27157.815,-7655.715,-18031.365,-25955.37,-6017.625,450.585
1764763357.3808498,-398.34,-2198.16,-27161.73,-7657.74,-18033.075,-25958.16,-6018.525,447.435
1764763357.3808498,-408.015,-2211.165,-27177.12,-7672.094999999999,-18043.2,-25965.765,-6022.98,440.955
1764763357.3808498,-410.13,-2215.395,-27182.655,-7678.889999999999,-18048.195,-25972.875,-6028.38,439.245
1764763357.3808498,-408.06,-2211.615,-27178.515,-7676.639999999999,-18048.555,-25977.33,-6032.16,439.335
1764763357.3808498,-404.955,-2207.025,-27173.205,-7672.32,-18046.845,-25978.14,-6032.34,441.585
1764763357.3808498,-402.885,-2205.045,-27172.575,-7672.005,-18047.655,-25978.86,-6031.889999999999,443.07
1764763357.3808498,-402.39,-2204.235,-27172.575,-7672.59,-18049.23,-25979.94,-6031.44,443.52
1764763357.3808498,-396.945,-2197.62,-27166.23,-7666.875,-18046.71,-25976.79,-6028.74,447.93
1764763357.3808498,-393.705,-2193.39,-27160.47,-7661.745,-18043.065,-25973.19,-6025.995,449.865
1764763357.3808498,-393.57,-2193.795,-27161.73,-7662.554999999999,-18041.445,-25970.67,-6024.105,449.55
1764763357.3808498,-401.805,-2203.74,-27173.7,-7673.04,-18047.79,-25974.9,-6028.74,443.115
1764763357.3808498,-403.2,-2205.99,-27177.075,-7673.804999999999,-18045.18,-25971.39,-6027.615,443.88
1764763357.3808498,-404.505,-2206.08,-27175.095,-7671.644999999999,-18045.0,-25972.47,-6028.29,442.035
1764763357.430322,-400.005,-2201.22,-27170.595,-7667.955,-18043.29,-25972.245,-6026.715,445.905
1764763357.430322,-403.065,-2205.9,-27177.21,-7676.415,-18051.165,-25978.86,-6029.46,442.53
1764763357.430322,-401.355,-2205.18,-27177.615,-7679.61,-18058.005,-25982.055,-6030.09,444.06
1764763357.430322,-394.065,-2197.305,-27169.155,-7675.65,-18065.565,-25979.22,-6026.535,449.82
1764763357.430322,-393.48,-2195.73,-27169.74,-7678.934999999999,-18071.775,-25981.875,-6025.815,450.54
1764763357.430322,-393.975,-2197.08,-27172.755,-7682.219999999999,-18066.105,-25982.235,-6024.645,451.845
1764763357.430322,-395.73,-2200.32,-27176.625,-7683.66,-18060.435,-25982.505,-6024.06,450.945
1764763357.430322,-400.725,-2205.99,-27182.115,-7686.945,-18061.38,-25988.13,-6028.605,444.825
1764763357.430322,-400.905,-2205.135,-27180.27,-7682.219999999999,-18055.35,-25985.7,-6030.27,443.655
1764763357.430322,-402.93,-2204.865,-27174.24,-7671.33,-18044.82,-25979.535,-6029.594999999999,441.765
1764763357.430322,-401.805,-2202.84,-27168.885,-7663.769999999999,-18041.58,-25975.89,-6026.715,443.43
1764763357.430322,-400.59,-2201.625,-27168.93,-7663.455,-18040.365,-25974.81,-6025.545,444.375
1764763357.430322,-399.555,-2201.13,-27168.615,-7661.115,-18035.01,-25969.005,-6023.025,445.95
1764763357.430322,-404.1,-2205.765,-27173.43,-7665.48,-18037.305,-25971.435,-6025.815,442.575
1764763357.430322,-401.31,-2203.11,-27170.415,-7663.59,-18036.36,-25968.78,-6024.33,444.96
1764763357.430322,-401.13,-2203.605,-27170.37,-7663.59,-18036.315,-25967.745,-6023.25,444.465
1764763357.430322,-396.54,-2199.555,-27166.455,-7661.745,-18036.945,-25967.115,-6021.27,448.56
1764763357.430322,-398.25,-2199.96,-27168.93,-7667.28,-18046.35,-25977.105,-6026.76,446.04
1764763357.430322,-394.83,-2197.26,-27165.78,-7665.21,-18044.955,-25976.43,-6025.094999999999,449.505
1764763357.430322,-396.27,-2198.745,-27167.535,-7668.09,-18047.835,-25978.77,-6025.5,448.335
1764763357.430322,-398.97,-2201.22,-27171.18,-7672.049999999999,-18052.155,-25983.855,-6028.2,446.085
1764763357.430322,-398.34,-2200.455,-27170.055,-7669.98,-18049.725,-25983.945,-6027.75,446.4
1764763357.430322,-396.63,-2198.07,-27167.04,-7666.83,-18047.565,-25983.09,-6027.075,448.02
1764763357.430322,-392.985,-2194.56,-27162.855,-7662.599999999999,-18043.965,-25979.58,-6025.32,451.62
1764763357.430322,-393.48,-2193.975,-27162.045,-7662.375,-18044.91,-25980.48,-6025.679999999999,451.08
1764763357.430322,-393.84,-2193.84,-27162.315,-7662.105,-18044.595,-25980.12,-6026.04,450.405
1764763357.476726,-396.045,-2197.305,-27165.96,-7665.03,-18044.28,-25978.95,-6025.365,448.83
1764763357.476726,-401.31,-2202.48,-27172.395,-7670.7,-18048.285,-25982.1,-6027.12,444.915
1764763357.476726,-397.71,-2198.655,-27169.74,-7668.54,-18046.395,-25977.195,-6024.915,448.74
1764763357.4772446,-398.97,-2200.59,-27171.9,-7670.88,-18047.88,-25979.13,-6025.005,447.48
1764763357.4772446,-394.38,-2195.91,-27165.465,-7664.4,-18043.65,-25978.95,-6022.215,451.395
1764763357.4772446,-395.415,-2197.17,-27167.715,-7665.795,-18044.82,-25981.74,-6022.71,450.585
1764763357.4772446,-400.815,-2203.02,-27175.41,-7673.4,-18051.615,-25985.295,-6025.815,445.905
1764763357.4772446,-401.625,-2203.515,-27177.66,-7676.144999999999,-18057.285,-25987.995,-6029.415,444.105
1764763357.4772446,-400.455,-2201.4,-27175.455,-7675.019999999999,-18058.77,-25988.04,-6030.54,444.555
1764763357.4772446,-397.89,-2198.565,-27169.245,-7668.585,-18051.615,-25981.56,-6027.12,446.085
1764763357.4772446,-394.245,-2193.075,-27162.495,-7660.17,-18042.39,-25972.785,-6022.665,448.92
1764763357.4772446,-395.19,-2191.815,-27159.165,-7657.469999999999,-18040.86,-25972.065,-6022.035,447.345
1764763357.4772446,-392.625,-2190.78,-27157.365,-7656.165,-18037.26,-25969.005,-6019.83,450.18
1764763357.4772446,-397.845,-2197.125,-27165.105,-7662.69,-18043.065,-25973.775,-6023.115,446.805
1764763357.4772446,-400.095,-2202.57,-27174.06,-7672.365,-18050.04,-25978.68,-6026.715,445.77
1764763357.4772446,-407.565,-2213.505,-27189.18,-7688.025,-18060.57,-25986.015,-6031.575,440.595
1764763357.4772446,-405.18,-2210.895,-27187.515,-7686.09,-18060.345,-25985.43,-6031.17,442.17
1764763357.4772446,-406.53,-2211.255,-27185.985,-7687.125,-18061.695,-25989.21,-6034.275,440.01
1764763357.4772446,-402.705,-2206.395,-27181.08,-7681.5,-18056.43,-25986.105,-6032.925,442.71
1764763357.4772446,-397.98,-2200.41,-27174.015,-7673.445,-18049.005,-25980.93,-6028.965,446.67
1764763357.4772446,-394.92,-2196.945,-27168.615,-7667.73,-18044.64,-25975.44,-6025.23,448.785
1764763357.4772446,-398.655,-2199.555,-27171.27,-7671.509999999999,-18049.5,-25979.985,-6029.955,444.87
1764763357.5246654,-399.87,-2199.42,-27172.665,-7672.86,-18054.045,-25985.79,-6033.24,442.485
1764763357.5246654,-396.63,-2195.505,-27167.085,-7667.28,-18049.23,-25981.965,-6029.594999999999,446.085
1764763357.5246654,-402.12,-2201.985,-27173.385,-7672.905,-18051.39,-25982.64,-6029.235,441.585
1764763357.5246654,-403.155,-2204.235,-27175.095,-7675.155,-18052.92,-25982.28,-6028.605,441.045
1764763357.5246654,-405.09,-2206.575,-27177.615,-7676.549999999999,-18053.595,-25981.515,-6027.885,439.965
1764763357.5246654,-405.09,-2208.645,-27181.215,-7680.24,-18057.915,-25982.73,-6028.83,438.435
1764763357.5246654,-405.45,-2210.175,-27182.295,-7681.32,-18058.545,-25979.985,-6027.3,438.3
1764763357.5246654,-404.415,-2209.005,-27179.775,-7678.125,-18052.83,-25973.415,-6023.52,439.605
1764763357.5246654,-401.805,-2205.045,-27174.555,-7672.049999999999,-18046.665,-25967.385,-6019.56,443.655
1764763357.5246654,-408.06,-2211.615,-27180.585,-7677.134999999999,-18050.175,-25970.355,-6020.955,439.155
1764763357.5246654,-407.295,-2209.95,-27178.38,-7675.514999999999,-18049.77,-25970.805,-6021.135,438.93
1764763357.5246654,-403.245,-2203.65,-27171.09,-7668.45,-18047.07,-25971.75,-6022.304999999999,441.54
1764763357.5246654,-396.855,-2196.0,-27162.675,-7659.674999999999,-18039.78,-25968.195,-6020.28,447.165
1764763357.5246654,-400.5,-2201.355,-27169.335,-7665.705,-18043.38,-25970.94,-6022.08,444.78
1764763357.5246654,-405.9,-2207.745,-27176.265,-7672.23,-18048.555,-25973.37,-6024.06,441.045
1764763357.5246654,-401.13,-2202.57,-27170.955,-7667.955,-18045.27,-25969.77,-6021.179999999999,445.41
1764763357.5246654,-401.445,-2203.695,-27172.44,-7671.105,-18047.07,-25971.795,-6022.349999999999,443.43
1764763357.5246654,-394.92,-2197.665,-27166.365,-7666.335,-18043.38,-25965.945,-6018.389999999999,448.11
1764763357.5246654,-392.04,-2193.03,-27161.82,-7663.86,-18050.58,-25967.025,-6017.13,451.395
1764763357.5246654,-396.315,-2197.89,-27167.94,-7670.07,-18063.045,-25976.43,-6020.73,448.065
1764763357.5687318,-402.345,-2205.09,-27175.545,-7678.035,-18067.545,-25985.475,-6024.465,443.43
1764763357.5687318,-401.67,-2204.865,-27175.32,-7677.09,-18062.325,-25987.59,-6025.815,443.88
1764763357.5687318,-399.015,-2203.38,-27172.89,-7672.95,-18053.865,-25981.245,-6024.87,446.805
1764763357.5687318,-399.195,-2202.795,-27172.845,-7675.019999999999,-18051.57,-25979.895,-6026.355,445.995
1764763357.5687318,-404.325,-2208.69,-27180.675,-7683.299999999999,-18056.115,-25984.305,-6031.44,440.46
1764763357.5687318,-404.415,-2207.52,-27179.46,-7680.915,-18052.785,-25980.75,-6031.935,439.335
1764763357.5687318,-401.67,-2204.685,-27175.14,-7674.929999999999,-18046.08,-25972.65,-6027.255,442.26
1764763357.5687318,-402.975,-2206.485,-27175.77,-7674.12,-18046.98,-25971.93,-6024.735,441.765
1764763357.5687318,-394.875,-2197.89,-27166.32,-7662.554999999999,-18038.79,-25963.695,-6017.31,449.505
1764763357.5687318,-399.69,-2201.355,-27169.47,-7664.219999999999,-18039.105,-25965.945,-6018.12,445.725
1764763357.570204,-399.87,-2200.23,-27167.58,-7659.945,-18035.19,-25962.75,-6016.95,445.005
1764763357.570204,-395.64,-2194.065,-27158.535,-7651.62,-18030.33,-25959.105,-6013.755,447.21
1764763357.570204,-393.3,-2190.105,-27152.01,-7646.264999999999,-18025.875,-25956.405,-6011.865,450.09
1764763357.570204,-391.725,-2190.87,-27156.015,-7651.215,-18028.17,-25957.755,-6013.304999999999,452.745
1764763357.570204,-399.375,-2203.02,-27173.52,-7670.295,-18045.495,-25967.97,-6019.469999999999,447.885
1764763357.570204,-405.495,-2210.31,-27183.825,-7684.155,-18065.52,-25976.43,-6024.24,443.16
1764763357.570204,-400.68,-2205.09,-27177.795,-7680.42,-18061.29,-25974.315,-6021.495,447.255
1764763357.570204,-392.22,-2196.135,-27166.59,-7668.269999999999,-18046.125,-25965.495,-6015.105,453.735
1764763357.570204,-390.285,-2192.13,-27161.73,-7662.69,-18040.545,-25963.515,-6012.405,454.68
1764763357.570204,-396.27,-2196.54,-27165.24,-7665.929999999999,-18044.91,-25968.915,-6016.545,448.335
1764763357.570204,-397.125,-2198.07,-27167.13,-7664.445,-18042.03,-25967.655,-6017.94,448.695
1764763357.570204,-404.415,-2207.565,-27177.03,-7672.634999999999,-18048.15,-25975.845,-6024.195,443.52
1764763357.570204,-406.08,-2209.365,-27179.235,-7672.724999999999,-18047.43,-25974.0,-6023.295,442.215
1764763357.570204,-402.12,-2205.405,-27175.32,-7668.764999999999,-18042.255,-25968.96,-6020.415,444.96
1764763357.5712583,-401.355,-2204.235,-27173.925,-7671.014999999999,-18047.34,-25973.235,-6022.215,444.105
1764763357.5712583,-396.0,-2198.655,-27167.4,-7665.389999999999,-18045.495,-25970.085,-6019.965,447.66
1764763357.616933,-397.755,-2199.015,-27166.05,-7663.455,-18044.1,-25968.825,-6018.57,446.76
1764763357.616933,-395.37,-2197.44,-27163.89,-7661.565,-18039.645,-25963.245,-6014.205,450.0
1764763357.616933,-395.685,-2200.815,-27169.2,-7666.83,-18041.58,-25963.965,-6013.44,451.755
1764763357.616933,-396.495,-2201.265,-27170.82,-7669.17,-18046.53,-25970.67,-6016.995,450.855
1764763357.616933,-397.62,-2199.555,-27169.605,-7669.575,-18050.04,-25976.97,-6019.92,448.11
1764763357.616933,-396.81,-2199.96,-27169.2,-7669.889999999999,-18049.365,-25978.23,-6021.54,447.885
1764763357.616933,-395.595,-2199.285,-27170.37,-7671.15,-18049.365,-25978.14,-6021.9,449.91
1764763357.616933,-398.115,-2200.905,-27173.115,-7674.929999999999,-18053.865,-25981.65,-6023.385,447.66
1764763357.616933,-394.965,-2197.035,-27168.165,-7670.07,-18049.545,-25976.43,-6021.0,450.45
1764763357.616933,-395.28,-2198.34,-27169.605,-7670.384999999999,-18048.24,-25974.495,-6019.92,449.37
1764763357.616933,-398.835,-2202.39,-27174.645,-7673.13,-18047.295,-25970.355,-6018.615,447.435
1764763357.616933,-400.185,-2202.75,-27172.35,-7667.46,-18040.815,-25962.525,-6015.554999999999,446.85
1764763357.616933,-398.97,-2198.88,-27167.175,-7662.15,-18037.935,-25958.925,-6013.215,448.2
1764763357.616933,-402.75,-2203.065,-27169.875,-7663.905,-18038.97,-25960.5,-6015.42,445.32
1764763357.616933,-404.955,-2206.8,-27170.775,-7662.69,-18037.215,-25957.845,-6014.655,443.925
1764763357.616933,-406.125,-2208.42,-27173.565,-7665.615,-18040.365,-25958.7,-6013.844999999999,442.89
1764763357.616933,-407.07,-2209.095,-27174.915,-7668.945,-18044.28,-25961.895,-6014.52,442.125
1764763357.616933,-400.995,-2201.355,-27166.725,-7661.969999999999,-18040.23,-25960.14,-6013.26,446.355
1764763357.616933,-397.8,-2194.245,-27158.49,-7655.264999999999,-18038.79,-25961.94,-6013.395,446.535
1764763357.616933,-393.165,-2186.595,-27148.32,-7646.894999999999,-18034.965,-25958.565,-6011.145,449.28
1764763357.616933,-390.69,-2185.74,-27146.475,-7644.825,-18032.715,-25958.295,-6008.849999999999,451.44
1764763357.616933,-393.48,-2196.36,-27162.45,-7660.08,-18040.815,-25963.47,-6009.615,453.285
1764763357.616933,-405.945,-2217.015,-27189.09,-7684.559999999999,-18052.785,-25972.29,-6015.825,446.085
1764763357.616933,-411.84,-2219.625,-27192.015,-7689.014999999999,-18060.12,-25980.39,-6023.61,438.885
1764763357.6630409,-406.125,-2208.555,-27177.705,-7677.09,-18055.17,-25976.97,-6021.9,441.405
1764763357.6630409,-402.615,-2202.795,-27170.28,-7670.88,-18051.435,-25973.595,-6021.764999999999,443.655
1764763357.6630409,-401.76,-2201.4,-27169.335,-7670.565,-18050.4,-25974.18,-6023.79,444.15
1764763357.6630409,-404.055,-2205.495,-27175.095,-7676.009999999999,-18050.94,-25972.065,-6023.385,443.205
1764763357.6630409,-402.525,-2206.8,-27176.94,-7676.639999999999,-18049.59,-25968.78,-6020.82,444.51
1764763357.6630409,-401.985,-2206.305,-27176.355,-7676.46,-18052.92,-25973.505,-6021.495,444.24
1764763357.6630409,-398.025,-2201.265,-27172.35,-7673.58,-18053.055,-25973.145,-6020.639999999999,448.695
1764763357.6645718,-398.79,-2202.795,-27174.69,-7674.075,-18052.515,-25970.94,-6018.435,449.28
1764763357.6645718,-400.275,-2204.955,-27177.255,-7674.299999999999,-18050.445,-25967.52,-6016.365,448.515
1764763357.6645718,-403.29,-2206.17,-27175.905,-7671.78,-18048.33,-25966.485,-6017.58,444.87
1764763357.6645718,-404.19,-2205.315,-27172.305,-7667.955,-18046.755,-25965.225,-6014.925,444.51
1764763357.6645718,-400.05,-2202.255,-27168.705,-7664.67,-18042.48,-25960.365,-6010.065,449.01
1764763357.6645718,-401.22,-2202.3,-27170.01,-7665.929999999999,-18043.29,-25960.455,-6009.255,448.29
1764763357.6645718,-401.265,-2201.985,-27169.11,-7665.705,-18043.155,-25961.04,-6008.804999999999,448.515
1764763357.6645718,-401.49,-2202.165,-27169.83,-7665.929999999999,-18044.145,-25962.03,-6008.804999999999,448.56
1764763357.6645718,-404.415,-2205.315,-27173.655,-7670.295,-18047.79,-25965.72,-6012.315,445.23
1764763357.6645718,-398.745,-2198.655,-27165.555,-7663.32,-18042.705,-25963.065,-6011.73,448.56
1764763357.6645718,-395.055,-2194.515,-27159.615,-7658.37,-18041.22,-25962.345,-6011.415,451.53
1764763357.6645718,-394.74,-2195.055,-27160.83,-7659.855,-18045.45,-25964.055,-6011.37,451.62
1764763357.6645718,-400.545,-2203.2,-27172.305,-7671.375,-18054.405,-25969.005,-6014.835,447.795
1764763357.6645718,-405.18,-2209.005,-27182.295,-7681.545,-18060.21,-25973.91,-6017.58,444.51
1764763357.6645718,-406.305,-2210.04,-27182.97,-7684.74,-18062.055,-25981.065,-6022.395,441.54
1764763357.6645718,-399.42,-2200.95,-27172.53,-7676.19,-18056.565,-25978.41,-6021.945,447.21
1764763357.6645718,-399.15,-2198.205,-27168.255,-7672.41,-18053.82,-25976.61,-6021.495,445.995
1764763357.711514,-399.78,-2197.08,-27165.915,-7670.025,-18051.975,-25976.52,-6021.045,444.195
1764763357.711514,-405.135,-2203.2,-27173.34,-7675.155,-18057.015,-25980.795,-6023.025,440.055
1764763357.711514,-410.85,-2212.38,-27182.79,-7682.219999999999,-18060.705,-25981.83,-6023.565,437.49
1764763357.711514,-409.365,-2210.22,-27179.955,-7677.764999999999,-18057.465,-25977.06,-6020.639999999999,439.515
1764763357.711514,-404.055,-2203.74,-27171.81,-7668.0,-18050.04,-25968.465,-6014.205,444.285
1764763357.711514,-410.58,-2210.445,-27178.245,-7672.905,-18054.72,-25972.02,-6017.804999999999,439.02
1764763357.711514,-410.355,-2210.895,-27177.84,-7671.465,-18050.13,-25968.42,-6015.554999999999,439.425
1764763357.711514,-408.375,-2207.43,-27174.6,-7668.224999999999,-18043.74,-25964.37,-6014.07,441.405
1764763357.711514,-414.135,-2214.72,-27184.14,-7677.855,-18051.12,-25969.77,-6017.355,437.535
1764763357.711514,-413.685,-2215.485,-27185.355,-7679.115,-18052.605,-25971.03,-6016.905,437.67
1764763357.711514,-408.69,-2208.87,-27176.22,-7672.094999999999,-18048.195,-25968.825,-6014.745,440.595
1764763357.711514,-402.93,-2200.995,-27166.365,-7663.86,-18043.38,-25964.955,-6011.82,444.735
1764763357.711514,-404.82,-2201.355,-27167.355,-7664.894999999999,-18046.89,-25966.89,-6013.53,442.17
1764763357.711514,-403.47,-2200.545,-27166.77,-7664.085,-18046.395,-25967.655,-6012.99,443.655
1764763357.711514,-403.245,-2202.705,-27169.875,-7666.695,-18046.035,-25969.635,-6011.639999999999,445.995
1764763357.711514,-412.47,-2216.07,-27186.12,-7681.545,-18055.26,-25978.995,-6017.67,438.03
1764763357.711514,-412.065,-2215.62,-27185.22,-7681.094999999999,-18053.865,-25977.915,-6018.165,437.805
1764763357.711514,-404.505,-2206.305,-27174.87,-7673.67,-18049.905,-25974.09,-6015.78,443.43
1764763357.711514,-404.055,-2206.035,-27174.015,-7673.535,-18051.57,-25975.575,-6017.67,442.98
1764763357.711514,-397.755,-2198.61,-27167.625,-7668.855,-18055.395,-25975.08,-6016.679999999999,448.47
1764763357.711514,-394.83,-2194.245,-27164.565,-7671.15,-18074.295,-25979.22,-6017.13,450.855
1764763357.711514,-396.54,-2194.245,-27163.89,-7672.815,-18076.185,-25983.72,-6018.165,449.55
1764763357.755082,-397.62,-2194.65,-27164.025,-7673.04,-18070.47,-25989.615,-6021.719999999999,447.21
1764763357.755082,-394.965,-2193.57,-27164.16,-7672.23,-18062.415,-25987.635,-6021.54,449.73
1764763357.755082,-402.12,-2204.145,-27177.525,-7681.634999999999,-18061.74,-25987.095,-6024.42,444.78
1764763357.755082,-405.99,-2207.97,-27181.62,-7685.865,-18063.63,-25989.39,-6027.21,440.73
1764763357.755082,-403.065,-2203.605,-27176.355,-7682.94,-18064.845,-25988.715,-6025.724999999999,441.99
1764763357.755082,-400.455,-2200.275,-27172.98,-7681.86,-18067.545,-25986.915,-6022.935,444.33
1764763357.755082,-403.245,-2204.055,-27177.615,-7685.054999999999,-18069.525,-25985.52,-6021.09,443.34
1764763357.755082,-404.28,-2205.495,-27178.155,-7683.57,-18064.53,-25979.22,-6016.679999999999,443.295
1764763357.755082,-405.585,-2206.98,-27178.02,-7681.769999999999,-18060.615,-25977.375,-6014.655,443.025
1764763357.7555993,-411.435,-2214.63,-27185.31,-7688.924999999999,-18065.7,-25981.56,-6017.67,437.985
1764763357.7555993,-414.54,-2217.42,-27188.37,-7690.995,-18065.88,-25979.355,-6017.625,435.915
1764763357.7555993,-411.345,-2213.73,-27182.745,-7681.995,-18056.385,-25971.705,-6014.295,438.66
1764763357.7555993,-405.045,-2206.755,-27172.305,-7666.605,-18044.595,-25964.055,-6010.29,444.735
1764763357.7555993,-404.865,-2204.955,-27169.47,-7662.644999999999,-18044.37,-25967.565,-6013.304999999999,444.195
1764763357.7555993,-407.79,-2206.62,-27172.395,-7667.639999999999,-18051.12,-25974.27,-6017.085,441.135
1764763357.7555993,-408.42,-2206.575,-27173.745,-7671.105,-18054.36,-25977.6,-6019.469999999999,441.36
1764763357.7555993,-406.665,-2205.225,-27170.55,-7666.469999999999,-18046.26,-25972.065,-6016.23,442.98
1764763357.7555993,-404.1,-2202.75,-27167.67,-7663.86,-18042.48,-25967.385,-6012.54,446.085
1764763357.7555993,-408.42,-2208.915,-27177.03,-7674.57,-18052.02,-25973.1,-6014.969999999999,442.62
1764763357.7555993,-412.2,-2213.055,-27184.14,-7679.655,-18054.945,-25972.38,-6014.969999999999,438.75
1764763357.7555993,-408.15,-2208.6,-27179.73,-7675.469999999999,-18050.535,-25967.115,-6011.145,442.755
1764763357.7555993,-406.935,-2206.395,-27174.915,-7670.519999999999,-18046.215,-25963.335,-6008.4,443.43
1764763357.7555993,-409.68,-2209.545,-27177.66,-7670.655,-18045.045,-25961.445,-6007.995,442.08
1764763357.7555993,-412.335,-2212.965,-27180.09,-7673.849999999999,-18048.87,-25965.675,-6011.505,440.055
1764763357.7555993,-410.355,-2210.265,-27176.985,-7671.78,-18050.715,-25966.935,-6012.27,441.0
1764763357.7555993,-411.075,-2209.455,-27176.4,-7672.95,-18054.855,-25971.525,-6014.25,439.29
1764763357.8019626,-406.395,-2205.405,-27172.17,-7671.24,-18053.505,-25974.585,-6013.889999999999,443.61
1764763357.8019626,-405.585,-2206.395,-27174.015,-7673.355,-18055.125,-25980.3,-6015.24,444.06
1764763357.8019626,-406.305,-2207.295,-27175.725,-7675.2,-18057.87,-25981.11,-6016.32,443.115
1764763357.8019626,-406.575,-2206.665,-27174.645,-7675.29,-18059.625,-25978.77,-6015.465,442.755
1764763357.8019626,-410.265,-2210.355,-27179.73,-7678.62,-18062.145,-25980.525,-6017.445,438.885
1764763357.8019626,-405.945,-2204.91,-27173.79,-7672.23,-18056.295,-25975.755,-6013.844999999999,441.54
1764763357.8019626,-399.555,-2197.305,-27164.07,-7661.34,-18047.34,-25966.26,-6007.995,446.895
1764763357.8019626,-402.84,-2199.645,-27163.665,-7658.73,-18044.55,-25963.515,-6007.635,444.6
1764763357.8019626,-405.045,-2200.545,-27162.495,-7657.74,-18045.54,-25966.89,-6008.76,442.26
1764763357.8019626,-402.84,-2199.375,-27163.17,-7659.315,-18046.755,-25967.115,-6008.13,445.59
1764763357.8019626,-405.9,-2207.43,-27176.04,-7672.634999999999,-18051.795,-25972.245,-6011.865,444.285
1764763357.8019626,-406.215,-2209.455,-27180.405,-7680.465,-18057.96,-25980.255,-6016.995,443.07
1764763357.8019626,-405.765,-2207.34,-27178.47,-7680.87,-18065.835,-25987.275,-6020.235,442.08
1764763357.8019626,-399.555,-2199.69,-27171.0,-7675.335,-18067.41,-25987.995,-6019.65,446.49
1764763357.8019626,-396.18,-2195.055,-27166.185,-7673.849999999999,-18071.955,-25991.01,-6019.514999999999,448.29
1764763357.8019626,-394.74,-2192.625,-27165.015,-7674.929999999999,-18080.37,-25992.72,-6018.84,448.605
1764763357.8019626,-399.825,-2198.43,-27175.005,-7683.795,-18083.07,-25997.985,-6022.665,445.23
1764763357.8019626,-408.915,-2211.48,-27188.01,-7692.66,-18079.83,-25999.515,-6026.13,438.525
1764763357.8019626,-408.69,-2211.3,-27186.03,-7686.045,-18066.645,-25989.12,-6022.395,439.92
1764763357.8019626,-409.905,-2209.5,-27180.405,-7677.495,-18063.99,-25984.08,-6018.615,439.47
1764763357.848724,-407.43,-2206.755,-27175.275,-7669.62,-18058.77,-25975.125,-6012.719999999999,442.08
1764763357.848724,-409.95,-2210.445,-27180.09,-7674.03,-18059.265,-25975.62,-6014.7,440.37
1764763357.8492286,-409.32,-2210.04,-27180.99,-7676.28,-18057.105,-25976.655,-6017.085,440.28
1764763357.8492286,-405.765,-2204.595,-27173.52,-7669.53,-18048.24,-25969.995,-6012.719999999999,443.385
1764763357.8492286,-404.73,-2202.57,-27169.515,-7664.355,-18042.885,-25965.72,-6009.255,443.205
1764763357.8492286,-404.235,-2200.68,-27166.86,-7660.53,-18040.77,-25963.83,-6007.139999999999,443.295
1764763357.8492286,-397.755,-2192.49,-27157.005,-7648.74,-18030.15,-25952.715,-5999.445,450.36
1764763357.8492286,-403.38,-2199.87,-27164.655,-7657.605,-18037.89,-25956.99,-6001.83,446.22
1764763357.8492286,-404.505,-2203.29,-27169.515,-7663.094999999999,-18039.915,-25955.73,-6001.514999999999,446.265
1764763357.8492286,-407.43,-2207.115,-27173.34,-7666.11,-18039.645,-25956.135,-6000.84,443.565
1764763357.8492286,-413.325,-2216.34,-27183.825,-7675.83,-18049.005,-25964.415,-6006.014999999999,438.21
1764763357.8492286,-416.16,-2221.38,-27190.665,-7681.995,-18054.675,-25968.375,-6009.12,436.86
1764763357.8497317,-409.77,-2212.515,-27182.205,-7673.715,-18050.67,-25967.205,-6007.905,442.71
1764763357.8497317,-406.17,-2207.88,-27176.265,-7668.405,-18048.105,-25965.63,-6006.465,444.555
1764763357.8497317,-406.305,-2206.305,-27174.33,-7666.38,-18048.06,-25964.595,-6006.285,444.51
1764763357.8497317,-405.495,-2204.19,-27171.585,-7663.815,-18047.79,-25965.855,-6005.429999999999,444.42
1764763357.8497317,-400.005,-2198.43,-27164.43,-7658.415,-18043.425,-25966.665,-6004.665,448.695
1764763357.8497317,-401.445,-2199.42,-27166.95,-7663.32,-18049.815,-25977.195,-6010.2,446.49
1764763357.8497317,-402.12,-2198.52,-27166.14,-7664.264999999999,-18053.055,-25981.02,-6012.495,444.555
1764763357.8497317,-399.24,-2195.685,-27163.89,-7661.115,-18049.68,-25974.585,-6009.389999999999,447.705
1764763357.8497317,-403.74,-2201.94,-27171.945,-7667.865,-18052.56,-25975.35,-6010.2,444.24
1764763357.8497317,-405.495,-2206.17,-27176.67,-7672.23,-18054.63,-25974.405,-6010.065,442.845
1764763357.8497317,-406.44,-2207.97,-27179.955,-7673.445,-18051.66,-25967.97,-6008.264999999999,444.735
1764763357.8497317,-409.32,-2209.68,-27181.08,-7674.57,-18052.29,-25967.43,-6008.49,441.27
1764763357.896346,-404.595,-2203.155,-27172.755,-7667.19,-18049.905,-25968.195,-6007.815,444.465
1764763357.8968506,-400.14,-2198.79,-27166.68,-7660.62,-18046.71,-25966.035,-6006.014999999999,448.605
1764763357.8968506,-403.38,-2203.11,-27170.685,-7665.344999999999,-18050.67,-25968.6,-6007.365,445.32
1764763357.8968506,-405.99,-2205.0,-27173.25,-7671.24,-18060.075,-25975.53,-6011.46,441.765
1764763357.8968506,-399.195,-2195.82,-27164.07,-7666.019999999999,-18060.3,-25974.63,-6010.38,447.12
1764763357.8968506,-397.215,-2192.895,-27160.695,-7664.67,-18061.785,-25976.25,-6011.325,447.255
1764763357.8968506,-397.71,-2197.575,-27168.12,-7669.934999999999,-18061.65,-25975.35,-6010.875,449.01
1764763357.8968506,-407.655,-2211.435,-27185.49,-7683.615,-18063.945,-25979.58,-6014.88,442.08
1764763357.8973582,-404.64,-2206.44,-27179.865,-7676.28,-18055.35,-25975.98,-6011.775,445.455
1764763357.8973582,-404.82,-2206.17,-27177.795,-7672.769999999999,-18053.145,-25975.575,-6010.695,444.06
1764763357.8973582,-407.52,-2207.88,-27177.84,-7671.375,-18052.875,-25975.395,-6011.325,441.09
1764763357.8973582,-400.995,-2199.24,-27167.175,-7658.594999999999,-18043.695,-25968.915,-6007.77,446.085
1764763357.8973582,-400.59,-2198.52,-27166.59,-7658.639999999999,-18046.755,-25970.715,-6008.085,445.635
1764763357.8973582,-409.14,-2209.41,-27178.38,-7670.565,-18057.33,-25978.005,-6013.08,438.93
1764763357.8973582,-411.03,-2212.875,-27183.24,-7676.639999999999,-18063.99,-25981.965,-6015.195,438.615
1764763357.8973582,-403.38,-2202.615,-27171.765,-7668.315,-18059.985,-25979.76,-6012.45,444.555
1764763357.8973582,-405.405,-2202.57,-27172.125,-7668.99,-18058.5,-25979.895,-6012.495,441.855
1764763357.8973582,-406.53,-2204.28,-27174.195,-7669.08,-18054.18,-25976.43,-6011.054999999999,442.08
1764763357.8973582,-404.955,-2201.805,-27170.46,-7665.795,-18050.445,-25971.66,-6008.4,443.205
1764763357.8973582,-405.675,-2201.715,-27169.335,-7665.299999999999,-18050.04,-25967.97,-6007.59,442.665
1764763357.8973582,-411.3,-2208.915,-27177.075,-7672.815,-18054.45,-25969.68,-6008.804999999999,438.84
1764763357.8973582,-409.455,-2209.86,-27180.54,-7674.57,-18053.91,-25969.23,-6009.344999999999,441.675
1764763357.8978786,-406.89,-2209.365,-27182.745,-7677.945,-18057.555,-25972.875,-6011.639999999999,443.835
1764763357.8978786,-410.85,-2214.18,-27188.01,-7685.009999999999,-18070.38,-25982.955,-6016.094999999999,439.29
1764763357.8978786,-407.52,-2209.545,-27182.25,-7681.724999999999,-18075.78,-25987.995,-6017.085,440.64
1764763357.8978786,-402.48,-2202.3,-27174.24,-7674.389999999999,-18071.235,-25987.815,-6016.545,444.465
1764763357.943555,-403.155,-2202.03,-27173.7,-7673.264999999999,-18066.24,-25985.835,-6015.599999999999,443.16
1764763357.943555,-405.09,-2203.875,-27173.835,-7673.894999999999,-18064.845,-25982.865,-6013.08,442.08
1764763357.943555,-403.065,-2200.32,-27170.145,-7667.549999999999,-18055.44,-25973.055,-6007.32,445.95
1764763357.943555,-403.245,-2198.97,-27167.94,-7662.465,-18047.07,-25969.05,-6005.205,445.95
1764763357.943555,-404.19,-2199.78,-27167.76,-7662.24,-18046.935,-25969.68,-6003.63,446.31
1764763357.943555,-405.63,-2202.21,-27169.38,-7663.815,-18049.185,-25967.655,-6002.325,445.14
1764763357.943555,-409.365,-2207.61,-27176.355,-7670.655,-18053.685,-25968.195,-6004.844999999999,441.45
1764763357.943555,-415.08,-2214.495,-27185.895,-7680.195,-18061.38,-25972.605,-6009.705,437.58
1764763357.943555,-414.99,-2215.755,-27187.065,-7681.815,-18065.565,-25975.17,-6010.83,437.22
1764763357.943555,-414.315,-2214.315,-27186.84,-7685.955,-18078.255,-25979.265,-6012.54,437.13
