Timestamp,Channel1,Channel2,Channel3,Channel4,Channel5,Channel6,Channel7,Channel8
1764764447.2591867,64.935,-513.9,-28666.395,-6215.49,-20332.08,-28355.94,-6397.605,2307.645
1764764447.2591867,60.255,-517.185,-28669.815,-6219.945,-20336.625,-28361.16,-6401.16,2302.695
1764764447.2591867,60.12,-517.41,-28669.77,-6220.08,-20336.31,-28360.98,-6401.07,2302.83
1764764447.2591867,61.2,-516.42,-28668.825,-6218.37,-20335.05,-28359.63,-6400.62,2303.91
1764764447.2591867,64.71,-513.27,-28665.855,-6215.04,-20331.72,-28355.445,-6397.56,2307.555
1764764447.2591867,61.605,-517.4549999999999,-28670.4,-6220.215,-20336.355,-28358.01,-6399.945,2305.035
1764764447.2591867,57.915,-521.415,-28674.405,-6223.95,-20340.09,-28360.89,-6402.24,2301.48
1764764447.2591867,56.835,-522.54,-28675.665,-6224.985,-20340.765,-28360.98,-6404.4,2299.41
1764764447.2591867,59.085,-520.515,-28673.685,-6222.06,-20337.39,-28357.74,-6403.139999999999,2301.525
1764764447.2591867,59.085,-519.75,-28672.515,-6220.98,-20336.805,-28357.695,-6403.05,2302.245
1764764447.2591867,56.7,-520.92,-28674.54,-6222.51,-20338.515,-28359.675,-6404.445,2300.67
1764764447.2591867,53.325,-523.215,-28676.88,-6225.255,-20341.08,-28364.265,-6406.514999999999,2296.53
1764764447.2591867,56.88,-520.02,-28673.64,-6222.24,-20338.92,-28361.88,-6405.3,2299.095
1764764447.2591867,56.52,-521.055,-28674.495,-6223.094999999999,-20340.99,-28363.365,-6405.57,2298.555
1764764447.2591867,52.38,-525.24,-28678.455,-6227.46,-20344.185,-28367.775,-6408.945,2294.28
1764764447.2591867,53.055,-524.295,-28677.105,-6226.065,-20342.52,-28365.705,-6408.855,2294.955
1764764447.2591867,53.19,-524.16,-28676.655,-6225.48,-20340.99,-28364.175,-6408.405,2295.495
1764764447.2591867,49.59,-527.805,-28681.02,-6229.8,-20344.905,-28367.595,-6410.07,2292.3
1764764447.2591867,52.785,-525.96,-28679.805,-6228.719999999999,-20344.455,-28365.615,-6409.44,2294.955
1764764447.2602022,56.655,-522.405,-28677.105,-6226.11,-20341.89,-28362.24,-6406.695,2300.085
1764764447.2602022,56.115,-522.99,-28678.815,-6227.865,-20344.14,-28365.57,-6407.19,2299.005
1764764447.2602022,49.455,-529.0649999999999,-28683.99,-6233.31,-20349.81,-28372.23,-6412.275,2291.445
1764764447.2602022,48.06,-530.28,-28685.205,-6233.49,-20349.18,-28372.5,-6412.679999999999,2290.005
1764764447.2602022,48.51,-530.685,-28685.205,-6232.679999999999,-20347.83,-28371.735,-6411.69,2290.32
1764764447.3076234,50.13,-528.5699999999999,-28682.055,-6229.44,-20346.12,-28369.305,-6411.33,2291.895
1764764447.3076234,52.605,-524.0699999999999,-28678.68,-6224.804999999999,-20342.52,-28365.345,-6409.17,2294.91
1764764447.3076234,51.435,-524.79,-28679.085,-6225.795,-20342.79,-28366.155,-6409.53,2293.155
1764764447.3076234,54.18,-523.035,-28677.24,-6224.895,-20341.215,-28364.94,-6408.63,2294.685
1764764447.3076234,49.995,-527.04,-28682.055,-6229.53,-20346.345,-28369.53,-6411.87,2290.365
1764764447.3076234,51.705,-525.375,-28680.12,-6227.505,-20345.265,-28367.82,-6409.755,2292.12
1764764447.3076234,55.755,-522.225,-28677.735,-6225.84,-20343.69,-28365.615,-6407.91,2295.945
1764764447.3076234,53.19,-525.87,-28682.73,-6231.195,-20349.405,-28371.06,-6412.139999999999,2293.47
1764764447.3076234,51.435,-528.12,-28684.755,-6233.264999999999,-20351.745,-28373.175,-6413.175,2291.04
1764764447.3076234,55.755,-523.89,-28680.345,-6228.045,-20346.165,-28368.09,-6409.17,2295.63
1764764447.350782,57.735,-521.685,-28678.14,-6225.615,-20343.195,-28365.48,-6407.325,2298.06
1764764447.350782,59.04,-520.155,-28677.06,-6224.535,-20342.205,-28364.085,-6405.84,2297.88
1764764447.350782,59.13,-519.39,-28676.385,-6223.995,-20340.45,-28363.23,-6405.255,2297.655
1764764447.350782,58.815,-519.12,-28675.215,-6223.32,-20339.505,-28362.465,-6404.67,2297.97
1764764447.350782,57.825,-519.975,-28675.62,-6223.005,-20340.045,-28362.555,-6404.355,2297.295
1764764447.350782,61.47,-517.23,-28673.595,-6220.304999999999,-20337.12,-28360.17,-6403.185,2300.13
1764764447.350782,61.56,-517.23,-28673.775,-6220.62,-20337.03,-28360.26,-6403.094999999999,2300.085
1764764447.350782,56.88,-521.64,-28679.13,-6226.469999999999,-20343.465,-28365.93,-6407.73,2295.225
1764764447.350782,53.37,-525.105,-28682.865,-6230.655,-20348.55,-28370.79,-6409.98,2291.94
1764764447.350782,53.73,-523.62,-28682.1,-6229.485,-20347.605,-28371.015,-6408.945,2292.705
1764764447.350782,57.42,-520.29,-28678.455,-6225.344999999999,-20343.555,-28367.19,-6406.74,2295.81
1764764447.350782,53.595,-523.755,-28681.245,-6228.315,-20346.03,-28369.08,-6408.855,2292.93
1764764447.350782,55.485,-522.495,-28679.895,-6226.2,-20343.375,-28365.885,-6407.73,2294.595
1764764447.350782,54.225,-523.53,-28680.975,-6226.695,-20344.545,-28366.47,-6408.63,2293.155
1764764447.350782,52.245,-524.34,-28681.74,-6226.74,-20345.31,-28367.595,-6408.9,2290.995
1764764447.350782,55.755,-520.0649999999999,-28677.24,-6222.78,-20341.395,-28365.075,-6406.469999999999,2293.74
1764764447.350782,62.235,-513.72,-28670.04,-6216.615,-20336.13,-28360.53,-6403.139999999999,2300.22
1764764447.350782,62.46,-512.415,-28668.195,-6215.49,-20336.895,-28361.655,-6403.679999999999,2300.67
1764764447.350782,61.965,-512.865,-28668.285,-6215.49,-20337.39,-28361.79,-6402.78,2300.985
1764764447.350782,59.67,-515.16,-28671.84,-6218.19,-20339.28,-28362.24,-6402.87,2299.23
1764764447.350782,57.51,-517.05,-28674.765,-6221.07,-20341.8,-28363.365,-6403.05,2296.89
1764764447.350782,61.065,-515.115,-28673.91,-6220.62,-20339.82,-28360.305,-6400.53,2300.445
1764764447.350782,62.145,-516.15,-28675.665,-6223.275,-20342.07,-28360.89,-6400.665,2301.12
1764764447.350782,59.895,-518.22,-28677.645,-6224.849999999999,-20344.545,-28363.635,-6402.735,2298.96
1764764447.350782,60.48,-517.185,-28676.205,-6223.77,-20342.295,-28361.88,-6402.825,2300.175
1764764447.350782,60.705,-516.87,-28676.205,-6223.32,-20342.115,-28361.745,-6403.005,2300.805
1764764447.351814,61.02,-516.105,-28675.125,-6222.105,-20341.215,-28361.115,-6401.88,2301.255
1764764447.351814,55.17,-521.73,-28679.895,-6226.965,-20345.895,-28366.29,-6405.255,2295.405
1764764447.351814,55.935,-520.65,-28679.22,-6226.245,-20346.03,-28367.415,-6405.525,2295.81
1764764447.351814,58.185,-517.3199999999999,-28675.935,-6223.77,-20344.725,-28365.75,-6404.219999999999,2298.375
1764764447.351814,61.56,-513.9,-28671.66,-6220.125,-20341.575,-28362.555,-6402.15,2301.21
1764764447.351814,58.635,-516.645,-28674.09,-6222.69,-20343.465,-28364.94,-6403.815,2298.87
1764764447.351814,60.93,-514.17,-28672.605,-6220.844999999999,-20340.765,-28362.87,-6402.96,2301.21
1764764447.351814,59.445,-516.6899999999999,-28674.765,-6222.645,-20341.845,-28363.185,-6403.23,2299.77
1764764447.351814,56.07,-520.47,-28679.4,-6226.605,-20345.175,-28365.165,-6405.165,2297.79
1764764447.351814,55.755,-521.145,-28680.795,-6227.099999999999,-20346.84,-28366.47,-6406.605,2296.26
1764764447.351814,56.745,-519.525,-28677.6,-6224.715,-20346.255,-28367.46,-6406.065,2295.63
1764764447.351814,56.61,-517.77,-28675.44,-6222.69,-20345.265,-28367.28,-6405.615,2295.495
1764764447.4002826,57.105,-517.095,-28675.53,-6222.87,-20345.355,-28366.92,-6405.03,2296.17
1764764447.4002826,54.72,-520.245,-28679.355,-6226.74,-20348.46,-28369.26,-6407.19,2292.93
1764764447.4002826,56.88,-518.805,-28678.995,-6225.974999999999,-20345.58,-28366.29,-6405.929999999999,2295.27
1764764447.4002826,55.53,-521.1,-28681.02,-6227.099999999999,-20345.94,-28366.515,-6405.974999999999,2294.37
1764764447.4002826,57.915,-518.895,-28678.995,-6224.264999999999,-20343.645,-28364.625,-6403.905,2296.395
1764764447.4002826,58.86,-517.23,-28677.015,-6222.24,-20342.52,-28363.725,-6402.465,2297.385
1764764447.4002826,56.07,-520.245,-28680.12,-6224.49,-20345.175,-28366.38,-6404.49,2293.92
1764764447.4007907,58.5,-518.04,-28677.105,-6221.34,-20341.89,-28364.445,-6402.554999999999,2295.945
1764764447.4007907,61.56,-514.305,-28673.505,-6218.55,-20339.19,-28361.88,-6400.44,2299.095
1764764447.4007907,56.745,-518.4449999999999,-28676.97,-6223.094999999999,-20344.5,-28367.505,-6404.445,2293.695
1764764447.4007907,57.735,-516.87,-28676.34,-6223.23,-20346.165,-28368.27,-6404.535,2294.37
1764764447.4007907,58.77,-517.545,-28678.815,-6226.74,-20350.35,-28371.15,-6405.929999999999,2295.9
1764764447.4007907,60.255,-517.68,-28678.23,-6226.605,-20350.8,-28371.285,-6406.605,2297.655
1764764447.4007907,58.995,-519.39,-28679.355,-6227.19,-20351.79,-28372.05,-6407.775,2294.775
1764764447.4007907,56.745,-520.29,-28680.255,-6228.045,-20353.095,-28374.435,-6409.125,2292.12
1764764447.4007907,56.925,-521.145,-28681.605,-6228.179999999999,-20351.61,-28372.41,-6409.17,2292.84
1764764447.4007907,56.655,-521.775,-28683.045,-6228.855,-20351.115,-28369.935,-6408.63,2293.695
1764764447.4007907,56.07,-522.045,-28683.18,-6229.304999999999,-20351.16,-28369.98,-6408.134999999999,2293.47
1764764447.4007907,53.955,-523.62,-28684.62,-6231.645,-20352.87,-28372.545,-6409.395,2292.48
1764764447.4007907,52.56,-525.735,-28687.725,-6234.885,-20355.75,-28375.245,-6410.61,2291.22
1764764447.4007907,53.19,-525.015,-28687.455,-6233.94,-20355.93,-28375.515,-6410.655,2291.58
1764764447.4007907,53.505,-522.63,-28684.44,-6230.07,-20353.905,-28374.39,-6410.34,2291.76
1764764447.4007907,56.115,-518.4,-28677.78,-6223.365,-20348.73,-28370.43,-6408.99,2293.02
1764764447.4007907,61.02,-512.91,-28670.985,-6216.84,-20343.6,-28366.11,-6405.255,2295.45
1764764447.443931,60.93,-514.485,-28674.315,-6219.675,-20344.275,-28365.84,-6404.49,2296.62
1764764447.443931,53.82,-525.465,-28687.635,-6230.925,-20350.305,-28368.36,-6406.605,2293.695
1764764447.443931,51.03,-529.47,-28693.08,-6236.054999999999,-20355.93,-28371.42,-6408.945,2292.075
1764764447.443931,50.355,-530.01,-28693.17,-6238.17,-20358.765,-28374.525,-6409.98,2290.545
1764764447.443931,53.82,-526.23,-28688.175,-6233.264999999999,-20355.525,-28371.78,-6408.54,2292.705
1764764447.443931,49.455,-529.425,-28691.73,-6236.054999999999,-20358.855,-28375.605,-6411.87,2288.295
1764764447.443931,50.175,-528.435,-28690.695,-6234.974999999999,-20357.865,-28374.57,-6411.014999999999,2289.015
1764764447.443931,52.425,-526.59,-28688.58,-6232.5,-20356.02,-28372.95,-6409.71,2290.725
1764764447.443931,54.585,-523.125,-28685.43,-6229.98,-20353.41,-28371.51,-6407.505,2292.165
1764764447.443931,56.565,-519.93,-28682.37,-6226.245,-20350.08,-28369.395,-6405.525,2293.56
1764764447.443931,58.68,-515.88,-28678.5,-6221.429999999999,-20346.93,-28365.795,-6403.679999999999,2295.36
1764764447.445472,64.08,-510.84,-28672.785,-6216.48,-20341.935,-28360.755,-6400.304999999999,2300.625
1764764447.4469926,62.415,-514.665,-28677.195,-6221.34,-20345.31,-28363.41,-6402.285,2298.6
1764764447.4469926,56.88,-521.145,-28684.98,-6229.349999999999,-20351.07,-28368.135,-6405.344999999999,2294.055
1764764447.4469926,56.97,-520.425,-28684.62,-6228.63,-20350.665,-28368.0,-6404.94,2295.855
1764764447.4469926,50.76,-526.68,-28691.73,-6235.29,-20356.56,-28373.49,-6408.764999999999,2289.915
1764764447.4469926,52.425,-525.3299999999999,-28690.02,-6233.355,-20355.345,-28371.87,-6406.875,2290.68
1764764447.4469926,56.52,-520.47,-28683.855,-6228.0,-20350.305,-28367.955,-6403.905,2294.865
1764764447.4469926,60.48,-515.52,-28679.265,-6223.32,-20345.715,-28363.68,-6400.755,2299.5
1764764447.4469926,58.68,-517.365,-28682.82,-6226.11,-20348.595,-28366.02,-6401.969999999999,2296.71
1764764447.4469926,59.445,-516.105,-28681.695,-6224.445,-20346.975,-28364.175,-6402.014999999999,2297.475
1764764447.4469926,59.49,-515.295,-28678.995,-6223.41,-20346.075,-28363.545,-6400.889999999999,2297.835
1764764447.4926114,58.005,-517.23,-28682.01,-6226.245,-20348.37,-28366.155,-6401.745,2296.17
1764764447.4926114,59.805,-516.1949999999999,-28681.515,-6225.525,-20348.55,-28365.795,-6401.745,2297.07
1764764447.4926114,63.81,-512.37,-28677.42,-6221.16,-20345.13,-28362.06,-6399.63,2301.165
1764764447.4926114,61.38,-513.855,-28680.075,-6223.455,-20347.605,-28365.165,-6401.429999999999,2298.6
1764764447.4926114,57.735,-517.05,-28683.09,-6227.865,-20351.7,-28368.72,-6402.69,2295.585
1764764447.4926114,59.13,-515.835,-28681.155,-6226.74,-20350.755,-28367.64,-6402.599999999999,2296.17
1764764447.4926114,56.385,-518.805,-28683.9,-6229.215,-20353.635,-28370.52,-6405.03,2292.57
1764764447.4926114,59.805,-514.665,-28679.76,-6225.03,-20349.945,-28367.055,-6403.23,2296.035
1764764447.4926114,61.65,-513.405,-28677.69,-6222.554999999999,-20347.335,-28363.77,-6400.395,2298.285
1764764447.4926114,58.545,-516.3299999999999,-28680.93,-6225.615,-20349.72,-28366.29,-6401.79,2295.18
1764764447.4926114,59.355,-515.295,-28680.705,-6225.705,-20349.0,-28365.39,-6400.844999999999,2296.26
1764764447.4926114,60.435,-514.71,-28680.84,-6226.155,-20348.82,-28365.84,-6401.205,2296.845
1764764447.4926114,54.225,-520.65,-28685.88,-6231.915,-20354.22,-28371.42,-6405.389999999999,2292.345
1764764447.4926114,48.015,-525.735,-28690.92,-6237.54,-20360.745,-28376.865,-6410.34,2285.955
1764764447.4926114,48.33,-526.365,-28690.74,-6237.945,-20362.23,-28377.18,-6410.34,2285.235
1764764447.4926114,51.75,-523.8,-28690.155,-6236.82,-20362.32,-28376.865,-6409.665,2288.385
1764764447.4926114,54.045,-521.64,-28688.895,-6234.435,-20360.385,-28375.515,-6408.54,2291.085
1764764447.4926114,55.17,-520.29,-28686.69,-6232.77,-20357.505,-28373.31,-6406.514999999999,2292.57
1764764447.4926114,56.475,-518.22,-28684.89,-6230.88,-20356.245,-28372.185,-6406.065,2293.335
1764764447.4926114,59.22,-515.475,-28682.37,-6227.28,-20352.645,-28368.495,-6403.5,2296.305
1764764447.4926114,54.945,-519.975,-28686.78,-6231.69,-20356.425,-28372.68,-6406.065,2291.985
1764764447.4936223,55.26,-519.75,-28686.06,-6231.51,-20356.92,-28371.825,-6405.795,2291.94
1764764447.539193,59.985,-514.0799999999999,-28679.445,-6225.525,-20351.61,-28366.29,-6402.42,2296.98
1764764447.539193,58.995,-514.71,-28680.255,-6226.425,-20352.78,-28367.775,-6403.139999999999,2296.17
1764764447.539193,59.085,-514.62,-28680.57,-6227.145,-20353.32,-28369.08,-6403.455,2295.405
1764764447.539193,57.645,-515.79,-28682.595,-6229.215,-20354.985,-28370.385,-6404.219999999999,2294.685
1764764447.539193,52.965,-520.515,-28687.86,-6234.57,-20359.35,-28374.48,-6406.29,2291.175
1764764447.539193,53.28,-519.525,-28686.69,-6233.895,-20359.26,-28374.39,-6406.965,2290.635
1764764447.539193,52.83,-520.56,-28687.545,-6234.12,-20359.665,-28374.165,-6407.37,2290.095
1764764447.539193,54.045,-520.1999999999999,-28686.24,-6232.094999999999,-20357.64,-28371.69,-6406.02,2291.625
1764764447.539193,55.89,-517.86,-28683.45,-6229.125,-20355.3,-28368.63,-6404.355,2294.055
1764764447.539193,57.645,-515.115,-28681.02,-6227.415,-20352.78,-28366.47,-6401.88,2296.755
1764764447.5396996,60.66,-512.505,-28678.545,-6224.715,-20350.44,-28364.13,-6399.405,2299.32
1764764447.5396996,56.88,-516.6,-28682.55,-6228.81,-20355.12,-28368.945,-6403.5,2296.305
1764764447.5396996,58.005,-515.295,-28681.74,-6227.28,-20354.22,-28368.495,-6403.32,2297.16
1764764447.5396996,56.835,-516.24,-28683.135,-6228.81,-20355.84,-28369.845,-6404.67,2294.505
1764764447.5396996,59.76,-512.8199999999999,-28678.815,-6224.715,-20352.69,-28366.83,-6402.599999999999,2297.655
1764764447.5396996,57.645,-513.765,-28678.815,-6224.58,-20352.645,-28368.63,-6402.645,2295.18
1764764447.5396996,58.365,-513.765,-28677.69,-6223.995,-20351.97,-28368.045,-6402.375,2296.485
1764764447.5396996,58.815,-514.26,-28678.95,-6224.94,-20352.87,-28366.83,-6402.33,2297.07
1764764447.5396996,55.62,-517.41,-28683.63,-6228.27,-20356.65,-28369.98,-6404.219999999999,2293.695
1764764447.5396996,60.435,-511.02,-28676.835,-6221.655,-20351.07,-28366.605,-6402.42,2297.88
1764764447.5396996,60.255,-509.985,-28675.89,-6220.665,-20350.98,-28366.83,-6401.79,2297.475
1764764447.5396996,59.13,-510.03,-28676.475,-6221.7,-20352.51,-28369.44,-6403.32,2295.18
1764764447.5396996,59.22,-509.49,-28676.52,-6222.195,-20354.4,-28371.51,-6404.804999999999,2293.695
1764764447.5396996,60.345,-509.67,-28677.555,-6223.094999999999,-20355.525,-28370.925,-6403.724999999999,2295.72
1764764447.5863955,52.83,-521.37,-28692.09,-6236.325,-20363.76,-28376.775,-6406.514999999999,2291.13
1764764447.5863955,51.795,-525.8249999999999,-28697.94,-6240.96,-20364.39,-28377.045,-6405.57,2292.48
1764764447.5863955,53.145,-523.53,-28696.14,-6239.25,-20363.31,-28377.54,-6405.48,2293.11
1764764447.5863955,56.52,-518.9399999999999,-28690.38,-6233.13,-20359.17,-28374.075,-6403.185,2294.82
1764764447.5863955,58.455,-516.015,-28686.285,-6228.9,-20357.145,-28372.68,-6402.645,2295.495
1764764447.5863955,60.21,-512.55,-28682.73,-6226.155,-20355.345,-28371.465,-6401.025,2297.07
1764764447.5863955,61.11,-510.48,-28679.67,-6223.32,-20354.445,-28370.61,-6400.665,2296.89
1764764447.5863955,61.425,-509.49,-28677.915,-6222.465,-20354.355,-28370.655,-6401.205,2296.98
1764764447.5863955,62.37,-508.95,-28676.295,-6221.205,-20352.645,-28369.53,-6399.54,2298.51
1764764447.5863955,61.155,-509.58,-28677.24,-6221.7,-20353.005,-28369.215,-6399.63,2297.295
1764764447.5863955,57.51,-514.98,-28684.215,-6228.63,-20358.09,-28372.05,-6401.835,2294.145
1764764447.5863955,51.075,-523.98,-28693.845,-6237.405,-20363.94,-28377.81,-6405.389999999999,2289.69
1764764447.5863955,52.02,-522.495,-28691.955,-6235.469999999999,-20361.69,-28375.785,-6405.21,2290.995
1764764447.5863955,58.455,-515.0699999999999,-28683.675,-6228.719999999999,-20357.91,-28371.645,-6402.06,2295.36
1764764447.5863955,57.195,-516.645,-28685.565,-6231.51,-20360.835,-28373.985,-6402.96,2294.235
1764764447.5863955,58.41,-518.4,-28688.13,-6232.32,-20359.395,-28371.915,-6401.7,2296.26
1764764447.5863955,58.275,-517.905,-28687.185,-6230.835,-20357.505,-28371.555,-6400.755,2296.215
1764764447.5863955,54.855,-521.055,-28689.84,-6233.264999999999,-20359.89,-28374.66,-6403.139999999999,2292.975
1764764447.5863955,51.03,-525.3299999999999,-28694.88,-6238.44,-20365.02,-28378.98,-6405.615,2289.6
1764764447.5863955,54.045,-522.0,-28692.9,-6237.27,-20364.525,-28377.81,-6405.3,2292.975
1764764447.5863955,56.295,-519.03,-28689.66,-6236.099999999999,-20363.535,-28376.37,-6404.445,2294.1
1764764447.5869172,53.505,-521.46,-28691.145,-6238.215,-20366.505,-28379.565,-6406.605,2290.41
1764764447.5869172,56.34,-517.725,-28687.05,-6232.815,-20360.115,-28373.895,-6404.264999999999,2293.965
1764764447.5869172,54.9,-519.12,-28688.355,-6233.085,-20361.06,-28374.57,-6404.355,2292.255
1764764447.6324515,49.995,-523.935,-28693.035,-6238.395,-20365.47,-28379.34,-6408.27,2287.125
1764764447.6324515,52.74,-520.605,-28689.345,-6235.469999999999,-20362.455,-28376.73,-6406.245,2290.32
1764764447.6324515,56.97,-515.025,-28682.73,-6229.62,-20358.135,-28372.32,-6402.24,2295.72
1764764447.6324515,56.655,-515.835,-28683.09,-6229.395,-20359.035,-28373.175,-6402.645,2294.73
1764764447.6324515,57.645,-514.305,-28683.0,-6229.215,-20358.63,-28373.04,-6402.33,2294.91
1764764447.6324515,58.5,-514.53,-28683.36,-6230.295,-20359.125,-28373.58,-6402.24,2295.45
1764764447.6324515,58.41,-515.295,-28685.835,-6232.23,-20360.61,-28373.13,-6402.06,2296.44
1764764447.6324515,57.195,-516.6899999999999,-28688.175,-6233.985,-20361.915,-28373.13,-6402.87,2295.855
1764764447.632971,56.52,-517.635,-28688.49,-6233.849999999999,-20362.275,-28373.445,-6403.05,2294.28
1764764447.632971,55.62,-518.13,-28688.445,-6233.31,-20362.455,-28373.265,-6403.185,2291.85
1764764447.632971,59.625,-513.765,-28683.945,-6229.035,-20357.82,-28368.63,-6400.395,2295.495
1764764447.632971,61.785,-510.795,-28680.255,-6226.965,-20356.065,-28367.595,-6398.73,2297.97
1764764447.632971,61.335,-511.605,-28681.335,-6227.415,-20355.84,-28367.73,-6398.415,2297.745
1764764447.632971,57.96,-515.25,-28683.72,-6231.014999999999,-20358.45,-28370.565,-6400.71,2295.54
1764764447.632971,54.945,-517.5,-28686.105,-6233.49,-20361.555,-28374.345,-6402.915,2292.39
1764764447.632971,60.165,-511.65,-28680.39,-6228.09,-20356.065,-28368.495,-6399.45,2297.205
1764764447.632971,61.785,-510.12,-28679.22,-6225.795,-20354.67,-28366.47,-6398.19,2298.825
1764764447.632971,59.715,-512.055,-28682.19,-6228.54,-20357.64,-28368.765,-6398.775,2296.575
1764764447.632971,59.31,-513.495,-28684.35,-6230.07,-20358.27,-28368.945,-6398.37,2295.72
1764764447.632971,60.165,-513.09,-28684.62,-6228.135,-20356.245,-28366.695,-6397.56,2297.16
1764764447.632971,64.44,-508.005,-28679.715,-6223.05,-20351.745,-28362.15,-6395.4,2301.3
1764764447.632971,65.88,-505.98,-28677.105,-6221.385,-20350.215,-28360.53,-6393.87,2303.01
1764764447.632971,66.105,-505.935,-28675.71,-6220.8,-20349.855,-28360.8,-6393.33,2302.695
1764764447.632971,64.53,-507.645,-28676.88,-6222.51,-20351.43,-28362.78,-6395.219999999999,2300.805
1764764447.6807373,60.48,-511.29,-28680.705,-6226.245,-20355.255,-28366.2,-6396.929999999999,2297.25
1764764447.6807373,61.74,-510.57,-28678.77,-6223.86,-20353.095,-28364.13,-6395.49,2298.555
1764764447.6807373,65.565,-505.215,-28673.325,-6218.19,-20348.73,-28359.9,-6393.24,2302.02
1764764447.6807373,64.53,-504.54,-28672.695,-6218.955,-20349.675,-28361.115,-6393.825,2300.31
1764764447.6807373,66.735,-501.975,-28668.87,-6215.264999999999,-20346.57,-28358.28,-6392.25,2302.2
1764764447.6807373,65.565,-503.73,-28670.535,-6215.445,-20347.74,-28358.64,-6392.07,2300.67
1764764447.6807373,66.42,-503.955,-28672.065,-6217.605,-20349.765,-28360.665,-6392.16,2300.04
1764764447.6807373,67.77,-502.74,-28671.48,-6219.09,-20353.275,-28363.86,-6393.465,2301.435
1764764447.6807373,65.295,-506.34,-28676.565,-6224.4,-20357.415,-28366.83,-6395.985,2299.995
1764764447.6807373,56.925,-517.41,-28688.625,-6233.94,-20362.545,-28370.34,-6399.27,2293.605
1764764447.6807373,54.81,-521.595,-28693.17,-6238.035,-20364.93,-28371.78,-6400.62,2292.345
1764764447.6807373,54.405,-521.055,-28692.135,-6238.08,-20366.55,-28373.085,-6401.969999999999,2291.535
1764764447.6807373,55.17,-519.795,-28690.155,-6236.955,-20367.63,-28374.12,-6402.87,2291.535
1764764447.6807373,56.205,-517.725,-28688.49,-6235.425,-20366.19,-28373.895,-6402.42,2292.345
1764764447.6807373,58.32,-514.845,-28684.62,-6231.24,-20363.04,-28371.105,-6400.8,2294.775
1764764447.6807373,58.23,-514.35,-28685.07,-6230.61,-20362.725,-28370.205,-6400.215,2294.46
1764764447.6807373,59.085,-513.855,-28685.52,-6230.925,-20361.78,-28369.62,-6400.08,2294.82
1764764447.6807373,62.055,-511.155,-28683.27,-6228.36,-20358.045,-28366.155,-6397.02,2298.96
1764764447.6818652,63.36,-510.3,-28682.1,-6226.965,-20357.01,-28364.895,-6394.905,2300.67
1764764447.6818652,62.235,-511.245,-28682.595,-6227.37,-20358.945,-28367.055,-6397.02,2299.32
1764764447.6818652,62.865,-510.165,-28682.055,-6226.469999999999,-20358.495,-28367.055,-6396.255,2299.05
1764764447.6818652,63.99,-508.32,-28680.57,-6225.165,-20356.695,-28365.57,-6394.23,2300.535
1764764447.6818652,63.585,-508.545,-28680.795,-6225.929999999999,-20357.145,-28365.39,-6393.645,2300.985
1764764447.6818652,59.76,-512.685,-28685.16,-6230.52,-20361.015,-28370.25,-6396.48,2296.845
1764764447.7282915,59.58,-512.775,-28685.43,-6231.06,-20362.185,-28371.51,-6396.57,2296.26
1764764447.7282915,61.02,-511.695,-28683.945,-6229.44,-20361.105,-28371.24,-6395.355,2297.925
1764764447.7282915,63.72,-509.715,-28680.885,-6227.28,-20358.585,-28368.99,-6393.014999999999,2300.76
1764764447.7282915,61.605,-511.785,-28683.225,-6229.44,-20360.745,-28370.88,-6394.32,2298.195
1764764447.7282915,62.505,-509.355,-28681.83,-6227.505,-20358.72,-28369.35,-6393.15,2299.23
1764764447.7282915,58.095,-512.9549999999999,-28686.24,-6231.24,-20362.905,-28373.85,-6396.75,2294.37
1764764447.7282915,60.93,-510.345,-28682.82,-6227.82,-20360.115,-28370.34,-6395.94,2296.845
1764764447.7282915,59.13,-511.47,-28684.08,-6229.44,-20361.42,-28371.195,-6396.255,2296.035
1764764447.7282915,55.98,-513.72,-28687.365,-6232.815,-20364.705,-28374.75,-6398.325,2293.245
1764764447.7282915,56.16,-514.305,-28687.95,-6233.445,-20365.92,-28375.65,-6399.495,2292.255
1764764447.7282915,55.305,-515.34,-28689.345,-6235.56,-20368.17,-28376.73,-6399.945,2291.58
1764764447.7282915,57.33,-513.405,-28688.175,-6234.255,-20366.865,-28374.57,-6398.639999999999,2294.055
1764764447.7282915,63.495,-508.095,-28681.11,-6227.685,-20360.655,-28368.36,-6394.05,2300.13
1764764447.7282915,62.91,-507.6,-28679.355,-6226.29,-20359.53,-28368.315,-6393.105,2299.815
1764764447.7282915,62.73,-507.195,-28678.41,-6225.615,-20358.585,-28367.28,-6393.014999999999,2300.355
1764764447.7282915,59.13,-511.29,-28682.685,-6228.855,-20362.095,-28372.005,-6397.11,2295.9
1764764447.7282915,60.705,-509.715,-28681.695,-6227.145,-20360.16,-28371.33,-6396.795,2296.485
1764764447.7282915,62.91,-508.095,-28680.255,-6226.065,-20358.72,-28369.215,-6395.985,2298.555
1764764447.7282915,61.11,-509.58,-28682.055,-6229.035,-20361.87,-28371.195,-6395.759999999999,2297.25
1764764447.7282915,62.055,-508.32,-28681.245,-6228.315,-20361.24,-28369.89,-6394.815,2298.285
1764764447.7282915,63.945,-507.78,-28680.84,-6226.74,-20358.765,-28366.515,-6393.24,2301.12
1764764447.7282915,61.2,-510.705,-28684.035,-6229.62,-20359.845,-28367.955,-6394.139999999999,2299.32
1764764447.7282915,62.91,-508.275,-28680.435,-6225.48,-20356.2,-28365.03,-6392.745,2300.76
1764764447.729308,62.82,-507.915,-28680.165,-6224.49,-20355.21,-28364.13,-6392.295,2300.13
1764764447.7713869,62.145,-507.105,-28679.895,-6224.219999999999,-20355.165,-28364.175,-6391.53,2299.635
1764764447.7713869,58.86,-510.75,-28683.225,-6229.215,-20359.755,-28368.54,-6395.04,2296.44
1764764447.7713869,54.585,-516.15,-28689.255,-6235.469999999999,-20365.65,-28373.355,-6398.639999999999,2293.245
1764764447.7713869,58.23,-512.37,-28684.665,-6231.465,-20362.365,-28371.24,-6397.2,2294.775
1764764447.7713869,55.89,-513.675,-28687.005,-6234.165,-20366.775,-28375.155,-6399.99,2291.715
1764764447.7713869,54.9,-514.755,-28687.815,-6235.92,-20369.475,-28377.63,-6401.655,2290.815
1764764447.7718985,53.865,-515.655,-28688.58,-6236.73,-20370.015,-28377.54,-6402.285,2290.455
1764764447.7718985,50.355,-520.965,-28694.205,-6242.58,-20373.345,-28379.745,-6405.21,2288.385
1764764447.7718985,49.23,-524.115,-28698.12,-6245.775,-20374.38,-28379.88,-6405.03,2287.665
1764764447.7718985,52.965,-519.3,-28693.71,-6241.545,-20369.97,-28376.055,-6401.384999999999,2291.535
1764764447.7718985,56.655,-514.26,-28687.905,-6236.099999999999,-20365.02,-28372.185,-6398.415,2295.135
1764764447.7718985,51.705,-519.03,-28692.54,-6240.465,-20370.015,-28377.315,-6402.014999999999,2289.555
1764764447.7718985,51.66,-519.5699999999999,-28692.18,-6240.87,-20370.555,-28377.27,-6402.78,2288.835
1764764447.7718985,52.2,-517.68,-28690.56,-6238.08,-20369.16,-28376.055,-6402.014999999999,2289.645
1764764447.7718985,53.55,-515.745,-28688.13,-6235.29,-20366.145,-28373.805,-6400.17,2290.365
1764764447.7718985,55.035,-514.4399999999999,-28686.69,-6234.255,-20365.605,-28373.4,-6399.405,2290.68
1764764447.7718985,56.25,-513.495,-28686.24,-6234.344999999999,-20365.38,-28372.95,-6399.405,2291.895
1764764447.7724197,55.845,-515.2049999999999,-28688.94,-6237.135,-20365.875,-28372.23,-6399.9,2291.85
1764764447.7724197,50.58,-521.235,-28695.42,-6243.165,-20371.635,-28376.415,-6402.465,2287.98
1764764447.7724197,52.83,-517.995,-28691.505,-6239.745,-20369.115,-28373.805,-6401.025,2290.635
1764764447.7724197,54.855,-516.51,-28690.29,-6238.665,-20367.945,-28373.67,-6399.99,2292.39
1764764447.7724197,52.38,-518.715,-28693.8,-6241.679999999999,-20371.68,-28377.18,-6402.509999999999,2288.97
1764764447.8186522,57.825,-513.09,-28687.32,-6236.325,-20365.92,-28371.42,-6398.235,2294.19
1764764447.8186522,60.12,-511.605,-28685.745,-6233.219999999999,-20363.58,-28369.305,-6396.075,2296.035
1764764447.8186522,58.86,-511.965,-28686.69,-6233.625,-20363.715,-28370.295,-6396.66,2295.045
1764764447.8186522,57.465,-513.27,-28687.455,-6234.929999999999,-20364.48,-28370.97,-6396.389999999999,2292.975
1764764447.8186522,57.735,-512.8199999999999,-28687.41,-6234.344999999999,-20363.49,-28368.9,-6395.804999999999,2294.145
1764764447.8186522,56.25,-512.91,-28687.86,-6234.165,-20363.715,-28369.26,-6396.435,2294.01
1764764447.8186522,57.78,-512.415,-28686.87,-6233.985,-20363.13,-28368.765,-6395.535,2296.035
1764764447.8186522,61.155,-510.435,-28684.665,-6231.78,-20361.645,-28367.19,-6394.275,2298.69
1764764447.8186522,61.335,-509.085,-28683.675,-6230.07,-20360.295,-28365.66,-6393.15,2299.185
1764764447.8186522,58.095,-511.785,-28685.79,-6233.219999999999,-20363.355,-28368.315,-6395.985,2296.08
1764764447.8186522,55.98,-513.18,-28687.905,-6235.965,-20365.515,-28371.24,-6397.38,2293.335
1764764447.8186522,57.06,-511.29,-28685.79,-6232.815,-20362.77,-28368.855,-6395.355,2294.505
1764764447.8186522,53.505,-515.2049999999999,-28689.075,-6236.145,-20365.875,-28371.645,-6397.425,2290.635
1764764447.8186522,53.91,-516.1949999999999,-28689.615,-6236.594999999999,-20366.73,-28371.06,-6398.37,2290.95
1764764447.8186522,54.135,-515.88,-28690.02,-6236.37,-20365.965,-28370.43,-6397.83,2291.49
1764764447.8186522,57.465,-511.515,-28686.015,-6232.724999999999,-20362.905,-28367.415,-6395.445,2294.955
1764764447.8186522,57.51,-511.65,-28686.78,-6233.94,-20364.93,-28369.44,-6395.759999999999,2294.91
1764764447.8186522,56.43,-512.145,-28687.365,-6234.03,-20365.785,-28370.475,-6395.94,2294.01
1764764447.8186522,60.705,-506.025,-28681.245,-6226.92,-20359.575,-28365.57,-6392.925,2298.42
1764764447.8186522,58.635,-507.105,-28682.505,-6227.37,-20359.485,-28366.38,-6394.5,2295.855
1764764447.8186522,54.675,-512.8199999999999,-28688.85,-6233.849999999999,-20363.715,-28369.755,-6397.155,2292.075
1764764447.8186522,49.005,-520.02,-28697.13,-6242.264999999999,-20370.6,-28375.74,-6401.025,2287.08
1764764447.8647645,49.14,-521.01,-28698.48,-6243.48,-20371.995,-28376.37,-6400.755,2288.52
1764764447.8647645,54.81,-515.835,-28693.08,-6238.889999999999,-20367.495,-28371.69,-6397.335,2293.245
1764764447.8647645,57.69,-513.225,-28691.1,-6237.315,-20366.73,-28371.645,-6396.795,2294.73
1764764447.8647645,54.99,-515.025,-28692.765,-6239.16,-20369.295,-28373.715,-6398.73,2292.57
1764764447.8647645,56.295,-512.775,-28690.785,-6237.27,-20366.37,-28370.475,-6397.2,2294.28
1764764447.8647645,57.33,-511.83,-28690.155,-6236.415,-20365.92,-28370.16,-6396.705,2294.685
1764764447.8647645,56.34,-513.09,-28690.785,-6237.405,-20367.09,-28371.69,-6397.965,2293.47
1764764447.8647645,53.19,-515.655,-28693.485,-6240.33,-20370.105,-28375.245,-6400.125,2290.635
1764764447.8647645,55.305,-513.27,-28690.515,-6237.36,-20367.81,-28372.86,-6397.469999999999,2293.56
1764764447.8647645,54.135,-514.4399999999999,-28692.405,-6238.844999999999,-20369.07,-28374.255,-6397.335,2292.255
1764764447.8647645,57.15,-510.975,-28689.345,-6236.19,-20365.605,-28370.205,-6395.445,2295.81
1764764447.8647645,55.17,-513.63,-28691.685,-6238.215,-20367.18,-28371.78,-6397.155,2293.38
1764764447.8647645,58.995,-510.345,-28687.59,-6234.66,-20363.67,-28368.135,-6394.77,2296.35
1764764447.8647645,59.31,-509.67,-28687.32,-6233.895,-20364.075,-28368.405,-6394.185,2296.62
1764764447.8647645,59.895,-508.635,-28686.195,-6233.49,-20362.86,-28367.82,-6392.88,2296.89
1764764447.8647645,59.355,-508.68,-28685.925,-6233.219999999999,-20362.905,-28367.775,-6392.655,2297.295
1764764447.8647645,59.76,-509.175,-28684.935,-6232.365,-20363.13,-28367.955,-6393.69,2296.125
1764764447.8647645,54.405,-512.9549999999999,-28689.21,-6236.415,-20367.99,-28373.58,-6398.594999999999,2290.77
1764764447.8647645,55.305,-511.83,-28688.715,-6236.235,-20368.305,-28373.895,-6398.145,2291.22
1764764447.8647645,58.455,-508.68,-28686.69,-6234.705,-20367.045,-28371.69,-6396.165,2294.46
1764764447.8647645,57.15,-511.605,-28689.93,-6238.125,-20370.33,-28374.3,-6396.435,2294.055
1764764447.8657784,54.945,-514.305,-28692.09,-6240.78,-20371.365,-28375.155,-6397.245,2292.615
1764764447.8657784,52.29,-516.645,-28694.79,-6242.535,-20372.985,-28376.19,-6398.37,2290.005
1764764447.8657784,53.28,-515.97,-28693.17,-6240.24,-20370.375,-28374.66,-6397.65,2290.5
1764764447.911679,57.42,-512.055,-28687.86,-6235.065,-20365.965,-28370.205,-6394.679999999999,2294.145
1764764447.911679,62.28,-506.34,-28682.055,-6229.08,-20360.25,-28365.345,-6390.719999999999,2298.51
1764764447.911679,63.18,-505.89,-28680.57,-6227.099999999999,-20358.765,-28363.995,-6390.405,2298.78
1764764447.911679,61.38,-506.88,-28681.515,-6227.955,-20359.98,-28366.38,-6391.395,2297.43
1764764447.911679,61.74,-507.195,-28682.055,-6228.45,-20361.285,-28366.74,-6391.215,2297.025
1764764447.911679,58.86,-510.57,-28688.22,-6234.795,-20367.63,-28371.645,-6394.5,2294.19
1764764447.911679,52.11,-518.67,-28697.94,-6245.415,-20377.395,-28379.205,-6399.99,2289.555
1764764447.911679,52.245,-519.795,-28699.29,-6246.315,-20376.45,-28378.035,-6400.44,2290.275
1764764447.911679,48.735,-521.865,-28701.765,-6248.205,-20378.745,-28381.365,-6402.69,2285.19
1764764447.911679,49.005,-520.605,-28698.75,-6245.415,-20376.945,-28379.925,-6403.094999999999,2285.505
1764764447.911679,49.95,-517.995,-28696.275,-6243.344999999999,-20374.965,-28378.53,-6403.185,2286.63
1764764447.911679,47.7,-520.155,-28698.03,-6245.19,-20377.17,-28381.455,-6403.95,2283.39
1764764447.911679,49.545,-517.68,-28695.42,-6242.895,-20375.595,-28380.465,-6403.32,2284.65
1764764447.911679,47.88,-519.39,-28698.57,-6245.82,-20377.125,-28381.725,-6404.94,2284.11
1764764447.911679,47.475,-521.46,-28700.865,-6247.844999999999,-20377.575,-28382.445,-6404.264999999999,2284.875
1764764447.911679,47.115,-522.495,-28701.945,-6248.34,-20377.89,-28383.075,-6404.445,2284.11
1764764447.911679,46.035,-523.17,-28702.44,-6249.195,-20379.69,-28383.93,-6404.58,2282.985
1764764447.9126916,47.115,-521.91,-28702.665,-6249.24,-20379.285,-28382.76,-6404.13,2284.245
1764764447.9126916,43.56,-526.365,-28706.22,-6253.29,-20382.93,-28386.495,-6406.965,2279.88
1764764447.9126916,45.18,-525.42,-28705.23,-6250.995,-20381.31,-28385.73,-6406.2,2281.095
1764764447.9126916,48.96,-520.29,-28700.235,-6246.179999999999,-20377.17,-28381.455,-6403.455,2283.705
1764764447.9126916,47.835,-519.885,-28698.03,-6245.235,-20377.98,-28382.58,-6403.905,2281.995
1764764447.9126916,52.38,-514.4399999999999,-28690.92,-6238.215,-20372.49,-28378.53,-6400.98,2286.315
1764764447.9126916,48.51,-517.275,-28693.98,-6241.32,-20377.17,-28382.895,-6403.77,2282.31
1764764447.9583929,48.735,-517.095,-28696.005,-6243.389999999999,-20377.215,-28383.03,-6403.905,2283.12
1764764447.9583929,47.88,-519.975,-28701.135,-6247.215,-20377.53,-28382.04,-6404.355,2283.84
1764764447.9583929,43.2,-526.995,-28709.46,-6254.82,-20382.795,-28385.415,-6406.605,2280.69
1764764447.9583929,42.03,-529.02,-28711.53,-6257.565,-20386.89,-28388.475,-6408.585,2279.745
1764764447.9583929,43.56,-528.12,-28710.225,-6257.429999999999,-20387.07,-28389.195,-6408.405,2279.16
1764764447.9583929,42.21,-528.93,-28710.315,-6257.835,-20388.645,-28390.5,-6409.035,2277.495
1764764447.9583929,44.28,-525.915,-28707.345,-6254.73,-20386.89,-28387.575,-6407.955,2280.6
1764764447.9583929,43.2,-526.4549999999999,-28707.75,-6255.0,-20386.98,-28388.43,-6407.73,2279.07
1764764447.9583929,46.26,-523.71,-28704.915,-6252.525,-20384.82,-28386.63,-6406.02,2281.725
1764764447.9583929,43.47,-526.14,-28707.12,-6255.27,-20387.745,-28390.095,-6408.719999999999,2279.07
1764764447.9583929,40.95,-528.39,-28708.245,-6256.844999999999,-20389.455,-28392.165,-6410.34,2277.045
1764764447.9583929,43.02,-527.265,-28707.21,-6254.594999999999,-20386.395,-28388.88,-6408.9,2279.115
1764764447.9583929,40.905,-529.74,-28709.955,-6257.07,-20388.375,-28391.535,-6409.8,2276.46
1764764447.9583929,42.525,-526.995,-28707.255,-6254.28,-20386.08,-28389.825,-6408.315,2278.17
1764764447.9583929,46.395,-522.045,-28701.855,-6249.599999999999,-20382.705,-28385.865,-6406.74,2281.41
1764764447.9583929,47.07,-521.235,-28701.945,-6249.78,-20385.09,-28387.305,-6407.19,2281.545
1764764447.9583929,47.34,-521.3249999999999,-28702.305,-6251.31,-20385.855,-28388.88,-6407.28,2281.41
1764764447.9583929,44.1,-524.88,-28706.04,-6253.965,-20386.035,-28388.925,-6407.37,2278.935
1764764447.9583929,46.485,-523.845,-28705.95,-6252.12,-20381.76,-28384.47,-6403.77,2282.265
1764764447.9583929,39.915,-530.28,-28711.755,-6258.915,-20388.285,-28391.76,-6408.9,2275.695
1764764447.9583929,38.835,-530.9549999999999,-28712.115,-6259.815,-20389.68,-28393.56,-6410.745,2274.885
1764764447.9583929,38.61,-530.235,-28711.8,-6259.724999999999,-20389.68,-28393.38,-6410.34,2274.57
1764764448.004413,40.05,-528.75,-28710.675,-6259.005,-20389.995,-28393.2,-6410.384999999999,2275.83
1764764448.004939,46.395,-523.395,-28705.635,-6255.224999999999,-20387.205,-28390.23,-6407.82,2280.96
1764764448.004939,44.955,-524.6999999999999,-28705.995,-6255.855,-20387.835,-28390.59,-6408.45,2278.98
1764764448.004939,43.47,-525.555,-28707.39,-6256.17,-20387.88,-28390.095,-6408.09,2278.755
1764764448.004939,42.3,-527.04,-28709.505,-6258.014999999999,-20388.6,-28390.905,-6408.54,2277.405
1764764448.004939,39.87,-529.29,-28711.89,-6260.445,-20391.03,-28393.695,-6409.844999999999,2274.48
1764764448.004939,43.335,-525.465,-28707.48,-6256.71,-20387.52,-28390.275,-6407.865,2278.17
1764764448.004939,42.615,-525.6899999999999,-28706.58,-6256.755,-20388.87,-28392.345,-6409.44,2277.315
1764764448.004939,39.78,-527.985,-28708.47,-6258.87,-20391.48,-28395.135,-6412.139999999999,2274.66
1764764448.004939,35.01,-532.98,-28714.005,-6263.775,-20394.99,-28398.78,-6415.605,2270.61
1764764448.004939,36.09,-531.72,-28714.05,-6263.145,-20393.415,-28396.71,-6415.11,2271.96
1764764448.004939,36.045,-532.26,-28714.815,-6264.0,-20394.225,-28397.385,-6415.155,2271.6
1764764448.004939,35.19,-533.5649999999999,-28714.905,-6264.495,-20394.63,-28397.115,-6416.009999999999,2270.835
1764764448.004939,33.254999999999995,-535.4549999999999,-28715.94,-6265.889999999999,-20396.025,-28397.88,-6415.74,2269.845
1764764448.004939,30.15,-538.47,-28719.0,-6269.535,-20399.265,-28401.12,-6417.495,2266.245
1764764448.004939,33.435,-534.735,-28716.165,-6266.295,-20396.61,-28398.33,-6415.065,2269.215
1764764448.004939,37.935,-530.595,-28711.89,-6262.065,-20392.65,-28394.865,-6412.679999999999,2273.175
1764764448.004939,34.965,-532.98,-28714.005,-6264.855,-20395.44,-28398.195,-6415.02,2270.07
1764764448.0059445,36.18,-530.505,-28712.295,-6262.785,-20392.965,-28396.26,-6412.139999999999,2271.78
1764764448.0059445,39.51,-527.715,-28709.82,-6260.219999999999,-20390.265,-28393.155,-6410.52,2274.885
1764764448.0059445,38.655,-528.66,-28710.495,-6260.895,-20391.795,-28394.46,-6411.465,2273.94
1764764448.0059445,35.01,-531.765,-28713.78,-6263.82,-20394.54,-28397.205,-6413.4,2270.745
1764764448.0516777,38.115,-529.605,-28711.8,-6262.469999999999,-20392.515,-28394.64,-6413.085,2273.04
1764764448.0516777,37.26,-530.865,-28713.78,-6263.82,-20394.18,-28395.45,-6412.995,2271.33
1764764448.0516777,38.52,-528.84,-28711.98,-6262.065,-20391.975,-28393.605,-6411.78,2272.86
1764764448.0516777,39.465,-526.86,-28710.72,-6260.67,-20391.03,-28392.39,-6410.115,2274.03
1764764448.0516777,38.205,-528.165,-28711.8,-6262.155,-20392.515,-28394.1,-6411.87,2272.86
1764764448.0516777,35.684999999999995,-531.09,-28714.59,-6265.215,-20395.26,-28397.115,-6414.389999999999,2270.07
1764764448.0516777,35.055,-531.54,-28715.535,-6265.665,-20396.565,-28397.88,-6414.48,2269.08
1764764448.0516777,35.55,-530.505,-28714.185,-6264.945,-20396.925,-28398.42,-6413.804999999999,2269.575
1764764448.0516777,34.605,-532.0799999999999,-28715.985,-6266.025,-20397.465,-28399.32,-6414.165,2268.9
1764764448.0516777,31.725,-535.365,-28719.315,-6269.804999999999,-20400.57,-28402.605,-6416.145,2265.705
1764764448.0516777,34.47,-532.665,-28716.795,-6266.655,-20397.465,-28400.445,-6414.75,2268.27
1764764448.0516777,32.4,-534.24,-28718.145,-6267.915,-20398.77,-28401.03,-6415.695,2267.145
1764764448.0516777,33.93,-532.935,-28716.885,-6266.295,-20397.015,-28398.69,-6414.255,2269.755
1764764448.0516777,32.625,-534.24,-28718.55,-6268.005,-20398.545,-28400.67,-6415.02,2267.235
1764764448.0516777,35.28,-531.045,-28714.68,-6264.54,-20395.44,-28397.745,-6412.77,2269.35
1764764448.0516777,33.3,-532.935,-28716.615,-6266.429999999999,-20397.33,-28398.915,-6413.849999999999,2268.27
1764764448.0516777,35.865,-531.045,-28714.455,-6263.73,-20394.765,-28397.025,-6412.724999999999,2270.295
1764764448.0516777,34.74,-531.09,-28715.355,-6263.775,-20395.305,-28397.565,-6412.95,2269.035
1764764448.0521834,30.105,-535.4549999999999,-28719.54,-6268.005,-20399.31,-28402.065,-6415.56,2264.985
1764764448.0521834,30.42,-535.05,-28720.215,-6269.04,-20399.805,-28402.47,-6415.83,2266.515
1764764448.0521834,31.455,-533.295,-28718.91,-6268.815,-20399.445,-28401.48,-6415.335,2267.82
1764764448.0521834,32.58,-531.99,-28717.38,-6267.06,-20396.835,-28398.96,-6414.255,2268.18
1764764448.0521834,36.045,-529.0649999999999,-28713.555,-6263.145,-20392.11,-28394.505,-6411.735,2270.88
1764764448.0521834,37.305,-528.03,-28711.305,-6260.895,-20390.04,-28393.02,-6410.16,2272.545
1764764448.0981436,38.295,-527.4449999999999,-28709.955,-6259.365,-20389.365,-28392.345,-6408.675,2273.31
1764764448.0981436,34.785,-530.235,-28713.105,-6262.469999999999,-20392.92,-28395.09,-6409.889999999999,2269.935
1764764448.0981436,37.35,-528.39,-28711.665,-6262.965,-20393.055,-28394.1,-6408.54,2272.5
1764764448.0981436,35.73,-531.27,-28715.58,-6269.04,-20400.255,-28400.355,-6412.455,2269.845
1764764448.0981436,37.62,-530.37,-28714.86,-6268.455,-20399.22,-28399.815,-6412.815,2271.375
1764764448.0981436,35.37,-533.5649999999999,-28718.55,-6270.84,-20400.615,-28401.12,-6414.12,2268.495
1764764448.0981436,31.995,-537.165,-28722.465,-6274.17,-20403.315,-28402.83,-6416.415,2266.92
1764764448.0981436,32.85,-536.175,-28721.295,-6272.73,-20402.955,-28401.885,-6416.37,2268.0
1764764448.0981436,36.9,-531.9,-28716.705,-6268.41,-20398.635,-28398.42,-6414.255,2271.24
1764764448.0981436,38.07,-529.74,-28715.04,-6266.565,-20395.62,-28396.845,-6412.59,2271.96
1764764448.0981436,37.35,-530.3249999999999,-28715.13,-6265.62,-20394.495,-28396.305,-6412.185,2271.33
1764764448.0981436,34.515,-533.79,-28718.055,-6269.13,-20397.015,-28399.23,-6415.425,2268.405
1764764448.0981436,32.129999999999995,-536.49,-28720.665,-6271.469999999999,-20400.93,-28402.245,-6416.685,2266.515
1764764448.0981436,28.935,-538.1999999999999,-28723.095,-6273.9,-20404.215,-28405.89,-6418.665,2262.69
1764764448.0981436,30.015,-536.085,-28721.295,-6271.605,-20402.28,-28403.64,-6418.17,2263.455
1764764448.0981436,33.66,-532.62,-28718.055,-6268.32,-20398.86,-28400.625,-6415.425,2267.595
1764764448.0981436,29.88,-537.39,-28723.905,-6275.07,-20404.89,-28405.89,-6418.8,2264.31
1764764448.0981436,29.745,-538.29,-28724.895,-6276.554999999999,-20405.79,-28405.845,-6419.34,2264.175
1764764448.0981436,31.815,-535.995,-28722.915,-6274.17,-20403.855,-28404.045,-6418.53,2266.2
1764764448.0981436,31.23,-535.005,-28722.645,-6273.405,-20403.765,-28403.955,-6416.82,2266.245
1764764448.0981436,35.055,-531.36,-28718.505,-6270.435,-20400.48,-28400.58,-6413.804999999999,2269.215
1764764448.0981436,31.635,-534.645,-28721.295,-6272.955,-20403.495,-28404.18,-6416.28,2264.895
1764764448.0981436,32.04,-534.1949999999999,-28720.17,-6270.84,-20402.415,-28403.64,-6415.605,2265.165
1764764448.0981436,32.355,-533.385,-28719.9,-6270.389999999999,-20402.145,-28403.1,-6415.02,2265.21
1764764448.1431737,31.68,-533.925,-28720.665,-6271.155,-20402.505,-28402.83,-6415.695,2265.21
1764764448.1431737,34.785,-531.405,-28717.695,-6268.365,-20399.22,-28399.59,-6413.58,2267.775
1764764448.1431737,33.345,-533.655,-28719.945,-6270.885,-20400.255,-28400.13,-6414.615,2266.29
1764764448.1431737,31.005,-536.265,-28722.42,-6273.585,-20402.19,-28401.75,-6415.38,2264.085
1764764448.1431737,32.805,-534.06,-28720.215,-6270.84,-20399.355,-28399.05,-6413.219999999999,2265.93
1764764448.1431737,30.285,-536.4449999999999,-28723.095,-6273.27,-20402.37,-28402.02,-6414.974999999999,2264.22
1764764448.1431737,34.155,-533.52,-28719.765,-6270.57,-20400.48,-28399.095,-6413.94,2267.685
1764764448.1431737,31.41,-534.555,-28721.025,-6272.594999999999,-20402.37,-28401.84,-6415.11,2264.67
1764764448.1431737,26.82,-538.515,-28724.22,-6276.599999999999,-20406.24,-28405.845,-6417.585,2260.17
1764764448.1431737,29.835,-535.8149999999999,-28722.78,-6274.08,-20403.99,-28402.38,-6416.415,2262.78
1764764448.1431737,28.935,-535.725,-28723.59,-6274.575,-20404.08,-28402.83,-6417.405,2262.42
1764764448.1431737,30.195,-533.88,-28720.89,-6272.415,-20401.605,-28400.715,-6415.605,2263.995
1764764448.1431737,30.42,-533.745,-28720.395,-6271.965,-20400.66,-28400.625,-6415.065,2263.905
1764764448.1431737,26.73,-537.5699999999999,-28724.22,-6274.844999999999,-20404.035,-28403.595,-6417.945,2259.585
1764764448.1431737,27.135,-537.93,-28724.22,-6275.34,-20403.63,-28402.965,-6417.99,2259.81
1764764448.1431737,28.98,-536.355,-28722.87,-6274.575,-20402.91,-28402.38,-6416.415,2261.655
1764764448.1431737,31.5,-533.79,-28720.62,-6272.865,-20401.695,-28400.85,-6414.66,2263.86
1764764448.1431737,27.135,-538.0649999999999,-28724.67,-6276.69,-20405.745,-28405.17,-6417.54,2259.0
1764764448.1431737,29.205,-535.275,-28722.105,-6273.495,-20402.19,-28402.065,-6416.73,2261.205
1764764448.1431737,28.53,-535.545,-28721.34,-6271.875,-20399.94,-28401.075,-6415.695,2261.16
1764764448.1445866,25.2,-538.245,-28723.365,-6274.304999999999,-20402.415,-28403.64,-6417.855,2256.84
1764764448.1445866,28.53,-534.42,-28718.775,-6270.615,-20399.31,-28400.085,-6416.28,2259.81
1764764448.1445866,30.33,-532.305,-28716.57,-6269.13,-20398.59,-28399.32,-6414.884999999999,2262.42
1764764448.1445866,32.129999999999995,-530.9549999999999,-28716.93,-6269.31,-20400.84,-28401.075,-6414.75,2263.68
1764764448.194596,31.905,-531.765,-28719.18,-6270.929999999999,-20402.865,-28402.155,-6415.065,2263.185
1764764448.194596,30.285,-535.545,-28724.805,-6275.655,-20404.845,-28402.83,-6415.2,2262.285
1764764448.194596,28.935,-537.885,-28726.785,-6277.86,-20406.105,-28403.325,-6415.965,2261.34
1764764448.194596,27.045,-539.865,-28727.91,-6280.29,-20409.21,-28406.835,-6418.53,2259.315
1764764448.194596,31.05,-536.04,-28723.455,-6276.285,-20405.655,-28403.19,-6415.83,2262.735
1764764448.194596,27.36,-538.965,-28726.155,-6279.165,-20407.95,-28405.845,-6418.304999999999,2258.505
1764764448.194596,24.705,-541.125,-28727.685,-6280.965,-20409.39,-28407.105,-6419.835,2257.335
1764764448.194596,24.795,-541.305,-28727.55,-6280.605,-20409.21,-28407.285,-6419.34,2256.84
1764764448.194596,25.965,-539.865,-28725.57,-6277.365,-20406.915,-28405.44,-6417.315,2258.19
1764764448.194596,29.16,-536.67,-28721.385,-6273.0,-20402.325,-28400.22,-6415.02,2261.61
1764764448.194596,28.755,-536.5799999999999,-28721.655,-6272.37,-20402.82,-28400.625,-6415.965,2260.755
1764764448.194596,27.945,-536.5799999999999,-28721.61,-6272.325,-20402.55,-28400.58,-6415.38,2260.62
1764764448.194596,27.945,-536.985,-28722.6,-6273.27,-20402.955,-28401.075,-6415.56,2260.17
1764764448.194596,26.1,-538.8299999999999,-28725.345,-6276.24,-20405.43,-28403.955,-6417.99,2257.695
1764764448.1956034,23.715,-541.0799999999999,-28728.315,-6279.12,-20409.345,-28407.555,-6419.655,2254.68
1764764448.1956034,21.06,-543.3299999999999,-28731.33,-6282.9,-20413.665,-28411.11,-6421.815,2252.07
1764764448.1956034,25.11,-539.64,-28726.515,-6278.895,-20410.02,-28407.24,-6419.655,2256.93
1764764448.1956034,25.155,-539.46,-28726.29,-6278.13,-20408.94,-28405.35,-6418.889999999999,2257.155
1764764448.1956034,25.335,-540.045,-28727.415,-6278.264999999999,-20409.21,-28405.395,-6419.16,2256.345
1764764448.1956034,22.41,-542.745,-28729.8,-6280.425,-20411.415,-28407.78,-6420.375,2253.15
1764764448.1956034,21.6,-543.78,-28731.24,-6282.0,-20413.08,-28408.95,-6421.77,2252.16
1764764448.1956034,25.245,-539.9549999999999,-28727.82,-6278.849999999999,-20409.3,-28406.115,-6419.52,2254.635
1764764448.1956034,24.435,-540.72,-28727.415,-6279.525,-20409.48,-28406.43,-6419.205,2254.68
1764764448.1956034,20.385,-544.14,-28731.15,-6282.63,-20412.855,-28410.12,-6421.679999999999,2251.98
1764764448.2379093,25.02,-539.235,-28726.875,-6277.905,-20408.49,-28405.395,-6418.755,2255.715
1764764448.2379093,25.065,-539.235,-28727.505,-6278.895,-20410.02,-28406.745,-6418.98,2254.59
1764764448.2379093,22.455,-541.98,-28729.98,-6280.965,-20412.72,-28409.94,-6421.455,2251.62
1764764448.2379093,25.83,-538.29,-28725.615,-6276.69,-20409.75,-28407.105,-6419.565,2254.95
1764764448.2379093,26.145,-536.67,-28724.715,-6275.52,-20408.67,-28406.07,-6418.304999999999,2255.67
1764764448.2379093,24.615,-538.8299999999999,-28726.74,-6277.23,-20409.48,-28406.43,-6418.889999999999,2254.725
1764764448.2379093,23.895,-539.73,-28727.865,-6278.76,-20410.74,-28406.385,-6419.295,2255.445
1764764448.2379093,24.885,-539.28,-28726.785,-6278.219999999999,-20410.425,-28406.205,-6418.304999999999,2255.58
1764764448.2379093,28.125,-537.165,-28723.455,-6275.25,-20406.915,-28402.785,-6415.29,2258.28
1764764448.2379093,25.02,-540.855,-28728.36,-6279.615,-20411.145,-28405.215,-6416.685,2255.67
1764764448.2379093,24.21,-542.2049999999999,-28730.295,-6280.785,-20411.955,-28406.385,-6417.179999999999,2255.085
1764764448.2379093,24.975,-541.665,-28729.62,-6279.84,-20411.01,-28406.745,-6416.685,2255.31
1764764448.2379093,21.51,-544.005,-28731.24,-6282.54,-20414.655,-28410.21,-6419.34,2251.8
1764764448.2379093,23.175,-540.72,-28727.595,-6280.155,-20411.595,-28407.51,-6419.07,2253.735
1764764448.2379093,23.49,-538.965,-28726.335,-6277.545,-20409.39,-28407.33,-6419.295,2253.555
1764764448.2379093,21.735,-539.865,-28726.605,-6277.455,-20410.065,-28409.355,-6420.599999999999,2250.585
1764764448.2379093,22.455,-538.8299999999999,-28724.58,-6276.375,-20410.245,-28409.22,-6420.465,2251.125
1764764448.2379093,24.885,-537.39,-28723.905,-6276.06,-20410.38,-28408.59,-6418.259999999999,2253.87
1764764448.2379093,26.685,-536.85,-28724.94,-6277.365,-20410.245,-28406.88,-6417.224999999999,2256.12
1764764448.2379093,20.52,-544.8149999999999,-28733.355,-6285.42,-20415.69,-28411.515,-6421.724999999999,2252.16
1764764448.2379093,17.55,-549.99,-28738.71,-6289.785,-20417.76,-28413.315,-6423.3,2249.55
1764764448.2379093,17.009999999999998,-549.09,-28739.16,-6290.145,-20418.03,-28413.99,-6423.57,2249.505
1764764448.2379093,16.335,-548.28,-28738.89,-6289.29,-20418.84,-28414.845,-6424.065,2249.145
1764764448.2379093,14.355,-549.81,-28740.6,-6290.639999999999,-20421.27,-28418.04,-6425.235,2246.76
1764764448.2884357,17.009999999999998,-546.66,-28737.09,-6287.219999999999,-20417.805,-28414.53,-6424.335,2248.335
1764764448.2884357,20.7,-542.52,-28732.095,-6281.955,-20412.405,-28409.445,-6421.86,2251.395
1764764448.2884357,17.865,-544.59,-28733.805,-6283.62,-20413.305,-28411.65,-6422.04,2248.83
1764764448.2884357,21.195,-540.765,-28730.745,-6280.245,-20410.47,-28409.22,-6418.8,2252.295
1764764448.289485,23.67,-539.37,-28730.25,-6280.605,-20411.865,-28409.31,-6418.98,2254.68
1764764448.289485,18.585,-545.715,-28737.81,-6290.099999999999,-20421.18,-28416.69,-6424.335,2250.27
1764764448.289485,20.385,-544.725,-28737.63,-6289.92,-20420.325,-28416.015,-6423.795,2252.205
1764764448.289485,19.35,-545.805,-28738.215,-6290.145,-20419.875,-28416.6,-6423.615,2250.18
1764764448.289485,17.82,-547.02,-28738.8,-6290.505,-20420.73,-28417.185,-6424.065,2248.02
1764764448.289485,21.735,-542.655,-28733.58,-6285.69,-20416.005,-28411.965,-6421.365,2252.835
1764764448.289485,21.645,-541.98,-28732.68,-6284.115,-20414.925,-28411.065,-6420.554999999999,2253.06
1764764448.289485,18.135,-545.9399999999999,-28736.325,-6286.724999999999,-20417.67,-28413.9,-6423.48,2249.415
1764764448.289485,19.71,-544.23,-28734.885,-6285.195,-20415.87,-28412.1,-6422.445,2250.45
1764764448.289485,18.315,-545.49,-28735.56,-6287.355,-20417.04,-28413.9,-6422.445,2249.28
1764764448.289485,21.87,-541.98,-28732.815,-6284.025,-20413.62,-28409.94,-6419.565,2253.96
1764764448.2903955,20.16,-542.43,-28734.705,-6285.87,-20414.655,-28411.83,-6420.24,2253.195
1764764448.2903955,20.025,-543.78,-28735.515,-6286.5,-20415.735,-28412.64,-6420.195,2251.89
1764764448.2903955,17.235,-546.165,-28737.855,-6288.705,-20417.985,-28414.035,-6422.445,2248.47
1764764448.2903955,19.845,-543.1949999999999,-28733.805,-6284.969999999999,-20414.295,-28411.38,-6420.554999999999,2251.395
1764764448.2903955,21.42,-540.855,-28729.845,-6282.405,-20413.305,-28410.615,-6419.474999999999,2252.025
1764764448.2903955,21.555,-540.9449999999999,-28730.07,-6283.17,-20414.34,-28412.055,-6419.61,2251.17
1764764448.2903955,22.815,-538.92,-28728.315,-6280.965,-20412.405,-28409.76,-6418.44,2252.835
1764764448.2903955,24.03,-538.29,-28727.46,-6279.389999999999,-20411.055,-28407.915,-6416.955,2254.86
1764764448.2903955,19.17,-543.87,-28733.49,-6285.24,-20414.88,-28411.29,-6419.429999999999,2251.26
1764764448.3330724,20.07,-543.8249999999999,-28734.03,-6285.78,-20413.8,-28409.94,-6418.53,2253.105
1764764448.3330724,17.145,-546.435,-28737.81,-6289.56,-20418.255,-28415.025,-6421.815,2249.505
1764764448.3330724,14.31,-549.855,-28740.555,-6292.44,-20421.945,-28419.93,-6424.29,2244.87
1764764448.3340783,15.21,-548.73,-28738.665,-6290.55,-20420.055,-28417.455,-6423.03,2246.04
1764764448.3340783,18.045,-546.3,-28737.315,-6288.435,-20418.12,-28414.17,-6421.95,2249.595
1764764448.3340783,16.425,-548.1899999999999,-28739.655,-6291.27,-20420.415,-28415.25,-6423.03,2248.11
1764764448.3340783,13.815,-549.54,-28740.6,-6291.99,-20421.315,-28416.465,-6423.165,2245.14
1764764448.3340783,17.91,-545.355,-28735.695,-6286.815,-20416.365,-28412.595,-6420.42,2249.1
1764764448.3340783,17.595,-545.355,-28735.695,-6287.085,-20416.545,-28413.315,-6420.42,2249.235
1764764448.3340783,18.585,-544.095,-28735.245,-6285.78,-20416.455,-28412.19,-6419.79,2250.18
1764764448.3348107,19.575,-542.97,-28734.255,-6285.014999999999,-20415.87,-28411.29,-6418.935,2251.305
1764764448.3348107,18.18,-544.635,-28735.425,-6287.264999999999,-20417.355,-28412.82,-6420.78,2249.82
1764764448.3348107,14.04,-548.9549999999999,-28739.97,-6291.27,-20421.585,-28417.455,-6423.929999999999,2245.77
1764764448.3348107,14.985,-547.425,-28738.53,-6289.605,-20420.37,-28416.555,-6423.03,2247.57
1764764448.3348107,15.525,-548.01,-28738.26,-6289.785,-20420.82,-28416.33,-6423.48,2247.345
1764764448.3348107,14.805,-548.685,-28739.565,-6291.045,-20421.54,-28417.275,-6424.74,2245.995
1764764448.3348107,11.43,-550.8,-28741.59,-6292.98,-20424.015,-28419.93,-6426.134999999999,2242.755
1764764448.3348107,12.69,-549.27,-28739.79,-6291.405,-20422.755,-28419.615,-6426.495,2242.755
1764764448.3348107,12.96,-549.36,-28739.565,-6290.594999999999,-20422.215,-28419.57,-6426.63,2242.17
1764764448.3348107,14.085,-548.415,-28738.485,-6289.245,-20420.415,-28417.14,-6424.245,2244.33
1764764448.3348107,16.56,-545.895,-28736.19,-6286.679999999999,-20416.5,-28413.135,-6421.77,2248.02
1764764448.3348107,12.87,-550.035,-28740.825,-6291.224999999999,-20419.47,-28415.43,-6423.929999999999,2245.725
1764764448.3809743,9.855,-553.77,-28746.0,-6296.445,-20425.14,-28419.75,-6427.304999999999,2242.71
1764764448.3809743,5.49,-557.91,-28749.555,-6300.719999999999,-20430.315,-28425.915,-6431.849999999999,2237.805
1764764448.3809743,7.335,-555.84,-28746.72,-6298.74,-20428.83,-28424.565,-6430.905,2239.74
1764764448.3809743,4.275,-558.405,-28750.545,-6302.835,-20433.285,-28429.245,-6433.155,2236.5
1764764448.3809743,6.705,-555.75,-28748.565,-6300.54,-20431.215,-28426.905,-6431.895,2237.94
1764764448.3809743,9.045,-553.59,-28746.0,-6297.84,-20428.875,-28423.935,-6429.735,2240.28
1764764448.3809743,8.28,-554.265,-28746.045,-6297.705,-20428.875,-28424.835,-6430.5,2240.28
1764764448.3809743,8.28,-554.04,-28745.19,-6297.66,-20429.055,-28425.105,-6430.005,2239.425
1764764448.382512,8.28,-554.13,-28746.0,-6298.065,-20429.28,-28424.34,-6429.285,2238.795
1764764448.382512,4.905,-557.235,-28749.555,-6301.844999999999,-20432.7,-28428.39,-6431.849999999999,2235.555
1764764448.382512,5.31,-556.605,-28749.105,-6301.53,-20432.52,-28428.57,-6432.075,2236.185
1764764448.382512,5.13,-555.795,-28748.565,-6300.719999999999,-20431.44,-28427.895,-6432.12,2235.915
1764764448.382512,5.94,-554.9399999999999,-28746.27,-6298.965,-20430.18,-28428.12,-6432.344999999999,2235.69
1764764448.382512,7.56,-552.87,-28744.38,-6296.13,-20429.19,-28426.77,-6432.3,2236.545
1764764448.382512,8.955,-550.89,-28742.85,-6294.825,-20426.76,-28423.665,-6429.78,2239.38
1764764448.382512,4.41,-556.02,-28748.295,-6300.675,-20430.72,-28426.995,-6432.255,2235.96
1764764448.382512,5.58,-555.975,-28748.25,-6301.395,-20430.585,-28426.68,-6432.3,2236.725
1764764448.382512,6.435,-555.255,-28747.845,-6300.764999999999,-20430.0,-28426.455,-6431.445,2237.355
1764764448.382512,6.029999999999999,-556.155,-28748.385,-6300.99,-20429.55,-28426.275,-6431.04,2237.535
1764764448.382512,1.485,-560.655,-28751.67,-6303.78,-20433.24,-28430.505,-6434.73,2232.63
1764764448.382512,3.735,-557.1899999999999,-28748.115,-6300.09,-20429.595,-28428.12,-6433.29,2233.575
1764764448.382512,8.775,-551.5649999999999,-28742.58,-6294.195,-20423.655,-28422.72,-6430.005,2237.94
1764764448.4252906,6.569999999999999,-553.8149999999999,-28744.335,-6295.86,-20426.58,-28423.89,-6431.355,2235.645
1764764448.4252906,8.504999999999999,-551.97,-28742.895,-6294.645,-20425.815,-28421.82,-6429.105,2237.805
1764764448.4252906,5.04,-555.165,-28747.53,-6299.235,-20430.495,-28426.32,-6432.21,2234.655
1764764448.4252906,5.67,-554.76,-28747.215,-6300.63,-20432.295,-28427.22,-6432.615,2234.835
1764764448.4252906,4.455,-556.965,-28749.51,-6302.925,-20433.69,-28428.165,-6432.974999999999,2233.575
1764764448.4252906,2.61,-559.62,-28753.515,-6306.795,-20436.3,-28429.695,-6433.56,2232.9
1764764448.4252906,5.31,-555.12,-28749.915,-6303.195,-20433.915,-28428.165,-6432.165,2236.275
1764764448.4252906,2.97,-557.01,-28751.265,-6304.77,-20435.445,-28431.045,-6434.37,2234.745
1764764448.4252906,-1.53,-563.265,-28756.98,-6309.719999999999,-20439.585,-28434.69,-6436.62,2230.83
1764764448.4252906,0.135,-561.3299999999999,-28755.09,-6307.605,-20437.65,-28432.8,-6435.0,2232.27
1764764448.4252906,5.805,-554.04,-28747.305,-6300.09,-20430.585,-28425.87,-6431.175,2236.905
1764764448.4252906,5.535,-554.04,-28746.495,-6299.82,-20429.865,-28424.97,-6431.58,2236.41
1764764448.4252906,3.42,-556.6949999999999,-28748.925,-6302.205,-20432.52,-28427.4,-6433.02,2233.8
1764764448.4252906,5.13,-554.85,-28747.08,-6300.27,-20430.855,-28425.69,-6431.895,2235.375
1764764448.4252906,2.205,-558.045,-28751.49,-6304.455,-20433.15,-28427.31,-6432.84,2233.08
1764764448.4265118,0.2249999999999999,-561.015,-28753.965,-6307.02,-20435.22,-28429.245,-6432.615,2231.505
1764764448.4265118,3.285,-557.8199999999999,-28750.995,-6304.23,-20433.105,-28427.13,-6431.985,2234.88
1764764448.4265118,0.495,-560.88,-28754.37,-6308.145,-20437.2,-28431.405,-6434.19,2231.235
1764764448.4265118,4.005,-557.1899999999999,-28751.13,-6304.41,-20433.87,-28428.435,-6432.255,2234.25
1764764448.4265118,2.655,-557.55,-28751.265,-6304.455,-20433.06,-28427.94,-6431.849999999999,2233.305
1764764448.4265118,5.265,-554.4449999999999,-28749.105,-6301.17,-20430.855,-28424.565,-6430.185,2236.005
1764764448.4265118,1.26,-558.63,-28753.2,-6305.04,-20434.545,-28428.165,-6432.884999999999,2231.685
1764764448.4265118,1.08,-558.3149999999999,-28753.2,-6304.23,-20433.42,-28427.445,-6431.849999999999,2232.135
1764764448.4265118,1.53,-557.91,-28752.705,-6304.41,-20432.745,-28427.22,-6431.67,2231.955
1764764448.4265118,1.26,-558.9449999999999,-28754.01,-6305.085,-20434.5,-28428.84,-6433.155,2230.74
1764764448.4265118,2.61,-557.235,-28752.705,-6304.905,-20434.545,-28428.48,-6432.255,2232.81
1764764448.472901,6.345,-553.275,-28748.07,-6299.955,-20430.045,-28424.205,-6429.42,2236.725
1764764448.4734068,4.365,-553.905,-28748.925,-6299.685,-20430.09,-28425.24,-6430.32,2233.935
1764764448.4734068,0.855,-557.37,-28751.31,-6303.195,-20433.87,-28429.29,-6433.02,2229.12
1764764448.4734068,2.205,-555.48,-28749.42,-6301.8,-20432.7,-28428.705,-6432.974999999999,2230.155
1764764448.4734068,5.22,-552.015,-28746.045,-6299.28,-20430.09,-28426.23,-6430.995,2233.44
1764764448.4734068,1.665,-556.74,-28753.38,-6305.76,-20435.895,-28429.515,-6433.335,2230.92
1764764448.4734068,3.915,-556.605,-28754.91,-6307.065,-20435.58,-28428.57,-6432.344999999999,2233.125
1764764448.4734068,4.32,-555.615,-28753.695,-6306.21,-20435.94,-28430.01,-6433.02,2232.72
1764764448.4734068,2.835,-556.155,-28753.38,-6306.48,-20436.615,-28431.27,-6433.875,2230.785
1764764448.4734068,6.029999999999999,-552.87,-28749.96,-6303.15,-20433.645,-28427.04,-6431.58,2234.025
1764764448.4734068,4.77,-554.5799999999999,-28751.49,-6304.77,-20435.04,-28428.93,-6432.344999999999,2233.26
1764764448.4734068,-0.4049999999999999,-560.025,-28756.755,-6310.215,-20440.215,-28434.195,-6436.08,2228.13
1764764448.4734068,1.71,-557.73,-28754.685,-6308.639999999999,-20437.29,-28431.63,-6435.0,2230.29
1764764448.4734068,2.205,-557.3249999999999,-28754.19,-6307.83,-20435.58,-28430.955,-6434.37,2231.28
1764764448.4734068,4.185,-555.255,-28751.355,-6305.67,-20433.96,-28429.065,-6431.58,2233.305
1764764448.4734068,3.285,-556.965,-28753.515,-6307.514999999999,-20435.895,-28430.01,-6432.57,2231.91
1764764448.4734068,1.125,-559.215,-28756.89,-6310.8,-20439.27,-28433.115,-6434.82,2229.3
1764764448.4734068,6.12,-554.13,-28751.895,-6306.57,-20434.275,-28428.255,-6431.445,2234.655
1764764448.4734068,7.02,-552.915,-28750.23,-6305.715,-20433.645,-28427.445,-6429.78,2235.195
1764764448.4734068,5.31,-554.265,-28751.58,-6306.84,-20434.05,-28429.425,-6428.969999999999,2234.07
1764764448.4734068,9.9,-549.81,-28746.765,-6301.8,-20429.415,-28424.52,-6426.179999999999,2238.255
1764764448.4734068,9.99,-550.305,-28747.44,-6301.889999999999,-20429.595,-28425.555,-6426.945,2237.76
1764764448.5201614,8.01,-552.735,-28749.915,-6303.735,-20431.53,-28426.77,-6427.889999999999,2235.51
1764764448.5201614,9.765,-549.99,-28746.855,-6300.27,-20427.615,-28423.305,-6426.495,2237.58
1764764448.5201614,9.27,-549.72,-28746.585,-6299.19,-20426.805,-28423.71,-6426.9,2236.815
1764764448.5201614,7.739999999999999,-550.035,-28745.28,-6298.155,-20427.39,-28425.24,-6427.889999999999,2235.51
1764764448.5201614,4.859999999999999,-551.52,-28745.685,-6298.425,-20428.335,-28426.23,-6429.645,2232.54
1764764448.5201614,8.73,-547.29,-28740.645,-6293.25,-20423.115,-28421.1,-6426.63,2236.41
1764764448.5201614,6.525,-549.09,-28743.165,-6295.23,-20424.78,-28422.045,-6426.855,2235.195
1764764448.5201614,4.05,-552.015,-28747.44,-6298.605,-20427.345,-28425.015,-6428.61,2233.305
1764764448.5201614,3.285,-553.545,-28749.78,-6301.395,-20429.505,-28427.67,-6429.554999999999,2231.955
1764764448.5201614,-1.35,-558.675,-28755.045,-6308.46,-20437.605,-28435.185,-6433.965,2227.32
1764764448.5201614,-0.4049999999999999,-559.0799999999999,-28755.765,-6309.9,-20439.63,-28436.04,-6434.639999999999,2227.59
1764764448.5201614,2.655,-556.245,-28753.47,-6306.57,-20435.985,-28432.71,-6433.02,2230.11
1764764448.5201614,3.285,-555.66,-28752.975,-6306.48,-20434.455,-28431.09,-6431.67,2231.46
1764764448.5201614,3.87,-555.5699999999999,-28753.11,-6307.605,-20435.94,-28431.495,-6430.86,2232.81
1764764448.5201614,3.555,-557.145,-28755.405,-6310.26,-20437.74,-28432.575,-6431.849999999999,2232.495
1764764448.5201614,3.42,-557.865,-28755.225,-6310.215,-20436.93,-28431.855,-6431.804999999999,2231.595
1764764448.5201614,-1.395,-562.05,-28759.725,-6314.175,-20441.16,-28435.545,-6434.009999999999,2227.455
1764764448.5201614,-0.315,-561.015,-28759.095,-6312.465,-20440.44,-28434.645,-6432.84,2229.255
1764764448.5201614,5.85,-554.4449999999999,-28751.715,-6305.49,-20433.87,-28428.345,-6427.8,2235.915
1764764448.5201614,2.475,-556.6949999999999,-28754.685,-6308.415,-20436.705,-28431.945,-6429.465,2232.405
1764764448.5201614,1.215,-558.18,-28757.34,-6310.44,-20438.64,-28434.105,-6431.49,2230.605
1764764448.5201614,-0.54,-560.2049999999999,-28758.465,-6311.7,-20439.765,-28435.59,-6432.884999999999,2228.445
1764764448.5201614,-2.43,-562.005,-28760.13,-6313.41,-20442.06,-28437.66,-6435.179999999999,2225.52
1764764448.5201614,-2.34,-560.43,-28758.555,-6312.645,-20441.52,-28436.265,-6434.73,2226.42
1764764448.5671198,0.2249999999999999,-558.63,-28757.205,-6310.395,-20439.495,-28433.565,-6433.695,2228.58
1764764448.5671198,-0.135,-558.54,-28757.745,-6310.215,-20440.125,-28434.195,-6433.245,2228.31
1764764448.5671198,0.045,-558.495,-28757.97,-6310.53,-20440.125,-28434.15,-6433.2,2228.67
1764764448.5671198,0.8999999999999999,-557.415,-28756.98,-6309.764999999999,-20438.775,-28432.98,-6432.705,2228.67
1764764448.5671198,3.24,-555.2099999999999,-28754.235,-6307.92,-20436.93,-28431.18,-6429.96,2230.56
1764764448.5671198,2.205,-555.7049999999999,-28755.27,-6308.73,-20437.74,-28432.575,-6430.41,2230.56
1764764448.5671198,3.78,-553.77,-28753.965,-6307.29,-20436.345,-28431.09,-6429.465,2231.595
1764764448.5671198,3.195,-553.995,-28753.605,-6307.695,-20436.345,-28431.855,-6429.735,2231.055
1764764448.5671198,0.315,-557.8199999999999,-28756.62,-6310.53,-20439.27,-28434.69,-6431.94,2227.68
1764764448.5671198,3.195,-555.3,-28752.48,-6306.974999999999,-20435.85,-28431.45,-6429.509999999999,2230.65
1764764448.5671198,7.245,-551.34,-28748.7,-6302.655,-20432.16,-28426.725,-6426.495,2235.105
1764764448.5671198,7.47,-551.745,-28749.24,-6303.42,-20432.745,-28426.68,-6426.45,2234.835
1764764448.5671198,3.78,-555.5699999999999,-28753.065,-6307.83,-20437.245,-28431.18,-6429.105,2231.1
1764764448.5671198,4.59,-553.9499999999999,-28752.075,-6307.29,-20436.84,-28431.09,-6428.474999999999,2231.91
1764764448.5671198,6.165,-551.115,-28748.295,-6302.025,-20432.07,-28426.635,-6426.315,2234.61
1764764448.5671198,4.095,-552.015,-28749.105,-6301.71,-20431.845,-28427.895,-6428.52,2232.045
1764764448.5671198,6.21,-550.5749999999999,-28749.51,-6304.139999999999,-20435.13,-28430.865,-6428.79,2233.845
1764764448.5671198,4.455,-553.725,-28753.2,-6309.045,-20439.945,-28434.51,-6430.679999999999,2231.55
1764764448.5671198,4.32,-553.005,-28753.245,-6309.135,-20439.9,-28433.295,-6430.32,2231.91
1764764448.5671198,5.67,-553.3199999999999,-28752.12,-6307.605,-20436.795,-28430.415,-6428.745,2233.98
1764764448.5671198,5.535,-553.23,-28751.49,-6307.245,-20435.58,-28429.245,-6427.575,2233.71
1764764448.5671198,6.569999999999999,-551.43,-28750.32,-6305.849999999999,-20434.815,-28428.48,-6427.215,2234.07
1764764448.6139452,4.59,-552.96,-28752.57,-6307.469999999999,-20435.625,-28429.245,-6428.565,2233.8
1764764448.6139452,3.555,-553.77,-28753.11,-6308.01,-20435.04,-28429.47,-6428.655,2232.585
1764764448.6139452,1.71,-555.165,-28754.19,-6309.09,-20436.795,-28430.73,-6429.69,2230.965
1764764448.6139452,-3.285,-559.035,-28758.645,-6313.365,-20441.97,-28435.815,-6433.469999999999,2225.835
1764764448.6139452,-3.465,-558.36,-28758.33,-6312.87,-20441.16,-28436.04,-6433.29,2225.835
1764764448.6139452,-3.195,-557.55,-28757.655,-6312.06,-20441.205,-28436.49,-6433.83,2225.565
1764764448.6139452,-2.295,-557.415,-28758.555,-6311.88,-20441.43,-28436.22,-6433.605,2225.655
1764764448.6139452,-0.855,-556.92,-28758.78,-6313.635,-20443.185,-28436.985,-6433.605,2227.095
1764764448.6139452,-0.72,-557.3249999999999,-28760.265,-6314.94,-20445.705,-28437.93,-6433.2,2227.365
1764764448.6139452,-2.43,-558.36,-28759.455,-6314.849999999999,-20444.805,-28437.75,-6434.19,2226.375
1764764448.6145704,-2.295,-557.37,-28757.565,-6313.185,-20443.59,-28437.93,-6434.099999999999,2226.69
1764764448.6145704,-0.945,-555.5699999999999,-28755.675,-6310.889999999999,-20441.79,-28437.21,-6433.29,2227.32
1764764448.6145704,0.315,-553.9499999999999,-28752.93,-6308.28,-20439.765,-28434.87,-6432.884999999999,2228.4
1764764448.6145704,-1.215,-555.435,-28754.64,-6309.54,-20441.115,-28436.715,-6433.695,2226.78
1764764448.6145704,0.09,-553.41,-28752.84,-6307.965,-20440.125,-28436.85,-6433.065,2226.96
1764764448.6145704,-0.09,-553.995,-28754.19,-6309.764999999999,-20441.835,-28437.93,-6433.83,2226.42
1764764448.6145704,-2.25,-557.595,-28758.915,-6315.21,-20445.66,-28440.135,-6435.09,2225.43
1764764448.6145704,-3.33,-560.5649999999999,-28764.09,-6319.349999999999,-20447.55,-28439.325,-6434.955,2225.925
1764764448.6145704,-3.96,-562.185,-28766.52,-6320.385,-20447.505,-28439.325,-6435.675,2225.385
1764764448.6145704,-6.66,-564.165,-28768.005,-6321.69,-20448.585,-28440.99,-6436.17,2222.685
1764764448.6145704,-7.02,-563.895,-28766.7,-6321.014999999999,-20448.63,-28440.945,-6435.719999999999,2222.865
1764764448.6145704,-5.984999999999999,-562.365,-28765.125,-6319.62,-20448.405,-28440.45,-6435.405,2223.045
1764764448.6145704,-3.42,-559.5749999999999,-28762.83,-6317.28,-20446.875,-28438.92,-6434.28,2224.395
1764764448.6145704,-6.12,-562.4549999999999,-28765.755,-6320.88,-20450.34,-28443.24,-6436.665,2221.29
1764764448.660245,-4.859999999999999,-561.285,-28763.955,-6319.62,-20448.99,-28442.025,-6436.08,2223.945
1764764448.660245,-4.32,-561.42,-28762.965,-6319.17,-20448.135,-28441.26,-6436.53,2223.72
1764764448.6607523,-5.94,-562.41,-28764.63,-6320.835,-20449.62,-28442.34,-6436.98,2221.785
1764764448.6607523,-3.015,-559.62,-28761.705,-6317.325,-20447.055,-28439.595,-6434.82,2224.62
1764764448.6607523,-3.825,-560.97,-28761.93,-6318.135,-20447.865,-28440.63,-6434.054999999999,2224.035
1764764448.6607523,0.09,-556.38,-28757.025,-6313.95,-20443.32,-28436.625,-6430.995,2227.68
1764764448.6607523,0.045,-556.6949999999999,-28757.79,-6315.075,-20444.175,-28437.705,-6431.264999999999,2227.77
1764764448.6607523,3.465,-553.545,-28753.92,-6311.969999999999,-20441.7,-28435.365,-6429.014999999999,2230.785
1764764448.6607523,4.05,-552.42,-28752.12,-6310.485,-20441.88,-28434.87,-6427.889999999999,2230.92
1764764448.6607523,1.71,-554.5799999999999,-28754.235,-6312.24,-20443.995,-28437.885,-6429.33,2228.715
1764764448.6607523,4.68,-551.745,-28751.22,-6309.179999999999,-20441.34,-28435.365,-6427.08,2231.01
1764764448.6607523,0.4049999999999999,-556.1999999999999,-28757.115,-6314.715,-20446.245,-28438.965,-6429.87,2226.42
1764764448.6607523,0.72,-556.0649999999999,-28758.375,-6314.76,-20443.815,-28436.715,-6428.969999999999,2228.31
1764764448.6607523,0.63,-555.975,-28758.285,-6314.49,-20442.735,-28436.22,-6428.79,2229.48
1764764448.6607523,1.395,-554.715,-28755.495,-6312.735,-20442.33,-28436.94,-6428.88,2229.345
1764764448.6607523,1.125,-553.14,-28754.19,-6312.554999999999,-20443.14,-28437.345,-6428.969999999999,2227.86
1764764448.6607523,-1.215,-555.93,-28756.035,-6314.085,-20444.895,-28439.055,-6431.13,2224.935
1764764448.6607523,1.26,-552.87,-28752.435,-6310.395,-20441.7,-28436.22,-6429.915,2227.23
1764764448.6607523,0.855,-552.555,-28753.245,-6310.44,-20441.655,-28436.805,-6429.465,2226.51
1764764448.6607523,-3.375,-558.18,-28759.185,-6317.054999999999,-20446.695,-28441.17,-6432.929999999999,2222.415
1764764448.6607523,-6.345,-562.275,-28764.135,-6320.79,-20449.8,-28443.78,-6434.19,2220.48
1764764448.6607523,-6.39,-561.1949999999999,-28762.875,-6318.945,-20448.36,-28443.51,-6433.065,2220.66
1764764448.7067394,-0.72,-555.2099999999999,-28755.225,-6311.52,-20440.935,-28436.94,-6429.195,2226.375
1764764448.7067394,-1.35,-555.03,-28755.675,-6311.205,-20440.44,-28436.04,-6428.25,2226.285
1764764448.7067394,-4.5,-558.0,-28758.78,-6313.815,-20442.105,-28437.615,-6429.24,2222.865
1764764448.7067394,-5.444999999999999,-560.295,-28760.13,-6315.57,-20442.015,-28436.805,-6429.87,2222.055
1764764448.7067394,-4.77,-560.34,-28760.31,-6315.84,-20442.375,-28436.22,-6429.24,2223.045
1764764448.7067394,-1.845,-558.765,-28762.155,-6319.125,-20446.515,-28438.92,-6429.195,2226.015
1764764448.7067394,0.945,-557.415,-28762.065,-6320.205,-20448.225,-28440.63,-6428.34,2228.22
1764764448.7067394,-2.97,-560.8349999999999,-28765.62,-6324.389999999999,-20452.77,-28444.86,-6431.13,2225.025
1764764448.7067394,-0.8099999999999999,-558.36,-28763.28,-6321.78,-20451.465,-28443.015,-6430.545,2227.995
1764764448.7067394,-3.87,-560.655,-28764.945,-6322.995,-20452.815,-28445.67,-6432.03,2223.81
1764764448.7072594,-3.42,-559.7099999999999,-28762.965,-6321.014999999999,-20451.645,-28443.69,-6431.58,2223.855
1764764448.7072594,-0.63,-555.615,-28759.41,-6316.695,-20448.27,-28439.955,-6430.139999999999,2227.005
1764764448.7072594,-2.34,-557.37,-28760.445,-6317.505,-20449.305,-28440.99,-6430.815,2224.485
1764764448.7072594,-1.755,-557.055,-28759.5,-6316.56,-20448.36,-28440.18,-6430.77,2224.62
1764764448.7072594,0.72,-553.68,-28755.405,-6312.69,-20444.85,-28437.48,-6428.969999999999,2226.465
1764764448.7072594,4.68,-548.64,-28750.14,-6307.02,-20439.18,-28433.205,-6425.639999999999,2231.145
1764764448.7072594,2.925,-551.52,-28752.57,-6309.9,-20441.205,-28435.365,-6426.27,2230.02
1764764448.7072594,-2.115,-559.305,-28762.605,-6319.215,-20448.315,-28440.99,-6430.545,2225.16
1764764448.7072594,-1.08,-558.9,-28763.595,-6320.16,-20448.945,-28441.53,-6431.13,2226.105
1764764448.7072594,-2.295,-558.63,-28763.145,-6320.025,-20449.89,-28443.06,-6432.435,2224.17
1764764448.7072594,-5.715,-560.925,-28765.26,-6321.915,-20452.095,-28445.715,-6434.865,2220.66
1764764448.7072594,-3.33,-559.53,-28762.875,-6319.889999999999,-20449.35,-28443.15,-6433.425,2222.73
1764764448.7072594,-3.015,-560.79,-28764.315,-6320.474999999999,-20449.845,-28442.655,-6433.245,2222.595
1764764448.7072594,-6.029999999999999,-563.4449999999999,-28767.375,-6323.67,-20452.815,-28444.905,-6435.585,2220.165
1764764448.7533343,-10.8,-566.9549999999999,-28772.235,-6328.395,-20457.54,-28449.9,-6438.69,2215.935
1764764448.7533343,-9.495,-565.245,-28770.57,-6327.09,-20456.865,-28448.91,-6437.565,2217.06
1764764448.7533343,-5.895,-561.735,-28767.015,-6323.49,-20453.13,-28445.445,-6434.73,2221.245
1764764448.7533343,-8.73,-565.02,-28769.13,-6326.415,-20456.055,-28449.27,-6436.62,2218.68
1764764448.7533343,-10.62,-567.045,-28771.02,-6328.17,-20457.72,-28451.61,-6437.969999999999,2216.385
1764764448.7533343,-7.154999999999999,-563.985,-28767.96,-6324.75,-20455.02,-28448.82,-6437.16,2218.905
1764764448.7533343,-10.575,-566.73,-28770.795,-6327.54,-20456.955,-28450.575,-6437.925,2216.205
1764764448.7533343,-9.54,-566.415,-28770.075,-6327.135,-20456.055,-28449.45,-6436.215,2217.555
1764764448.7533343,-8.37,-564.975,-28768.32,-6325.92,-20454.57,-28447.83,-6435.09,2218.14
1764764448.7533343,-7.154999999999999,-563.265,-28767.735,-6325.065,-20453.31,-28446.93,-6435.0,2218.95
1764764448.7533343,-4.995,-560.385,-28764.855,-6323.04,-20451.915,-28445.535,-6434.415,2221.11
1764764448.7533343,-3.15,-558.09,-28762.065,-6321.014999999999,-20450.745,-28444.59,-6433.245,2221.785
1764764448.7533343,-3.195,-557.9549999999999,-28762.155,-6320.52,-20450.43,-28445.355,-6432.974999999999,2221.425
1764764448.7533343,-8.82,-563.31,-28767.33,-6325.469999999999,-20456.37,-28450.89,-6436.575,2216.385
1764764448.7533343,-9.36,-564.615,-28768.095,-6326.73,-20457.405,-28450.89,-6436.755,2216.79
1764764448.7533343,-9.045,-564.75,-28768.365,-6326.955,-20458.305,-28450.755,-6437.295,2216.655
1764764448.7533343,-7.109999999999999,-560.8349999999999,-28765.035,-6323.13,-20455.29,-28448.73,-6435.764999999999,2218.86
1764764448.7533343,-9.72,-563.22,-28767.645,-6324.84,-20456.595,-28450.665,-6436.71,2216.475
1764764448.7533343,-8.415,-562.68,-28767.105,-6324.165,-20454.435,-28448.145,-6435.495,2218.635
1764764448.7533343,-11.655,-565.8299999999999,-28770.255,-6327.315,-20457.99,-28451.97,-6436.98,2215.17
1764764448.7533343,-9.675,-562.725,-28767.195,-6324.3,-20455.56,-28450.17,-6435.45,2217.285
1764764448.7533343,-4.455,-557.9549999999999,-28762.605,-6319.665,-20450.745,-28445.265,-6431.625,2222.505
1764764448.7533343,-5.535,-560.295,-28766.07,-6323.67,-20452.545,-28445.85,-6430.59,2222.505
1764764448.7533343,-8.504999999999999,-564.345,-28769.445,-6327.81,-20456.865,-28449.675,-6433.155,2219.085
1764764448.8000014,-6.975,-562.545,-28767.15,-6325.83,-20456.64,-28449.99,-6433.514999999999,2218.86
1764764448.8000014,-3.555,-558.3149999999999,-28762.56,-6321.014999999999,-20453.67,-28447.74,-6431.67,2220.795
1764764448.8000014,0.585,-552.915,-28757.655,-6315.03,-20449.665,-28443.915,-6429.465,2224.62
1764764448.8000014,-2.565,-554.715,-28759.455,-6317.145,-20450.79,-28443.69,-6429.42,2223.135
1764764448.8000014,-2.295,-554.895,-28760.04,-6316.65,-20448.09,-28441.575,-6428.025,2224.485
1764764448.8000014,-6.93,-560.25,-28765.395,-6321.24,-20450.79,-28444.635,-6430.995,2220.21
1764764448.8000014,-6.84,-560.25,-28764.405,-6320.52,-20449.89,-28444.14,-6431.264999999999,2220.345
1764764448.8000014,-3.42,-557.64,-28762.29,-6320.115,-20451.42,-28444.905,-6430.724999999999,2223.585
1764764448.8000014,-4.455,-559.26,-28763.145,-6321.645,-20454.21,-28447.785,-6431.715,2222.595
1764764448.8000014,-9.675,-564.93,-28769.04,-6328.08,-20459.565,-28453.455,-6435.855,2216.88
1764764448.8000014,-11.43,-566.865,-28772.82,-6332.04,-20462.94,-28455.345,-6437.52,2215.845
1764764448.8000014,-9.675,-564.84,-28771.38,-6330.825,-20462.175,-28453.815,-6436.844999999999,2217.285
1764764448.8000014,-11.655,-567.09,-28773.495,-6332.715,-20464.245,-28455.84,-6437.7,2215.935
1764764448.8000014,-12.15,-566.3249999999999,-28773.99,-6334.29,-20465.955,-28457.01,-6438.375,2215.485
1764764448.8000014,-11.835,-565.965,-28774.44,-6335.37,-20467.35,-28458.18,-6439.23,2214.54
1764764448.8000014,-11.79,-566.055,-28775.475,-6335.865,-20467.62,-28458.63,-6439.275,2214.945
1764764448.8000014,-10.44,-565.605,-28775.655,-6334.785,-20465.685,-28456.65,-6439.139999999999,2216.475
1764764448.8000014,-14.715,-569.0699999999999,-28778.265,-6336.495,-20468.115,-28459.755,-6442.065,2212.245
1764764448.8000014,-11.7,-564.7049999999999,-28773.54,-6332.219999999999,-20464.92,-28456.785,-6439.365,2215.17
1764764448.8000014,-13.32,-565.56,-28773.855,-6333.12,-20465.73,-28459.035,-6439.634999999999,2213.55
1764764448.8000014,-11.295,-563.4449999999999,-28771.38,-6330.51,-20463.075,-28455.975,-6438.06,2216.475
1764764448.8000014,-13.725,-566.775,-28774.755,-6333.929999999999,-20464.965,-28456.515,-6438.96,2215.395
1764764448.8000014,-19.17,-572.4449999999999,-28780.38,-6339.42,-20469.915,-28460.97,-6441.974999999999,2210.265
1764764448.8000014,-19.26,-572.715,-28779.975,-6338.745,-20468.745,-28460.61,-6441.974999999999,2209.275
1764764448.8482397,-18.09,-571.77,-28779.12,-6337.215,-20467.395,-28458.99,-6440.715,2210.265
1764764448.8482397,-18.45,-571.86,-28779.255,-6337.17,-20467.665,-28458.405,-6441.48,2210.22
1764764448.8482397,-16.785,-570.42,-28777.68,-6335.099999999999,-20466.405,-28457.37,-6441.525,2212.11
1764764448.8482397,-13.545,-567.405,-28773.81,-6332.264999999999,-20464.335,-28455.57,-6440.49,2214.405
1764764448.8482397,-16.425,-569.6999999999999,-28776.645,-6335.19,-20467.575,-28458.765,-6442.83,2211.66
1764764448.8482397,-21.105,-573.93,-28780.965,-6339.554999999999,-20472.165,-28462.5,-6445.62,2207.16
1764764448.8482397,-16.83,-569.385,-28776.42,-6335.37,-20468.07,-28458.81,-6442.29,2211.93
1764764448.8482397,-15.615,-568.215,-28775.745,-6334.245,-20466.45,-28458.0,-6441.389999999999,2211.48
1764764448.8482397,-16.47,-568.665,-28775.115,-6333.885,-20466.63,-28457.415,-6442.245,2210.58
1764764448.8482397,-17.73,-569.79,-28776.24,-6334.965,-20466.72,-28457.595,-6441.705,2210.67
1764764448.8482397,-17.595,-570.15,-28776.42,-6335.415,-20466.315,-28457.01,-6440.804999999999,2211.03
1764764448.8482397,-16.29,-569.43,-28775.655,-6333.795,-20465.82,-28456.47,-6440.445,2211.165
1764764448.8482397,-17.009999999999998,-569.655,-28776.42,-6333.75,-20466.675,-28456.965,-6440.67,2210.67
1764764448.8482397,-19.215,-572.04,-28778.625,-6336.09,-20468.88,-28459.89,-6442.155,2207.97
1764764448.8482397,-13.005,-565.02,-28771.74,-6329.79,-20462.985,-28454.715,-6438.06,2214.09
1764764448.8482397,-13.32,-564.615,-28771.2,-6329.115,-20462.4,-28454.49,-6438.375,2214.045
1764764448.8482397,-12.24,-562.995,-28769.805,-6327.855,-20461.14,-28453.32,-6436.844999999999,2214.63
1764764448.8482397,-12.42,-563.85,-28769.22,-6327.63,-20461.68,-28454.94,-6437.205,2213.55
1764764448.8482397,-7.649999999999999,-560.52,-28764.54,-6323.264999999999,-20458.035,-28451.07,-6433.92,2217.195
1764764448.8482397,-8.19,-560.97,-28765.215,-6323.355,-20457.765,-28450.35,-6432.705,2216.925
1764764448.8482397,-14.535,-567.9,-28773.765,-6331.005,-20463.57,-28455.615,-6436.035,2211.885
1764764448.8482397,-18.495,-571.995,-28778.625,-6336.09,-20467.08,-28459.62,-6439.365,2208.735
1764764448.8920054,-17.235,-571.005,-28777.005,-6335.054999999999,-20467.53,-28460.07,-6439.365,2209.59
1764764448.8920054,-15.84,-569.2049999999999,-28776.105,-6333.84,-20466.9,-28458.765,-6438.465,2210.85
1764764448.8920054,-12.6,-566.37,-28773.405,-6331.32,-20463.435,-28454.49,-6436.575,2215.08
1764764448.8920054,-15.525,-570.6,-28777.68,-6335.639999999999,-20467.08,-28458.045,-6439.545,2212.38
1764764448.8930132,-16.245,-569.925,-28778.535,-6335.505,-20467.44,-28459.62,-6439.32,2212.11
1764764448.8930132,-14.535,-568.62,-28776.645,-6334.29,-20465.82,-28457.955,-6437.07,2213.46
1764764448.8930132,-14.805,-568.98,-28776.825,-6334.83,-20465.055,-28456.695,-6437.7,2212.56
1764764448.8930132,-15.84,-569.0699999999999,-28776.375,-6334.29,-20464.965,-28457.01,-6437.969999999999,2211.48
1764764448.8930132,-17.055,-569.79,-28776.915,-6334.74,-20465.64,-28457.505,-6438.69,2210.535
1764764448.8935866,-17.28,-570.375,-28778.265,-6335.594999999999,-20466.72,-28459.215,-6439.275,2209.23
1764764448.8935866,-17.955,-570.8249999999999,-28779.705,-6337.44,-20469.645,-28461.915,-6440.219999999999,2207.61
1764764448.8935866,-14.04,-567.09,-28775.565,-6333.03,-20465.37,-28458.36,-6437.745,2211.3
1764764448.8935866,-14.175,-566.595,-28774.755,-6331.679999999999,-20463.48,-28457.775,-6437.025,2212.11
1764764448.8935866,-17.37,-569.61,-28776.78,-6334.29,-20466.63,-28460.43,-6439.59,2209.635
1764764448.8935866,-16.29,-568.665,-28776.06,-6333.255,-20465.685,-28459.17,-6438.87,2210.58
1764764448.8935866,-19.575,-571.185,-28779.93,-6337.17,-20470.095,-28464.12,-6441.21,2207.16
1764764448.8935866,-17.325,-568.35,-28777.455,-6334.92,-20467.53,-28461.24,-6439.905,2209.545
1764764448.8935866,-18.54,-569.52,-28778.445,-6336.719999999999,-20469.33,-28462.995,-6441.615,2208.465
1764764448.8935866,-22.365,-573.48,-28782.855,-6341.4,-20475.945,-28468.89,-6444.855,2203.875
1764764448.8935866,-22.455,-572.805,-28781.64,-6340.545,-20476.53,-28469.205,-6445.395,2203.515
1764764448.8935866,-21.915,-573.3,-28781.82,-6340.275,-20475.09,-28467.45,-6444.495,2204.775
1764764448.8935866,-21.33,-575.28,-28784.385,-6341.895,-20474.145,-28466.28,-6442.875,2205.855
1764764448.9402363,-19.305,-573.39,-28782.045,-6339.78,-20472.21,-28465.11,-6441.57,2207.7
1764764448.9402363,-22.095,-575.235,-28783.845,-6341.31,-20474.55,-28467.765,-6442.875,2204.685
1764764448.9402363,-19.62,-573.03,-28781.37,-6337.889999999999,-20470.995,-28464.345,-6440.535,2207.745
1764764448.9412477,-24.255,-576.36,-28785.15,-6342.255,-20474.37,-28468.62,-6443.82,2203.02
1764764448.9412477,-22.23,-575.1899999999999,-28784.88,-6342.705,-20476.62,-28469.745,-6444.045,2204.055
1764764448.9412477,-21.6,-576.09,-28786.5,-6346.485,-20480.31,-28471.59,-6445.395,2205.405
1764764448.9412477,-27.855,-583.74,-28795.5,-6355.035,-20486.79,-28476.36,-6448.365,2200.68
1764764448.9412477,-26.46,-582.48,-28794.51,-6352.695,-20484.09,-28474.155,-6446.745,2202.075
1764764448.9412477,-23.445,-578.52,-28789.65,-6348.51,-20480.76,-28471.77,-6445.44,2204.46
1764764448.9412477,-25.515,-579.555,-28789.74,-6349.32,-20482.29,-28473.345,-6446.52,2202.345
1764764448.9412477,-22.68,-575.1899999999999,-28786.14,-6344.639999999999,-20479.005,-28470.195,-6443.639999999999,2205.72
1764764448.9412477,-24.48,-577.215,-28788.345,-6346.26,-20481.435,-28472.76,-6444.45,2203.11
1764764448.9412477,-20.115,-573.255,-28783.89,-6341.49,-20476.35,-28467.45,-6441.344999999999,2207.205
1764764448.9412477,-20.16,-572.9399999999999,-28783.035,-6340.815,-20475.675,-28466.955,-6440.31,2207.61
1764764448.9412477,-22.095,-574.92,-28785.87,-6343.83,-20478.42,-28469.52,-6441.705,2205.675
1764764448.9412477,-19.53,-571.545,-28783.35,-6341.175,-20475.54,-28467.045,-6440.94,2208.195
1764764448.9412477,-21.42,-573.03,-28783.89,-6341.219999999999,-20477.07,-28468.98,-6442.514999999999,2205.405
1764764448.9412477,-20.025,-571.41,-28782.72,-6339.915,-20475.945,-28466.955,-6441.705,2206.17
1764764448.9412477,-19.26,-570.9599999999999,-28782.09,-6339.42,-20475.0,-28466.415,-6440.49,2207.745
1764764448.9412477,-15.255,-568.0799999999999,-28779.165,-6336.495,-20472.03,-28463.895,-6437.655,2211.48
1764764448.9412477,-14.265,-567.3149999999999,-28779.255,-6337.44,-20472.57,-28464.03,-6436.935,2212.38
1764764448.9412477,-17.64,-571.095,-28782.945,-6341.49,-20476.575,-28467.765,-6439.77,2209.23
1764764448.9412477,-17.82,-571.68,-28782.135,-6341.535,-20476.845,-28468.26,-6440.219999999999,2208.69
1764764448.9412477,-19.26,-573.165,-28783.53,-6342.929999999999,-20478.15,-28469.52,-6442.469999999999,2208.015
1764764448.9412477,-21.15,-574.65,-28785.96,-6344.28,-20479.095,-28470.645,-6443.46,2206.035
1764764448.9412477,-24.03,-576.855,-28788.39,-6345.9,-20481.21,-28472.58,-6444.36,2202.975
1764764448.986972,-23.94,-576.855,-28788.345,-6345.315,-20480.445,-28472.085,-6444.134999999999,2203.2
1764764448.986972,-22.815,-575.37,-28786.995,-6343.29,-20477.655,-28469.79,-6442.56,2205.18
1764764448.986972,-18.09,-570.3299999999999,-28781.865,-6337.889999999999,-20473.245,-28466.19,-6439.634999999999,2209.545
1764764448.986972,-16.74,-569.0699999999999,-28781.145,-6337.17,-20472.93,-28465.515,-6438.15,2210.49
1764764448.986972,-15.345,-568.17,-28779.57,-6336.27,-20472.66,-28464.93,-6436.755,2212.11
1764764448.986972,-15.48,-567.81,-28779.03,-6337.26,-20474.73,-28467.09,-6437.655,2211.525
1764764448.986972,-16.38,-568.035,-28779.48,-6338.34,-20476.305,-28468.845,-6439.815,2210.13
1764764448.986972,-18.9,-570.6899999999999,-28781.055,-6339.599999999999,-20477.205,-28470.105,-6441.165,2206.305
1764764448.986972,-19.71,-572.265,-28782.855,-6340.365,-20476.44,-28468.8,-6441.48,2205.72
1764764448.986972,-25.515,-579.465,-28790.64,-6347.07,-20480.805,-28471.995,-6443.73,2202.525
1764764448.986972,-23.94,-577.845,-28789.29,-6344.865,-20478.69,-28468.98,-6441.705,2204.46
1764764448.986972,-25.155,-578.8349999999999,-28790.145,-6346.755,-20480.445,-28471.05,-6443.145,2202.885
1764764448.986972,-23.58,-576.495,-28787.805,-6344.865,-20479.185,-28471.005,-6442.92,2203.83
1764764448.986972,-23.715,-575.685,-28786.68,-6343.695,-20478.87,-28471.86,-6442.695,2202.57
1764764448.986972,-21.15,-572.13,-28783.395,-6340.365,-20476.44,-28469.43,-6441.255,2206.485
1764764448.986972,-22.5,-572.49,-28784.655,-6342.389999999999,-20478.87,-28472.355,-6443.099999999999,2204.595
1764764448.986972,-24.48,-573.48,-28785.51,-6343.065,-20480.31,-28473.795,-6443.73,2202.255
1764764448.9879804,-23.895,-574.47,-28785.645,-6343.38,-20480.175,-28472.49,-6443.054999999999,2203.83
1764764448.9879804,-22.635,-575.1899999999999,-28787.625,-6344.955,-20481.345,-28472.895,-6442.875,2204.19
1764764448.9879804,-21.915,-574.0649999999999,-28787.67,-6344.415,-20480.04,-28471.23,-6442.92,2205.765
1764764448.9879804,-23.355,-574.155,-28787.895,-6345.045,-20480.175,-28471.545,-6443.865,2204.64
1764764448.9879804,-27.0,-577.53,-28790.28,-6347.655,-20483.865,-28474.74,-6446.115,2200.185
1764764449.0341322,-25.245,-575.73,-28787.49,-6346.17,-20482.785,-28474.245,-6445.53,2202.66
1764764449.0341322,-28.62,-579.915,-28792.305,-6350.76,-20487.285,-28478.655,-6449.085,2199.33
1764764449.0341322,-27.765,-578.745,-28792.17,-6350.67,-20486.745,-28479.33,-6449.535,2200.095
1764764449.0341322,-31.68,-583.245,-28796.715,-6355.53,-20492.64,-28485.27,-6454.17,2195.595
1764764449.0341322,-35.595,-587.2049999999999,-28801.755,-6360.344999999999,-20497.95,-28489.86,-6456.465,2191.545
1764764449.0341322,-34.155,-586.17,-28800.18,-6358.995,-20495.475,-28487.34,-6454.665,2193.165
1764764449.0341322,-33.21,-585.81,-28799.505,-6358.23,-20493.675,-28485.135,-6452.73,2194.695
1764764449.0341322,-31.455,-584.64,-28797.75,-6356.205,-20491.965,-28483.74,-6451.155,2196.72
1764764449.0341322,-30.33,-583.8299999999999,-28796.265,-6355.44,-20490.885,-28482.66,-6451.469999999999,2196.945
1764764449.0341322,-31.185,-584.145,-28797.075,-6356.385,-20491.965,-28483.155,-6452.955,2195.91
1764764449.0341322,-33.705,-587.385,-28801.125,-6360.12,-20495.295,-28486.44,-6454.844999999999,2193.12
1764764449.0341322,-30.15,-583.965,-28797.705,-6357.285,-20492.64,-28483.695,-6452.415,2196.585
1764764449.0341322,-30.42,-583.0649999999999,-28795.77,-6355.08,-20491.875,-28483.425,-6452.054999999999,2196.135
1764764449.0341322,-33.345,-584.505,-28797.03,-6355.71,-20493.405,-28485.81,-6453.63,2193.03
1764764449.0341322,-31.68,-582.12,-28794.24,-6352.605,-20490.615,-28483.2,-6452.55,2195.28
1764764449.0341322,-26.82,-577.755,-28789.38,-6347.25,-20485.08,-28477.17,-6448.455,2200.455
1764764449.0341322,-27.405,-579.645,-28790.685,-6348.42,-20484.63,-28476.675,-6447.69,2199.645
1764764449.0341322,-32.535,-584.595,-28795.23,-6351.705,-20486.655,-28478.655,-6448.77,2196.0
1764764449.0341322,-31.5,-582.975,-28793.43,-6350.4,-20484.45,-28477.44,-6447.195,2197.035
1764764449.0341322,-27.045,-578.5649999999999,-28790.82,-6348.06,-20483.415,-28476.27,-6446.115,2200.365
1764764449.0341322,-29.88,-582.165,-28795.095,-6353.01,-20488.815,-28482.12,-6448.634999999999,2196.945
1764764449.0341322,-29.475,-581.0849999999999,-28794.24,-6352.469999999999,-20488.005,-28481.67,-6449.13,2197.845
1764764449.078482,-27.99,-580.185,-28793.97,-6352.02,-20488.005,-28480.095,-6448.545,2198.7
1764764449.078482,-34.47,-586.305,-28799.865,-6358.32,-20494.89,-28486.215,-6453.27,2192.94
1764764449.078482,-32.715,-584.8199999999999,-28797.75,-6356.34,-20493.045,-28485.585,-6452.82,2194.515
1764764449.078482,-32.715,-584.865,-28797.255,-6356.295,-20493.18,-28485.99,-6452.91,2194.02
1764764449.078482,-34.965,-587.43,-28799.415,-6358.005,-20495.295,-28487.79,-6453.855,2191.77
1764764449.078482,-31.185,-583.8299999999999,-28795.32,-6353.594999999999,-20491.155,-28483.785,-6452.19,2194.695
1764764449.078482,-32.67,-585.0,-28797.255,-6355.08,-20492.145,-28483.965,-6452.91,2194.38
1764764449.078482,-34.47,-587.655,-28800.18,-6356.88,-20493.0,-28485.135,-6453.179999999999,2191.905
1764764449.078482,-29.745,-582.2099999999999,-28793.97,-6350.76,-20486.835,-28479.69,-6448.679999999999,2195.865
1764764449.0800238,-29.52,-580.77,-28792.575,-6350.175,-20486.88,-28479.555,-6447.915,2196.405
1764764449.0800238,-25.515,-576.045,-28788.48,-6346.304999999999,-20484.81,-28478.34,-6446.16,2200.185
1764764449.0800238,-29.34,-578.745,-28791.09,-6349.724999999999,-20489.4,-28483.92,-6448.95,2196.18
1764764449.0800238,-31.365,-579.24,-28791.225,-6350.04,-20490.57,-28485.27,-6451.29,2193.705
1764764449.0800238,-29.925,-578.34,-28789.47,-6348.33,-20489.85,-28484.505,-6452.054999999999,2195.01
1764764449.0800238,-34.47,-584.865,-28796.94,-6355.349999999999,-20496.015,-28489.725,-6454.665,2191.41
1764764449.0800238,-36.45,-587.79,-28801.17,-6359.985,-20497.005,-28489.905,-6456.285,2190.6
1764764449.0800238,-36.855,-587.61,-28800.81,-6358.815,-20495.79,-28487.97,-6456.014999999999,2190.06
1764764449.0800238,-36.765,-587.745,-28801.62,-6358.41,-20495.655,-28487.205,-6455.429999999999,2190.51
1764764449.0800238,-36.675,-589.23,-28803.285,-6360.165,-20497.545,-28489.05,-6455.07,2190.825
1764764449.0800238,-34.379999999999995,-586.755,-28801.035,-6359.13,-20497.86,-28489.41,-6454.08,2192.085
1764764449.0800238,-34.695,-586.26,-28800.945,-6359.67,-20497.68,-28490.94,-6453.719999999999,2192.355
1764764449.0800238,-40.14,-591.615,-28805.895,-6364.304999999999,-20501.19,-28494.315,-6456.69,2187.45
1764764449.0800238,-40.59,-591.7049999999999,-28805.715,-6363.27,-20500.02,-28493.1,-6457.455,2186.91
1764764449.0800238,-35.73,-585.09,-28797.795,-6355.98,-20494.395,-28488.51,-6455.205,2190.96
1764764449.1236887,-32.94,-580.005,-28791.18,-6349.724999999999,-20489.22,-28485.63,-6452.55,2192.175
1764764449.1236887,-32.355,-578.88,-28787.265,-6345.315,-20484.9,-28482.165,-6450.525,2191.32
1764764449.1236887,-35.73,-582.5699999999999,-28791.18,-6348.599999999999,-20486.835,-28483.965,-6451.155,2188.98
1764764449.1236887,-34.695,-583.3349999999999,-28794.375,-6351.3,-20487.105,-28482.255,-6449.715,2191.995
1764764449.1236887,-38.79,-592.02,-28806.435,-6363.27,-20497.005,-28488.15,-6453.134999999999,2190.15
1764764449.1236887,-40.455,-596.16,-28812.69,-6371.325,-20505.69,-28495.17,-6456.195,2189.61
1764764449.1236887,-33.57,-588.06,-28804.5,-6364.62,-20501.145,-28492.56,-6452.73,2195.595
1764764449.1236887,-33.705,-586.665,-28802.7,-6362.28,-20499.84,-28493.235,-6453.09,2193.48
1764764449.1236887,-37.035,-588.6899999999999,-28803.825,-6363.135,-20501.1,-28495.035,-6454.215,2191.23
1764764449.1236887,-35.415,-586.53,-28801.395,-6360.165,-20499.165,-28492.02,-6452.955,2193.615
1764764449.1236887,-38.07,-588.42,-28803.285,-6362.865,-20502.09,-28494.405,-6455.025,2190.735
1764764449.1236887,-41.265,-592.29,-28806.615,-6366.554999999999,-20506.815,-28498.995,-6457.905,2186.1
1764764449.1236887,-38.565,-589.365,-28804.995,-6364.62,-20505.735,-28498.5,-6458.04,2187.63
1764764449.1236887,-35.64,-587.115,-28803.42,-6363.045,-20502.27,-28494.855,-6455.925,2190.87
1764764449.1254046,-38.7,-590.895,-28807.875,-6366.554999999999,-20502.675,-28494.855,-6456.014999999999,2189.79
1764764449.1254046,-36.18,-588.78,-28805.355,-6363.585,-20500.065,-28492.83,-6454.035,2191.275
1764764449.1254046,-32.355,-584.055,-28800.405,-6358.365,-20496.915,-28489.77,-6450.795,2195.01
1764764449.1254046,-36.765,-588.06,-28804.365,-6362.415,-20501.46,-28494.135,-6453.99,2190.915
1764764449.1254046,-36.54,-587.5649999999999,-28803.42,-6362.82,-20500.065,-28493.415,-6453.315,2192.22
1764764449.1254046,-39.195,-590.13,-28805.67,-6364.53,-20502.63,-28495.89,-6454.62,2189.34
1764764449.1254046,-36.18,-587.115,-28802.79,-6361.965,-20500.515,-28492.74,-6452.865,2191.005
1764764449.1254046,-37.215,-588.8249999999999,-28804.185,-6363.495,-20501.865,-28494.18,-6453.855,2189.07
1764764449.1254046,-40.68,-591.975,-28807.245,-6365.7,-20504.745,-28496.7,-6456.24,2186.505
1764764449.1254046,-35.91,-587.655,-28802.385,-6361.065,-20499.48,-28491.525,-6452.865,2191.32
1764764449.1716323,-36.855,-588.915,-28803.78,-6363.135,-20500.875,-28493.775,-6453.36,2189.295
1764764449.1716323,-34.065,-585.27,-28800.09,-6359.445,-20498.49,-28492.11,-6451.83,2191.995
1764764449.1721497,-35.684999999999995,-586.53,-28801.08,-6360.974999999999,-20500.2,-28494.63,-6453.719999999999,2190.105
1764764449.1721497,-39.42,-589.095,-28804.095,-6364.665,-20504.025,-28499.04,-6456.645,2186.325
1764764449.1721497,-40.23,-589.9499999999999,-28805.895,-6365.205,-20505.105,-28499.985,-6457.455,2184.975
1764764449.1721497,-41.67,-591.3,-28806.48,-6366.51,-20505.555,-28499.805,-6458.04,2184.345
1764764449.1721497,-41.265,-591.435,-28807.02,-6367.185,-20505.555,-28498.68,-6457.005,2185.02
1764764449.1721497,-37.755,-588.375,-28804.14,-6363.764999999999,-20502.99,-28495.8,-6454.98,2187.36
1764764449.1721497,-33.03,-582.5699999999999,-28797.345,-6357.06,-20497.32,-28490.895,-6451.56,2192.22
1764764449.1721497,-30.33,-579.51,-28793.16,-6353.145,-20493.405,-28488.195,-6449.31,2194.155
1764764449.1721497,-32.535,-580.3199999999999,-28792.89,-6353.594999999999,-20493.495,-28488.915,-6450.165,2191.86
1764764449.1721497,-36.495,-584.505,-28798.065,-6358.139999999999,-20497.545,-28492.29,-6452.505,2188.53
1764764449.1721497,-35.1,-585.3149999999999,-28799.595,-6359.76,-20496.915,-28491.03,-6450.3,2191.365
1764764449.1721497,-39.645,-591.165,-28806.345,-6366.96,-20502.855,-28495.665,-6452.639999999999,2188.215
1764764449.1721497,-44.055,-596.475,-28812.15,-6373.844999999999,-20511.27,-28502.28,-6456.78,2183.85
1764764449.1721497,-40.32,-593.73,-28809.18,-6371.505,-20511.495,-28501.83,-6456.014999999999,2185.785
1764764449.1721497,-36.18,-587.745,-28802.79,-6365.79,-20506.86,-28499.085,-6453.945,2189.16
1764764449.1721497,-37.755,-588.3299999999999,-28802.61,-6365.7,-20507.22,-28500.75,-6454.935,2187.045
1764764449.1721497,-34.83,-584.055,-28798.83,-6361.92,-20503.575,-28497.33,-6453.495,2188.98
1764764449.1721497,-36.18,-584.64,-28798.785,-6362.099999999999,-20504.16,-28497.915,-6453.405,2187.81
1764764449.1721497,-32.76,-582.3,-28795.77,-6358.455,-20499.165,-28492.965,-6450.389999999999,2192.13
1764764449.1721497,-34.11,-584.145,-28798.515,-6359.67,-20498.265,-28491.165,-6449.31,2192.58
1764764449.2189865,-33.57,-585.72,-28800.585,-6361.11,-20498.625,-28490.22,-6448.545,2193.21
1764764449.2189865,-36.315,-588.78,-28804.32,-6364.889999999999,-20502.99,-28493.865,-6450.389999999999,2191.23
1764764449.2189865,-38.34,-590.265,-28805.58,-6367.455,-20504.79,-28496.565,-6452.145,2188.8
1764764449.2189865,-38.205,-590.265,-28805.895,-6368.264999999999,-20504.97,-28497.105,-6451.83,2188.17
1764764449.2189865,-37.665,-590.13,-28807.695,-6369.389999999999,-20506.995,-28498.815,-6453.405,2188.845
1764764449.2189865,-39.105,-591.525,-28808.19,-6370.514999999999,-20508.705,-28499.85,-6454.17,2188.305
1764764449.2189865,-42.255,-592.8299999999999,-28809.27,-6370.38,-20509.785,-28500.975,-6453.9,2185.695
1764764449.2189865,-40.095,-589.8149999999999,-28806.255,-6366.24,-20506.095,-28497.825,-6452.054999999999,2187.045
1764764449.2189865,-38.43,-587.8349999999999,-28803.195,-6363.945,-20503.035,-28495.395,-6450.84,2189.16
1764764449.2202394,-37.665,-587.34,-28802.34,-6363.585,-20502.18,-28495.17,-6450.929999999999,2189.205
1764764449.2202394,-35.37,-585.54,-28801.17,-6362.639999999999,-20501.595,-28494.81,-6450.66,2191.86
1764764449.2202394,-39.87,-590.895,-28807.02,-6368.58,-20508.39,-28500.75,-6454.395,2187.495
1764764449.2202394,-37.62,-590.22,-28806.795,-6369.389999999999,-20509.245,-28501.245,-6453.99,2189.07
1764764449.2202394,-41.445,-594.72,-28810.935,-6374.88,-20514.42,-28506.105,-6457.139999999999,2185.335
1764764449.2202394,-40.995,-592.74,-28808.865,-6371.91,-20511.765,-28504.485,-6456.645,2185.335
1764764449.220768,-44.145,-595.26,-28811.205,-6373.215,-20513.34,-28506.465,-6457.815,2182.365
1764764449.220768,-41.805,-593.865,-28809.225,-6371.594999999999,-20511.045,-28504.215,-6455.88,2184.21
1764764449.220768,-39.24,-591.255,-28806.3,-6368.895,-20507.58,-28501.74,-6453.45,2186.145
1764764449.220768,-34.785,-586.17,-28801.755,-6363.224999999999,-20502.9,-28496.79,-6450.344999999999,2190.96
1764764449.220768,-35.37,-587.0699999999999,-28802.385,-6363.81,-20503.44,-28498.23,-6450.84,2190.285
1764764449.220768,-31.815,-583.785,-28798.965,-6360.795,-20500.965,-28495.215,-6447.735,2194.92
1764764449.220768,-35.595,-587.16,-28802.52,-6363.9,-20503.89,-28498.005,-6449.804999999999,2191.545
1764764449.220768,-33.705,-585.18,-28800.495,-6361.514999999999,-20501.505,-28494.27,-6447.735,2193.435
1764764449.220768,-38.205,-589.77,-28805.355,-6366.15,-20506.365,-28499.175,-6450.705,2187.9
1764764449.2653189,-38.79,-590.985,-28805.985,-6367.365,-20507.22,-28500.93,-6452.775,2186.73
1764764449.2653189,-35.37,-587.655,-28802.655,-6363.63,-20503.08,-28496.88,-6450.84,2189.25
1764764449.2653189,-35.1,-586.125,-28800.63,-6361.155,-20501.64,-28496.16,-6450.435,2189.52
1764764449.2653189,-36.18,-586.215,-28800.0,-6359.895,-20501.64,-28497.15,-6451.469999999999,2187.27
1764764449.2653189,-35.595,-584.9549999999999,-28798.515,-6358.545,-20501.37,-28496.88,-6451.469999999999,2187.045
1764764449.2653189,-33.03,-580.4549999999999,-28793.07,-6353.28,-20497.365,-28493.82,-6448.23,2189.385
1764764449.2653189,-32.94,-579.87,-28791.405,-6351.57,-20495.925,-28492.605,-6447.465,2188.845
1764764449.2653189,-38.835,-586.665,-28797.93,-6358.905,-20502.09,-28498.095,-6451.875,2183.715
1764764449.2653189,-41.715,-590.31,-28803.375,-6363.63,-20505.24,-28501.38,-6453.945,2182.185
1764764449.2653189,-44.775,-595.395,-28810.035,-6369.57,-20508.705,-28503.405,-6455.429999999999,2180.295
1764764449.2653189,-46.08,-598.77,-28814.49,-6374.025,-20511.18,-28504.08,-6454.665,2180.52
1764764449.2653189,-43.74,-595.8,-28811.97,-6372.405,-20509.56,-28502.415,-6453.81,2182.545
1764764449.2653189,-37.44,-589.095,-28806.165,-6367.545,-20506.95,-28499.715,-6450.974999999999,2187.495
1764764449.2653189,-40.68,-593.37,-28810.89,-6373.349999999999,-20513.385,-28505.025,-6453.405,2183.76
1764764449.2653189,-41.265,-595.755,-28812.645,-6375.69,-20515.185,-28506.015,-6454.485,2183.085
1764764449.2653189,-38.025,-592.74,-28808.19,-6370.29,-20509.74,-28500.84,-6451.2,2187.405
1764764449.2653189,-38.34,-591.5699999999999,-28807.245,-6368.4,-20507.895,-28499.715,-6450.255,2187.63
1764764449.2653189,-40.77,-593.64,-28809.54,-6370.605,-20509.875,-28502.37,-6452.415,2184.3
1764764449.2653189,-36.81,-588.8249999999999,-28804.725,-6365.655,-20505.24,-28497.15,-6449.715,2187.99
1764764449.2653189,-36.0,-587.295,-28803.33,-6364.304999999999,-20503.665,-28495.395,-6448.23,2188.395
1764764449.2653189,-36.405,-588.015,-28804.05,-6364.035,-20503.17,-28495.215,-6447.465,2189.025
1764764449.2653189,-38.07,-589.86,-28806.39,-6366.24,-20505.87,-28497.78,-6447.915,2187.09
1764764449.2653189,-36.9,-589.3199999999999,-28806.255,-6365.52,-20506.05,-28498.05,-6448.365,2188.08
1764764449.2653189,-34.92,-586.215,-28802.025,-6361.83,-20503.08,-28495.53,-6447.69,2189.61
1764764449.311556,-36.225,-586.0799999999999,-28802.295,-6362.235,-20503.845,-28496.115,-6448.679999999999,2187.135
1764764449.311556,-38.295,-587.97,-28803.285,-6363.495,-20504.745,-28497.465,-6449.849999999999,2185.515
1764764449.311556,-40.14,-589.86,-28804.815,-6364.889999999999,-20505.96,-28499.355,-6451.155,2184.39
1764764449.311556,-44.145,-594.36,-28810.08,-6369.75,-20510.685,-28503.09,-6453.81,2180.205
1764764449.311556,-43.965,-594.54,-28810.98,-6370.65,-20511.18,-28503.27,-6454.575,2181.87
1764764449.311556,-46.26,-597.555,-28814.58,-6373.889999999999,-20514.33,-28505.655,-6456.554999999999,2178.9
1764764449.311556,-42.705,-593.4599999999999,-28811.205,-6369.389999999999,-20510.055,-28501.29,-6454.08,2182.635
1764764449.311556,-43.515,-593.4599999999999,-28809.63,-6368.49,-20509.92,-28501.2,-6454.08,2182.545
1764764449.311556,-47.16,-597.645,-28813.905,-6372.63,-20513.07,-28504.08,-6456.645,2177.955
1764764449.311556,-48.87,-599.49,-28815.12,-6374.115,-20514.06,-28506.06,-6458.445,2175.885
1764764449.311556,-49.455,-599.535,-28814.58,-6372.63,-20514.15,-28506.465,-6459.435,2174.805
1764764449.311556,-46.305,-595.35,-28809.9,-6368.4,-20510.775,-28503.54,-6456.87,2176.65
1764764449.311556,-40.095,-588.87,-28803.42,-6361.965,-20503.755,-28497.87,-6452.009999999999,2182.365
1764764449.311556,-38.295,-587.655,-28802.79,-6359.4,-20501.865,-28496.79,-6449.445,2184.03
1764764449.311556,-40.86,-590.355,-28806.57,-6363.764999999999,-20505.42,-28499.13,-6450.615,2182.275
1764764449.311556,-40.275,-590.67,-28807.965,-6365.925,-20506.86,-28499.355,-6450.48,2185.11
1764764449.312574,-44.055,-596.34,-28813.5,-6371.235,-20511.36,-28502.64,-6453.045,2182.455
1764764449.312574,-40.77,-593.685,-28810.62,-6368.04,-20509.155,-28499.31,-6451.245,2184.345
1764764449.312574,-43.11,-594.81,-28812.015,-6370.065,-20511.765,-28502.415,-6452.19,2182.005
1764764449.312574,-43.695,-594.99,-28813.05,-6371.955,-20514.645,-28504.305,-6453.27,2181.375
1764764449.312574,-42.885,-594.135,-28812.465,-6371.01,-20514.195,-28504.305,-6453.179999999999,2181.87
1764764449.312574,-41.265,-592.02,-28808.955,-6367.59,-20510.415,-28501.29,-6451.245,2184.21
1764764449.3583171,-36.765,-587.97,-28804.905,-6362.685,-20506.005,-28497.06,-6448.23,2187.675
1764764449.3583171,-39.69,-590.265,-28807.92,-6366.33,-20508.75,-28499.85,-6450.255,2184.975
1764764449.3583171,-42.48,-592.65,-28810.62,-6368.715,-20511.09,-28501.83,-6451.29,2182.77
1764764449.3583171,-40.41,-591.12,-28808.55,-6366.87,-20508.93,-28500.3,-6450.255,2184.21
1764764449.3583171,-37.08,-587.61,-28804.635,-6362.639999999999,-20504.115,-28496.745,-6448.455,2186.685
1764764449.3583171,-39.105,-589.185,-28805.94,-6363.45,-20505.195,-28497.42,-6448.95,2184.66
1764764449.3583171,-43.335,-592.65,-28809.72,-6367.005,-20508.345,-28501.2,-6451.155,2180.7
1764764449.3593223,-42.03,-590.49,-28807.47,-6364.844999999999,-20505.555,-28499.715,-6450.615,2182.23
1764764449.3593223,-42.12,-590.535,-28806.93,-6365.025,-20505.465,-28499.715,-6451.469999999999,2181.78
1764764449.3593223,-41.58,-589.59,-28805.94,-6364.215,-20504.88,-28498.5,-6450.705,2182.995
1764764449.3593223,-41.985,-591.165,-28808.415,-6366.825,-20508.57,-28501.425,-6451.29,2181.96
1764764449.3593223,-45.99,-595.89,-28813.41,-6371.639999999999,-20513.79,-28507.275,-6455.565,2177.37
1764764449.3593223,-42.525,-592.56,-28809.495,-6367.59,-20509.74,-28502.595,-6452.505,2181.78
1764764449.3593223,-41.715,-592.605,-28809.945,-6367.905,-20509.245,-28502.28,-6451.02,2182.995
1764764449.3593223,-42.21,-592.965,-28809.405,-6367.545,-20508.345,-28502.01,-6450.615,2182.68
1764764449.3593223,-43.02,-593.235,-28809.18,-6367.185,-20508.795,-28502.235,-6450.3,2181.6
1764764449.3593223,-39.555,-589.635,-28806.12,-6362.639999999999,-20505.735,-28497.825,-6448.365,2184.705
1764764449.3593223,-41.625,-591.5699999999999,-28807.92,-6364.395,-20507.58,-28500.12,-6450.57,2182.14
1764764449.3593223,-45.045,-595.53,-28811.34,-6368.264999999999,-20511.63,-28503.945,-6453.27,2178.405
1764764449.3593223,-42.93,-593.73,-28809.72,-6365.88,-20509.605,-28502.28,-6451.605,2180.61
1764764449.3593223,-41.985,-593.415,-28809.0,-6364.98,-20509.2,-28502.01,-6450.795,2181.33
1764764449.3593223,-42.615,-593.775,-28809.765,-6365.565,-20509.74,-28503.18,-6451.83,2180.52
1764764449.3593223,-42.39,-592.155,-28807.38,-6364.62,-20508.48,-28502.685,-6452.009999999999,2179.935
1764764449.3593223,-43.065,-590.04,-28804.455,-6361.875,-20506.995,-28502.46,-6452.009999999999,2179.17
1764764449.4057858,-44.145,-590.0849999999999,-28804.995,-6360.84,-20506.905,-28503.45,-6452.415,2178.405
1764764449.4057858,-41.715,-589.185,-28803.42,-6359.219999999999,-20504.925,-28501.02,-6450.795,2180.295
1764764449.4057858,-46.575,-596.6999999999999,-28812.42,-6367.455,-20511.0,-28505.07,-6452.82,2176.29
1764764449.4057858,-47.745,-600.7049999999999,-28818.045,-6373.395,-20514.15,-28506.15,-6453.405,2176.74
1764764449.4057858,-44.82,-599.22,-28817.19,-6372.63,-20513.115,-28505.16,-6452.865,2180.655
1764764449.4057858,-43.695,-597.78,-28815.885,-6371.28,-20513.385,-28505.745,-6453.63,2181.15
1764764449.4057858,-44.01,-597.465,-28815.12,-6370.92,-20513.385,-28505.745,-6454.035,2179.755
1764764449.4057858,-48.42,-601.29,-28818.945,-6374.969999999999,-20516.895,-28509.03,-6457.094999999999,2174.625
1764764449.4057858,-52.605,-604.935,-28822.005,-6378.165,-20520.81,-28513.8,-6459.974999999999,2170.08
1764764449.4057858,-53.595,-604.89,-28822.185,-6377.175,-20518.965,-28512.585,-6460.695,2170.26
1764764449.4057858,-51.39,-602.145,-28819.305,-6374.025,-20515.635,-28509.39,-6458.94,2173.185
1764764449.4057858,-53.505,-605.745,-28823.31,-6378.57,-20520.72,-28513.08,-6461.505,2170.215
1764764449.4057858,-57.465,-609.39,-28827.045,-6383.115,-20525.625,-28518.66,-6464.835,2166.615
1764764449.4067914,-56.43,-608.535,-28824.705,-6380.82,-20524.32,-28517.58,-6464.655,2165.805
1764764449.4067914,-53.55,-604.5749999999999,-28820.97,-6376.455,-20520.99,-28514.34,-6462.495,2167.515
1764764449.4067914,-48.87,-598.77,-28814.625,-6369.795,-20514.69,-28509.75,-6458.085,2172.645
1764764449.4067914,-46.575,-596.025,-28812.24,-6367.815,-20512.17,-28507.365,-6455.61,2176.065
1764764449.4067914,-52.245,-602.145,-28818.765,-6375.24,-20519.775,-28514.295,-6460.695,2170.35
1764764449.4067914,-50.895,-600.48,-28817.46,-6373.485,-20518.695,-28513.665,-6459.75,2171.475
1764764449.4067914,-48.195,-598.14,-28815.345,-6371.235,-20516.67,-28510.785,-6457.815,2174.175
1764764449.4067914,-53.82,-604.0799999999999,-28821.465,-6378.795,-20524.14,-28517.04,-6462.0,2168.91
1764764449.4067914,-56.43,-608.13,-28827.09,-6383.655,-20526.84,-28518.705,-6463.98,2167.38
1764764449.4067914,-55.71,-609.39,-28829.475,-6384.42,-20525.895,-28516.68,-6463.575,2168.73
1764764449.4067914,-56.88,-610.56,-28830.735,-6384.87,-20526.03,-28516.725,-6463.8,2167.785
1764764449.4517,-56.97,-609.48,-28828.89,-6384.105,-20525.175,-28517.58,-6463.665,2166.705
1764764449.4517,-58.635,-610.875,-28829.655,-6384.915,-20526.66,-28520.01,-6464.025,2165.22
1764764449.4517,-55.62,-607.005,-28825.965,-6380.685,-20523.24,-28516.815,-6462.27,2168.37
1764764449.4517,-56.34,-608.355,-28826.325,-6381.45,-20524.41,-28517.67,-6463.575,2167.245
1764764449.4517,-57.015,-608.265,-28825.83,-6380.685,-20523.555,-28517.67,-6463.125,2166.84
1764764449.4517,-60.75,-611.145,-28829.61,-6384.69,-20527.29,-28521.27,-6465.509999999999,2163.195
1764764449.4517,-57.915,-607.8149999999999,-28825.155,-6381.135,-20524.68,-28518.885,-6464.429999999999,2165.805
1764764449.4517,-58.545,-607.545,-28823.715,-6379.469999999999,-20524.23,-28519.2,-6463.71,2164.455
1764764449.4517,-56.88,-605.16,-28821.915,-6378.48,-20524.23,-28518.615,-6463.17,2166.165
1764764449.4517,-55.26,-603.18,-28819.89,-6377.67,-20524.41,-28518.795,-6462.27,2168.055
1764764449.4517,-55.8,-604.845,-28821.645,-6379.425,-20524.32,-28518.93,-6462.179999999999,2168.055
1764764449.4517,-57.645,-608.265,-28825.83,-6382.844999999999,-20525.85,-28518.93,-6462.855,2167.605
1764764449.4517,-55.08,-605.8349999999999,-28823.265,-6379.11,-20522.43,-28515.78,-6460.38,2170.62
1764764449.4527123,-58.365,-609.12,-28826.775,-6381.36,-20523.915,-28519.29,-6463.035,2166.3
1764764449.4527123,-53.775,-604.305,-28822.545,-6376.455,-20519.91,-28515.42,-6459.929999999999,2169.72
1764764449.4527123,-52.065,-603.09,-28820.115,-6374.79,-20519.325,-28515.015,-6460.02,2169.945
1764764449.4527123,-54.405,-604.395,-28820.61,-6377.13,-20522.07,-28517.265,-6461.82,2167.155
1764764449.4527123,-58.905,-608.04,-28825.335,-6382.53,-20527.92,-28522.035,-6464.745,2163.33
1764764449.4527123,-58.995,-609.885,-28828.98,-6385.275,-20529.9,-28523.205,-6465.78,2163.195
1764764449.4527123,-57.825,-609.525,-28829.7,-6384.105,-20526.525,-28519.425,-6464.745,2165.67
1764764449.4527123,-61.335,-613.4399999999999,-28833.75,-6387.929999999999,-20529.81,-28522.755,-6465.645,2162.205
1764764449.4527123,-58.32,-609.435,-28829.745,-6385.05,-20527.515,-28520.055,-6462.719999999999,2165.58
1764764449.4980075,-56.97,-607.905,-28827.0,-6382.62,-20524.995,-28517.58,-6462.0,2166.345
1764764449.4980075,-59.22,-609.345,-28826.955,-6382.889999999999,-20526.12,-28519.38,-6463.755,2163.96
1764764449.4980075,-59.85,-610.605,-28827.225,-6383.205,-20526.705,-28520.01,-6463.98,2162.25
1764764449.4980075,-56.745,-606.8249999999999,-28824.39,-6380.594999999999,-20522.79,-28515.78,-6461.145,2166.48
1764764449.4980075,-55.755,-606.1949999999999,-28825.605,-6381.315,-20524.77,-28516.68,-6460.74,2167.74
1764764449.4980075,-55.26,-605.655,-28824.93,-6381.45,-20525.715,-28516.815,-6460.469999999999,2168.1
1764764449.4980075,-56.745,-607.4549999999999,-28827.315,-6383.52,-20527.695,-28518.66,-6461.865,2166.75
1764764449.4980075,-56.34,-606.51,-28826.055,-6381.99,-20525.625,-28517.13,-6461.73,2166.57
1764764449.4980075,-57.42,-607.86,-28825.605,-6381.945,-20526.03,-28517.895,-6462.315,2165.4
1764764449.4980075,-57.78,-608.13,-28826.1,-6382.755,-20527.65,-28518.39,-6462.405,2164.41
1764764449.4990184,-57.24,-607.365,-28825.965,-6382.53,-20527.83,-28518.885,-6461.91,2165.58
1764764449.4990184,-60.255,-610.155,-28829.34,-6386.175,-20531.655,-28523.745,-6465.06,2163.015
1764764449.4990184,-61.11,-611.415,-28830.825,-6387.165,-20532.87,-28525.005,-6466.005,2161.305
1764764449.4990184,-64.66499999999999,-615.24,-28834.605,-6390.134999999999,-20535.48,-28527.795,-6468.974999999999,2157.39
1764764449.4990184,-65.52,-615.78,-28834.47,-6390.719999999999,-20535.525,-28528.245,-6469.469999999999,2157.12
1764764449.4990184,-62.82,-612.765,-28831.545,-6388.425,-20532.915,-28525.905,-6468.165,2160.585
1764764449.4990184,-61.92,-611.8199999999999,-28830.915,-6387.344999999999,-20533.23,-28526.445,-6467.355,2161.17
1764764449.4990184,-64.71,-612.72,-28831.905,-6388.38,-20534.445,-28528.605,-6469.065,2157.975
1764764449.4990184,-58.905,-605.385,-28822.995,-6380.28,-20527.155,-28523.52,-6465.465,2162.16
1764764449.4990184,-57.195,-602.64,-28818.765,-6376.275,-20524.95,-28522.755,-6463.889999999999,2162.565
1764764449.4990184,-52.92,-598.095,-28813.005,-6370.695,-20520.765,-28519.605,-6461.054999999999,2166.57
1764764449.4990184,-55.53,-602.37,-28816.92,-6374.79,-20524.905,-28522.845,-6462.63,2163.6
1764764449.4990184,-54.27,-602.4599999999999,-28818.27,-6375.014999999999,-20523.195,-28519.2,-6459.255,2166.885
1764764449.4990184,-56.745,-604.89,-28821.105,-6377.715,-20525.13,-28519.38,-6459.435,2165.49
1764764449.5463276,-59.985,-608.265,-28824.525,-6380.73,-20528.19,-28522.35,-6462.45,2162.07
1764764449.5463276,-56.745,-603.72,-28819.395,-6375.285,-20522.475,-28518.03,-6459.344999999999,2165.31
1764764449.5463276,-57.87,-605.25,-28821.735,-6376.905,-20522.25,-28517.76,-6459.615,2164.545
1764764449.5475438,-62.73,-611.415,-28830.195,-6385.455,-20528.955,-28522.89,-6463.485,2161.755
1764764449.5475438,-68.67,-619.8299999999999,-28840.725,-6396.705,-20538.765,-28530.54,-6467.49,2157.255
1764764449.5475438,-66.96,-618.3,-28838.745,-6394.905,-20538.765,-28530.72,-6466.77,2158.155
1764764449.5475438,-61.335,-611.235,-28830.6,-6387.165,-20532.87,-28525.905,-6462.54,2162.655
1764764449.5475438,-64.30499999999999,-613.0799999999999,-28831.545,-6388.425,-20534.49,-28528.65,-6465.105,2158.38
1764764449.5475438,-63.27,-611.865,-28830.51,-6387.344999999999,-20533.455,-28527.885,-6464.835,2159.37
1764764449.5475438,-62.37,-611.235,-28830.69,-6386.58,-20531.385,-28524.78,-6463.71,2160.54
1764764449.5475438,-61.965,-611.505,-28831.32,-6387.03,-20530.44,-28523.88,-6463.08,2160.945
1764764449.5475438,-61.965,-612.3149999999999,-28831.77,-6388.02,-20531.565,-28524.465,-6463.08,2160.72
1764764449.5475438,-64.755,-615.6,-28835.73,-6392.61,-20536.245,-28527.48,-6464.88,2158.02
1764764449.5475438,-61.74,-611.595,-28832.175,-6389.28,-20533.23,-28525.005,-6462.764999999999,2161.17
1764764449.5475438,-62.415,-612.135,-28832.13,-6389.099999999999,-20533.905,-28526.265,-6464.205,2159.955
1764764449.5475438,-60.21,-609.435,-28828.8,-6386.04,-20530.755,-28524.105,-6462.405,2163.24
1764764449.5475438,-58.905,-607.5,-28827.225,-6385.5,-20530.08,-28523.52,-6460.695,2164.5
1764764449.5475438,-58.635,-607.41,-28827.765,-6386.355,-20531.97,-28524.465,-6461.19,2163.915
1764764449.5475438,-57.6,-607.005,-28827.135,-6385.5,-20532.375,-28525.095,-6459.84,2164.275
1764764449.5475438,-60.03,-609.03,-28828.485,-6387.344999999999,-20534.265,-28528.29,-6462.0,2160.81
1764764449.5475438,-58.815,-608.22,-28827.045,-6385.545,-20532.6,-28526.94,-6462.81,2162.07
1764764449.5475438,-56.475,-605.61,-28824.435,-6382.889999999999,-20529.54,-28523.115,-6460.92,2164.905
1764764449.591653,-58.95,-607.5,-28827.0,-6384.735,-20530.44,-28524.105,-6461.91,2163.105
1764764449.591653,-64.125,-613.53,-28834.29,-6391.53,-20536.56,-28529.19,-6464.79,2157.885
1764764449.591653,-64.44,-614.0699999999999,-28834.47,-6391.08,-20536.155,-28529.865,-6464.52,2157.525
1764764449.591653,-61.56,-610.515,-28830.105,-6387.3,-20532.87,-28527.03,-6462.09,2160.585
1764764449.591653,-57.42,-606.15,-28824.345,-6382.44,-20529.36,-28524.06,-6459.075,2164.41
1764764449.591653,-59.31,-606.24,-28823.58,-6382.26,-20531.97,-28527.3,-6461.775,2161.17
1764764449.591653,-51.975,-596.745,-28812.69,-6371.01,-20523.195,-28520.91,-6456.735,2166.21
1764764449.591653,-46.62,-588.87,-28802.88,-6360.435,-20514.555,-28514.655,-6452.594999999999,2168.685
1764764449.591653,-46.17,-588.645,-28803.555,-6362.054999999999,-20515.59,-28515.105,-6452.099999999999,2170.08
1764764449.591653,-53.325,-600.615,-28818.405,-6375.554999999999,-20524.095,-28519.245,-6454.215,2166.84
1764764449.591653,-55.485,-605.43,-28824.75,-6381.09,-20526.48,-28519.47,-6455.429999999999,2167.11
1764764449.591653,-59.625,-612.135,-28833.93,-6388.875,-20530.35,-28522.17,-6457.86,2164.995
1764764449.5927663,-65.25,-619.47,-28841.85,-6395.804999999999,-20536.245,-28526.175,-6460.92,2159.775
1764764449.5927663,-64.66499999999999,-618.435,-28840.14,-6395.13,-20539.17,-28529.19,-6462.27,2158.245
1764764449.5927663,-61.875,-613.8,-28835.865,-6391.395,-20535.345,-28526.58,-6460.2,2161.71
1764764449.5927663,-65.655,-615.3299999999999,-28836.315,-6392.115,-20537.325,-28529.73,-6463.304999999999,2157.39
1764764449.5927663,-58.68,-606.015,-28824.57,-6380.91,-20529.765,-28523.655,-6459.03,2162.745
1764764449.5927663,-56.205,-601.38,-28818.18,-6375.915,-20526.165,-28521.945,-6456.69,2164.23
1764764449.5927663,-58.455,-603.855,-28820.07,-6377.355,-20528.46,-28525.23,-6458.849999999999,2160.9
1764764449.5927663,-58.815,-606.9599999999999,-28824.255,-6381.179999999999,-20529.81,-28524.105,-6458.985,2160.585
1764764449.5927663,-63.855,-615.735,-28835.91,-6390.945,-20535.615,-28527.255,-6461.594999999999,2157.21
1764764449.5927663,-68.58,-621.54,-28842.165,-6396.66,-20540.7,-28532.34,-6463.889999999999,2153.07
1764764449.5927663,-63.045,-614.385,-28834.29,-6389.145,-20535.84,-28528.605,-6460.83,2158.38
1764764449.5927663,-58.905,-608.4449999999999,-28826.73,-6383.295,-20531.835,-28525.725,-6459.12,2160.945
1764764449.635773,-59.715,-608.85,-28827.18,-6383.52,-20532.285,-28526.76,-6459.12,2160.36
1764764449.635773,-64.62,-613.305,-28832.265,-6387.57,-20535.795,-28529.955,-6462.09,2156.13
1764764449.635773,-62.325,-611.595,-28829.835,-6385.23,-20533.68,-28526.58,-6460.29,2158.83
1764764449.635773,-63.675,-613.35,-28831.905,-6387.705,-20535.84,-28528.38,-6461.639999999999,2157.21
1764764449.635773,-64.53,-613.035,-28831.365,-6387.12,-20535.795,-28529.955,-6462.81,2156.175
1764764449.635773,-65.655,-613.35,-28831.545,-6386.31,-20535.165,-28529.28,-6463.035,2155.275
1764764449.635773,-70.64999999999999,-620.37,-28838.88,-6392.34,-20539.98,-28533.195,-6465.599999999999,2151.09
1764764449.635773,-71.00999999999999,-623.16,-28843.02,-6396.615,-20542.41,-28534.365,-6466.724999999999,2150.64
1764764449.635773,-67.365,-619.38,-28838.925,-6392.7,-20539.08,-28531.35,-6464.969999999999,2153.97
1764764449.635773,-65.42999999999999,-616.23,-28835.325,-6389.505,-20537.055,-28529.55,-6462.719999999999,2156.445
1764764449.6370294,-63.45,-614.43,-28833.48,-6388.335,-20537.64,-28529.955,-6461.28,2157.525
1764764449.6370294,-65.7,-615.3299999999999,-28834.515,-6390.855,-20541.42,-28534.455,-6463.259999999999,2154.105
1764764449.6370294,-63.855,-612.36,-28830.87,-6387.435,-20539.215,-28532.655,-6462.719999999999,2155.185
1764764449.6370294,-63.855,-611.235,-28829.385,-6384.465,-20536.605,-28531.35,-6462.54,2154.735
1764764449.6370294,-63.99,-611.505,-28829.16,-6384.24,-20536.695,-28531.26,-6461.639999999999,2155.23
1764764449.6370294,-65.205,-612.9449999999999,-28831.14,-6386.625,-20536.74,-28531.665,-6462.179999999999,2155.545
1764764449.6370294,-65.565,-614.97,-28834.29,-6388.11,-20535.39,-28528.56,-6461.37,2156.085
1764764449.6370294,-69.03,-619.965,-28838.34,-6392.25,-20538.945,-28531.215,-6463.62,2151.99
1764764449.6370294,-67.005,-617.625,-28834.695,-6389.415,-20538.09,-28530.855,-6462.855,2153.835
1764764449.6370294,-62.595,-611.9549999999999,-28829.88,-6384.375,-20532.69,-28526.4,-6459.344999999999,2158.785
1764764449.6370294,-62.415,-611.55,-28830.06,-6383.88,-20531.88,-28526.04,-6458.849999999999,2158.245
1764764449.6370294,-68.22,-616.41,-28834.695,-6388.469999999999,-20537.19,-28532.07,-6464.34,2151.675
1764764449.6851122,-68.715,-616.77,-28834.245,-6388.11,-20537.46,-28532.88,-6465.465,2150.01
1764764449.6851122,-68.895,-616.365,-28833.57,-6388.065,-20536.74,-28532.43,-6464.61,2150.28
1764764449.6851122,-67.365,-615.6899999999999,-28832.895,-6386.895,-20534.58,-28529.685,-6463.259999999999,2152.62
1764764449.6851122,-69.48,-618.5699999999999,-28837.755,-6390.9,-20537.235,-28530.99,-6464.655,2151.315
1764764449.6851122,-70.74,-619.965,-28839.78,-6393.06,-20539.8,-28533.015,-6465.465,2149.56
1764764449.6851122,-70.965,-619.92,-28839.69,-6393.645,-20541.645,-28534.68,-6465.915,2148.795
1764764449.6851122,-66.78,-615.105,-28835.235,-6389.594999999999,-20538.585,-28532.025,-6463.304999999999,2153.205
1764764449.6851122,-69.12,-616.59,-28836.09,-6391.349999999999,-20541.24,-28534.86,-6464.79,2151.045
1764764449.6851122,-65.295,-612.18,-28832.625,-6387.165,-20537.01,-28530.855,-6462.224999999999,2153.745
1764764449.6851122,-67.815,-614.2049999999999,-28834.47,-6388.335,-20538.315,-28533.645,-6464.07,2149.785
