Timestamp,Channel1,Channel2,Channel3,Channel4,Channel5,Channel6,Channel7,Channel8
1764434736.875401,19820.97,6213.06,49801.77,-15138.0,-42923.925,-52357.59,-14312.97,2119.995
1764434736.875401,19819.575,6209.91,49798.17,-15142.365,-42927.075,-52360.515,-14314.545,2118.51
1764434736.875401,19819.755,6204.195,49788.855,-15148.935,-42931.62,-52363.89,-14327.865,2112.705
1764434736.875401,19828.125,6204.51,49786.245,-15148.53,-42928.695,-52359.12,-14339.925,2112.165
1764434736.875401,19832.58,6199.785,49778.73,-15153.39,-42929.73,-52357.815,-14359.815,2105.19
1764434736.875401,19837.215,6200.639999999999,49778.685,-15150.87,-42926.265,-52353.045,-14369.22,2104.245
1764434736.875401,19839.825,6204.735,49784.625,-15145.47,-42921.945,-52348.635,-14365.395,2107.215
1764434736.875401,19832.13,6202.395,49785.345,-15146.775,-42925.275,-52352.64,-14359.14,2104.875
1764434736.875401,19827.405,6205.679999999999,49791.555,-15143.76,-42924.105,-52353.72,-14344.335,2109.24
1764434736.875401,19822.095,6209.55,49798.485,-15140.205,-42923.25,-52355.565,-14326.2,2114.46
1764434736.875401,19822.095,6213.87,49803.93,-15136.965,-42921.0,-52354.08,-14311.845,2120.49
1764434736.875401,19822.995,6212.655,49801.275,-15138.99,-42922.53,-52354.98,-14312.655,2120.94
1764434736.8764153,19826.73,6210.45,49796.145,-15141.78,-42923.79,-52354.755,-14323.14,2118.69
1764434736.8764153,19832.31,6208.695,49791.42,-15143.715,-42923.07,-52352.37,-14336.955,2116.71
1764434736.8764153,19838.565,6206.355,49785.75,-15146.28,-42922.17,-52350.03,-14354.82,2111.445
1764434736.8764153,19844.235,6207.12,49786.065,-15143.76,-42918.615,-52344.99,-14363.28,2110.185
1764434736.8764153,19844.73,6209.955,49790.16,-15140.43,-42915.6,-52341.525,-14360.76,2112.705
1764434736.8764153,19837.845,6208.155,49790.745,-15140.79,-42918.48,-52346.115,-14355.045,2111.31
1764434736.8764153,19834.245,6211.755,49797.855,-15136.695,-42917.355,-52346.115,-14339.655,2115.9
1764434736.8764153,19830.78,6216.84,49806.315,-15132.15,-42915.42,-52346.205,-14318.82,2123.28
1764434736.8764153,19826.685,6216.57,49807.935,-15132.33,-42917.94,-52349.445,-14308.38,2125.935
1764434736.8764153,19825.65,6213.645,49803.885,-15135.975,-42920.64,-52351.92,-14312.07,2124.405
1764434736.8764153,19825.47,6207.66,49794.84,-15142.5,-42924.645,-52355.43,-14325.93,2118.375
1764434736.8764153,19830.285,6205.545,49789.53,-15145.47,-42924.87,-52353.405,-14340.51,2114.73
1764434736.9245284,19838.61,6205.185,49786.065,-15145.83,-42921.675,-52348.68,-14356.44,2112.48
1764434736.9245284,19847.43,6209.19,49789.575,-15140.88,-42914.925,-52340.67,-14362.2,2114.685
1764434736.9245284,19848.78,6212.07,49793.85,-15136.695,-42911.82,-52338.105,-14358.645,2116.395
1764434736.9245284,19841.13,6209.73,49794.435,-15138.045,-42914.655,-52342.74,-14352.885,2114.37
1764434736.9245284,19837.485,6213.33,49801.095,-15134.4,-42913.935,-52343.145,-14337.09,2118.87
1764434736.9245284,19834.56,6219.764999999999,49810.275,-15128.73,-42911.37,-52342.92,-14315.22,2126.97
1764434736.9245284,19830.375,6220.485,49811.715,-15129.315,-42912.495,-52346.16,-14305.455,2129.985
1764434736.9245284,19828.71,6217.245,49807.035,-15133.545,-42915.51,-52349.94,-14308.425,2128.185
1764434736.9245284,19828.08,6210.855,49798.035,-15140.025,-42920.235,-52353.135,-14322.645,2121.75
1764434736.9245284,19833.48,6209.099999999999,49793.085,-15142.14,-42919.56,-52350.21,-14337.18,2119.05
1764434736.9245284,19843.245,6209.865,49791.33,-15141.15,-42915.51,-52344.045,-14351.49,2117.88
1764434736.9245284,19849.545,6211.08,49791.825,-15137.955,-42911.46,-52339.275,-14358.42,2118.105
1764434736.9245284,19850.4,6214.185,49796.145,-15134.94,-42908.76,-52336.53,-14355.945,2120.445
1764434736.9245284,19843.92,6213.554999999999,49797.81,-15134.49,-42910.695,-52339.815,-14349.465,2119.86
1764434736.9245284,19840.545,6218.145,49804.965,-15129.765,-42908.94,-52339.77,-14332.5,2124.27
1764434736.9245284,19838.025,6224.355,49814.1,-15124.455,-42906.42,-52339.545,-14311.485,2131.605
1764434736.9245284,19833.12,6223.679999999999,49814.01,-15126.795,-42909.84,-52343.415,-14302.98,2133.09
1764434736.9245284,19829.97,6218.82,49807.71,-15132.24,-42914.88,-52347.915,-14308.335,2129.535
1764434736.9245284,19836.765,6218.82,49805.235,-15132.87,-42912.72,-52345.485,-14316.345,2129.49
1764434736.9245284,19838.97,6213.195,49796.505,-15138.495,-42916.14,-52346.25,-14334.93,2123.01
1764434736.9245284,19848.105,6214.905,49794.345,-15137.55,-42912.135,-52340.13,-14350.095,2122.155
1764434736.9245284,19853.595,6216.3,49795.47,-15135.3,-42907.545,-52335.495,-14357.7,2122.245
1764434736.9696589,19853.55,6217.785,49798.845,-15132.645,-42905.655,-52333.83,-14354.685,2122.605
1764434736.9696589,19846.845,6216.3,49800.285,-15133.14,-42907.545,-52337.07,-14347.44,2122.425
1764434736.9696589,19841.895,6217.83,49805.235,-15130.53,-42907.5,-52339.68,-14333.445,2125.485
1764434736.9696589,19835.955,6220.62,49811.085,-15127.56,-42908.445,-52342.515,-14315.625,2130.12
1764434736.9696589,19832.31,6221.429999999999,49812.75,-15128.19,-42910.47,-52345.98,-14306.04,2132.595
1764434736.9696589,19835.19,6222.195,49811.715,-15128.91,-42909.93,-52345.26,-14305.995,2133.63
1764434736.9696589,19834.83,6217.065,49802.805,-15135.345,-42914.07,-52348.005,-14319.54,2127.51
1764434736.9696589,19842.3,6217.11,49800.06,-15135.525,-42911.595,-52343.46,-14331.78,2127.465
1764434736.9696589,19847.925,6213.645,49794.48,-15138.18,-42910.92,-52340.805,-14350.455,2122.74
1764434736.9696589,19851.3,6212.52,49793.31,-15137.73,-42909.795,-52338.015,-14360.13,2119.905
1764434736.9696589,19854.0,6218.46,49800.24,-15131.385,-42904.62,-52332.75,-14353.785,2124.36
1764434736.9696589,19848.735,6218.73,49802.715,-15130.44,-42905.88,-52335.405,-14345.595,2124.81
1764434736.9696589,19846.755,6224.445,49812.3,-15125.085,-42903.225,-52333.515,-14327.505,2131.56
1764434736.9696589,19839.735,6226.065,49816.71,-15124.32,-42904.44,-52337.295,-14310.45,2135.025
1764434736.9696589,19833.615,6223.86,49814.055,-15127.335,-42909.255,-52343.325,-14304.555,2134.485
1764434736.9696589,19829.745,6217.92,49806.135,-15133.995,-42915.33,-52349.31,-14311.665,2129.22
1764434736.9696589,19833.795,6215.67,49801.41,-15137.145,-42915.645,-52348.14,-14322.105,2126.565
1764434736.9696589,19840.68,6214.77,49797.99,-15137.955,-42913.755,-52345.305,-14335.47,2124.315
1764434736.9696589,19844.55,6209.19,49789.71,-15142.68,-42915.51,-52344.675,-14355.675,2117.43
1764434736.9696589,19850.4,6211.035,49790.655,-15139.53,-42911.28,-52339.365,-14363.19,2117.115
1764434736.9696589,19852.38,6215.31,49796.685,-15134.4,-42906.105,-52334.865,-14358.6,2120.355
1764434736.9696589,19844.28,6213.554999999999,49797.495,-15134.94,-42909.345,-52339.32,-14352.255,2119.005
1764434736.9706745,19839.06,6215.985,49802.4,-15132.555,-42909.75,-52341.795,-14337.81,2122.29
1764434736.9706745,19833.21,6219.135,49808.565,-15129.765,-42910.47,-52344.225,-14318.865,2126.52
1764434737.0192316,19831.545,6221.429999999999,49812.12,-15128.145,-42910.74,-52345.08,-14307.975,2131.785
1764434737.0192316,19830.06,6217.514999999999,49806.675,-15132.375,-42913.89,-52348.86,-14313.42,2129.085
1764434737.0192316,19829.205,6210.63,49797.045,-15139.35,-42918.84,-52353.315,-14327.82,2122.56
1764434737.0192316,19835.595,6208.785,49791.915,-15141.69,-42918.165,-52350.345,-14342.085,2119.77
1764434737.0192316,19845.495,6210.045,49790.475,-15140.43,-42913.08,-52342.875,-14356.395,2118.87
1764434737.0192316,19850.22,6211.53,49791.33,-15137.64,-42909.435,-52338.42,-14363.325,2118.6
1764434737.0192316,19851.075,6215.085,49795.56,-15133.275,-42906.465,-52335.72,-14358.555,2120.355
1764434737.0192316,19846.53,6215.4,49799.07,-15131.7,-42906.87,-52337.565,-14349.42,2121.345
1764434737.0192316,19837.485,6213.42,49800.735,-15132.78,-42911.055,-52343.64,-14338.755,2120.895
1764434737.0192316,19831.32,6215.895,49806.18,-15131.115,-42912.135,-52347.015,-14321.43,2125.845
1764434737.0192316,19827.72,6215.67,49806.72,-15131.88,-42914.43,-52349.67,-14313.555,2128.635
1764434737.0192316,19828.575,6212.88,49803.12,-15135.21,-42916.59,-52351.605,-14316.885,2127.285
1764434737.0202725,19831.14,6209.054999999999,49797.405,-15139.8,-42918.885,-52352.415,-14329.125,2123.055
1764434737.0202725,19834.83,6205.724999999999,49790.745,-15143.715,-42919.695,-52351.83,-14345.055,2118.87
1764434737.0202725,19842.345,6204.96,49787.595,-15143.805,-42916.905,-52347.465,-14361.345,2116.26
1764434737.0202725,19851.48,6210.63,49792.005,-15137.91,-42909.12,-52339.32,-14364.765,2118.96
1764434737.0202725,19853.235,6214.545,49797.495,-15133.41,-42905.52,-52336.035,-14359.14,2121.435
1764434737.0202725,19848.06,6215.58,49801.185,-15132.105,-42905.88,-52337.565,-14349.96,2122.74
1764434737.0202725,19840.455,6215.58,49804.605,-15131.88,-42908.175,-52341.48,-14337.09,2124.45
1764434737.0202725,19837.395,6220.935,49812.93,-15127.11,-42906.33,-52341.03,-14316.12,2131.605
1764434737.0202725,19834.47,6221.115,49813.065,-15127.2,-42908.265,-52344.495,-14308.155,2133.72
1764434737.0202725,19830.87,6215.49,49805.64,-15133.005,-42913.395,-52349.49,-14315.715,2128.905
1764434737.0202725,19836.72,6214.679999999999,49802.94,-15134.31,-42912.315,-52347.735,-14324.265,2128.41
1764434737.0202725,19839.555,6209.505,49795.515,-15139.8,-42914.79,-52349.265,-14342.445,2122.38
1764434737.0631435,19848.195,6209.01,49792.185,-15139.665,-42910.74,-52343.55,-14357.34,2120.58
1764434737.0631435,19852.515,6210.224999999999,49793.265,-15138.045,-42907.365,-52339.77,-14364.63,2119.185
1764434737.0631435,19851.12,6211.755,49797.09,-15135.795,-42906.015,-52338.735,-14361.48,2119.905
1764434737.0631435,19844.55,6210.81,49798.935,-15135.705,-42908.58,-52342.38,-14353.785,2119.185
1764434737.0631435,19839.42,6213.51,49804.335,-15131.97,-42907.815,-52343.37,-14338.35,2123.28
1764434737.0631435,19834.47,6217.335,49810.95,-15128.55,-42906.87,-52344.585,-14319.18,2129.355
1764434737.0631435,19833.345,6219.405,49813.92,-15127.695,-42906.24,-52345.755,-14308.785,2134.035
1764434737.0631435,19830.87,6213.51,49806.585,-15135.03,-42911.73,-52351.02,-14316.57,2128.725
1764434737.0631435,19834.425,6210.585,49800.735,-15138.18,-42913.125,-52351.29,-14328.315,2126.115
1764434737.0644326,19839.555,6208.965,49794.885,-15140.475,-42912.81,-52348.815,-14343.39,2122.92
1764434737.0644326,19847.07,6207.615,49791.285,-15141.645,-42910.38,-52344.54,-14359.77,2119.41
1764434737.0644326,19854.72,6211.889999999999,49795.605,-15136.065,-42903.99,-52337.25,-14362.605,2122.02
1764434737.0644326,19855.485,6216.344999999999,49801.23,-15131.34,-42899.895,-52334.055,-14356.62,2125.125
1764434737.0644326,19849.185,6216.435,49803.705,-15129.945,-42901.065,-52336.44,-14347.305,2125.485
1764434737.0644326,19840.41,6215.67,49804.92,-15130.44,-42904.755,-52341.435,-14335.38,2125.395
1764434737.0644326,19835.145,6218.594999999999,49810.95,-15127.83,-42906.015,-52344.765,-14318.685,2129.805
1764434737.0644326,19831.68,6217.605,49811.175,-15129.18,-42908.535,-52348.68,-14311.44,2130.75
1764434737.0644326,19832.805,6215.67,49807.575,-15132.6,-42909.66,-52349.94,-14314.815,2129.895
1764434737.0644326,19838.295,6215.49,49804.56,-15133.77,-42908.445,-52347.285,-14324.535,2129.355
1764434737.0644326,19840.68,6209.73,49795.83,-15139.08,-42910.965,-52348.23,-14343.03,2123.685
1764434737.065426,19846.44,6206.355,49790.25,-15141.6,-42910.335,-52345.755,-14360.985,2119.185
1764434737.065426,19852.02,6209.145,49792.86,-15138.09,-42905.655,-52340.22,-14365.98,2119.41
1764434737.065426,19855.62,6215.67,49801.59,-15130.305,-42898.77,-52334.64,-14357.655,2125.035
1764434737.065426,19849.77,6217.469999999999,49804.695,-15128.955,-42899.445,-52335.675,-14348.43,2125.935
1764434737.1087017,19840.545,6216.3,49805.91,-15130.935,-42903.54,-52341.255,-14337.54,2125.17
1764434737.1087017,19835.235,6218.955,49811.085,-15128.595,-42904.215,-52343.415,-14319.315,2130.255
1764434737.1087017,19835.91,6221.61,49815.36,-15126.165,-42903.045,-52343.595,-14307.795,2136.105
1764434737.1087017,19834.155,6216.66,49809.285,-15131.745,-42907.635,-52348.32,-14314.59,2131.875
1764434737.1087017,19838.475,6214.365,49804.56,-15133.95,-42908.13,-52346.97,-14326.155,2129.58
1764434737.1087017,19844.235,6212.61,49799.07,-15135.93,-42907.77,-52344.09,-14341.23,2126.745
1764434737.1087017,19853.91,6213.554999999999,49797.675,-15134.355,-42903.765,-52337.61,-14354.595,2125.98
1764434737.1087017,19855.26,6212.429999999999,49795.155,-15135.165,-42903.45,-52336.665,-14363.73,2121.39
1764434737.109795,19858.32,6218.19,49802.58,-15128.955,-42898.05,-52331.58,-14356.215,2125.665
1764434737.109795,19853.28,6218.955,49806.405,-15127.29,-42898.725,-52333.335,-14346.585,2127.465
1764434737.109795,19845.045,6218.325,49809.96,-15127.92,-42901.425,-52338.24,-14333.85,2129.085
1764434737.109795,19838.07,6219.54,49814.055,-15127.02,-42903.135,-52342.38,-14317.155,2132.145
1764434737.109795,19834.425,6218.685,49812.795,-15129.045,-42906.105,-52345.98,-14311.08,2133.045
1764434737.109795,19834.56,6215.715,49808.655,-15132.06,-42907.5,-52347.645,-14316.39,2131.605
1764434737.109795,19838.43,6213.375,49803.795,-15135.255,-42907.95,-52346.655,-14327.73,2129.175
1764434737.109795,19843.11,6210.63,49797.63,-15138.18,-42908.715,-52344.72,-14343.57,2124.9
1764434737.109795,19851.615,6210.9,49795.11,-15137.595,-42905.205,-52338.87,-14358.105,2123.1
1764434737.109795,19860.435,6216.075,49800.6,-15131.25,-42897.825,-52330.005,-14360.13,2126.475
1764434737.109795,19859.67,6218.415,49804.83,-15128.28,-42895.665,-52328.115,-14355.315,2127.735
1764434737.110301,19851.525,6216.57,49806.09,-15128.685,-42899.22,-52332.615,-14348.115,2126.52
1764434737.110301,19847.61,6220.26,49813.02,-15124.95,-42897.915,-52333.065,-14331.33,2132.235
1764434737.110301,19845.18,6225.435,49820.94,-15119.82,-42895.665,-52333.155,-14311.125,2139.66
1764434737.1587903,19840.545,6224.219999999999,49819.59,-15122.565,-42898.77,-52338.285,-14305.23,2139.885
1764434737.1587903,19843.65,6225.255,49818.375,-15123.015,-42898.5,-52337.34,-14307.21,2141.19
1764434737.1587903,19846.215,6221.16,49811.94,-15127.02,-42900.3,-52337.295,-14320.08,2137.455
1764434737.1587903,19853.37,6219.63,49807.755,-15128.19,-42898.77,-52333.965,-14334.39,2135.61
1764434737.1587903,19856.835,6214.995,49799.655,-15132.78,-42900.75,-52333.83,-14354.595,2128.815
1764434737.1587903,19863.405,6218.82,49802.31,-15128.19,-42895.53,-52327.53,-14358.51,2129.94
1764434737.1587903,19863.765,6222.285,49808.565,-15123.285,-42891.84,-52324.605,-14351.715,2132.55
1764434737.1587903,19859.67,6224.4,49813.92,-15120.765,-42891.21,-52326.405,-14340.465,2135.07
1764434737.1587903,19854.135,6226.65,49819.455,-15117.975,-42891.03,-52328.25,-14325.21,2138.58
1764434737.1587903,19846.8,6228.179999999999,49823.325,-15117.03,-42892.695,-52331.94,-14308.065,2142.63
1764434737.1587903,19844.37,6228.54,49823.55,-15118.29,-42894.63,-52334.145,-14300.82,2144.88
1764434737.1587903,19846.305,6226.83,49820.535,-15120.18,-42895.62,-52334.415,-14304.51,2144.385
1764434737.1587903,19849.68,6223.5,49814.955,-15123.69,-42897.465,-52334.73,-14316.435,2141.775
1764434737.1587903,19850.715,6217.785,49805.865,-15130.665,-42901.605,-52336.215,-14336.145,2134.395
1764434737.1587903,19857.51,6216.615,49802.31,-15132.555,-42899.22,-52332.21,-14352.255,2130.12
1764434737.1587903,19863.225,6219.45,49805.145,-15128.37,-42894.675,-52327.215,-14357.115,2130.66
1764434737.1587903,19866.42,6226.469999999999,49814.1,-15119.28,-42888.15,-52320.96,-14347.26,2136.555
1764434737.1587903,19861.83,6228.09,49818.555,-15116.985,-42888.06,-52322.49,-14336.46,2138.625
1764434737.1587903,19853.415,6227.955,49821.66,-15117.84,-42890.895,-52327.17,-14323.455,2139.885
1764434737.15979,19847.25,6230.205,49825.26,-15116.085,-42892.56,-52330.815,-14306.805,2143.26
1764434737.15979,19845.855,6231.375,49827.105,-15115.905,-42893.37,-52332.03,-14298.435,2146.59
1764434737.15979,19850.895,6232.094999999999,49827.06,-15115.5,-42892.02,-52329.33,-14300.28,2149.065
1764434737.15979,19853.955,6227.685,49820.22,-15119.325,-42893.415,-52329.33,-14313.24,2145.105
1764434737.15979,19855.08,6221.025,49810.635,-15125.445,-42896.745,-52331.67,-14332.455,2137.23
1764434737.202994,19863.135,6220.755,49807.215,-15126.165,-42894.72,-52326.45,-14347.89,2134.485
1764434737.202994,19871.955,6226.695,49813.065,-15118.47,-42886.89,-52317.9,-14348.745,2139.21
1764434737.202994,19871.37,6230.16,49818.285,-15114.24,-42884.1,-52315.605,-14342.04,2141.28
1764434737.202994,19866.33,6231.825,49823.28,-15113.16,-42884.595,-52317.81,-14331.735,2143.035
1764434737.202994,19860.435,6233.31,49828.095,-15110.685,-42884.595,-52321.095,-14316.255,2146.41
1764434737.202994,19852.155,6232.365,49830.3,-15111.225,-42887.79,-52326.63,-14301.765,2148.435
1764434737.202994,19852.155,6234.435,49832.505,-15110.415,-42888.375,-52326.855,-14293.08,2152.62
1764434737.204131,19849.635,6229.349999999999,49824.27,-15117.075,-42893.28,-52331.76,-14301.9,2147.76
1764434737.204131,19856.25,6229.665,49821.705,-15117.075,-42890.895,-52327.935,-14311.305,2147.265
1764434737.204131,19862.1,6226.335,49816.17,-15120.09,-42890.76,-52325.595,-14327.325,2143.26
1764434737.204131,19866.375,6222.645,49810.185,-15123.87,-42891.75,-52324.74,-14346.09,2138.085
1764434737.2051246,19873.215,6227.325,49814.235,-15118.155,-42885.405,-52317.315,-14347.8,2140.695
1764434737.2051246,19873.35,6232.185,49820.4,-15113.25,-42882.03,-52314.3,-14340.465,2143.71
1764434737.2051246,19864.935,6230.474999999999,49821.435,-15114.465,-42885.315,-52319.025,-14332.23,2142.72
1764434737.2051246,19861.47,6235.514999999999,49828.905,-15109.425,-42883.38,-52318.845,-14314.635,2149.38
1764434737.2051246,19854.315,6236.01,49832.19,-15109.425,-42885.675,-52323.165,-14299.875,2152.17
1764434737.2051246,19852.83,6236.01,49832.685,-15109.92,-42887.16,-52325.64,-14293.575,2153.88
1764434737.2051246,19854.63,6233.895,49828.86,-15112.125,-42888.645,-52326.765,-14298.075,2152.755
1764434737.2051246,19857.825,6230.52,49822.605,-15116.22,-42890.04,-52326.855,-14310.945,2149.245
1764434737.2051246,19860.03,6224.49,49813.65,-15122.16,-42892.965,-52327.98,-14330.97,2141.55
1764434737.2051246,19867.05,6223.905,49810.095,-15122.34,-42890.31,-52323.39,-14347.08,2138.535
1764434737.2051246,19875.015,6229.844999999999,49815.54,-15116.175,-42882.93,-52315.65,-14348.16,2141.46
1764434737.2489195,19875.735,6233.67,49821.93,-15111.72,-42879.105,-52312.77,-14341.005,2144.385
1764434737.2489195,19870.695,6234.435,49826.07,-15110.1,-42879.78,-52314.615,-14330.43,2146.905
1764434737.2489195,19862.37,6234.705,49829.085,-15109.965,-42882.525,-52319.385,-14316.93,2148.255
1764434737.2489195,19856.745,6236.955,49834.17,-15107.85,-42882.84,-52322.355,-14299.515,2152.485
1764434737.2489195,19854.27,6236.325,49834.17,-15108.75,-42884.775,-52325.1,-14294.295,2153.475
1764434737.2499363,19855.71,6234.389999999999,49829.67,-15111.495,-42886.62,-52325.595,-14299.965,2151.585
1764434737.2499363,19859.49,6231.51,49823.73,-15114.915,-42888.015,-52325.505,-14311.89,2148.705
1764434737.2509377,19865.25,6228.179999999999,49817.925,-15118.02,-42887.88,-52323.66,-14328.225,2144.565
1764434737.2519364,19870.92,6226.469999999999,49813.785,-15119.55,-42885.855,-52320.195,-14344.92,2140.38
1764434737.2519364,19876.095,6229.035,49816.89,-15115.14,-42881.085,-52315.11,-14347.98,2141.685
1764434737.2519364,19880.325,6236.28,49825.845,-15107.355,-42875.235,-52308.315,-14336.64,2148.435
1764434737.2519364,19872.225,6235.2,49826.925,-15107.76,-42878.07,-52312.68,-14328.54,2147.85
1764434737.2519364,19867.005,6238.304999999999,49832.82,-15104.97,-42877.305,-52314.48,-14312.43,2152.53
1764434737.2519364,19863.18,6241.724999999999,49839.795,-15101.01,-42876.54,-52315.785,-14293.89,2158.515
1764434737.2531028,19860.3,6240.645,49838.895,-15103.575,-42879.69,-52318.98,-14289.03,2159.415
1764434737.2531028,19858.995,6236.054999999999,49832.055,-15109.02,-42884.505,-52322.22,-14297.67,2155.005
1764434737.2531028,19863.27,6233.58,49827.375,-15112.125,-42884.865,-52321.23,-14309.55,2152.845
1764434737.2531028,19870.155,6230.79,49822.155,-15115.005,-42884.235,-52319.34,-14325.39,2148.885
1764434737.2541108,19876.815,6229.62,49818.51,-15115.815,-42881.58,-52315.695,-14340.825,2145.195
1764434737.2541108,19880.28,6232.05,49820.085,-15112.485,-42877.89,-52311.195,-14344.335,2146.095
1764434737.2541108,19881.405,6237.45,49827.69,-15105.87,-42873.705,-52306.83,-14335.605,2150.73
1764434737.2541108,19874.16,6237.36,49829.805,-15105.42,-42875.37,-52310.565,-14326.695,2150.19
1764434737.2551005,19873.125,6243.929999999999,49839.885,-15098.31,-42871.23,-52308.54,-14305.68,2157.84
1764434737.2551005,19866.555,6245.594999999999,49843.485,-15097.275,-42874.02,-52311.87,-14289.93,2161.08
1764434737.2994509,19862.775,6244.2,49841.82,-15099.795,-42877.755,-52315.785,-14286.06,2160.72
1764434737.2994509,19863.72,6241.23,49837.005,-15104.25,-42880.05,-52317.855,-14292.63,2158.785
1764434737.2994509,19867.545,6238.26,49831.155,-15107.94,-42880.185,-52317.225,-14305.23,2155.725
1764434737.2994509,19869.48,6231.51,49821.57,-15113.655,-42883.83,-52318.935,-14325.39,2148.075
1764434737.2994509,19877.085,6231.195,49819.005,-15114.06,-42881.265,-52314.255,-14340.42,2146.005
1764434737.2994509,19881.945,6234.885,49822.425,-15110.28,-42876.72,-52308.99,-14343.345,2148.12
1764434737.2994509,19885.095,6242.085,49831.245,-15102.315,-42869.97,-52302.87,-14332.365,2154.195
1764434737.2994509,19879.92,6242.895,49834.845,-15099.885,-42870.825,-52305.615,-14321.745,2155.41
1764434737.2994509,19871.595,6242.58,49837.995,-15099.795,-42873.93,-52310.43,-14307.57,2156.985
1764434737.2994509,19867.635,6246.719999999999,49844.16,-15096.195,-42872.58,-52311.555,-14289.39,2163.78
1764434737.2994509,19864.71,6245.235,49843.125,-15098.895,-42875.64,-52316.415,-14285.43,2163.915
1764434737.2994509,19868.49,6245.415,49840.965,-15099.615,-42875.325,-52314.66,-14289.255,2164.635
1764434737.2994509,19869.75,6239.295,49832.955,-15105.24,-42879.015,-52317.09,-14304.285,2158.335
1764434737.2994509,19875.825,6236.594999999999,49827.285,-15107.58,-42878.925,-52314.12,-14320.665,2154.285
1764434737.2994509,19881.855,6235.56,49823.37,-15109.02,-42877.53,-52310.295,-14336.865,2150.55
1764434737.2994509,19885.86,6238.035,49825.62,-15105.6,-42873.705,-52306.515,-14339.97,2151.63
1764434737.2994509,19890.63,6248.07,49837.05,-15095.205,-42865.2,-52298.64,-14326.515,2160.585
1764434737.2994509,19886.31,6250.59,49842.405,-15093.0,-42864.435,-52300.44,-14314.77,2164.14
1764434737.2994509,19879.47,6252.12,49846.185,-15092.91,-42866.145,-52304.265,-14300.1,2166.12
1764434737.2994509,19877.625,6257.25,49854.06,-15087.915,-42863.715,-52303.815,-14280.12,2173.185
1764434737.2994509,19873.305,6254.73,49852.035,-15090.795,-42867.63,-52307.505,-14276.745,2173.005
1764434737.3004518,19871.325,6249.33,49844.205,-15096.87,-42873.12,-52312.005,-14286.24,2167.785
1764434737.3004518,19875.645,6246.495,49838.76,-15099.345,-42873.975,-52312.095,-14298.57,2164.59
1764434737.3004518,19881.63,6243.84,49833.045,-15101.955,-42872.49,-52308.495,-14314.77,2160.765
1764434737.3433106,19890.54,6246.045,49832.865,-15099.615,-42867.225,-52300.98,-14326.92,2160.405
1764434737.3433106,19890.36,6244.155,49831.965,-15100.155,-42867.63,-52300.44,-14333.94,2156.985
1764434737.3433106,19892.16,6249.78,49839.615,-15094.485,-42862.905,-52295.94,-14324.805,2161.53
1764434737.3433106,19884.735,6249.195,49841.235,-15094.8,-42865.56,-52300.665,-14315.805,2160.63
1764434737.3433106,19881.36,6254.37,49849.38,-15089.625,-42863.49,-52300.53,-14296.32,2167.2
1764434737.3433106,19876.635,6256.44,49854.15,-15086.88,-42864.03,-52302.78,-14279.895,2171.925
1764434737.3443282,19875.15,6256.26,49853.16,-15088.455,-42865.29,-52304.67,-14275.305,2173.23
1764434737.3443282,19873.575,6251.31,49845.69,-15094.845,-42870.195,-52308.18,-14284.26,2169.045
1764434737.3443282,19879.47,6250.23,49842.27,-15096.78,-42869.43,-52306.515,-14294.565,2168.01
1764434737.3443282,19883.385,6245.91,49834.485,-15101.325,-42870.78,-52306.245,-14313.105,2162.07
1764434737.3443282,19892.16,6247.844999999999,49834.035,-15097.905,-42866.055,-52299.315,-14325.705,2161.89
1764434737.3443282,19894.68,6249.014999999999,49835.97,-15094.665,-42863.625,-52295.445,-14329.08,2161.17
1764434737.3443282,19894.905,6252.795,49842.675,-15090.03,-42859.8,-52292.97,-14320.665,2164.995
1764434737.3443282,19891.62,6255.36,49848.21,-15087.06,-42857.955,-52293.69,-14307.975,2168.37
1764434737.3443282,19885.095,6256.844999999999,49852.53,-15084.945,-42859.395,-52296.885,-14291.775,2171.205
1764434737.3443282,19880.595,6259.635,49858.335,-15082.605,-42860.16,-52299.0,-14274.99,2176.74
1764434737.3443282,19875.96,6256.349999999999,49854.825,-15087.465,-42865.38,-52304.085,-14273.64,2174.445
1764434737.3443282,19879.74,6256.395,49852.71,-15088.32,-42865.02,-52302.735,-14278.32,2174.895
1764434737.3443282,19881.27,6250.995,49845.06,-15093.27,-42868.08,-52304.85,-14292.99,2169.18
1764434737.3443282,19886.355,6248.429999999999,49838.895,-15096.42,-42868.125,-52302.06,-14310.315,2164.68
1764434737.3443282,19895.85,6250.185,49838.4,-15094.125,-42862.995,-52295.67,-14322.555,2164.635
1764434737.3443282,19898.37,6251.219999999999,49840.425,-15091.38,-42860.565,-52292.79,-14326.38,2164.545
1764434737.3894064,19895.715,6252.344999999999,49843.8,-15089.715,-42860.295,-52292.565,-14320.17,2164.86
1764434737.3894064,19888.425,6251.4,49845.06,-15089.805,-42862.77,-52296.93,-14310.405,2164.995
1764434737.3894064,19885.32,6257.07,49854.42,-15083.73,-42860.16,-52296.345,-14290.11,2172.105
1764434737.3894064,19876.095,6255.27,49855.23,-15086.34,-42864.66,-52303.005,-14278.905,2172.33
1764434737.3894064,19874.52,6254.91,49854.285,-15088.185,-42866.37,-52305.885,-14274.72,2173.86
1764434737.3894064,19880.19,6256.53,49852.845,-15087.195,-42864.21,-52302.555,-14277.645,2175.57
1764434737.3894064,19884.105,6253.155,49847.085,-15090.615,-42865.29,-52301.745,-14290.965,2172.285
1764434737.3894064,19889.055,6249.87,49840.965,-15093.765,-42865.785,-52299.585,-14309.1,2167.695
1764434737.3894064,19891.53,6245.505,49834.935,-15097.77,-42866.64,-52299.18,-14327.46,2160.72
1764434737.3894064,19894.77,6247.71,49837.455,-15093.99,-42862.59,-52294.77,-14330.07,2160.585
1764434737.3894064,19898.91,6255.09,49847.535,-15085.215,-42855.84,-52288.47,-14317.605,2167.605
1764434737.3894064,19892.925,6255.719999999999,49850.685,-15084.855,-42857.775,-52291.98,-14306.4,2168.64
1764434737.3894064,19889.055,6259.32,49858.245,-15080.13,-42856.83,-52292.745,-14287.905,2173.86
1764434737.3894064,19886.67,6263.19,49864.635,-15076.71,-42855.165,-52292.88,-14270.13,2180.16
1764434737.3894064,19883.52,6262.29,49863.33,-15079.005,-42857.505,-52296.345,-14266.215,2181.465
1764434737.3894064,19883.88,6259.005,49857.48,-15082.605,-42860.565,-52299.045,-14274.54,2178.72
1764434737.3894064,19885.68,6252.795,49848.57,-15088.77,-42864.345,-52301.07,-14290.605,2172.24
1764434737.3894064,19894.95,6253.02,49846.5,-15088.455,-42861.105,-52294.905,-14304.105,2171.61
1764434737.3894064,19901.745,6253.155,49844.475,-15088.14,-42858.675,-52290.495,-14317.785,2168.91
1764434737.3904076,19903.86,6254.235,49846.185,-15085.665,-42855.975,-52287.345,-14320.62,2168.505
1764434737.3904076,19901.745,6256.17,49850.91,-15082.605,-42854.805,-52286.85,-14313.645,2170.305
1764434737.3904076,19892.655,6253.74,49851.63,-15084.765,-42858.945,-52292.655,-14306.175,2169.0
1764434737.437074,19886.985,6257.52,49857.795,-15081.165,-42858.54,-52294.68,-14287.815,2173.995
1764434737.437074,19885.365,6262.83,49864.635,-15077.16,-42856.47,-52294.41,-14269.095,2180.88
1764434737.437074,19882.575,6260.58,49862.07,-15079.725,-42859.53,-52298.145,-14266.62,2180.88
1764434737.437074,19888.38,6262.2,49861.665,-15079.32,-42857.37,-52294.68,-14269.995,2182.68
1764434737.437074,19893.33,6259.995,49857.48,-15081.435,-42857.235,-52293.42,-14282.46,2179.755
1764434737.437074,19898.91,6257.07,49851.675,-15083.82,-42855.885,-52290.99,-14300.01,2175.615
1764434737.437074,19902.42,6253.92,49845.555,-15087.15,-42857.055,-52289.955,-14317.29,2169.72
1764434737.437074,19905.93,6256.575,49848.57,-15082.92,-42852.555,-52285.095,-14318.73,2171.16
1764434737.437074,19907.73,6262.335,49857.66,-15075.765,-42846.66,-52280.505,-14307.21,2176.65
1764434737.437074,19904.4,6265.125,49863.645,-15072.03,-42845.895,-52280.82,-14293.935,2179.845
1764434737.437074,19897.155,6267.42,49868.28,-15070.68,-42847.065,-52284.645,-14277.87,2183.22
1764434737.438085,19887.75,6265.98,49868.145,-15073.2,-42851.7,-52290.945,-14266.44,2183.49
1764434737.438085,19887.255,6266.655,49868.37,-15072.84,-42851.88,-52291.17,-14262.075,2185.92
1764434737.438085,19890.405,6264.405,49864.59,-15075.315,-42852.555,-52290.945,-14269.59,2184.705
1764434737.438085,19894.005,6261.21,49858.965,-15079.455,-42854.22,-52290.765,-14283.045,2180.16
1764434737.438085,19898.91,6257.385,49851.63,-15083.46,-42854.94,-52289.64,-14301.135,2175.03
1764434737.438085,19908.315,6259.635,49851.72,-15079.77,-42849.54,-52281.81,-14311.53,2175.75
1764434737.438085,19911.51,6262.83,49855.005,-15075.405,-42844.995,-52276.995,-14312.745,2177.1
1764434737.438085,19909.935,6265.755,49860.99,-15071.985,-42843.465,-52275.69,-14304.6,2179.08
1764434737.438085,19904.895,6267.915,49865.355,-15069.915,-42843.645,-52277.22,-14292.63,2181.465
1764434737.438085,19899.36,6271.02,49871.655,-15066.72,-42842.79,-52278.705,-14274.495,2186.82
1764434737.438085,19892.79,6269.895,49873.05,-15068.745,-42846.57,-52285.275,-14262.03,2188.62
1764434737.438085,19895.22,6273.179999999999,49875.75,-15066.72,-42843.51,-52283.565,-14255.055,2193.66
1764434737.438085,19897.785,6272.099999999999,49872.06,-15069.15,-42844.32,-52283.025,-14261.22,2192.445
1764434737.4812253,19900.89,6267.645,49865.76,-15072.93,-42846.57,-52282.845,-14274.63,2188.035
1764434737.4812253,19904.355,6262.245,49856.58,-15078.105,-42848.955,-52282.71,-14294.52,2181.195
1764434737.4812253,19912.14,6263.235,49855.59,-15077.385,-42844.77,-52276.995,-14307.435,2179.62
1764434737.4812253,19916.595,6266.835,49859.91,-15072.84,-42839.73,-52271.91,-14308.11,2182.05
1764434737.4812253,19918.62,6273.405,49868.82,-15065.505,-42834.375,-52266.915,-14295.78,2188.53
1764434737.4812253,19912.545,6274.844999999999,49873.095,-15062.94,-42834.555,-52268.805,-14283.63,2190.6
1764434737.4812253,19905.795,6275.88,49877.91,-15061.32,-42836.355,-52273.035,-14268.33,2193.39
1764434737.4812253,19900.395,6276.554999999999,49880.79,-15060.78,-42838.425,-52277.445,-14253.84,2197.305
1764434737.4812253,19897.695,6274.71,49877.91,-15063.885,-42841.08,-52280.73,-14252.355,2196.765
1764434737.4812253,19895.67,6267.87,49868.685,-15071.31,-42847.29,-52285.095,-14264.64,2190.465
1764434737.4812253,19901.07,6265.98,49863.825,-15073.83,-42847.29,-52283.925,-14277.105,2187.99
1764434737.4812253,19908.9,6265.26,49859.685,-15074.64,-42845.175,-52280.055,-14292.405,2185.56
1764434737.4812253,19918.98,6269.13,49861.755,-15070.5,-42838.74,-52271.37,-14300.955,2186.64
1764434737.4812253,19922.04,6272.505,49864.59,-15066.99,-42834.735,-52267.32,-14301.495,2188.035
1764434737.4812253,19918.935,6273.63,49868.325,-15064.56,-42833.835,-52267.32,-14295.42,2188.755
1764434737.4812253,19909.08,6270.795,49868.055,-15067.53,-42838.155,-52273.62,-14288.355,2186.73
1764434737.4812253,19903.5,6273.99,49875.165,-15063.885,-42837.705,-52275.645,-14269.995,2191.86
1764434737.4812253,19902.33,6278.895,49882.32,-15059.07,-42836.22,-52274.925,-14252.265,2198.97
1764434737.4812253,19901.385,6278.085,49881.24,-15060.69,-42837.84,-52276.995,-14249.385,2200.185
1764434737.4812253,19902.78,6275.385,49875.21,-15064.875,-42840.0,-52277.895,-14257.98,2197.755
1764434737.4812253,19902.645,6268.275,49865.805,-15071.625,-42843.915,-52281.225,-14275.08,2190.555
1764434737.4812253,19909.395,6265.98,49861.485,-15073.605,-42842.655,-52277.22,-14291.1,2187.27
1764434737.4812253,19918.665,6269.445,49862.61,-15070.095,-42837.48,-52269.345,-14300.955,2187.99
1764434737.4812253,19924.92,6275.115,49869.0,-15063.03,-42830.37,-52262.37,-14298.48,2192.49
1764434737.528385,19923.03,6278.31,49874.805,-15059.025,-42827.715,-52260.93,-14290.515,2194.605
1764434737.528385,19917.135,6280.425,49879.035,-15056.73,-42827.985,-52262.91,-14278.815,2197.395
1764434737.5288954,19908.81,6279.57,49881.78,-15057.225,-42831.63,-52268.265,-14263.74,2199.42
1764434737.5288954,19904.67,6281.775,49885.83,-15055.38,-42831.675,-52270.56,-14248.755,2203.83
1764434737.5288954,19907.865,6284.565,49888.215,-15052.905,-42829.29,-52269.21,-14242.815,2208.42
1764434737.5288954,19910.565,6282.719999999999,49883.535,-15055.875,-42830.73,-52269.525,-14250.645,2206.395
1764434737.5288954,19914.075,6278.895,49877.37,-15060.105,-42832.215,-52269.435,-14264.505,2202.435
1764434737.5288954,19916.145,6272.325,49867.56,-15066.135,-42835.23,-52270.605,-14285.34,2194.11
1764434737.5288954,19921.455,6270.929999999999,49864.905,-15066.315,-42833.88,-52266.87,-14298.795,2190.645
1764434737.5288954,19927.395,6276.014999999999,49871.79,-15060.015,-42827.085,-52259.715,-14296.455,2195.1
1764434737.5288954,19926.135,6279.615,49877.505,-15055.74,-42824.34,-52258.32,-14287.095,2198.745
1764434737.5288954,19919.61,6280.425,49881.015,-15054.885,-42825.69,-52260.975,-14275.62,2200.185
1764434737.5288954,19911.105,6280.875,49884.345,-15054.615,-42828.48,-52265.97,-14260.05,2201.805
1764434737.5288954,19906.56,6282.179999999999,49887.855,-15053.265,-42830.37,-52268.94,-14245.92,2205.225
1764434737.5288954,19905.66,6280.875,49885.92,-15054.795,-42832.44,-52270.92,-14244.255,2205.27
1764434737.5288954,19908.99,6278.985,49881.555,-15057.315,-42832.665,-52270.65,-14251.275,2204.055
1764434737.5288954,19915.335,6279.075,49878.18,-15058.44,-42831.54,-52267.455,-14262.3,2203.335
1764434737.5288954,19917.675,6272.82,49869.315,-15063.75,-42833.97,-52268.355,-14283.315,2195.685
1764434737.5288954,19923.03,6272.145,49866.975,-15064.425,-42832.485,-52264.89,-14297.58,2191.77
1764434737.5288954,19927.755,6276.014999999999,49872.06,-15059.655,-42827.31,-52259.895,-14296.32,2194.155
1764434737.5288954,19929.735,6282.36,49881.105,-15052.14,-42821.055,-52255.755,-14282.595,2200.545
1764434737.5288954,19921.995,6280.56,49882.095,-15052.455,-42824.07,-52260.975,-14272.92,2199.96
1764434737.5725832,19916.91,6283.44,49887.81,-15049.755,-42824.34,-52263.36,-14256.045,2204.415
1764434737.5725832,19913.445,6286.635,49892.355,-15046.92,-42824.205,-52264.71,-14241.15,2209.32
1764434737.5725832,19908.585,6281.054999999999,49886.955,-15052.77,-42830.145,-52270.245,-14243.265,2206.08
1764434737.5725832,19913.085,6281.639999999999,49884.48,-15053.13,-42828.93,-52267.995,-14248.71,2207.16
1764434737.5725832,19916.37,6279.21,49878.81,-15056.955,-42830.73,-52267.41,-14262.12,2203.47
1764434737.5741696,19921.095,6275.16,49870.8,-15060.6,-42832.44,-52266.735,-14281.83,2197.44
1764434737.5751848,19925.505,6272.775,49867.605,-15061.455,-42831.495,-52263.765,-14296.23,2193.57
1764434737.5751848,19927.215,6274.889999999999,49870.71,-15058.35,-42828.075,-52260.345,-14295.51,2194.785
1764434737.5751848,19925.01,6278.085,49875.66,-15054.795,-42825.87,-52258.86,-14286.33,2197.305
1764434737.5751848,19917.0,6276.554999999999,49877.235,-15055.38,-42828.84,-52263.54,-14277.195,2197.26
1764434737.5751848,19911.825,6280.065,49883.895,-15051.915,-42828.75,-52266.375,-14258.79,2202.165
1764434737.5751848,19909.395,6283.215,49889.385,-15048.99,-42827.625,-52267.815,-14243.085,2207.475
1764434737.5751848,19904.355,6278.085,49883.805,-15054.615,-42833.79,-52273.395,-14245.155,2203.65
1764434737.5751848,19907.1,6276.33,49878.81,-15057.405,-42834.645,-52273.71,-14252.22,2202.03
1764434737.5751848,19914.075,6276.645,49876.335,-15056.775,-42831.675,-52269.255,-14262.615,2201.895
1764434737.5751848,19920.555,6274.53,49870.485,-15059.25,-42831.405,-52266.195,-14280.255,2197.485
1764434737.5751848,19922.58,6270.795,49864.005,-15062.895,-42832.8,-52266.195,-14296.995,2191.455
1764434737.5751848,19925.82,6273.764999999999,49868.01,-15058.98,-42828.525,-52261.605,-14295.69,2193.84
1764434737.5751848,19927.53,6279.929999999999,49877.685,-15051.33,-42822.99,-52257.105,-14283.18,2199.735
1764434737.5751848,19922.58,6281.91,49883.085,-15048.18,-42823.395,-52258.77,-14270.985,2202.48
1764434737.5751848,19914.48,6282.585,49887.18,-15047.865,-42825.15,-52262.955,-14254.92,2205.585
1764434737.5751848,19911.87,6285.375,49891.905,-15045.39,-42824.97,-52264.17,-14239.395,2211.12
1764434737.5751848,19908.585,6281.955,49887.135,-15050.565,-42829.695,-52269.255,-14241.285,2207.745
1764434737.5761805,19912.095,6281.37,49883.535,-15053.04,-42829.605,-52268.58,-14249.655,2207.07
1764434737.622557,19913.31,6276.06,49875.795,-15058.53,-42832.755,-52269.3,-14264.955,2201.355
1764434737.622557,19922.13,6275.745,49872.735,-15058.395,-42829.605,-52264.395,-14280.03,2199.87
1764434737.622557,19925.37,6272.235,49867.56,-15061.005,-42829.965,-52263.0,-14296.185,2194.2
1764434737.622557,19931.535,6278.715,49875.12,-15053.985,-42822.765,-52255.89,-14292.315,2198.655
1764434737.622557,19929.6,6281.73,49881.195,-15050.07,-42820.785,-52255.26,-14282.415,2201.58
1764434737.622557,19922.535,6281.91,49883.67,-15049.62,-42823.215,-52258.815,-14271.03,2202.75
1764434737.622557,19919.7,6288.344999999999,49892.58,-15042.78,-42819.975,-52258.32,-14250.105,2210.535
1764434737.622557,19914.66,6289.56,49895.37,-15043.005,-42821.865,-52260.93,-14237.28,2213.325
1764434737.622557,19911.015,6284.61,49889.925,-15048.495,-42827.4,-52266.24,-14239.755,2210.445
1764434737.622557,19914.435,6282.764999999999,49884.93,-15051.105,-42828.255,-52266.33,-14248.665,2208.645
1764434737.622557,19918.62,6278.895,49879.395,-15053.715,-42829.02,-52265.115,-14262.12,2205.27
1764434737.622557,19926.765,6277.41,49875.48,-15055.425,-42827.625,-52261.515,-14278.365,2202.03
1764434737.622557,19935.18,6279.66,49876.335,-15051.69,-42823.035,-52254.63,-14287.59,2202.255
1764434737.622557,19937.745,6283.08,49880.115,-15047.145,-42818.355,-52249.77,-14287.14,2203.785
1764434737.6235747,19934.955,6286.185,49884.66,-15043.995,-42816.15,-52249.365,-14278.005,2205.9
1764434737.6235747,19927.53,6285.96,49887.855,-15043.635,-42818.49,-52253.37,-14267.43,2206.665
1764434737.6235747,19924.56,6290.73,49895.91,-15038.595,-42816.105,-52253.955,-14247.765,2213.37
1764434737.6235747,19917.675,6289.155,49896.585,-15040.215,-42819.75,-52259.49,-14236.965,2214.675
1764434737.6235747,19918.53,6289.56,49896.09,-15040.71,-42819.66,-52259.13,-14233.77,2216.385
1764434737.6235747,19917.36,6283.71,49887.72,-15046.92,-42824.565,-52262.505,-14245.74,2210.85
1764434737.6235747,19922.715,6281.955,49883.67,-15048.63,-42824.115,-52260.21,-14259.15,2208.105
1764434737.6235747,19930.86,6281.505,49879.98,-15048.135,-42821.01,-52255.35,-14274.54,2206.26
1764434737.6245923,19935.315,6279.974999999999,49876.92,-15048.855,-42819.93,-52253.37,-14287.86,2202.57
1764434737.6245923,19940.94,6287.264999999999,49884.345,-15041.52,-42812.775,-52245.945,-14282.145,2207.88
1764434737.66904,19939.68,6290.685,49891.005,-15036.48,-42809.76,-52244.415,-14271.975,2211.48
1764434737.6702368,19934.235,6292.935,49896.27,-15035.265,-42810.345,-52246.44,-14259.06,2214.27
1764434737.6702368,19928.385,6295.005,49901.58,-15033.33,-42811.02,-52249.725,-14241.375,2218.86
1764434737.6702368,19922.985,6295.32,49903.2,-15033.33,-42813.09,-52253.505,-14229.495,2221.245
1764434737.6702368,19920.285,6291.855,49898.745,-15036.795,-42816.915,-52257.195,-14230.26,2219.22
1764434737.6702368,19920.51,6287.4,49891.86,-15041.52,-42820.155,-52259.22,-14241.96,2214.945
1764434737.6702368,19926.72,6285.825,49887.765,-15043.23,-42818.67,-52256.25,-14254.245,2213.46
1764434737.6702368,19930.86,6280.695,49879.89,-15048.045,-42819.84,-52255.665,-14273.865,2207.16
1764434737.671227,19939.545,6284.205,49882.185,-15044.58,-42813.99,-52248.06,-14282.37,2208.285
1764434737.671227,19942.92,6288.57,49887.27,-15039.675,-42809.31,-52243.155,-14279.265,2211.57
1764434737.671227,19940.265,6291.764999999999,49892.535,-15035.625,-42807.015,-52242.12,-14269.14,2214.135
1764434737.671227,19933.965,6292.485,49896.54,-15034.68,-42808.86,-52244.955,-14257.44,2215.17
1764434737.671227,19925.595,6293.385,49901.13,-15034.23,-42811.74,-52250.04,-14241.78,2217.78
1764434737.671227,19924.245,6297.3,49906.035,-15031.26,-42811.065,-52249.545,-14226.48,2224.08
1764434737.6722286,19925.1,6296.175,49904.055,-15033.015,-42812.505,-52250.67,-14225.715,2224.17
1764434737.6722286,19929.105,6294.195,49899.645,-15035.805,-42812.145,-52250.355,-14234.49,2222.91
1764434737.6722286,19934.415,6291.495,49893.435,-15039.27,-42812.82,-52249.14,-14248.485,2219.31
1764434737.6722286,19940.535,6288.48,49887.63,-15042.015,-42812.37,-52246.755,-14266.575,2214.81
1764434737.6722286,19945.08,6287.76,49886.28,-15040.89,-42810.165,-52242.39,-14277.285,2212.695
1764434737.6722286,19947.105,6290.594999999999,49890.555,-15036.615,-42806.52,-52238.43,-14275.17,2214.135
1764434737.6722286,19944.675,6293.565,49895.685,-15032.88,-42805.08,-52238.07,-14265.72,2216.52
1764434737.6722286,19936.485,6292.844999999999,49898.16,-15033.33,-42807.87,-52243.02,-14255.37,2216.07
1764434737.716555,19932.075,6297.974999999999,49905.855,-15028.515,-42806.745,-52243.83,-14235.615,2222.46
1764434737.716555,19927.89,6299.46,49908.195,-15028.065,-42807.69,-52246.755,-14222.835,2226.015
1764434737.716555,19928.205,6297.795,49906.26,-15030.45,-42809.67,-52248.06,-14221.98,2226.33
1764434737.716555,19928.025,6292.304999999999,49898.385,-15036.165,-42813.495,-52250.355,-14233.68,2221.245
1764434737.716555,19935.0,6292.395,49896.27,-15036.66,-42810.93,-52246.53,-14245.74,2220.12
1764434737.716555,19940.535,6288.66,49888.8,-15040.125,-42810.885,-52245.0,-14264.64,2214.54
1764434737.716555,19950.12,6293.16,49891.77,-15034.86,-42804.135,-52236.36,-14270.715,2216.61
1764434737.716555,19952.235,6295.95,49896.27,-15030.72,-42801.21,-52233.165,-14268.645,2218.41
1764434737.716555,19951.155,6300.855,49903.065,-15025.68,-42799.005,-52231.68,-14256.945,2222.46
1764434737.716555,19945.08,6301.935,49907.43,-15024.015,-42799.905,-52234.2,-14244.255,2224.305
1764434737.716555,19937.925,6302.835,49911.885,-15023.025,-42801.48,-52238.565,-14227.47,2227.5
1764434737.716555,19929.96,6301.08,49911.795,-15025.05,-42805.395,-52244.955,-14218.065,2228.22
1764434737.716555,19932.705,6302.835,49912.83,-15024.555,-42803.37,-52242.84,-14215.86,2231.955
1764434737.716555,19936.755,6301.035,49908.105,-15027.57,-42804.045,-52242.345,-14225.4,2230.695
1764434737.716555,19938.015,6294.87,49899.195,-15033.51,-42807.24,-52244.145,-14242.14,2224.08
1764434737.716555,19945.08,6293.16,49894.38,-15035.13,-42805.62,-52240.905,-14259.24,2221.2
1764434737.716555,19954.935,6297.255,49897.17,-15030.54,-42799.095,-52233.48,-14265.855,2222.505
1764434737.716555,19957.41,6300.36,49901.4,-15026.49,-42795.18,-52229.25,-14263.605,2224.35
1764434737.716555,19954.35,6302.745,49906.62,-15022.485,-42793.38,-52229.79,-14253.84,2226.555
1764434737.716555,19948.77,6304.23,49911.3,-15020.145,-42794.01,-52232.31,-14240.385,2228.805
1764434737.716555,19941.57,6305.13,49915.35,-15019.155,-42796.305,-52236.945,-14224.185,2231.595
1764434737.716555,19937.07,6305.985,49916.97,-15018.84,-42796.845,-52239.87,-14212.89,2234.7
1764434737.716555,19937.52,6305.445,49914.585,-15021.495,-42798.42,-52240.635,-14213.07,2235.285
1764434737.716555,19944.405,6305.94,49912.29,-15021.27,-42796.17,-52237.125,-14219.73,2236.23
1764434737.7602854,19948.23,6302.07,49906.26,-15025.005,-42797.16,-52237.395,-14234.715,2231.64
1764434737.7602854,19958.13,6303.285,49904.145,-15023.79,-42793.38,-52230.915,-14248.755,2231.145
1764434737.7602854,19962.855,6302.655,49902.66,-15023.565,-42791.13,-52226.64,-14259.78,2228.805
1764434737.7602854,19959.975,6301.304999999999,49902.885,-15023.295,-42790.95,-52226.73,-14261.355,2226.06
1764434737.7602854,19961.505,6308.235,49912.11,-15015.96,-42785.37,-52222.365,-14247.63,2232.63
1764434737.7608285,19956.15,6310.62,49916.88,-15014.07,-42785.775,-52224.66,-14233.995,2235.69
1764434737.7608285,19950.165,6314.13,49923.18,-15010.65,-42786.135,-52226.415,-14214.42,2241.0
1764434737.7608285,19946.025,6314.804999999999,49925.655,-15010.605,-42787.845,-52229.34,-14203.395,2243.79
1764434737.7608285,19945.8,6312.915,49922.055,-15013.17,-42790.005,-52231.23,-14204.79,2243.385
1764434737.7608285,19948.365,6310.935,49916.25,-15017.13,-42791.445,-52232.22,-14215.365,2240.415
1764434737.7608285,19950.3,6305.355,49908.555,-15022.935,-42794.82,-52234.065,-14232.285,2234.16
1764434737.7608285,19957.41,6303.33,49903.92,-15024.105,-42793.245,-52229.745,-14248.755,2231.145
1764434737.7608285,19964.97,6305.804999999999,49905.45,-15019.875,-42788.655,-52222.545,-14256.315,2231.28
1764434737.7608285,19964.52,6306.885,49906.62,-15018.615,-42787.305,-52222.095,-14256.765,2230.2
1764434737.7608285,19966.635,6314.31,49916.925,-15010.65,-42781.005,-52217.19,-14242.095,2237.535
1764434737.7608285,19961.73,6316.38,49922.73,-15007.635,-42780.87,-52218.045,-14227.515,2241.495
1764434737.7608285,19953.27,6317.054999999999,49926.195,-15007.815,-42783.705,-52223.22,-14211.54,2243.43
1764434737.7608285,19949.67,6318.0,49927.86,-15007.095,-42785.415,-52226.865,-14200.065,2246.67
1764434737.7608285,19954.035,6320.429999999999,49929.66,-15005.205,-42783.615,-52224.57,-14197.005,2250.72
1764434737.7608285,19957.005,6318.585,49925.34,-15008.22,-42784.155,-52224.12,-14206.185,2248.695
1764434737.7608285,19960.785,6315.075,49918.86,-15011.865,-42786.09,-52223.85,-14221.305,2243.88
1764434737.7608285,19964.475,6309.36,49910.58,-15016.68,-42787.08,-52223.04,-14241.33,2236.995
1764434737.807606,19971.72,6312.375,49912.11,-15013.755,-42781.77,-52216.785,-14248.485,2238.12
1764434737.807606,19972.08,6313.23,49915.98,-15010.92,-42780.24,-52214.625,-14246.73,2238.57
1764434737.807606,19974.06,6320.925,49925.25,-15002.73,-42774.66,-52210.08,-14232.195,2245.635
1764434737.807606,19967.85,6322.455,49929.21,-15001.155,-42776.055,-52212.87,-14219.415,2247.795
1764434737.807606,19957.95,6320.745,49931.685,-15002.145,-42780.195,-52219.305,-14204.88,2249.28
1764434737.807606,19953.99,6321.465,49933.305,-15001.965,-42781.545,-52221.96,-14194.665,2252.16
1764434737.807606,19957.77,6323.49,49933.98,-15000.615,-42779.295,-52219.62,-14192.055,2255.31
1764434737.807606,19961.73,6321.645,49929.66,-15003.72,-42779.745,-52219.08,-14201.01,2254.23
1764434737.807606,19965.735,6318.405,49923.495,-15007.275,-42780.735,-52218.315,-14216.625,2249.505
1764434737.807606,19971.99,6316.245,49917.555,-15009.57,-42780.465,-52215.705,-14234.76,2244.78
1764434737.807606,19976.67,6315.705,49916.205,-15009.21,-42779.205,-52212.69,-14244.525,2241.945
1764434737.807606,19981.62,6321.69,49924.44,-15001.515,-42772.455,-52205.355,-14237.415,2247.03
1764434737.807606,19980.45,6326.235,49931.505,-14996.565,-42769.26,-52203.015,-14224.725,2251.89
1764434737.807606,19974.825,6327.585,49935.96,-14994.09,-42769.665,-52205.265,-14211.63,2254.59
1764434737.807606,19968.66,6330.51,49942.305,-14992.065,-42770.115,-52208.01,-14194.215,2259.135
1764434737.807606,19963.755,6330.33,49942.935,-14993.145,-42772.14,-52211.835,-14184.765,2261.61
1764434737.807606,19962.495,6326.55,49938.12,-14996.88,-42776.37,-52215.705,-14188.275,2259.585
1764434737.80925,19968.255,6326.91,49936.005,-14997.015,-42774.345,-52212.87,-14195.43,2259.9
1764434737.80925,19971.27,6322.23,49928.715,-15002.415,-42776.64,-52213.095,-14211.54,2254.275
1764434737.80925,19978.92,6321.78,49925.16,-15003.09,-42773.94,-52208.28,-14227.425,2251.71
1764434737.80925,19982.43,6320.429999999999,49922.505,-15003.405,-42772.59,-52206.12,-14238.0,2248.785
1764434737.80925,19987.47,6327.09,49930.335,-14996.16,-42764.985,-52199.055,-14231.475,2253.915
1764434737.80925,19985.49,6331.545,49937.31,-14992.29,-42762.465,-52197.48,-14219.64,2257.92
1764434737.80925,19975.77,6329.925,49938.48,-14994.135,-42766.47,-52204.095,-14209.065,2256.795
1764434737.8570757,19971.945,6334.785,49946.94,-14989.14,-42764.58,-52204.86,-14188.77,2263.545
1764434737.8570757,19964.79,6331.724999999999,49945.095,-14992.785,-42770.43,-52211.115,-14181.795,2262.69
1764434737.8570757,19965.33,6330.51,49942.44,-14994.99,-42771.42,-52211.205,-14182.74,2263.005
1764434737.8570757,19970.91,6330.554999999999,49939.83,-14995.35,-42769.845,-52209.135,-14190.615,2263.185
1764434737.8570757,19973.385,6324.75,49930.83,-15000.75,-42773.265,-52210.935,-14208.39,2256.66
1764434737.8570757,19979.595,6322.32,49925.385,-15002.505,-42771.915,-52207.695,-14225.67,2252.295
1764434737.8570757,19987.065,6325.92,49927.455,-14998.23,-42766.065,-52200.99,-14231.7,2252.655
1764434737.8570757,19986.885,6327.54,49930.29,-14995.8,-42764.76,-52198.92,-14229.72,2252.7
1764434737.8570757,19988.235,6335.325,49940.145,-14988.195,-42759.27,-52193.79,-14214.78,2260.215
1764434737.8570757,19980.135,6335.235,49943.025,-14988.285,-42761.52,-52198.92,-14203.44,2261.16
1764434737.8570757,19971.945,6335.37,49945.77,-14989.14,-42764.67,-52204.68,-14188.14,2262.645
1764434737.8570757,19971.81,6338.969999999999,49950.585,-14986.17,-42763.545,-52203.51,-14174.82,2268.18
1764434737.8570757,19970.01,6335.865,49945.635,-14990.265,-42766.965,-52206.345,-14178.105,2266.47
1764434737.8570757,19976.49,6336.27,49943.295,-14990.535,-42765.165,-52202.97,-14184.63,2267.64
1764434737.8570757,19982.385,6333.75,49938.57,-14992.29,-42764.94,-52200.945,-14198.175,2264.535
1764434737.8570757,19988.73,6331.094999999999,49933.305,-14994.27,-42764.355,-52197.57,-14216.175,2260.26
1764434737.8570757,19992.375,6330.42,49931.91,-14994.405,-42762.33,-52194.555,-14226.84,2257.155
1764434737.8570757,19995.795,6335.685,49938.48,-14987.97,-42757.155,-52189.29,-14220.675,2261.745
1764434737.8580737,19990.665,6336.045,49941.945,-14986.665,-42758.415,-52190.685,-14212.35,2262.105
1764434737.8580737,19980.855,6334.514999999999,49943.07,-14988.06,-42762.555,-52197.12,-14202.27,2261.07
1764434737.8580737,19977.21,6339.825,49950.945,-14983.605,-42761.16,-52197.39,-14182.245,2268.495
1764434737.8580737,19977.12,6343.92,49955.805,-14980.905,-42759.135,-52196.67,-14168.745,2274.255
1764434737.8580737,19974.06,6338.34,49949.37,-14986.305,-42763.995,-52201.62,-14173.83,2270.655
1764434737.8580737,19976.085,6334.469999999999,49943.115,-14990.265,-42766.695,-52202.25,-14185.53,2267.01
1764434737.9012222,19982.205,6333.435,49937.85,-14992.56,-42765.48,-52200.225,-14199.165,2264.58
1764434737.9012222,19992.825,6335.37,49936.995,-14990.985,-42760.08,-52192.8,-14212.71,2264.67
1764434737.9012222,19997.685,6337.349999999999,49937.67,-14988.285,-42756.84,-52187.67,-14220.72,2263.995
1764434737.9012222,19998.945,6340.365,49942.17,-14984.325,-42753.645,-52185.42,-14217.3,2265.525
1764434737.9012222,19995.975,6342.929999999999,49947.66,-14980.5,-42752.07,-52185.78,-14206.185,2268.27
1764434737.9012222,19987.785,6343.11,49950.63,-14979.78,-42754.23,-52189.875,-14193.81,2269.8
1764434737.9012222,19985.67,6349.77,49960.35,-14972.715,-42750.945,-52188.93,-14171.58,2278.8
1764434737.9012222,19982.745,6350.264999999999,49961.79,-14972.895,-42752.205,-52191.09,-14161.545,2281.41
1764434737.9012222,19981.62,6346.935,49957.065,-14976.675,-42755.49,-52194.195,-14164.875,2279.835
1764434737.9012222,19984.68,6343.785,49951.98,-14980.32,-42756.795,-52194.465,-14175.9,2276.595
1764434737.9012222,19987.38,6339.15,49943.97,-14985.675,-42759.81,-52195.455,-14192.91,2270.295
1764434737.9012222,19993.905,6337.349999999999,49938.885,-14986.395,-42757.92,-52192.17,-14211.135,2266.335
1764434737.9012222,19998.855,6337.755,49938.66,-14984.775,-42754.905,-52187.895,-14219.955,2265.075
1764434737.9012222,19999.35,6340.094999999999,49942.62,-14981.49,-42752.34,-52184.52,-14216.22,2265.885
1764434737.9012222,19998.495,6345.224999999999,49951.305,-14974.965,-42748.065,-52181.37,-14201.955,2271.555
1764434737.9012222,19990.125,6344.37,49953.735,-14975.64,-42751.665,-52187.58,-14191.155,2272.455
1764434737.9012222,19982.43,6345.224999999999,49957.47,-14975.01,-42754.14,-52192.26,-14175.27,2275.785
1764434737.9012222,19980.36,6346.26,49959.135,-14975.145,-42754.77,-52194.915,-14165.28,2278.305
1764434737.9012222,19981.035,6343.965,49955.58,-14977.755,-42756.885,-52196.58,-14167.44,2277.225
1764434737.9022424,19983.15,6340.005,49949.955,-14981.49,-42759.495,-52196.49,-14179.14,2273.535
1764434737.9022424,19986.885,6336.855,49943.925,-14985.495,-42759.945,-52196.49,-14194.8,2268.945
1764434737.9022424,19994.085,6335.505,49938.255,-14986.62,-42758.865,-52192.53,-14211.765,2265.03
1764434737.951359,19999.395,6336.224999999999,49938.48,-14984.1,-42755.715,-52188.03,-14218.965,2264.805
1764434737.951359,20002.905,6342.03,49946.31,-14977.08,-42748.875,-52182.09,-14212.17,2269.845
1764434737.951359,19999.935,6345.09,49951.53,-14973.795,-42747.435,-52182.27,-14200.83,2272.905
1764434737.9523602,19991.34,6344.505,49954.23,-14974.695,-42751.08,-52187.535,-14188.995,2272.995
1764434737.9523602,19985.49,6346.215,49959.72,-14973.075,-42752.25,-52189.83,-14171.175,2277.54
1764434737.952872,19982.745,6347.745,49961.34,-14972.67,-42752.655,-52191.495,-14160.645,2280.78
1764434737.952872,19986.93,6349.95,49960.71,-14971.59,-42750.9,-52189.11,-14160.465,2283.12
1764434737.952872,19990.755,6347.7,49956.165,-14974.515,-42750.675,-52188.39,-14170.725,2281.275
1764434737.952872,19993.86,6343.2,49948.92,-14979.15,-42752.34,-52188.795,-14187.195,2275.695
1764434737.952872,19997.055,6338.205,49941.405,-14983.38,-42754.455,-52188.21,-14208.075,2268.315
1764434737.952872,20001.42,6338.88,49941.27,-14982.525,-42751.395,-52184.025,-14216.445,2266.965
1764434737.952872,20003.85,6343.514999999999,49946.85,-14977.035,-42746.94,-52179.93,-14211.27,2271.375
1764434737.952872,20005.02,6350.355,49956.03,-14969.295,-42741.45,-52175.7,-14196.42,2278.305
1764434737.952872,19995.93,6348.96,49958.235,-14969.655,-42745.005,-52181.82,-14184.63,2278.035
1764434737.952872,19989.18,6350.04,49962.15,-14968.575,-42746.94,-52186.095,-14167.755,2281.095
1764434737.952872,19985.625,6349.635,49962.87,-14969.97,-42748.875,-52188.84,-14159.43,2283.435
1764434737.952872,19986.345,6347.925,49959.585,-14972.355,-42750.9,-52190.82,-14162.265,2282.895
1764434737.952872,19991.025,6346.844999999999,49955.625,-14974.335,-42750.495,-52189.245,-14171.76,2281.41
1764434737.952872,19996.245,6344.28,49950.0,-14977.17,-42749.91,-52186.995,-14186.295,2278.395
1764434737.952872,20006.01,6345.36,49948.785,-14975.685,-42745.815,-52180.38,-14199.795,2277.135
1764434737.952872,20008.125,6344.505,49946.94,-14975.955,-42744.51,-52178.715,-14209.56,2273.67
1764434737.952872,20010.15,6348.96,49953.6,-14970.78,-42740.37,-52175.205,-14203.665,2277.585
1764434737.9538898,20011.365,6355.844999999999,49963.905,-14962.455,-42734.7,-52170.795,-14187.645,2284.92
1764434737.9538898,20004.435,6356.205,49967.82,-14961.195,-42736.59,-52174.395,-14174.055,2286.765
1764434737.9538898,19999.71,6360.21,49974.57,-14958.09,-42735.645,-52175.565,-14155.065,2292.93
1764434737.9538898,19994.085,6357.735,49971.78,-14962.275,-42739.965,-52181.82,-14149.35,2292.21
1764434737.9951096,19996.65,6357.105,49970.16,-14963.4,-42739.965,-52181.55,-14150.97,2293.2
1764434737.9951096,19999.755,6354.179999999999,49965.075,-14966.19,-42740.775,-52180.605,-14162.13,2290.095
1764434737.9951096,20001.33,6349.094999999999,49957.245,-14970.915,-42742.89,-52180.92,-14179.545,2283.525
1764434737.9951096,20005.155,6345.135,49949.865,-14975.73,-42744.24,-52180.47,-14199.48,2276.46
1764434737.9951096,20011.005,6346.485,49951.305,-14972.895,-42740.505,-52175.79,-14205.465,2276.145
1764434737.9951096,20015.01,6352.785,49959.315,-14965.74,-42734.295,-52169.58,-14197.545,2281.86
1764434737.9951096,20011.59,6355.755,49965.255,-14962.05,-42732.99,-52169.895,-14186.115,2284.515
1764434737.9951096,20003.49,6355.53,49968.135,-14960.97,-42736.455,-52173.945,-14174.01,2285.64
1764434737.9971073,19994.22,6354.63,49970.295,-14962.365,-42740.46,-52180.47,-14159.97,2286.945
1764434737.9971073,19992.195,6355.485,49972.14,-14962.455,-42740.91,-52182.54,-14151.24,2290.41
1764434737.9971073,19990.62,6350.94,49965.885,-14967.495,-42745.14,-52185.735,-14157.495,2287.17
1764434737.9971073,19997.46,6351.615,49963.77,-14967.315,-42742.845,-52181.595,-14165.145,2287.485
1764434737.9971073,20002.545,6348.96,49957.92,-14970.87,-42743.43,-52180.47,-14180.715,2283.48
1764434737.9971073,20007.945,6345.855,49951.71,-14973.255,-42743.295,-52178.58,-14198.805,2278.26
1764434737.9971073,20014.83,6349.185,49955.04,-14968.44,-42737.535,-52171.695,-14203.305,2279.745
1764434737.9971073,20015.37,6352.65,49960.35,-14963.895,-42733.8,-52168.635,-14196.735,2282.625
1764434737.9971073,20011.77,6354.945,49965.93,-14961.015,-42733.575,-52169.445,-14185.305,2285.235
1764434737.9971073,20002.905,6354.179999999999,49968.81,-14961.51,-42736.995,-52174.08,-14173.605,2286.045
1764434737.9971073,19996.515,6356.969999999999,49973.76,-14959.53,-42738.03,-52177.5,-14156.325,2290.815
1764434737.9971073,19994.805,6358.23,49975.335,-14959.215,-42738.84,-52179.75,-14147.505,2293.65
1764434737.9971073,19998.135,6358.545,49973.985,-14959.98,-42738.255,-52179.165,-14148.855,2295.09
1764434737.9971073,20006.145,6359.985,49972.455,-14958.63,-42734.52,-52174.26,-14156.505,2296.665
1764434738.0444777,20009.97,6355.485,49964.805,-14962.815,-42736.545,-52174.485,-14173.29,2291.04
1764434738.0454922,20012.535,6350.13,49957.47,-14967.405,-42739.515,-52174.53,-14193.405,2283.75
1764434738.0454922,20019.105,6354.495,49961.385,-14962.005,-42733.215,-52167.555,-14197.455,2286.135
1764434738.0454922,20020.86,6359.31,49967.37,-14956.515,-42728.175,-52163.775,-14190.93,2290.005
1764434738.0454922,20015.46,6359.94,49971.06,-14955.12,-42728.445,-52165.305,-14180.805,2290.905
1764434738.0454922,20006.775,6358.455,49973.22,-14956.29,-42731.82,-52170.21,-14168.475,2290.905
1764434738.0454922,20001.375,6361.02,49978.755,-14954.265,-42731.865,-52173.135,-14151.375,2295.36
1764434738.0454922,20000.565,6362.82,49981.59,-14953.14,-42732.09,-52174.62,-14141.88,2299.68
1764434738.0454922,20004.03,6363.9,49980.87,-14953.545,-42731.28,-52173.09,-14142.825,2301.12
1764434738.0454922,20008.89,6362.594999999999,49977.36,-14954.985,-42731.235,-52171.065,-14152.545,2299.86
1764434738.0454922,20015.19,6361.56,49973.355,-14956.47,-42730.245,-52167.555,-14166.045,2297.7
1764434738.0469992,20021.49,6358.995,49967.82,-14958.765,-42729.345,-52164.54,-14183.55,2293.38
1764434738.0469992,20024.145,6358.185,49967.145,-14958.315,-42727.455,-52162.02,-14191.56,2290.995
1764434738.0469992,20025.045,6361.514999999999,49972.455,-14953.815,-42723.63,-52159.095,-14185.89,2293.335
1764434738.0469992,20021.895,6364.98,49978.53,-14949.27,-42722.37,-52158.735,-14173.92,2296.26
1764434738.0469992,20013.21,6364.395,49981.005,-14949.495,-42725.97,-52163.685,-14161.635,2296.305
1764434738.0480103,20010.51,6369.344999999999,49988.61,-14945.04,-42723.945,-52164.0,-14141.655,2303.505
1764434738.0480103,20006.01,6366.33,49986.72,-14948.775,-42728.31,-52169.265,-14136.885,2303.685
1764434738.0480103,20006.775,6364.44,49983.165,-14951.52,-42730.155,-52170.255,-14140.755,2303.01
1764434738.0480103,20012.895,6363.81,49979.25,-14952.78,-42728.94,-52167.915,-14150.43,2301.66
1764434738.0480103,20022.66,6365.88,49978.44,-14951.43,-42723.99,-52162.155,-14160.915,2302.2
1764434738.0480103,20030.085,6365.79,49975.47,-14951.475,-42721.29,-52157.43,-14174.775,2299.995
1764434738.0480103,20034.54,6367.905,49977.135,-14949.45,-42718.14,-52153.02,-14180.94,2299.185
1764434738.0480103,20032.155,6368.985,49979.61,-14947.785,-42717.24,-52152.3,-14178.15,2299.005
1764434738.0879908,20031.165,6374.115,49987.26,-14941.215,-42713.28,-52149.78,-14162.94,2305.305
1764434738.0879908,20022.84,6374.07,49990.455,-14941.215,-42715.755,-52154.595,-14150.475,2305.98
1764434738.0879908,20018.295,6377.31,49995.945,-14937.84,-42715.845,-52156.305,-14131.485,2311.47
1764434738.0879908,20020.095,6381.09,49999.95,-14935.14,-42713.73,-52155.63,-14119.875,2317.095
1764434738.0879908,20020.635,6379.11,49996.395,-14938.245,-42715.35,-52157.34,-14124.51,2316.15
1764434738.0879908,20022.345,6374.835,49988.655,-14943.15,-42718.455,-52157.97,-14137.92,2311.695
1764434738.0879908,20030.985,6374.969999999999,49985.73,-14942.655,-42715.215,-52152.66,-14150.205,2310.57
1764434738.0879908,20035.71,6371.594999999999,49980.285,-14945.13,-42715.26,-52150.14,-14167.845,2305.98
1764434738.0879908,20042.28,6375.105,49984.56,-14940.72,-42709.095,-52143.165,-14171.04,2308.005
1764434738.090006,20044.44,6380.054999999999,49991.085,-14934.915,-42704.28,-52138.935,-14163.435,2312.01
1764434738.090006,20041.695,6383.88,49998.33,-14930.775,-42702.12,-52138.08,-14150.115,2316.96
1764434738.090006,20035.71,6385.23,50003.325,-14929.335,-42702.21,-52140.42,-14134.905,2320.02
1764434738.090006,20030.4,6387.929999999999,50008.86,-14926.275,-42702.615,-52142.58,-14117.04,2324.25
1764434738.090006,20028.735,6389.37,50010.255,-14926.23,-42703.74,-52144.425,-14108.94,2327.31
1764434738.090006,20030.49,6388.335,50007.015,-14928.93,-42704.595,-52144.74,-14112.36,2327.355
1764434738.090006,20034.945,6386.13,50002.245,-14932.035,-42705.585,-52144.065,-14124.06,2325.285
1764434738.0910144,20038.185,6380.775,49994.145,-14936.715,-42709.005,-52144.29,-14142.105,2318.715
1764434738.0910144,20043.945,6379.425,49990.095,-14938.155,-42706.89,-52141.095,-14159.07,2314.8
1764434738.0910144,20049.075,6382.08,49992.57,-14935.365,-42702.39,-52135.695,-14163.345,2316.105
1764434738.0910144,20053.755,6389.054999999999,50001.21,-14926.815,-42695.46,-52129.305,-14153.265,2322.45
1764434738.0910144,20052.585,6395.085,50009.535,-14920.695,-42691.545,-52127.01,-14138.37,2328.48
1764434738.0910144,20046.06,6396.929999999999,50014.665,-14918.13,-42692.625,-52129.44,-14123.43,2331.72
1764434738.135857,20039.22,6398.325,50018.535,-14916.69,-42694.245,-52133.04,-14107.365,2335.23
1764434738.135857,20035.71,6397.425,50018.085,-14918.76,-42697.305,-52136.865,-14101.02,2336.445
1764434738.135857,20036.295,6394.59,50013.135,-14922.675,-42700.005,-52139.295,-14107.365,2334.465
1764434738.135857,20037.69,6389.145,50004.855,-14928.705,-42703.425,-52141.05,-14121.72,2328.705
1764434738.135857,20045.565,6387.795,50000.895,-14929.605,-42701.445,-52136.64,-14135.355,2326.905
1764434738.135857,20052.225,6387.84,49997.34,-14929.38,-42698.79,-52131.915,-14151.015,2324.025
1764434738.135857,20056.455,6390.315,49998.78,-14926.59,-42695.64,-52126.875,-14156.415,2324.52
1764434738.135857,20058.975,6395.804999999999,50006.745,-14920.02,-42690.645,-52122.105,-14147.82,2329.56
1764434738.135857,20061.855,6405.21,50018.67,-14911.38,-42682.14,-52115.94,-14128.83,2338.875
1764434738.135857,20055.06,6406.785,50023.53,-14909.715,-42683.13,-52118.595,-14114.385,2341.395
1764434738.135857,20045.61,6405.12,50024.25,-14911.155,-42688.26,-52125.615,-14101.245,2341.665
1764434738.137391,20042.595,6403.995,50023.575,-14913.045,-42691.005,-52129.215,-14095.26,2343.06
1764434738.137391,20045.52,6403.679999999999,50021.1,-14915.25,-42691.545,-52129.395,-14098.725,2343.6
1764434738.137391,20051.775,6403.679999999999,50018.895,-14915.7,-42690.015,-52126.065,-14108.625,2343.51
1764434738.138406,20056.185,6400.215,50012.595,-14918.04,-42690.645,-52123.815,-14125.365,2338.785
1764434738.138406,20060.685,6396.21,50006.88,-14921.145,-42690.645,-52121.655,-14143.995,2332.62
1764434738.138406,20061.45,6393.78,50004.18,-14922.315,-42690.78,-52120.98,-14152.455,2328.705
1764434738.138406,20063.835,6399.45,50011.38,-14915.565,-42684.57,-52116.39,-14143.455,2333.655
1764434738.138406,20060.46,6402.06,50016.87,-14911.65,-42683.13,-52116.975,-14130.99,2336.985
1764434738.1394024,20051.145,6400.935,50018.355,-14912.325,-42687.99,-52122.69,-14119.245,2336.985
1764434738.1394024,20044.89,6402.825,50023.125,-14910.93,-42689.25,-52126.02,-14102.595,2340.81
1764434738.1394024,20043.495,6403.275,50024.115,-14911.56,-42689.88,-52127.28,-14095.305,2343.555
1764434738.1394024,20047.86,6404.219999999999,50023.17,-14911.47,-42688.08,-52125.165,-14097.33,2345.85
1764434738.1394024,20048.22,6398.505,50014.89,-14917.635,-42691.635,-52128.045,-14112.315,2340.09
1764434738.1840076,20056.59,6398.91,50012.235,-14917.32,-42688.71,-52122.915,-14125.005,2339.37
1764434738.1845417,20064.285,6398.73,50009.805,-14917.455,-42685.38,-52117.605,-14139.405,2337.255
1764434738.1845417,20066.58,6398.82,50009.985,-14916.33,-42684.03,-52114.68,-14145.345,2335.23
1764434738.1845417,20063.745,6399.45,50012.685,-14914.89,-42683.895,-52115.04,-14141.295,2334.555
1764434738.1845417,20064.24,6405.525,50022.675,-14907.375,-42678.765,-52111.44,-14124.915,2341.755
1764434738.1845417,20054.565,6403.679999999999,50023.71,-14908.59,-42682.545,-52117.965,-14113.575,2341.395
1764434738.1845417,20048.31,6405.03,50027.85,-14907.645,-42684.255,-52121.79,-14097.24,2344.905
1764434738.1845417,20047.545,6406.11,50028.39,-14908.005,-42685.29,-52123.185,-14090.445,2348.055
1764434738.1845417,20050.47,6404.895,50024.97,-14909.94,-42685.83,-52123.77,-14094.45,2347.92
1764434738.1845417,20054.25,6402.33,50021.01,-14911.785,-42685.155,-52122.015,-14105.925,2345.76
1764434738.1845417,20063.205,6402.96,50019.075,-14911.875,-42681.69,-52116.255,-14118.84,2344.23
1764434738.1845417,20069.64,6401.474999999999,50014.755,-14912.865,-42680.07,-52112.43,-14135.67,2340.225
1764434738.1845417,20072.16,6401.61,50015.61,-14910.93,-42678.09,-52109.37,-14140.845,2339.28
1764434738.1845417,20070.315,6402.825,50018.625,-14909.04,-42677.28,-52109.145,-14136.255,2340.18
1764434738.1845417,20070.855,6410.16,50028.39,-14901.84,-42672.105,-52105.68,-14119.245,2347.515
1764434738.1845417,20065.455,6413.13,50034.735,-14898.645,-42672.195,-52107.84,-14103.045,2351.565
1764434738.1845417,20058.885,6413.31,50037.57,-14898.69,-42675.525,-52112.43,-14088.105,2354.625
1764434738.1845417,20055.15,6411.735,50036.04,-14901.165,-42678.36,-52116.3,-14083.425,2354.715
1764434738.1845417,20056.32,6408.54,50031.36,-14903.82,-42680.025,-52117.605,-14089.185,2353.545
1764434738.1845417,20059.65,6405.525,50026.455,-14907.015,-42681.33,-52117.065,-14101.29,2350.35
1764434738.1845417,20065.635,6403.545,50021.46,-14908.995,-42680.88,-52113.825,-14116.995,2347.245
1764434738.1845417,20073.78,6404.085,50019.435,-14907.24,-42676.38,-52108.38,-14130.765,2346.03
1764434738.1845417,20075.625,6403.86,50019.12,-14906.835,-42674.94,-52106.715,-14137.245,2344.32
1764434738.1855564,20078.865,6410.969999999999,50027.67,-14899.185,-42668.37,-52101.315,-14127.12,2350.08
1764434738.2282755,20077.2,6415.785,50034.96,-14894.73,-42665.895,-52100.055,-14112.405,2355.255
1764434738.2282755,20069.865,6416.82,50039.28,-14893.47,-42667.38,-52103.43,-14097.285,2357.865
1764434738.2282755,20062.17,6416.46,50041.305,-14894.055,-42670.575,-52109.595,-14083.11,2360.07
1764434738.2282755,20060.91,6416.46,50041.71,-14895.54,-42672.015,-52111.215,-14077.44,2362.05
1764434738.2282755,20065.41,6417.0,50040.585,-14894.64,-42670.08,-52108.47,-14079.915,2363.67
1764434738.2282755,20069.46,6414.435,50035.995,-14896.755,-42670.665,-52107.21,-14091.255,2361.15
1764434738.2282755,20076.345,6412.59,50030.82,-14898.51,-42669.72,-52104.555,-14106.51,2357.55
1764434738.2282755,20082.24,6410.79,50026.005,-14899.86,-42667.92,-52100.73,-14122.665,2352.915
1764434738.2282755,20084.67,6411.69,50027.085,-14897.7,-42665.265,-52098.165,-14128.2,2352.015
1764434738.2282755,20081.43,6412.86,50029.785,-14896.44,-42665.265,-52098.39,-14124.465,2351.97
1764434738.2282755,20082.42,6420.645,50039.685,-14889.375,-42660.54,-52094.745,-14107.23,2359.26
1764434738.2282755,20076.12,6423.255,50045.76,-14886.72,-42661.35,-52097.085,-14090.49,2363.4
1764434738.2282755,20070.945,6425.145,50050.485,-14884.965,-42662.07,-52099.38,-14073.84,2368.395
1764434738.2282755,20067.93,6423.705,50048.775,-14886.54,-42664.32,-52102.755,-14069.79,2368.98
1764434738.2282755,20066.175,6417.675,50040.945,-14893.155,-42669.405,-52107.345,-14079.33,2363.535
1764434738.2282755,20071.935,6416.55,50037.705,-14894.325,-42668.955,-52104.96,-14090.085,2362.77
1764434738.2282755,20075.355,6412.32,50030.145,-14898.915,-42671.115,-52104.015,-14108.4,2356.965
1764434738.2282755,20085.03,6413.985,50029.245,-14897.205,-42666.615,-52097.49,-14121.18,2356.515
1764434738.229687,20085.705,6412.95,50028.795,-14896.935,-42666.165,-52096.365,-14127.39,2353.635
1764434738.229687,20084.445,6416.685,50034.285,-14892.255,-42662.88,-52093.53,-14119.74,2356.245
1764434738.229687,20085.075,6423.884999999999,50044.095,-14884.605,-42657.93,-52089.885,-14102.64,2364.255
1764434738.229687,20074.635,6422.04,50045.31,-14886.675,-42662.565,-52096.905,-14091.345,2363.895
1764434738.273754,20068.56,6423.435,50049.225,-14885.235,-42664.23,-52101.045,-14075.82,2367.27
1764434738.273754,20067.57,6423.75,50049.315,-14885.865,-42664.77,-52102.08,-14070.33,2370.33
1764434738.273754,20071.08,6424.11,50047.11,-14886.765,-42663.285,-52099.92,-14074.515,2371.005
1764434738.273754,20074.41,6420.96,50041.035,-14890.185,-42664.68,-52099.965,-14087.34,2366.82
1764434738.273754,20076.48,6414.344999999999,50031.72,-14896.62,-42668.055,-52101.045,-14107.23,2359.845
1764434738.273754,20085.66,6415.514999999999,50030.685,-14894.91,-42663.735,-52095.015,-14120.28,2359.215
1764434738.273754,20086.695,6414.84,50029.695,-14895.09,-42663.285,-52094.16,-14126.715,2356.92
1764434738.273754,20087.73,6420.014999999999,50036.535,-14888.88,-42659.055,-52090.47,-14117.445,2360.745
1764434738.3222942,20087.685,6426.27,50046.075,-14880.915,-42654.015,-52087.14,-14100.255,2368.305
1764434738.3222942,20078.955,6426.45,50049.405,-14880.33,-42656.22,-52091.28,-14085.495,2370.06
1764434738.3222942,20074.725,6429.78,50054.625,-14878.845,-42657.12,-52093.665,-14068.305,2374.47
1764434738.3222942,20076.66,6432.66,50057.01,-14876.865,-42655.23,-52093.215,-14061.42,2379.33
1764434738.3222942,20078.19,6429.825,50052.42,-14880.15,-42657.39,-52094.205,-14067.855,2377.26
1764434738.3222942,20081.7,6426.0,50046.12,-14884.245,-42658.875,-52095.06,-14081.13,2373.48
1764434738.3222942,20087.28,6422.31,50039.82,-14887.845,-42659.37,-52093.665,-14098.455,2368.935
1764434738.3222942,20092.41,6420.554999999999,50036.13,-14889.285,-42657.705,-52090.155,-14114.34,2364.75
1764434738.3222942,20093.67,6420.195,50036.76,-14888.07,-42656.445,-52088.265,-14119.92,2362.815
1764434738.3222942,20097.18,6427.125,50046.165,-14880.555,-42650.055,-52082.73,-14108.175,2369.25
1764434738.3233066,20094.21,6430.995,50053.095,-14875.83,-42647.67,-52082.145,-14093.775,2373.57
1764434738.3233066,20087.01,6432.57,50057.91,-14874.93,-42648.57,-52085.205,-14078.43,2375.37
1764434738.3233066,20080.35,6434.37,50060.835,-14873.715,-42650.595,-52088.94,-14062.905,2379.42
1764434738.3233066,20078.01,6432.615,50059.395,-14875.92,-42653.7,-52091.64,-14059.26,2380.275
1764434738.3233066,20079.36,6429.33,50054.22,-14879.88,-42655.725,-52093.305,-14067.09,2377.35
1764434738.3233066,20081.52,6425.46,50047.695,-14884.155,-42657.255,-52093.98,-14080.275,2372.94
1764434738.3233066,20089.17,6425.099999999999,50044.545,-14884.92,-42655.005,-52089.435,-14095.395,2370.87
1764434738.3233066,20095.425,6424.02,50040.405,-14885.325,-42653.43,-52085.115,-14110.695,2366.55
1764434738.3233066,20097.405,6424.38,50041.485,-14883.795,-42650.82,-52082.64,-14113.935,2365.29
1764434738.323819,20096.055,6428.474999999999,50046.57,-14879.61,-42648.255,-52080.255,-14105.61,2368.485
1764434738.323819,20093.535,6433.065,50053.455,-14874.48,-42646.32,-52079.22,-14091.03,2373.75
1764434738.323819,20085.795,6432.435,50056.605,-14874.93,-42649.29,-52085.07,-14077.08,2375.145
1764434738.323819,20083.32,6436.035,50062.41,-14871.6,-42648.39,-52085.88,-14059.215,2381.58
1764434738.323819,20079.855,6433.875,50059.44,-14874.705,-42651.585,-52089.795,-14057.19,2381.76
1764434738.323819,20084.67,6435.495,50058.855,-14873.535,-42650.145,-52087.32,-14061.06,2382.75
1764434738.323819,20089.575,6433.38,50055.12,-14875.83,-42650.055,-52085.25,-14072.4,2380.41
1764434738.323819,20095.065,6429.509999999999,50048.37,-14879.295,-42650.01,-52083.765,-14089.995,2375.505
1764434738.323819,20100.105,6427.53,50044.005,-14880.87,-42648.03,-52080.615,-14105.565,2371.41
1764434738.323819,20099.43,6425.91,50042.745,-14881.365,-42648.705,-52080.3,-14111.595,2367.945
1764434738.323819,20101.185,6431.94,50051.07,-14875.02,-42643.035,-52075.755,-14100.615,2373.885
1764434738.323819,20098.17,6435.719999999999,50057.595,-14871.33,-42641.64,-52075.62,-14087.16,2378.34
1764434738.323819,20089.575,6435.27,50060.16,-14871.195,-42644.34,-52080.57,-14073.165,2379.735
1764434738.323819,20086.2,6438.735,50066.28,-14868.09,-42643.53,-52081.965,-14056.065,2385.54
1764434738.323819,20082.735,6436.08,50063.76,-14870.79,-42646.635,-52085.295,-14053.365,2385.405
1764434738.323819,20087.73,6436.844999999999,50062.32,-14871.24,-42645.465,-52082.73,-14057.415,2386.35
1764434738.323819,20091.105,6433.245,50056.695,-14875.11,-42647.13,-52083.18,-14071.77,2382.435
1764434738.323819,20100.375,6433.56,50053.995,-14873.85,-42642.99,-52077.735,-14084.82,2382.39
1764434738.323819,20105.01,6432.3,50049.855,-14875.29,-42642.045,-52073.865,-14099.94,2377.98
1764434738.323819,20109.555,6436.259999999999,50054.67,-14870.835,-42637.455,-52068.24,-14100.525,2380.095
1764434738.323819,20109.285,6438.735,50060.16,-14866.38,-42635.115,-52066.35,-14092.29,2382.84
1764434738.3673682,20106.18,6442.785,50066.685,-14862.24,-42633.0,-52065.855,-14078.115,2387.025
1764434738.3673682,20099.16,6444.179999999999,50070.51,-14861.16,-42635.25,-52070.265,-14063.31,2389.545
1764434738.3673682,20089.665,6441.615,50070.06,-14864.04,-42641.055,-52078.005,-14052.645,2389.23
1764434738.3673682,20089.71,6442.335,50070.24,-14864.22,-42641.595,-52078.995,-14047.74,2391.435
1764434738.3673682,20093.76,6441.84,50067.99,-14865.03,-42641.01,-52076.925,-14051.925,2392.065
1764434738.3673682,20094.12,6436.125,50059.395,-14871.33,-42645.06,-52078.905,-14067.72,2386.485
1764434738.3673682,20099.79,6433.335,50053.635,-14874.345,-42644.925,-52077.735,-14085.54,2382.12
1764434738.3673682,20107.665,6434.19,50052.645,-14872.14,-42640.965,-52072.11,-14098.68,2380.77
1764434738.3673682,20113.83,6439.185,50058.36,-14866.29,-42635.115,-52065.18,-14097.465,2384.415
1764434738.3673682,20114.055,6443.505,50064.48,-14860.575,-42630.93,-52062.21,-14088.51,2388.465
1764434738.3673682,20108.655,6446.205,50068.755,-14858.595,-42631.02,-52063.38,-14076.18,2391.12
1764434738.3673682,20100.015,6446.384999999999,50071.68,-14858.73,-42634.26,-52069.005,-14061.78,2392.11
1764434738.3673682,20097.63,6449.625,50077.44,-14856.12,-42633.54,-52069.905,-14044.455,2398.095
1764434738.3673682,20095.155,6448.41,50076.18,-14858.505,-42636.285,-52072.92,-14041.44,2398.23
1764434738.3673682,20094.795,6444.045,50068.935,-14863.725,-42639.615,-52075.665,-14050.71,2394.36
1764434738.3673682,20104.02,6446.115,50068.35,-14861.88,-42635.205,-52070.445,-14058.18,2395.755
1764434738.3673682,20110.185,6442.695,50062.635,-14864.22,-42634.98,-52067.79,-14075.235,2391.93
1764434738.3673682,20113.605,6438.825,50057.28,-14866.92,-42635.52,-52065.99,-14092.155,2386.215
1764434738.3673682,20118.465,6443.235,50062.275,-14861.475,-42630.75,-52060.77,-14091.885,2388.465
1764434738.3673682,20116.62,6445.44,50067.09,-14858.28,-42629.445,-52060.32,-14085.135,2390.355
1764434738.462954,20116.755,6451.92,50076.54,-14851.44,-42624.675,-52057.935,-14067.99,2398.32
1764434738.462954,20108.205,6452.235,50080.23,-14851.395,-42627.645,-52062.885,-14053.365,2399.895
1764434738.462954,20104.29,6454.71,50084.55,-14848.605,-42628.185,-52065.045,-14037.93,2404.395
1764434738.462954,20100.465,6451.875,50080.59,-14852.61,-42632.145,-52069.995,-14037.57,2402.595
1764434738.462954,20101.68,6448.634999999999,50075.865,-14856.03,-42633.405,-52070.355,-14045.805,2400.255
1764434738.462954,20105.91,6446.429999999999,50071.095,-14858.415,-42634.215,-52069.095,-14057.865,2397.735
1764434738.462954,20111.67,6443.91,50065.065,-14860.89,-42633.99,-52066.845,-14075.145,2393.055
1764434738.462954,20117.295,6442.29,50062.635,-14861.655,-42632.055,-52062.39,-14089.05,2389.545
1764434738.462954,20119.905,6444.134999999999,50065.335,-14858.865,-42629.85,-52058.79,-14090.85,2390.13
1764434738.462954,20121.39,6450.03,50072.445,-14852.115,-42624.315,-52054.425,-14079.78,2395.62
1764434738.462954,20122.155,6457.275,50083.11,-14844.465,-42618.33,-52051.005,-14061.42,2403.855
1764434738.462954,20113.83,6458.31,50087.52,-14843.745,-42620.94,-52055.055,-14045.94,2406.105
1764434738.462954,20104.245,6455.295,50086.125,-14847.705,-42626.79,-52062.48,-14035.725,2405.61
1764434738.462954,20103.66,6454.349999999999,50085.585,-14848.965,-42628.32,-52064.595,-14032.395,2406.915
1764434738.462954,20107.8,6453.45,50083.02,-14850.09,-42627.645,-52062.795,-14037.705,2407.005
1764434738.462954,20109.42,6447.554999999999,50074.695,-14856.165,-42631.155,-52064.505,-14053.59,2400.93
1764434738.462954,20115.405,6445.17,50069.16,-14858.505,-42630.3,-52062.435,-14070.78,2396.655
1764434738.462954,20123.685,6447.285,50068.755,-14855.895,-42626.43,-52056.27,-14081.49,2396.07
1764434738.462954,20122.47,6446.52,50068.08,-14855.895,-42626.295,-52055.415,-14084.82,2393.595
1764434738.462954,20124.09,6453.179999999999,50077.305,-14848.47,-42620.13,-52050.6,-14072.895,2400.165
1764434738.4639728,20120.535,6456.195,50083.38,-14845.32,-42619.365,-52051.05,-14059.395,2403.405
1764434738.4639728,20110.455,6454.17,50084.505,-14846.49,-42624.405,-52057.17,-14046.345,2403.36
1764434738.4639728,20105.46,6455.474999999999,50087.52,-14846.13,-42625.575,-52060.185,-14032.755,2406.735
1764434738.4639728,20107.17,6457.86,50089.725,-14844.915,-42623.865,-52059.15,-14026.725,2410.92
1764434738.4639728,20106.99,6453.315,50083.065,-14850.27,-42627.6,-52062.75,-14036.355,2406.51
1764434738.4639728,20116.035,6454.889999999999,50081.355,-14848.92,-42624.225,-52057.755,-14044.995,2407.635
1764434738.4639728,20122.02,6452.594999999999,50075.595,-14850.72,-42623.685,-52055.235,-14063.22,2403.72
1764434738.4639728,20126.205,6450.75,50072.085,-14852.07,-42622.605,-52052.175,-14078.385,2399.22
1764434738.4639728,20131.605,6454.935,50077.62,-14846.58,-42617.295,-52046.145,-14076.765,2402.415
1764434738.4639728,20131.02,6458.445,50083.875,-14842.89,-42614.64,-52045.02,-14067.27,2406.195
1764434738.4639728,20123.775,6458.535,50086.485,-14842.305,-42616.62,-52049.34,-14057.055,2406.96
1764434738.4639728,20114.685,6459.3,50089.545,-14842.575,-42618.555,-52053.93,-14042.205,2408.895
1764434738.4639728,20112.975,6463.62,50095.035,-14838.3,-42616.62,-52053.795,-14024.61,2415.33
1764434738.4639728,20111.175,6461.054999999999,50091.795,-14841.495,-42619.185,-52057.485,-14022.72,2414.43
1764434738.4639728,20116.62,6462.09,50090.4,-14841.405,-42617.385,-52054.965,-14027.445,2415.87
1764434738.4639728,20121.255,6460.605,50086.125,-14843.52,-42617.565,-52052.895,-14039.865,2413.935
1764434738.4649704,20127.735,6457.455,50079.78,-14846.13,-42617.295,-52050.24,-14057.73,2409.705
1764434738.4649704,20130.75,6454.485,50075.145,-14848.605,-42617.25,-52049.52,-14073.84,2403.81
1764434738.4649704,20134.485,6458.175,50079.33,-14844.375,-42613.065,-52044.795,-14073.165,2405.745
1764434738.4649704,20136.33,6464.925,50088.42,-14836.14,-42607.935,-52038.99,-14060.115,2412.36
1764434738.4649704,20132.235,6467.58,50094.405,-14832.945,-42607.53,-52039.98,-14046.93,2415.735
1764434738.4649704,20124.45,6469.469999999999,50098.815,-14831.415,-42607.935,-52043.895,-14031.0,2418.975
1764434738.4649704,20116.485,6468.344999999999,50099.4,-14832.9,-42611.715,-52049.61,-14019.255,2419.965
1764434738.4649704,20115.27,6466.77,50097.69,-14835.195,-42614.325,-52053.03,-14017.32,2420.28
1764434738.4649704,20120.67,6466.545,50095.215,-14836.41,-42613.425,-52050.96,-14022.945,2420.91
1764434738.4649704,20129.715,6467.804999999999,50094.225,-14834.655,-42609.645,-52045.605,-14031.27,2422.485
1764434738.4649704,20135.475,6464.969999999999,50088.015,-14837.67,-42609.645,-52042.995,-14049.045,2418.075
1764434738.4649704,20137.41,6460.605,50082.57,-14840.865,-42610.635,-52042.545,-14066.28,2411.145
1764434738.5087988,20137.41,6461.37,50083.65,-14839.785,-42608.7,-52040.925,-14069.025,2410.2
1764434738.5087988,20136.87,6465.78,50090.445,-14834.61,-42604.56,-52038.225,-14058.315,2415.24
1764434738.5087988,20137.32,6472.665,50099.715,-14827.545,-42599.295,-52034.715,-14041.08,2422.62
1764434738.5093112,20130.795,6475.41,50105.07,-14825.655,-42600.465,-52037.19,-14024.07,2425.77
1764434738.5093112,20126.07,6476.895,50108.31,-14825.25,-42601.77,-52040.79,-14009.49,2428.785
1764434738.5093112,20123.37,6474.285,50106.015,-14827.995,-42605.19,-52044.48,-14008.68,2428.335
1764434738.5093112,20123.37,6469.92,50098.995,-14833.755,-42609.42,-52047.18,-14019.03,2423.88
1764434738.5093112,20129.76,6469.065,50094.495,-14835.555,-42608.52,-52044.885,-14031.18,2421.585
1764434738.5093112,20139.075,6469.29,50092.47,-14834.52,-42604.29,-52038.765,-14045.4,2420.505
1764434738.5093112,20142.855,6466.77,50088.42,-14836.095,-42602.715,-52035.975,-14059.035,2416.23
1764434738.5093112,20146.14,6470.594999999999,50092.11,-14831.505,-42598.665,-52032.24,-14058.405,2417.985
1764434738.5093112,20149.335,6479.82,50104.035,-14821.65,-42591.69,-52025.22,-14043.645,2426.535
1764434738.5093112,20146.185,6483.96,50110.92,-14817.51,-42589.665,-52024.95,-14028.345,2431.215
1764434738.5093112,20135.835,6481.935,50112.405,-14819.265,-42593.85,-52032.465,-14015.07,2431.62
1764434738.5093112,20131.02,6483.465,50115.33,-14818.095,-42596.145,-52035.12,-14001.48,2435.355
1764434738.5093112,20134.305,6486.165,50117.895,-14816.07,-42594.75,-52033.23,-13996.17,2439.81
1764434738.5093112,20134.485,6481.755,50110.83,-14821.29,-42597.495,-52035.345,-14006.34,2435.76
1764434738.5093112,20142.45,6481.844999999999,50108.265,-14821.29,-42595.245,-52032.15,-14017.68,2435.085
1764434738.5093112,20149.11,6479.82,50102.55,-14823.18,-42594.48,-52028.955,-14034.06,2431.53
1764434738.5093112,20152.035,6477.84,50098.275,-14825.475,-42593.535,-52026.75,-14048.595,2427.12
1764434738.5093112,20156.85,6483.42,50104.755,-14819.04,-42587.505,-52020.27,-14045.355,2430.72
1764434738.5093112,20154.915,6486.21,50110.155,-14814.045,-42586.02,-52019.055,-14036.04,2434.005
1764434738.5093112,20149.92,6488.37,50115.285,-14811.705,-42585.255,-52020.36,-14022.72,2436.66
1764434738.5093112,20140.29,6487.56,50117.535,-14812.965,-42589.665,-52027.2,-14008.995,2437.11
1764434738.556677,20138.535,6491.52,50123.16,-14809.68,-42588.765,-52026.705,-13992.795,2444.13
1764434738.556677,20138.535,6491.655,50121.765,-14810.49,-42589.305,-52028.19,-13990.32,2445.66
1764434738.556677,20141.595,6489.27,50116.455,-14813.91,-42590.745,-52028.865,-13999.23,2443.365
1764434738.556677,20146.59,6486.884999999999,50111.64,-14816.205,-42591.645,-52027.56,-14012.28,2440.395
1764434738.556677,20150.1,6481.71,50104.08,-14820.93,-42592.905,-52026.57,-14032.395,2433.735
1764434738.556677,20156.355,6481.935,50103.09,-14820.255,-42589.8,-52021.17,-14044.185,2431.44
1764434738.556677,20159.1,6485.58,50107.14,-14815.935,-42585.705,-52016.625,-14043.195,2432.385
1764434738.556677,20160.9,6492.33,50116.995,-14808.24,-42579.945,-52012.395,-14029.74,2439.36
1764434738.556677,20157.885,6496.155,50123.925,-14803.605,-42578.415,-52011.99,-14014.44,2443.77
1764434738.556677,20151.09,6497.955,50128.335,-14801.13,-42579.405,-52015.905,-13997.52,2447.73
1764434738.556677,20146.41,6498.63,50131.395,-14800.59,-42580.17,-52019.46,-13984.47,2451.555
1764434738.556677,20143.26,6495.435,50127.39,-14804.145,-42583.77,-52023.6,-13985.505,2450.205
1764434738.5582411,20142.27,6488.955,50118.48,-14811.66,-42588.99,-52027.245,-13998.15,2444.355
1764434738.5582411,20146.23,6484.995,50112.675,-14815.17,-42589.665,-52026.435,-14012.37,2440.08
1764434738.5582411,20154.78,6483.87,50107.995,-14816.52,-42588.045,-52022.25,-14028.66,2437.47
1764434738.5582411,20164.68,6488.099999999999,50110.695,-14811.93,-42581.475,-52013.565,-14035.815,2438.91
1764434738.5582411,20166.03,6490.304999999999,50114.16,-14808.42,-42578.46,-52010.505,-14034.69,2439.9
1764434738.5582411,20164.41,6493.455,50120.01,-14804.685,-42576.3,-52009.065,-14025.015,2443.59
1764434738.5582411,20161.215,6499.035,50127.885,-14800.14,-42573.645,-52008.03,-14008.995,2448.585
1764434738.5582411,20154.69,6501.33,50132.925,-14797.89,-42575.13,-52011.315,-13991.985,2452.995
1764434738.5582411,20146.59,6498.945,50132.835,-14800.275,-42579.18,-52017.39,-13982.445,2453.445
1764434738.5582411,20145.51,6497.28,50130.18,-14802.66,-42580.98,-52019.955,-13981.725,2453.22
1764434738.559796,20150.235,6496.83,50126.58,-14804.145,-42581.34,-52018.425,-13988.61,2452.68
1764434738.559796,20159.01,6498.179999999999,50125.455,-14803.02,-42577.695,-52013.97,-13997.97,2452.86
1764434738.6049316,20166.3,6496.56,50120.505,-14804.28,-42575.31,-52010.055,-14013.99,2449.845
1764434738.6049316,20171.16,6496.245,50118.57,-14804.82,-42572.88,-52006.455,-14026.32,2446.785
1764434738.6049316,20168.28,6493.95,50118.21,-14805.09,-42573.87,-52007.805,-14030.235,2443.68
1764434738.6049316,20167.605,6497.955,50125.275,-14799.915,-42570.45,-52005.465,-14019.12,2447.55
1764434738.6049316,20168.46,6505.11,50136.12,-14791.815,-42566.13,-52001.145,-14000.625,2455.56
1764434738.6049316,20163.195,6508.755,50142.51,-14788.17,-42565.68,-52003.305,-13981.275,2461.455
1764434738.6049316,20158.785,6510.42,50145.255,-14787.855,-42566.85,-52005.825,-13968.315,2464.695
1764434738.6049316,20155.32,6506.46,50140.17,-14792.895,-42570.765,-52010.19,-13970.25,2462.22
1764434738.6049316,20158.335,6504.21,50135.535,-14795.865,-42572.295,-52010.28,-13978.89,2460.465
1764434738.605941,20166.66,6505.695,50133.87,-14795.37,-42569.46,-52004.565,-13989.33,2460.645
1764434738.605941,20171.475,6500.745,50125.905,-14799.96,-42571.26,-52004.07,-14009.13,2453.76
1764434738.605941,20177.91,6501.06,50125.905,-14798.205,-42567.255,-51999.21,-14019.93,2452.68
1764434738.605941,20182.815,6507.27,50132.565,-14791.59,-42560.145,-51992.145,-14015.475,2457.495
1764434738.605941,20183.04,6512.58,50139.36,-14786.235,-42555.645,-51989.67,-14003.73,2462.4
1764434738.605941,20178.45,6515.415,50145.12,-14782.815,-42555.915,-51990.525,-13989.69,2465.685
1764434738.605941,20170.935,6516.63,50150.34,-14781.195,-42558.03,-51994.845,-13973.13,2468.43
1764434738.605941,20164.23,6514.875,50150.025,-14783.58,-42562.035,-52000.515,-13963.365,2469.33
1764434738.605941,20168.685,6518.384999999999,50151.825,-14780.88,-42559.335,-51997.68,-13958.37,2474.235
1764434738.605941,20171.385,6515.82,50145.93,-14784.255,-42560.505,-51998.445,-13967.415,2472.03
1764434738.605941,20174.175,6511.77,50139.135,-14789.115,-42561.945,-51998.715,-13981.815,2467.26
1764434738.605941,20183.22,6512.355,50137.065,-14787.54,-42557.715,-51993.09,-13996.62,2466.27
1764434738.605941,20190.285,6513.57,50136.975,-14785.74,-42554.97,-51986.925,-14007.24,2465.145
1764434738.605941,20191.86,6515.55,50139.945,-14782.635,-42552.36,-51983.82,-14006.745,2465.46
1764434738.605941,20187.09,6516.81,50143.455,-14780.655,-42552.855,-51984.9,-13998.42,2466.135
1764434738.6490333,20186.685,6523.56,50152.95,-14773.635,-42548.445,-51983.055,-13980.105,2473.83
1764434738.6490333,20177.82,6523.785,50156.19,-14773.455,-42550.92,-51988.23,-13964.67,2475.63
1764434738.6490333,20177.55,6528.195,50162.535,-14769.765,-42549.3,-51986.52,-13949.055,2483.46
1764434738.6490333,20177.505,6526.935,50160.465,-14771.655,-42551.055,-51988.41,-13948.785,2484.54
1764434738.6490333,20180.61,6524.685,50155.605,-14774.04,-42551.775,-51988.275,-13957.74,2482.56
1764434738.6490333,20186.19,6522.884999999999,50151.465,-14776.335,-42551.055,-51985.8,-13969.8,2480.265
1764434738.6490333,20191.86,6519.554999999999,50145.345,-14779.89,-42551.37,-51982.83,-13987.98,2475.09
1764434738.6490333,20194.695,6517.62,50142.15,-14781.06,-42550.245,-51981.3,-14001.03,2470.815
1764434738.6490333,20199.06,6523.11,50149.395,-14774.13,-42544.08,-51975.09,-13997.295,2475.315
1764434738.6490333,20196.18,6525.945,50154.795,-14770.35,-42542.73,-51974.73,-13987.305,2478.51
1764434738.6490333,20196.18,6533.054999999999,50164.83,-14762.79,-42537.555,-51971.22,-13968.99,2486.025
1764434738.6490333,20188.935,6534.27,50170.275,-14761.665,-42539.58,-51975.405,-13951.98,2489.355
1764434738.6490333,20180.385,6530.985,50168.655,-14764.725,-42545.205,-51981.93,-13943.16,2489.31
1764434738.6490333,20180.115,6529.094999999999,50165.505,-14766.705,-42547.23,-51983.73,-13943.52,2488.86
1764434738.6490333,20186.955,6530.355,50164.11,-14766.57,-42544.305,-51980.58,-13949.01,2489.805
1764434738.649541,20191.41,6527.745,50158.26,-14769.72,-42544.89,-51979.32,-13962.87,2486.655
1764434738.649541,20194.695,6522.255,50149.755,-14774.76,-42546.555,-51978.645,-13983.795,2479.365
1764434738.649541,20200.455,6523.38,50149.305,-14773.545,-42543.72,-51973.74,-13993.74,2477.745
1764434738.649541,20202.12,6525.99,50153.31,-14769.315,-42540.12,-51971.13,-13991.805,2479.725
1764434738.649541,20202.48,6532.065,50162.355,-14762.655,-42534.45,-51968.43,-13977.99,2485.665
1764434738.649541,20203.56,6539.985,50172.57,-14754.87,-42528.87,-51964.29,-13958.73,2494.17
1764434738.649541,20194.335,6539.445,50175.27,-14755.32,-42532.02,-51969.69,-13943.88,2495.655
1764434738.6930096,20193.795,6544.259999999999,50181.39,-14751.765,-42531.12,-51968.97,-13928.625,2502.27
1764434738.693543,20191.185,6540.165,50176.08,-14757.03,-42535.98,-51972.975,-13931.775,2499.57
1764434738.693543,20196.72,6539.625,50173.155,-14758.245,-42535.035,-51970.995,-13939.2,2499.57
1764434738.693543,20203.92,6538.905,50170.185,-14758.38,-42533.055,-51967.215,-13950.18,2498.76
1764434738.693543,20211.12,6538.094999999999,50165.775,-14759.505,-42531.345,-51962.715,-13966.29,2495.385
1764434738.693543,20215.08,6536.745,50162.895,-14761.08,-42529.68,-51960.33,-13978.62,2491.695
1764434738.693543,20212.92,6534.45,50163.21,-14761.71,-42530.445,-51961.14,-13980.195,2489.31
1764434738.693543,20212.425,6539.49,50171.085,-14756.22,-42526.26,-51957.585,-13967.775,2494.125
1764434738.693543,20211.93,6546.509999999999,50180.4,-14748.975,-42522.57,-51955.02,-13949.685,2501.64
1764434738.693543,20202.03,6544.98,50183.505,-14749.695,-42526.575,-51961.77,-13936.005,2502.09
1764434738.693543,20199.285,6547.455,50186.88,-14747.49,-42526.71,-51962.445,-13922.595,2506.725
1764434738.693543,20198.25,6545.384999999999,50183.91,-14750.37,-42529.59,-51964.83,-13923.675,2506.41
1764434738.693543,20199.06,6539.4,50175.855,-14756.355,-42534.0,-51967.98,-13936.32,2500.92
1764434738.693543,20205.72,6538.634999999999,50171.895,-14756.445,-42531.435,-51964.065,-13948.605,2499.93
1764434738.693543,20213.145,6537.285,50167.935,-14758.02,-42529.995,-51959.565,-13965.255,2496.645
1764434738.693543,20217.735,6537.195,50166.945,-14758.29,-42527.835,-51955.965,-13975.92,2493.81
1764434738.6960948,20218.05,6538.139999999999,50169.105,-14756.085,-42526.17,-51953.895,-13974.525,2494.08
1764434738.6960948,20220.795,6545.79,50179.545,-14746.68,-42518.97,-51947.55,-13959.27,2502.315
1764434738.6965196,20216.88,6549.795,50186.385,-14742.495,-42517.17,-51947.64,-13943.79,2506.68
1764434738.6965196,20206.98,6548.04,50188.095,-14743.71,-42521.715,-51953.895,-13929.885,2507.22
1764434738.6965196,20204.955,6550.425,50192.37,-14741.055,-42521.805,-51954.84,-13916.88,2512.62
1764434738.6965196,20204.82,6548.849999999999,50190.165,-14743.395,-42523.29,-51956.595,-13917.825,2511.945
1764434738.7391748,20206.08,6544.53,50183.145,-14748.345,-42525.945,-51959.295,-13928.76,2507.535
1764434738.7391748,20207.88,6538.724999999999,50174.595,-14753.835,-42529.32,-51960.915,-13945.995,2500.83
1764434738.7391748,20215.305,6538.32,50170.455,-14754.42,-42526.665,-51955.605,-13961.745,2497.725
1764434738.7391748,20224.035,6542.28,50173.38,-14749.515,-42520.59,-51948.045,-13968.09,2500.29
1764434738.7391748,20223.585,6543.764999999999,50176.395,-14747.895,-42519.51,-51946.425,-13966.83,2500.605
1764434738.7391748,20224.665,6550.29,50186.115,-14740.515,-42513.57,-51942.105,-13951.935,2507.355
1764434738.7391748,20220.795,6553.889999999999,50192.685,-14736.735,-42511.905,-51942.915,-13936.455,2512.17
1764434738.7391748,20212.785,6554.745,50196.465,-14736.465,-42514.335,-51947.73,-13920.75,2514.555
1764434738.7391748,20212.56,6559.02,50201.91,-14733.18,-42512.445,-51947.145,-13906.71,2521.17
1764434738.7401876,20210.58,6556.139999999999,50197.725,-14737.05,-42515.73,-51950.745,-13909.815,2519.235
1764434738.7401876,20217.105,6556.59,50195.385,-14737.14,-42514.515,-51946.245,-13916.88,2520.63
1764434738.7401876,20219.94,6551.594999999999,50186.88,-14741.595,-42517.17,-51946.65,-13933.305,2514.78
1764434738.7401876,20230.47,6552.719999999999,50185.305,-14740.02,-42512.535,-51939.585,-13947.57,2513.745
1764434738.7401876,20235.645,6553.17,50185.395,-14738.67,-42509.115,-51935.4,-13956.975,2512.17
1764434738.7401876,20234.025,6553.755,50186.745,-14737.365,-42508.395,-51935.67,-13956.255,2511.18
1764434738.7401876,20235.645,6560.639999999999,50195.745,-14729.895,-42503.94,-51930.99,-13941.855,2517.975
1764434738.7401876,20232.765,6565.365,50203.485,-14724.765,-42501.465,-51930.63,-13925.205,2523.69
1764434738.7401876,20223.045,6565.185,50205.42,-14725.485,-42504.66,-51936.705,-13910.355,2524.59
1764434738.7432425,20222.19,6568.695,50209.83,-14722.83,-42503.67,-51937.245,-13896.765,2530.17
1764434738.7432425,20222.685,6567.344999999999,50208.21,-14724.495,-42505.02,-51938.145,-13897.395,2530.575
1764434738.7432425,20226.465,6565.185,50203.395,-14727.42,-42506.055,-51937.29,-13906.62,2527.92
1764434738.744244,20228.535,6559.469999999999,50195.115,-14733.225,-42509.07,-51939.225,-13924.215,2521.44
1764434738.744244,20238.93,6562.08,50194.53,-14730.975,-42503.4,-51931.755,-13937.985,2521.305
1764434738.744244,20245.455,6563.34,50195.43,-14728.14,-42498.99,-51926.175,-13946.04,2521.26
1764434738.7882657,20244.33,6563.655,50198.31,-14726.565,-42498.09,-51925.86,-13945.32,2521.125
1764434738.7882657,20245.905,6570.719999999999,50207.76,-14719.5,-42493.095,-51921.045,-13930.92,2528.145
1764434738.7882657,20242.62,6575.895,50215.005,-14714.145,-42491.295,-51920.1,-13913.505,2533.905
1764434738.7882657,20233.035,6574.679999999999,50217.165,-14715.135,-42494.895,-51926.895,-13899.33,2535.075
1764434738.7882657,20229.885,6575.49,50218.83,-14715.495,-42496.155,-51929.19,-13887.99,2537.955
1764434738.7882657,20231.505,6575.31,50215.995,-14716.71,-42496.695,-51929.28,-13888.98,2538.585
1764434738.7882657,20236.455,6574.23,50212.125,-14718.33,-42496.425,-51928.38,-13898.16,2537.46
1764434738.7882657,20242.08,6572.52,50207.22,-14720.265,-42496.065,-51926.085,-13911.12,2534.76
1764434738.7882657,20252.295,6574.679999999999,50205.42,-14718.33,-42491.745,-51918.57,-13924.98,2534.76
1764434738.7882657,20257.83,6574.815,50205.645,-14716.53,-42488.55,-51913.44,-13933.755,2534.265
1764434738.7882657,20259.225,6577.245,50209.38,-14712.885,-42485.805,-51911.19,-13930.92,2535.75
1764434738.789266,20253.555,6577.335,50212.395,-14711.535,-42487.02,-51913.89,-13922.865,2535.57
1764434738.789266,20253.285,6584.985,50222.385,-14704.515,-42481.665,-51910.83,-13903.515,2544.48
1764434738.789266,20246.355,6586.695,50227.47,-14702.445,-42482.295,-51914.475,-13886.775,2548.53
1764434738.789266,20242.845,6587.685,50229.585,-14702.265,-42483.825,-51916.905,-13875.885,2551.68
1764434738.790261,20241.63,6584.804999999999,50225.085,-14706.855,-42486.57,-51919.38,-13879.08,2550.06
1764434738.790261,20245.185,6581.655,50219.595,-14711.175,-42487.965,-51919.47,-13889.295,2546.775
1764434738.790261,20249.145,6578.639999999999,50213.34,-14714.595,-42489.18,-51918.75,-13904.91,2542.005
1764434738.790261,20254.095,6575.13,50205.96,-14717.79,-42490.62,-51916.95,-13923.855,2536.425
1764434738.790261,20258.595,6576.57,50206.5,-14715.36,-42486.93,-51912.045,-13932.0,2535.435
1764434738.790261,20260.935,6580.485,50212.44,-14710.68,-42482.52,-51907.905,-13927.365,2538.315
1764434738.790261,20260.305,6585.344999999999,50219.64,-14704.56,-42478.92,-51905.79,-13915.035,2542.86
1764434738.7912605,20259.945,6592.95,50229.99,-14696.91,-42474.33,-51902.955,-13895.415,2551.005
1764434738.7912605,20252.385,6593.804999999999,50234.265,-14696.415,-42476.67,-51907.68,-13878.72,2554.11
1764434738.8354473,20244.51,6589.71,50231.655,-14700.87,-42481.935,-51914.52,-13872.87,2552.67
1764434738.8354473,20247.795,6590.745,50232.06,-14699.88,-42480.225,-51912.72,-13872.6,2554.83
1764434738.8354473,20252.07,6588.54,50226.885,-14702.22,-42481.26,-51911.955,-13882.68,2552.67
1764434738.8354473,20256.57,6586.514999999999,50220.585,-14704.83,-42481.53,-51910.11,-13897.8,2550.06
1764434738.8354473,20264.4,6585.344999999999,50216.805,-14705.82,-42479.82,-51906.195,-13914.63,2546.55
1764434738.8354473,20268.675,6586.56,50216.985,-14703.795,-42476.13,-51901.785,-13922.19,2545.785
1764434738.8354473,20268.855,6589.349999999999,50220.81,-14700.015,-42473.115,-51898.995,-13918.23,2547.945
1764434738.8354473,20264.805,6591.285,50224.68,-14697.18,-42473.34,-51900.12,-13909.23,2548.755
1764434738.8354473,20264.67,6598.844999999999,50235.39,-14689.845,-42468.075,-51895.575,-13888.665,2557.755
1764434738.8354473,20254.41,6597.945,50237.37,-14691.33,-42472.485,-51902.64,-13873.815,2559.105
1764434738.8354473,20250.45,6596.82,50237.595,-14692.995,-42476.04,-51907.095,-13865.22,2560.77
1764434738.8354473,20250.63,6594.84,50234.625,-14695.065,-42477.66,-51908.715,-13867.605,2560.32
1764434738.8354473,20257.92,6595.785,50233.14,-14694.615,-42475.23,-51905.295,-13875.12,2560.995
1764434738.8364515,20262.42,6592.59,50227.38,-14697.675,-42476.13,-51903.495,-13890.42,2556.72
1764434738.8364515,20267.055,6587.82,50220.135,-14702.04,-42476.895,-51902.055,-13910.67,2550.465
1764434738.8364515,20274.345,6590.835,50222.52,-14697.855,-42470.865,-51895.125,-13916.43,2551.005
1764434738.8364515,20272.545,6591.735,50224.545,-14696.685,-42470.595,-51895.08,-13914.405,2550.195
1764434738.8364515,20270.43,6595.335,50230.845,-14691.645,-42467.715,-51893.82,-13901.895,2554.65
1764434738.8364515,20270.205,6602.849999999999,50240.97,-14683.77,-42462.99,-51890.265,-13882.455,2563.245
1764434738.8364515,20262.15,6603.3,50244.345,-14684.13,-42465.735,-51894.99,-13866.57,2566.26
1764434738.8364515,20255.94,6601.365,50243.58,-14686.47,-42469.92,-51900.75,-13860.045,2566.665
1764434738.8364515,20258.955,6602.67,50242.59,-14686.56,-42469.56,-51899.715,-13860.18,2568.51
1764434738.8802717,20260.89,6598.035,50235.84,-14692.275,-42472.215,-51900.975,-13871.925,2564.1
1764434738.8802717,20269.26,6598.665,50234.04,-14692.005,-42468.165,-51896.025,-13883.805,2564.325
1764434738.8802717,20275.695,6596.37,50229.045,-14693.265,-42467.31,-51892.74,-13901.85,2559.825
1764434738.8802717,20277.0,6593.4,50225.31,-14695.245,-42468.345,-51892.425,-13914.135,2554.29
1764434738.8802717,20278.575,6596.685,50230.485,-14690.61,-42464.205,-51889.14,-13909.05,2557.395
1764434738.8802717,20279.295,6604.425,50240.205,-14682.015,-42458.265,-51884.235,-13893.345,2564.82
1764434738.8802717,20274.57,6607.62,50246.235,-14678.595,-42457.95,-51885.99,-13878.045,2569.41
1764434738.8802717,20266.47,6607.98,50250.015,-14678.46,-42460.38,-51891.75,-13862.43,2572.29
1764434738.8802717,20263.455,6608.429999999999,50250.78,-14678.865,-42462.495,-51894.405,-13853.34,2574.27
1764434738.8802717,20263.32,6606.224999999999,50246.955,-14681.79,-42464.565,-51896.295,-13855.545,2572.965
1764434738.8802717,20265.795,6602.759999999999,50240.61,-14686.065,-42466.14,-51896.295,-13867.11,2569.545
1764434738.8802717,20268.045,6597.63,50232.735,-14691.825,-42468.615,-51897.375,-13884.705,2564.235
1764434738.8802717,20275.11,6596.37,50227.92,-14693.31,-42466.635,-51893.505,-13901.58,2560.995
1764434738.8802717,20279.52,6597.36,50228.73,-14690.745,-42463.665,-51888.69,-13908.555,2559.195
1764434738.8802717,20280.42,6600.42,50233.275,-14686.83,-42460.2,-51885.495,-13904.055,2561.4
1764434738.8802717,20280.42,6606.045,50241.87,-14680.08,-42456.24,-51883.245,-13890.33,2567.52
1764434738.8802717,20280.375,6613.605,50252.22,-14672.97,-42450.795,-51880.095,-13870.26,2576.16
1764434738.8802717,20273.895,6615.719999999999,50256.855,-14671.215,-42452.19,-51883.245,-13852.935,2580.435
1764434738.8802717,20268.855,6614.594999999999,50257.035,-14672.835,-42456.24,-51886.98,-13846.185,2580.885
1764434738.8802717,20266.335,6609.735,50249.52,-14678.955,-42461.37,-51892.11,-13852.395,2576.61
1764434738.8802717,20270.205,6608.205,50245.56,-14681.43,-42461.055,-51891.615,-13862.295,2574.495
1764434738.8802717,20279.115,6609.915,50244.435,-14680.08,-42456.69,-51885.72,-13872.87,2575.17
1764434738.8802717,20284.11,6606.134999999999,50237.685,-14683.725,-42457.365,-51883.65,-13892.085,2569.095
1764434738.8802717,20290.77,6608.835,50239.71,-14680.08,-42452.685,-51877.53,-13897.44,2570.535
1764434738.9238071,20287.935,6608.52,50241.375,-14679.225,-42452.685,-51877.845,-13896.495,2569.86
1764434738.9238071,20285.325,6612.255,50248.035,-14675.04,-42450.255,-51877.08,-13884.255,2573.28
1764434738.9238071,20284.155,6618.78,50257.53,-14668.065,-42446.16,-51875.28,-13864.995,2581.155
1764434738.9238071,20276.055,6619.455,50260.455,-14668.38,-42449.49,-51880.77,-13850.37,2583.585
1764434738.9238071,20269.035,6616.889999999999,50257.71,-14672.25,-42454.575,-51887.16,-13844.97,2582.055
1764434738.9238071,20269.17,6614.73,50253.12,-14674.86,-42455.52,-51888.105,-13848.93,2580.93
1764434738.9238071,20274.12,6612.929999999999,50249.205,-14676.435,-42455.16,-51886.17,-13857.39,2579.355
1764434738.9238071,20281.815,6612.21,50246.37,-14678.1,-42454.35,-51883.065,-13869.54,2577.87
1764434738.9250095,20285.145,6607.395,50238.855,-14682.96,-42456.78,-51882.255,-13889.43,2570.76
1764434738.9250095,20292.21,6610.86,50242.635,-14677.245,-42451.335,-51875.505,-13893.975,2572.335
1764434738.9250095,20291.445,6612.84,50245.83,-14674.32,-42449.04,-51873.57,-13890.42,2573.505
1764434738.9250095,20286.315,6613.785,50250.06,-14673.015,-42449.175,-51875.1,-13880.34,2575.26
1764434738.9250095,20285.64,6621.48,50260.815,-14666.13,-42443.19,-51871.545,-13859.82,2582.955
1764434738.9250095,20278.71,6622.965,50264.91,-14665.23,-42444.72,-51875.28,-13842.765,2586.6
1764434738.926023,20274.03,6621.435,50264.145,-14667.3,-42448.185,-51879.825,-13836.015,2587.86
1764434738.926023,20279.25,6623.91,50264.505,-14666.265,-42445.53,-51877.575,-13835.565,2591.01
1764434738.926023,20285.55,6624.09,50262.03,-14666.895,-42444.0,-51874.875,-13843.935,2590.56
1764434738.926023,20291.355,6621.435,50256.855,-14668.245,-42443.37,-51872.535,-13858.425,2587.725
1764434738.926023,20297.88,6619.005,50252.31,-14670.315,-42442.695,-51869.25,-13875.075,2583.18
1764434738.9270208,20298.78,6616.575,50249.61,-14671.71,-42443.415,-51868.035,-13885.92,2578.005
1764434738.9270208,20301.75,6621.344999999999,50256.045,-14665.635,-42438.105,-51863.31,-13879.305,2582.685
1764434738.9270208,20298.06,6623.82,50261.085,-14662.53,-42437.52,-51864.165,-13867.92,2585.43
1764434738.9715242,20296.395,6631.02,50270.58,-14655.555,-42433.695,-51862.005,-13848.705,2593.215
1764434738.9715242,20289.51,6632.955,50274.45,-14654.835,-42434.37,-51865.605,-13832.37,2596.005
1764434738.9715242,20282.445,6629.13,50271.57,-14659.38,-42439.635,-51872.805,-13827.825,2594.52
1764434738.9715242,20282.67,6626.07,50267.88,-14662.44,-42442.155,-51875.1,-13832.055,2593.08
1764434738.9715242,20290.905,6628.05,50266.89,-14661.09,-42438.15,-51869.88,-13839.255,2594.565
1764434738.9715242,20297.205,6626.925,50261.85,-14662.35,-42436.98,-51866.91,-13853.205,2591.685
1764434738.9715242,20299.5,6621.255,50253.57,-14667.03,-42439.23,-51867.495,-13874.04,2584.53
1764434738.972551,20302.875,6622.02,50253.84,-14665.095,-42436.125,-51863.445,-13881.015,2583.135
1764434738.972551,20305.485,6627.96,50261.175,-14658.795,-42430.365,-51858.63,-13873.005,2587.815
1764434738.972551,20302.56,6631.335,50265.9,-14655.33,-42429.555,-51859.215,-13861.71,2590.47
1764434738.972551,20302.65,6639.48,50277.42,-14647.455,-42423.93,-51855.66,-13840.515,2599.74
1764434738.972551,20296.44,6640.74,50282.46,-14645.88,-42425.415,-51858.945,-13823.64,2603.88
1764434738.972551,20293.83,6640.695,50282.91,-14647.41,-42426.9,-51861.375,-13815.405,2606.715
1764434738.973078,20294.01,6638.31,50278.95,-14650.605,-42429.06,-51863.445,-13820.31,2605.095
1764434738.973078,20294.955,6633.134999999999,50271.435,-14656.32,-42432.39,-51865.65,-13833.765,2600.415
1764434738.973078,20299.86,6629.895,50265.135,-14659.605,-42432.57,-51863.94,-13849.47,2596.5
1764434738.973078,20307.285,6629.445,50261.94,-14659.38,-42429.87,-51858.54,-13865.265,2593.035
1764434738.973078,20314.485,6634.395,50266.035,-14653.845,-42423.48,-51850.53,-13868.37,2595.735
1764434738.973078,20312.415,6635.205,50268.105,-14651.91,-42423.66,-51850.08,-13864.995,2594.52
1764434738.973078,20310.48,6639.255,50275.53,-14647.365,-42421.005,-51849.36,-13851.54,2599.425
1764434738.973078,20309.265,6645.465,50284.755,-14640.75,-42417.225,-51847.38,-13832.505,2607.66
1764434738.973078,20301.12,6646.23,50287.32,-14641.425,-42420.105,-51852.33,-13817.565,2610.0
1764434739.017925,20301.705,6649.2,50290.695,-14639.04,-42418.845,-51851.295,-13805.955,2615.355
1764434739.017925,20302.335,6647.219999999999,50287.095,-14641.965,-42421.41,-51853.41,-13810.68,2613.735
1764434739.017925,20303.46,6642.09,50279.4,-14647.95,-42425.055,-51855.57,-13824.945,2608.47
1764434739.017925,20311.245,6641.82,50275.62,-14648.715,-42422.805,-51851.88,-13838.805,2606.58
1764434739.017925,20321.955,6644.205,50275.125,-14646.105,-42417.225,-51844.185,-13851.72,2606.895
1764434739.017925,20325.555,6644.7,50276.385,-14643.315,-42414.57,-51840.405,-13857.93,2606.265
1764434739.017925,20323.08,6644.745,50278.59,-14642.325,-42413.895,-51840.945,-13855.455,2605.275
1764434739.017925,20322.81,6650.594999999999,50287.815,-14636.34,-42409.98,-51838.155,-13841.28,2611.08
1764434739.017925,20322.945,6658.38,50299.56,-14628.78,-42404.67,-51834.6,-13819.59,2620.035
1764434739.0184455,20314.845,6658.785,50302.17,-14629.005,-42407.595,-51839.865,-13804.335,2622.51
1764434739.0184455,20309.985,6656.759999999999,50299.785,-14631.435,-42411.555,-51844.995,-13798.845,2622.735
1764434739.0184455,20312.91,6656.49,50297.985,-14632.245,-42411.33,-51844.05,-13800.87,2623.5
1764434739.0184455,20315.07,6651.45,50290.29,-14637.69,-42414.39,-51845.31,-13813.785,2617.92
1764434739.0184455,20323.395,6652.035,50287.905,-14637.78,-42411.825,-51840.27,-13826.7,2616.93
1764434739.0184455,20330.82,6651.405,50284.395,-14638.095,-42409.62,-51835.68,-13842.585,2613.915
1764434739.0184455,20332.935,6651.134999999999,50284.485,-14636.925,-42407.415,-51832.71,-13850.145,2611.71
1764434739.0184455,20329.83,6651.179999999999,50286.375,-14636.205,-42407.55,-51833.07,-13847.265,2611.26
1764434739.0184455,20331.495,6659.235,50296.995,-14627.07,-42400.845,-51828.39,-13829.67,2619.63
1764434739.0184455,20329.785,6665.759999999999,50306.355,-14619.87,-42396.12,-51826.455,-13809.78,2627.055
1764434739.0184455,20320.56,6664.545,50307.885,-14621.85,-42400.125,-51832.8,-13796.145,2628.45
1764434739.0184455,20314.08,6661.259999999999,50304.96,-14625.99,-42405.57,-51839.19,-13791.87,2627.82
1764434739.0184455,20319.255,6663.554999999999,50305.41,-14624.685,-42402.87,-51835.995,-13791.96,2631.285
1764434739.0629854,20323.71,6661.215,50301.225,-14626.665,-42402.78,-51834.105,-13802.805,2629.71
1764434739.0629854,20326.5,6655.094999999999,50292.36,-14632.695,-42406.155,-51835.14,-13821.705,2622.87
1764434739.0629854,20336.76,6656.985,50291.505,-14630.265,-42401.295,-51828.165,-13834.935,2622.15
1764434739.0629854,20340.135,6657.974999999999,50292.63,-14627.25,-42397.74,-51824.025,-13840.47,2620.98
1764434739.0629854,20339.235,6660.315,50296.545,-14623.155,-42395.94,-51822.225,-13836.15,2622.735
1764434739.0629854,20337.885,6665.085,50303.745,-14618.52,-42393.33,-51820.74,-13822.515,2627.865
1764434739.064629,20332.98,6668.145,50310.045,-14615.145,-42392.295,-51822.54,-13805.82,2632.32
1764434739.064629,20322.99,6666.03,50310.855,-14617.08,-42397.38,-51829.875,-13793.355,2631.96
1764434739.064629,20325.015,6670.844999999999,50315.67,-14613.345,-42395.22,-51828.39,-13781.79,2638.26
1764434739.064629,20327.625,6669.81,50313.06,-14614.605,-42395.49,-51828.165,-13784.805,2638.665
1764434739.064629,20331.63,6667.29,50307.21,-14617.8,-42396.57,-51827.58,-13796.19,2636.145
1764434739.064629,20333.745,6661.349999999999,50298.21,-14623.38,-42399.36,-51828.3,-13815.045,2629.17
1764434739.064629,20341.8,6660.405,50295.51,-14623.56,-42396.705,-51823.215,-13830.48,2626.695
1764434739.064629,20348.91,6664.679999999999,50299.245,-14618.52,-42390.945,-51817.275,-13833.225,2628.405
1764434739.064629,20345.76,6664.86,50301.9,-14617.215,-42390.45,-51817.23,-13829.265,2627.82
1764434739.064629,20344.23,6670.395,50310.81,-14611.59,-42387.165,-51814.665,-13814.325,2633.67
1764434739.064629,20345.085,6677.82,50322.24,-14604.255,-42382.53,-51810.885,-13792.68,2643.03
1764434739.064629,20337.84,6679.035,50326.155,-14604.345,-42384.69,-51814.89,-13776.48,2646.18
1764434739.064629,20335.095,6678.81,50325.615,-14605.155,-42386.805,-51817.5,-13770.63,2648.385
1764434739.064629,20334.87,6674.13,50320.35,-14609.52,-42389.865,-51820.2,-13777.11,2645.46
1764434739.064629,20335.635,6667.605,50312.07,-14615.685,-42393.375,-51822.63,-13791.465,2639.115
1764434739.064629,20344.95,6668.685,50309.46,-14614.29,-42389.955,-51817.005,-13803.48,2638.71
1764434739.0666456,20350.71,6666.435,50304.69,-14615.685,-42389.37,-51813.495,-13821.165,2634.21
1764434739.0666456,20356.965,6670.44,50309.235,-14610.33,-42382.98,-51806.79,-13823.28,2636.64
1764434739.0666456,20357.505,6673.905,50315.58,-14606.415,-42379.29,-51803.955,-13815.9,2640.195
1764434739.0666456,20354.445,6677.37,50321.7,-14602.41,-42377.445,-51803.775,-13803.39,2643.48
1764434739.1112416,20351.07,6683.264999999999,50330.385,-14596.83,-42374.745,-51802.695,-13784.31,2649.645
1764434739.1112416,20343.195,6683.445,50332.77,-14596.92,-42377.85,-51807.69,-13768.695,2652.21
1764434739.1112416,20338.245,6679.844999999999,50329.395,-14600.97,-42383.025,-51813.81,-13765.365,2650.635
1764434739.1112416,20340.945,6679.62,50326.92,-14602.41,-42383.115,-51813.99,-13769.685,2650.185
1764434739.1112416,20341.17,6673.59,50317.92,-14608.395,-42387.39,-51816.915,-13785.075,2644.02
1764434739.1112416,20346.66,6670.304999999999,50312.835,-14610.915,-42387.075,-51813.945,-13800.87,2639.88
1764434739.1112416,20357.235,6672.825,50313.06,-14608.17,-42381.27,-51805.71,-13813.29,2640.6
1764434739.1112416,20362.995,6676.155,50317.29,-14603.67,-42376.275,-51799.32,-13816.125,2642.22
1764434739.1112416,20362.95,6679.53,50324.22,-14598.27,-42372.36,-51796.71,-13808.565,2645.325
1764434739.1112416,20360.88,6684.435,50331.195,-14593.185,-42369.75,-51795.99,-13794.525,2650.545
1764434739.1112416,20356.335,6686.37,50337.135,-14590.53,-42369.885,-51797.205,-13777.965,2654.82
1764434739.1122615,20346.12,6684.075,50337.27,-14593.05,-42375.69,-51804.495,-13766.175,2655.135
1764434739.1122615,20345.445,6685.335,50338.755,-14592.465,-42376.41,-51805.8,-13758.48,2658.06
1764434739.1122615,20344.005,6680.655,50332.23,-14597.775,-42380.145,-51809.58,-13765.815,2654.01
1764434739.1122615,20351.61,6680.925,50330.385,-14597.64,-42377.04,-51805.62,-13775.085,2654.955
1764434739.1122615,20356.965,6677.955,50324.895,-14600.835,-42376.815,-51802.965,-13790.88,2650.635
1764434739.1122615,20359.71,6672.825,50316.975,-14605.02,-42378.57,-51802.155,-13809.465,2643.615
1764434739.1122615,20363.94,6674.67,50319.135,-14601.645,-42374.655,-51798.015,-13813.695,2643.795
1764434739.1122615,20367.045,6681.06,50327.19,-14594.715,-42369.345,-51792.795,-13804.245,2649.42
1764434739.1122615,20366.235,6685.83,50334.93,-14588.685,-42366.06,-51791.04,-13789.665,2654.955
1764434739.1122615,20363.085,6691.23,50343.57,-14582.97,-42363.18,-51790.95,-13770.54,2661.435
1764434739.1122615,20352.285,6688.259999999999,50343.3,-14586.93,-42369.12,-51798.6,-13758.075,2660.895
1764434739.1122615,20349.315,6686.955,50343.345,-14589.27,-42371.91,-51802.155,-13752.54,2661.345
1764434739.1122615,20351.43,6685.02,50339.835,-14590.8,-42372.945,-51803.415,-13757.355,2660.895
1764434739.1615174,20355.75,6682.05,50334.345,-14593.455,-42373.44,-51801.57,-13768.695,2658.735
1764434739.1615174,20362.365,6680.79,50329.665,-14594.94,-42371.73,-51797.745,-13784.535,2655.45
1764434739.1615174,20369.655,6680.655,50326.335,-14594.22,-42368.94,-51792.345,-13799.43,2653.155
1764434739.1615174,20376.045,6684.255,50330.295,-14589.405,-42364.125,-51786.405,-13801.23,2655.63
1764434739.1615174,20373.525,6684.84,50333.85,-14587.965,-42363.315,-51787.53,-13796.28,2656.035
1764434739.1615174,20373.615,6691.455,50343.48,-14581.26,-42358.5,-51783.93,-13780.665,2663.055
1764434739.1615174,20368.53,6695.099999999999,50349.825,-14576.76,-42358.095,-51784.605,-13763.655,2667.96
1764434739.1615174,20358.765,6692.895,50350.41,-14578.92,-42363.27,-51790.995,-13750.92,2668.455
1764434739.1615174,20358.945,6695.37,50352.165,-14577.705,-42362.955,-51791.22,-13742.55,2672.415
1764434739.1615174,20358.36,6690.915,50345.82,-14582.61,-42366.42,-51794.64,-13750.065,2669.31
1764434739.1615174,20363.355,6688.575,50342.13,-14584.005,-42365.925,-51793.425,-13760.55,2666.925
1764434739.1615174,20371.455,6688.259999999999,50338.44,-14584.77,-42363.54,-51788.25,-13774.275,2665.845
1764434739.1615174,20375.28,6684.435,50331.375,-14588.235,-42364.53,-51786.99,-13793.49,2658.735
1764434739.1615174,20379.195,6687.36,50334.21,-14584.86,-42361.155,-51782.85,-13797.18,2658.735
1764434739.1625276,20379.195,6690.78,50340.195,-14581.08,-42358.365,-51780.915,-13789.845,2661.795
1764434739.1625276,20377.485,6694.965,50346.99,-14576.445,-42356.07,-51778.62,-13775.265,2667.105
1764434739.1625276,20374.245,6700.094999999999,50355.63,-14570.145,-42353.865,-51777.945,-13755.87,2674.035
1764434739.1625276,20364.255,6697.17,50355.765,-14572.53,-42359.04,-51785.955,-13743.675,2673.0
1764434739.1625276,20361.645,6696.585,50355.54,-14574.015,-42360.66,-51787.89,-13737.645,2674.44
1764434739.1625276,20367.72,6699.06,50356.35,-14572.98,-42358.455,-51784.965,-13739.535,2677.545
1764434739.1625276,20371.86,6696.045,50350.995,-14576.625,-42359.04,-51784.515,-13751.865,2674.935
1764434739.1625276,20373.885,6689.384999999999,50342.265,-14582.295,-42362.19,-51784.695,-13771.035,2668.185
1764434739.2028282,20380.455,6688.44,50339.025,-14582.655,-42360.12,-51780.555,-13786.245,2664.81
1764434739.2028282,20384.055,6689.88,50340.825,-14580.36,-42357.33,-51776.73,-13790.07,2665.08
1764434739.2038455,20386.485,6696.179999999999,50348.61,-14572.44,-42350.985,-51771.69,-13779.63,2670.66
1764434739.2038455,20384.91,6701.4,50356.395,-14567.49,-42347.205,-51769.89,-13764.51,2676.24
1764434739.2038455,20379.6,6705.09,50363.01,-14564.295,-42346.305,-51771.465,-13747.365,2680.74
1764434739.2038455,20372.31,6706.035,50366.07,-14563.575,-42349.275,-51776.325,-13731.93,2683.71
1764434739.2038455,20370.6,6705.0,50365.44,-14564.97,-42351.57,-51778.98,-13727.295,2684.475
1764434739.2038455,20371.23,6701.67,50360.535,-14568.75,-42353.685,-51780.285,-13734.765,2682.18
1764434739.2038455,20374.11,6698.16,50354.415,-14571.63,-42354.675,-51780.375,-13747.68,2678.985
1764434739.2038455,20382.39,6698.835,50351.13,-14571.405,-42351.435,-51775.47,-13761.855,2678.49
1764434739.2038455,20387.745,6695.955,50345.865,-14573.88,-42350.895,-51772.14,-13778.685,2672.865
1764434739.204857,20392.605,6698.88,50350.23,-14568.93,-42345.63,-51766.38,-13780.17,2674.89
1764434739.204857,20388.645,6699.375,50352.48,-14567.355,-42345.675,-51767.235,-13775.49,2675.205
1764434739.204857,20389.32,6706.575,50362.155,-14560.695,-42340.545,-51763.05,-13758.255,2683.035
1764434739.204857,20383.29,6709.86,50368.41,-14557.68,-42341.13,-51765.345,-13741.605,2686.725
1764434739.204857,20373.57,6707.16,50367.555,-14560.695,-42347.925,-51772.815,-13730.85,2686.23
1764434739.204857,20373.12,6708.105,50367.735,-14560.02,-42347.385,-51772.86,-13724.955,2689.245
1764434739.204857,20379.285,6710.04,50367.33,-14559.075,-42344.1,-51769.98,-13726.665,2691.945
1764434739.204857,20383.245,6706.035,50360.355,-14564.115,-42345.72,-51769.98,-13740.615,2687.67
1764434739.204857,20389.545,6704.19,50355.36,-14565.87,-42345.765,-51767.145,-13756.59,2684.205
1764434739.204857,20398.545,6705.36,50354.685,-14564.16,-42341.04,-51760.53,-13769.325,2683.305
1764434739.204857,20398.23,6703.605,50353.155,-14564.565,-42341.4,-51759.765,-13776.48,2679.48
1764434739.2529466,20395.53,6705.224999999999,50357.25,-14561.685,-42339.69,-51759.27,-13769.865,2680.83
1764434739.2529466,20396.34,6712.605,50367.33,-14554.215,-42334.11,-51754.995,-13752.405,2688.615
1764434739.2529466,20390.76,6714.99,50373.585,-14551.065,-42334.245,-51757.065,-13735.08,2693.07
1764434739.2529466,20382.345,6713.325,50374.485,-14552.37,-42338.745,-51763.455,-13722.75,2693.475
1764434739.2529466,20382.57,6714.45,50375.745,-14552.37,-42338.7,-51763.995,-13716.45,2697.21
1764434739.2529466,20382.57,6710.849999999999,50369.895,-14556.6,-42341.13,-51766.2,-13723.92,2693.79
1764434739.2539508,20391.345,6712.425,50368.995,-14555.88,-42337.665,-51761.565,-13732.29,2694.69
1764434739.2539508,20398.185,6710.895,50363.91,-14558.13,-42337.125,-51758.595,-13748.985,2691.855
1764434739.2539508,20403.945,6708.645,50359.68,-14559.66,-42335.73,-51755.715,-13765.005,2687.985
1764434739.2539508,20403.45,6706.844999999999,50358.15,-14560.74,-42335.82,-51755.445,-13771.215,2684.205
1764434739.2539508,20401.605,6709.95,50362.875,-14556.87,-42333.795,-51753.15,-13763.745,2686.41
1764434739.2539508,20399.58,6715.259999999999,50371.245,-14551.47,-42330.195,-51751.35,-13748.58,2691.99
1764434739.2539508,20399.76,6723.27,50382.585,-14542.785,-42324.93,-51749.01,-13726.44,2701.62
1764434739.2539508,20392.56,6722.91,50385.06,-14542.785,-42327.945,-51753.735,-13712.265,2704.23
1764434739.2539508,20391.12,6722.91,50384.385,-14544.27,-42330.285,-51756.03,-13707.945,2705.22
1764434739.2539508,20392.965,6720.84,50380.11,-14547.555,-42331.365,-51757.065,-13714.92,2703.555
1764434739.2539508,20396.52,6718.185,50374.53,-14550.705,-42331.59,-51756.3,-13728.15,2700.72
1764434739.2539508,20400.03,6712.965,50367.06,-14555.835,-42333.03,-51756.57,-13747.455,2694.33
1764434739.2539508,20409.21,6714.81,50366.43,-14553.495,-42327.945,-51748.83,-13759.245,2694.285
1764434739.2539508,20412.855,6716.205,50369.31,-14550.255,-42324.12,-51744.465,-13761.72,2695.05
1764434739.2539508,20409.75,6717.87,50372.505,-14548.32,-42323.85,-51744.6,-13755.42,2695.725
1764434739.2539508,20409.705,6725.655,50381.91,-14540.58,-42319.26,-51741.315,-13739.04,2703.285
1764434739.2539508,20404.17,6727.86,50387.445,-14538.285,-42320.07,-51743.925,-13722.03,2707.11
1764434739.2539508,20394.855,6725.655,50387.895,-14540.805,-42324.345,-51750.405,-13709.205,2707.695
1764434739.2996511,20395.26,6727.365,50389.29,-14540.4,-42323.58,-51750.27,-13702.725,2711.295
1764434739.2996511,20394.855,6722.73,50382.495,-14545.26,-42327.765,-51753.195,-13711.905,2707.83
1764434739.2996511,20400.12,6721.02,50378.4,-14547.465,-42327.675,-51751.485,-13723.515,2705.58
1764434739.2996511,20408.805,6722.009999999999,50375.97,-14547.195,-42324.12,-51745.185,-13736.745,2704.86
1764434739.2996511,20415.78,6722.009999999999,50373.63,-14546.34,-42321.465,-51740.865,-13751.595,2702.16
1764434739.2996511,20418.12,6723.585,50375.385,-14544.45,-42319.305,-51738.03,-13754.97,2701.17
1764434739.2996511,20416.59,6725.969999999999,50379.795,-14541.12,-42317.01,-51737.355,-13747.995,2703.285
1764434739.2996511,20413.215,6729.66,50385.24,-14537.07,-42315.165,-51737.265,-13734.27,2708.145
1764434739.2996511,20408.805,6734.295,50392.71,-14533.245,-42314.625,-51737.58,-13716.18,2713.41
1764434739.2996511,20400.345,6732.63,50392.98,-14534.73,-42319.26,-51744.105,-13704.12,2713.275
1764434739.2996511,20400.03,6733.575,50393.97,-14534.955,-42319.17,-51744.735,-13698.63,2715.93
1764434739.2996511,20399.985,6729.705,50387.895,-14540.58,-42322.995,-51746.76,-13707.765,2712.06
1764434739.2996511,20406.915,6730.065,50384.88,-14540.085,-42321.105,-51743.88,-13717.665,2711.79
