Timestamp,Channel1,Channel2,Channel3,Channel4,Channel5,Channel6,Channel7,Channel8
1764434814.9601824,21448.08,7534.934999999999,51333.66,-13227.795,-41109.66,-50129.865,-11990.07,4109.67
1764434814.9601824,21449.205,7529.4,51326.37,-13233.69,-41111.82,-50130.45,-11999.835,4105.665
1764434814.9612792,21449.655,7523.594999999999,51318.495,-13239.99,-41115.78,-50132.43,-12014.82,4101.974999999999
1764434814.9612792,21446.55,7516.394999999999,51308.73,-13247.91,-41121.63,-50135.04,-12033.765,4092.48
1764434814.9612792,21448.44,7517.16,51309.045,-13246.65,-41120.73,-50132.205,-12038.265,4089.96
1764434814.9612792,21454.155,7522.785,51314.625,-13241.52,-41117.175,-50129.415,-12030.885,4097.655
1764434814.9612792,21451.59,7526.924999999999,51320.835,-13235.49,-41113.98,-50128.29,-12019.905,4099.455
1764434814.9612792,21447.045,7530.299999999999,51328.17,-13230.855,-41112.315,-50129.505,-12006.99,4102.02
1764434814.9612792,21445.2,7539.165,51340.5,-13221.405,-41104.98,-50124.825,-11986.56,4108.005
1764434814.9612792,21441.78,7539.57,51340.32,-13221.63,-41106.15,-50126.67,-11981.835,4105.98
1764434814.9612792,21442.185,7532.415,51331.5,-13229.325,-41113.305,-50132.25,-11991.42,4102.92
1764434814.9612792,21448.125,7527.42,51324.3,-13234.5,-41115.915,-50132.7,-11999.205,4110.03
1764434814.9612792,21450.78,7521.929999999999,51314.13,-13242.465,-41121.855,-50136.39,-12013.29,4110.435
1764434814.9612792,21453.435,7518.465,51306.93,-13247.505,-41124.69,-50137.605,-12030.705,4098.735
1764434814.9612792,21450.15,7513.875,51302.79,-13251.24,-41126.895,-50139.27,-12041.37,4088.43
1764434814.9612792,21449.07,7517.25,51308.325,-13245.84,-41123.115,-50135.85,-12034.98,4090.995
1764434814.9612792,21449.925,7524.719999999999,51318.9,-13237.155,-41118.03,-50131.125,-12020.67,4097.835
1764434814.9612792,21445.47,7528.275,51325.92,-13232.34,-41117.22,-50132.52,-12007.665,4100.535
1764434814.9612792,21445.785,7535.474999999999,51335.955,-13224.465,-41112.18,-50129.64,-11989.44,4108.41
1764434814.9612792,21440.385,7532.144999999999,51333.03,-13227.885,-41116.095,-50134.365,-11986.74,4105.44
1764434814.9612792,21436.785,7530.615,51331.23,-13228.965,-41114.835,-50132.7,-11988.765,4103.055
1764434814.9612792,21433.725,7524.134999999999,51322.725,-13235.445,-41118.48,-50133.78,-12000.015,4098.87
1764434814.9612792,21442.59,7513.965,51308.46,-13249.395,-41129.64,-50141.745,-12018.15,4098.285
1764434814.9612792,21461.13,7518.24,51307.605,-13249.395,-41128.245,-50138.235,-12030.795,4098.96
1764434815.0066755,21457.62,7516.755,51306.3,-13249.26,-41128.02,-50136.885,-12037.545,4092.255
1764434815.0066755,21453.705,7518.509999999999,51310.8,-13245.57,-41125.32,-50134.77,-12031.695,4092.705
1764434815.0066755,21448.98,7520.445,51314.805,-13242.195,-41125.005,-50135.22,-12023.64,4093.11
1764434815.0076995,21447.135,7526.565,51324.795,-13233.33,-41120.91,-50133.69,-12007.26,4099.185
1764434815.0076995,21446.955,7534.53,51335.145,-13224.78,-41116.275,-50131.98,-11989.98,4106.97
1764434815.0076995,21442.365,7530.75,51331.815,-13229.82,-41121.09,-50137.38,-11988.09,4105.349999999999
1764434815.0076995,21445.02,7530.12,51329.295,-13231.665,-41120.865,-50137.29,-11988.855,4107.69
1764434815.0086873,21447.63,7526.295,51324.12,-13235.715,-41122.89,-50137.74,-11998.845,4104.27
1764434815.0086873,21450.375,7520.759999999999,51317.01,-13240.08,-41124.375,-50136.075,-12013.695,4098.465
1764434815.0086873,21453.255,7514.73,51309.225,-13246.02,-41126.715,-50135.265,-12029.445,4092.705
1764434815.0095406,21451.23,7510.41,51304.23,-13251.33,-41131.35,-50139.315,-12038.265,4088.07
1764434815.0095406,21450.6,7515.495,51310.53,-13246.56,-41129.73,-50137.875,-12032.145,4092.12
1764434815.0095406,21453.39,7522.29,51319.485,-13238.1,-41123.52,-50133.69,-12016.935,4100.76
1764434815.0095406,21450.735,7529.13,51329.88,-13229.28,-41118.03,-50130.765,-12000.06,4104.135
1764434815.0095406,21447.495,7534.755,51336.585,-13225.005,-41116.095,-50130.675,-11984.49,4108.455
1764434815.0095406,21439.845,7533.585,51335.235,-13227.39,-41119.245,-50134.455,-11981.655,4103.82
1764434815.0095406,21441.06,7529.759999999999,51329.43,-13231.89,-41123.655,-50136.795,-11986.965,4101.93
1764434815.0095406,21450.105,7525.844999999999,51322.815,-13236.75,-41126.445,-50137.245,-11997.315,4104.99
1764434815.0106914,21455.235,7520.759999999999,51315.12,-13243.095,-41129.64,-50137.965,-12011.895,4103.685
1764434815.0106914,21453.93,7514.955,51308.19,-13247.82,-41131.89,-50137.74,-12027.33,4095.54
1764434815.0106914,21450.87,7511.985,51306.255,-13249.44,-41132.52,-50137.92,-12034.935,4088.97
1764434815.0106914,21452.535,7518.105,51315.255,-13241.655,-41125.23,-50131.665,-12025.845,4092.48
1764434815.0106914,21450.78,7523.009999999999,51322.635,-13235.67,-41120.955,-50130.18,-12013.65,4096.485
1764434815.0106914,21452.085,7527.644999999999,51329.16,-13231.08,-41120.82,-50132.34,-11998.08,4106.115
1764434815.0567706,21450.105,7532.37,51334.56,-13227.39,-41121.405,-50133.6,-11981.655,4114.17
1764434815.0567706,21440.295,7529.309999999999,51332.67,-13230.27,-41125.095,-50138.01,-11980.08,4109.535
1764434815.0567706,21436.875,7525.62,51328.395,-13233.735,-41127.705,-50137.965,-11984.58,4106.16
1764434815.0567706,21441.375,7516.17,51316.02,-13244.715,-41135.805,-50143.815,-12001.005,4098.195
1764434815.0567706,21458.7,7520.219999999999,51314.805,-13244.67,-41132.43,-50138.955,-12012.075,4099.32
1764434815.0567706,21458.16,7515.809999999999,51308.685,-13249.62,-41133.555,-50138.64,-12027.015,4092.795
1764434815.0567706,21457.17,7516.035,51309.63,-13247.55,-41131.62,-50134.68,-12029.265,4092.345
1764434815.0567706,21454.155,7516.035,51310.53,-13246.92,-41134.14,-50137.065,-12027.51,4091.94
1764434815.0567706,21449.295,7520.625,51318.585,-13240.035,-41130.405,-50134.95,-12015.405,4093.695
1764434815.0567706,21449.25,7529.4,51331.635,-13228.65,-41122.125,-50128.785,-11996.505,4099.23
1764434815.0567706,21446.01,7531.38,51335.325,-13225.995,-41122.44,-50131.845,-11982.915,4105.755
1764434815.0567706,21443.31,7525.62,51327.495,-13234.5,-41132.43,-50142.825,-11981.745,4111.29
1764434815.0567706,21439.71,7521.705,51321.6,-13239.54,-41136.165,-50145.48,-11988.72,4103.235
1764434815.0567706,21446.82,7524.179999999999,51320.79,-13238.865,-41134.14,-50140.935,-11995.29,4102.47
1764434815.0567706,21447.585,7515.45,51310.71,-13247.235,-41139.99,-50143.095,-12012.975,4095.765
1764434815.0567706,21451.095,7512.795,51307.065,-13249.395,-41139.045,-50139.855,-12025.44,4092.255
1764434815.0567706,21448.845,7510.41,51305.715,-13250.655,-41140.08,-50140.215,-12032.055,4086.99
1764434815.0567706,21448.665,7514.549999999999,51311.79,-13244.67,-41136.48,-50137.38,-12026.115,4089.195
1764434815.0567706,21451.635,7522.559999999999,51321.51,-13235.31,-41129.82,-50133.51,-12011.175,4096.17
1764434815.0567706,21449.07,7525.755,51326.685,-13232.385,-41130.54,-50136.03,-11997.36,4100.985
1764434815.0567706,21445.245,7531.019999999999,51334.425,-13226.22,-41126.67,-50134.185,-11979.09,4108.275
1764434815.0567706,21439.98,7526.88,51329.655,-13231.215,-41132.88,-50141.34,-11979.18,4105.935
1764434815.0577729,21442.095,7523.684999999999,51323.805,-13236.255,-41136.525,-50144.49,-11986.65,4103.91
1764434815.0577729,21446.46,7519.049999999999,51316.785,-13241.925,-41139.27,-50146.02,-11997.855,4103.19
1764434815.1003566,21450.105,7517.969999999999,51313.635,-13243.59,-41136.93,-50140.935,-12007.845,4099.86
1764434815.100881,21451.635,7514.505,51308.145,-13246.38,-41137.74,-50139.54,-12021.795,4094.595
1764434815.100881,21451.41,7513.065,51306.93,-13246.47,-41138.145,-50138.055,-12026.925,4091.76
1764434815.100881,21449.61,7513.514999999999,51309.45,-13245.57,-41139.225,-50140.125,-12023.55,4091.49
1764434815.100881,21450.735,7521.84,51320.115,-13237.155,-41132.745,-50135.94,-12009.015,4097.7
1764434815.100881,21447.63,7528.23,51328.26,-13230.045,-41129.37,-50134.14,-11992.815,4102.38
1764434815.100881,21437.28,7529.715,51333.525,-13225.23,-41128.38,-50134.815,-11978.595,4103.685
1764434815.100881,21432.645,7524.134999999999,51329.385,-13229.37,-41132.52,-50139.54,-11977.065,4102.425
1764434815.100881,21442.635,7519.905,51319.71,-13238.91,-41140.08,-50146.74,-11985.795,4102.965
1764434815.100881,21452.985,7522.335,51316.38,-13241.88,-41141.655,-50146.695,-11996.775,4102.605
1764434815.100881,21451.455,7517.88,51310.755,-13245.84,-41142.42,-50144.76,-12010.68,4096.53
1764434815.100881,21451.41,7511.759999999999,51303.33,-13250.655,-41144.445,-50144.265,-12024.945,4090.14
1764434815.100881,21453.255,7513.245,51305.355,-13247.64,-41141.205,-50139.54,-12026.61,4090.41
1764434815.100881,21451.23,7516.755,51311.205,-13242.105,-41137.83,-50137.02,-12019.68,4093.11
1764434815.100881,21447.99,7520.985,51317.82,-13236.48,-41136.03,-50136.795,-12007.665,4095.81
1764434815.100881,21448.17,7525.394999999999,51324.345,-13232.79,-41136.075,-50139.765,-11993.94,4098.87
1764434815.100881,21444.57,7527.195,51328.62,-13230.45,-41136.66,-50142.33,-11981.115,4101.57
1764434815.100881,21443.94,7526.745,51327.72,-13231.44,-41138.28,-50143.5,-11976.705,4105.215
1764434815.100881,21443.94,7523.865,51322.77,-13235.175,-41140.53,-50144.49,-11982.96,4103.235
1764434815.100881,21442.185,7516.035,51314.175,-13242.78,-41145.165,-50146.695,-11996.235,4096.125
1764434815.100881,21445.11,7511.715,51307.11,-13247.64,-41147.28,-50146.11,-12010.995,4090.905
1764434815.100881,21447.36,7509.915,51303.015,-13250.43,-41147.505,-50144.4,-12024.225,4086.36
1764434815.1495445,21448.395,7509.42,51301.71,-13251.24,-41148.54,-50144.13,-12026.7,4089.105
1764434815.1495445,21451.545,7514.73,51308.73,-13245.12,-41144.58,-50140.575,-12017.88,4094.055
1764434815.1495445,21444.3,7517.429999999999,51314.895,-13239.63,-41143.005,-50140.125,-12007.935,4091.895
1764434815.1495445,21442.005,7525.62,51326.235,-13230.54,-41137.245,-50136.57,-11989.53,4096.485
1764434815.1495445,21446.73,7534.665,51338.16,-13221.045,-41130.495,-50132.43,-11971.125,4105.935
1764434815.1495445,21447.36,7529.04,51331.23,-13228.245,-41137.605,-50140.395,-11973.42,4107.285
1764434815.1495445,21448.44,7525.08,51324.3,-13234.41,-41142.105,-50143.32,-11980.125,4107.285
1764434815.1495445,21445.155,7516.665,51314.355,-13244.355,-41149.215,-50148.045,-11993.805,4102.11
1764434815.1495445,21444.48,7511.13,51307.875,-13248.495,-41150.43,-50146.38,-12008.745,4093.605
1764434815.1495445,21452.085,7511.04,51305.49,-13248.945,-41147.865,-50140.53,-12019.14,4090.5
1764434815.1495445,21451.995,7508.655,51303.69,-13249.755,-41148.675,-50140.665,-12024.09,4088.655
1764434815.1495445,21451.365,7512.03,51309.585,-13244.985,-41146.38,-50139.99,-12016.125,4094.28
1764434815.1495445,21448.08,7517.88,51317.28,-13239.63,-41144.67,-50140.395,-12004.965,4094.46
1764434815.1495445,21445.695,7529.49,51331.995,-13226.445,-41136.03,-50134.23,-11984.04,4100.085
1764434815.1495445,21436.155,7530.344999999999,51335.955,-13222.845,-41134.635,-50135.085,-11969.865,4103.099999999999
1764434815.1495445,21434.985,7523.009999999999,51326.865,-13231.035,-41144.22,-50144.49,-11971.665,4104.18
1764434815.1495445,21453.21,7526.429999999999,51324.75,-13232.79,-41143.59,-50143.005,-11975.22,4110.21
1764434815.1495445,21456.72,7525.485,51321.555,-13235.175,-41142.78,-50139.045,-11984.535,4105.665
1764434815.1505485,21451.68,7514.865,51308.91,-13245.345,-41149.305,-50142.96,-12002.805,4098.42
1764434815.1505485,21449.295,7511.174999999999,51303.24,-13249.35,-41151.06,-50143.05,-12018.555,4089.06
1764434815.1505485,21453.66,7515.585,51308.145,-13243.905,-41145.57,-50136.48,-12016.575,4091.535
1764434815.1505485,21453.435,7519.005,51314.265,-13238.64,-41143.725,-50135.265,-12010.545,4094.37
1764434815.1930158,21449.97,7520.355,51318.405,-13235.535,-41144.85,-50139.045,-12002.76,4095.9
1764434815.1930158,21448.53,7528.32,51329.295,-13226.535,-41139.18,-50136.255,-11984.31,4103.37
1764434815.1930158,21448.395,7534.485,51336.405,-13221.72,-41136.93,-50135.22,-11968.38,4110.615
1764434815.1930158,21445.245,7530.974999999999,51331.905,-13226.715,-41141.97,-50139.9,-11968.335,4109.535
1764434815.1930158,21442.815,7523.37,51322.77,-13234.77,-41148.45,-50145.84,-11978.73,4103.505
1764434815.1930158,21443.85,7519.86,51316.65,-13238.595,-41150.07,-50145.03,-11989.305,4099.23
1764434815.1930158,21447.315,7514.684999999999,51309.045,-13243.905,-41151.915,-50144.76,-12002.805,4095.99
1764434815.1930158,21455.1,7516.485,51308.955,-13242.375,-41147.82,-50137.695,-12010.995,4095.72
1764434815.1930158,21456.72,7518.105,51311.295,-13240.17,-41145.57,-50135.31,-12013.515,4095.0
1764434815.1930158,21455.505,7520.625,51316.425,-13236.615,-41143.41,-50134.815,-12007.305,4096.08
1764434815.1930158,21455.19,7525.44,51323.445,-13230.27,-41140.395,-50134.365,-11995.38,4101.66
1764434815.1930158,21453.615,7531.469999999999,51331.77,-13223.25,-41137.74,-50134.365,-11978.865,4108.41
1764434815.1930158,21449.115,7536.554999999999,51339.285,-13216.77,-41134.23,-50133.06,-11962.17,4111.425
1764434815.1930158,21444.345,7534.349999999999,51337.485,-13218.615,-41135.4,-50134.59,-11960.055,4107.78
1764434815.1930158,21443.58,7527.509999999999,51329.43,-13225.995,-41140.395,-50138.1,-11970.315,4102.785
1764434815.1930158,21454.785,7524.764999999999,51322.59,-13232.16,-41144.265,-50140.44,-11982.33,4107.69
1764434815.1930158,21456.135,7517.474999999999,51311.7,-13240.935,-41150.115,-50143.185,-11999.7,4104.9
1764434815.1930158,21456.72,7517.474999999999,51310.98,-13239.81,-41145.705,-50136.705,-12007.98,4100.535
1764434815.1930158,21457.17,7518.285,51310.8,-13239.09,-41145.615,-50135.67,-12009.42,4100.4
1764434815.1930158,21453.21,7516.035,51309.45,-13240.35,-41149.935,-50141.745,-12008.88,4096.26
1764434815.194554,21448.26,7524.945,51322.455,-13229.37,-41140.215,-50133.96,-11991.78,4099.365
1764434815.194554,21450.87,7529.985,51329.385,-13224.645,-41139.09,-50135.04,-11976.255,4106.52
1764434815.194554,21459.69,7537.679999999999,51335.775,-13220.28,-41138.19,-50136.75,-11963.205,4113.945
1764434815.194554,21451.77,7534.844999999999,51333.255,-13223.25,-41139.855,-50139.09,-11962.395,4111.38
1764434815.2422383,21445.515,7526.61,51323.715,-13231.62,-41146.065,-50144.445,-11973.015,4105.665
1764434815.2422383,21449.385,7523.505,51319.305,-13233.735,-41146.47,-50142.825,-11982.51,4103.955
1764434815.2422383,21450.06,7515.99,51308.82,-13242.105,-41151.33,-50145.84,-12000.825,4096.44
1764434815.2422383,21451.455,7512.165,51303.465,-13246.065,-41152.455,-50144.94,-12013.92,4090.68
1764434815.2422383,21455.19,7516.035,51308.505,-13241.565,-41146.965,-50140.17,-12012.165,4093.29
1764434815.2422383,21454.11,7519.005,51314.175,-13237.155,-41143.545,-50138.145,-12005.19,4095.72
1764434815.2422383,21452.76,7523.955,51321.555,-13231.08,-41140.305,-50136.12,-11992.95,4099.995
1764434815.2422383,21450.375,7529.445,51330.555,-13223.52,-41137.47,-50135.04,-11975.895,4106.61
1764434815.2422383,21452.13,7534.844999999999,51336.855,-13218.84,-41136.12,-50136.21,-11961.765,4114.935
1764434815.2422383,21447.495,7533.585,51334.695,-13221.315,-41137.695,-50138.505,-11959.605,4112.415
1764434815.2422383,21443.715,7526.295,51325.785,-13229.01,-41143.32,-50143.905,-11970.495,4105.98
1764434815.2422383,21447.765,7523.325,51320.295,-13233.105,-41145.03,-50143.32,-11981.205,4105.62
1764434815.2422383,21455.64,7522.019999999999,51315.255,-13235.985,-41145.12,-50139.9,-11992.815,4105.98
1764434815.2422383,21457.665,7518.195,51309.45,-13239.315,-41146.695,-50138.37,-12005.73,4099.995
1764434815.2422383,21456.81,7518.105,51310.665,-13237.92,-41145.21,-50136.57,-12008.565,4096.98
1764434815.2422383,21452.67,7518.15,51313.68,-13235.49,-41144.895,-50138.28,-12004.02,4096.215
1764434815.2422383,21455.145,7524.179999999999,51322.41,-13229.01,-41141.115,-50135.715,-11989.305,4105.17
1764434815.2422383,21446.91,7529.174999999999,51330.195,-13222.71,-41137.515,-50134.995,-11973.465,4105.215
1764434815.2422383,21444.03,7537.41,51340.005,-13214.295,-41132.295,-50130.855,-11956.545,4109.22
1764434815.2422383,21438.27,7533.134999999999,51335.235,-13219.695,-41137.605,-50135.985,-11957.76,4108.32
1764434815.2422383,21447.9,7528.184999999999,51326.775,-13227.48,-41142.735,-50139.45,-11963.97,4116.735
1764434815.2422383,21457.35,7524.36,51319.98,-13233.24,-41145.615,-50140.17,-11975.49,4114.53
1764434815.2422383,21466.665,7524.945,51317.37,-13235.445,-41145.57,-50137.92,-11991.285,4109.67
1764434815.2422383,21466.8,7522.695,51315.3,-13235.58,-41143.455,-50134.14,-12000.555,4107.195
1764434815.286196,21463.83,7522.155,51316.02,-13234.86,-41142.42,-50132.43,-12002.67,4103.955
1764434815.286196,21459.33,7523.37,51318.855,-13232.115,-41142.915,-50134.815,-11998.215,4103.145
1764434815.286196,21457.305,7528.094999999999,51326.145,-13227.165,-41140.62,-50134.905,-11985.75,4106.07
1764434815.286196,21454.425,7534.889999999999,51336.585,-13219.65,-41136.165,-50132.7,-11966.94,4111.92
1764434815.286196,21456.765,7540.92,51344.235,-13213.035,-41132.295,-50130.315,-11950.695,4119.93
1764434815.286196,21455.55,7538.759999999999,51341.985,-13214.655,-41134.095,-50131.485,-11949.57,4120.29
1764434815.286196,21455.955,7534.304999999999,51335.64,-13219.38,-41137.065,-50133.69,-11957.355,4117.05
1764434815.287194,21456.81,7528.905,51327.18,-13225.815,-41140.53,-50134.455,-11969.64,4111.2
1764434815.287194,21460.23,7523.505,51318.585,-13233.33,-41144.535,-50136.165,-11986.695,4106.16
1764434815.287194,21460.95,7521.929999999999,51315.975,-13234.635,-41144.355,-50134.995,-11997.495,4103.46
1764434815.287194,21461.76,7520.94,51315.255,-13234.635,-41144.715,-50134.185,-11998.53,4104.36
1764434815.287194,21460.545,7525.53,51322.995,-13227.795,-41139.675,-50131.305,-11990.205,4104.0
1764434815.287194,21456.405,7530.389999999999,51330.645,-13221.315,-41135.445,-50129.775,-11978.1,4107.645
1764434815.287194,21456.585,7538.985,51341.76,-13211.595,-41130.45,-50126.715,-11958.21,4118.535
1764434815.287194,21458.16,7542.9,51346.26,-13209.39,-41130.315,-50127.795,-11944.575,4125.105
1764434815.287194,21453.93,7536.15,51336.495,-13218.48,-41139.405,-50137.155,-11950.695,4116.735
1764434815.287194,21455.28,7532.46,51330.15,-13222.89,-41142.375,-50139.045,-11959.29,4113.72
1764434815.287194,21458.61,7528.905,51324.885,-13226.445,-41143.32,-50137.605,-11969.595,4112.19
1764434815.287194,21463.155,7526.07,51319.935,-13229.19,-41142.645,-50134.365,-11981.79,4110.57
1764434815.287194,21464.64,7523.639999999999,51317.595,-13230.09,-41141.565,-50131.53,-11992.635,4106.7
1764434815.287194,21467.475,7525.259999999999,51319.305,-13228.02,-41140.575,-50130.45,-11993.04,4107.15
1764434815.287194,21463.875,7526.384999999999,51323.445,-13225.005,-41139.27,-50130.405,-11986.29,4108.275
1764434815.3304265,21461.58,7529.804999999999,51329.475,-13220.64,-41137.335,-50130.81,-11974.14,4111.065
1764434815.3304265,21457.89,7535.519999999999,51337.08,-13215.465,-41135.4,-50131.395,-11959.065,4115.25
1764434815.3309608,21459.645,7542.99,51345.585,-13207.185,-41130.495,-50128.155,-11942.37,4123.125
1764434815.3309608,21454.65,7540.29,51342.975,-13209.39,-41131.89,-50129.865,-11941.965,4120.695
1764434815.3309608,21441.42,7530.57,51332.76,-13218.93,-41138.595,-50134.815,-11952.945,4110.165
1764434815.3309608,21444.03,7525.17,51324.795,-13226.22,-41142.645,-50136.885,-11966.625,4105.935
1764434815.3309608,21465.045,7525.71,51318.675,-13230.675,-41144.67,-50136.03,-11982.33,4106.925
1764434815.3309608,21477.33,7526.205,51317.37,-13232.43,-41143.995,-50133.24,-11994.255,4107.105
1764434815.3309608,21470.04,7524.0,51318.54,-13230.765,-41142.375,-50131.755,-11994.93,4105.485
1764434815.3309608,21465.36,7524.99,51320.925,-13229.055,-41143.32,-50132.52,-11987.775,4108.545
1764434815.3309608,21462.705,7529.264999999999,51327.81,-13223.655,-41140.35,-50131.935,-11974.32,4112.055
1764434815.3309608,21461.355,7535.384999999999,51336.54,-13216.995,-41138.73,-50132.97,-11956.905,4119.3
1764434815.3309608,21463.11,7545.87,51349.455,-13205.205,-41129.55,-50125.635,-11938.275,4125.465
1764434815.3319752,21461.625,7543.259999999999,51345.855,-13208.49,-41132.655,-50127.885,-11939.175,4124.655
1764434815.3319752,21457.26,7535.429999999999,51334.875,-13217.94,-41139.72,-50134.32,-11951.01,4116.87
1764434815.3319752,21458.43,7530.03,51328.035,-13223.745,-41142.06,-50134.995,-11963.205,4113.045
1764434815.3319752,21463.92,7524.719999999999,51320.61,-13229.1,-41142.78,-50133.105,-11977.65,4109.805
1764434815.3319752,21464.325,7519.184999999999,51312.96,-13235.895,-41147.775,-50135.535,-11993.13,4103.37
1764434815.3319752,21464.595,7521.66,51315.705,-13233.015,-41145.84,-50133.645,-11992.86,4102.92
1764434815.3334856,21465.585,7528.139999999999,51324.795,-13224.96,-41139.765,-50128.245,-11981.79,4108.095
1764434815.3334856,21464.235,7532.235,51331.86,-13219.965,-41137.515,-50127.03,-11969.055,4113.495
1764434815.3334856,21460.05,7537.005,51338.52,-13215.015,-41136.885,-50128.74,-11953.98,4116.735
1764434815.3769703,21460.41,7545.42,51348.78,-13205.7,-41130.045,-50123.79,-11937.465,4122.855
1764434815.3769703,21456.36,7540.335,51343.425,-13210.695,-41134.725,-50128.155,-11940.165,4119.3
1764434815.3769703,21457.8,7536.644999999999,51337.26,-13215.87,-41138.055,-50129.28,-11947.86,4116.51
1764434815.3769703,21463.92,7534.349999999999,51330.96,-13220.91,-41139.9,-50129.235,-11957.49,4119.389999999999
1764434815.3769703,21469.05,7526.79,51321.33,-13229.64,-41144.535,-50131.395,-11974.77,4118.4
1764434815.3769703,21469.275,7525.215,51320.88,-13229.055,-41141.34,-50126.895,-11985.255,4111.695
1764434815.3769703,21467.88,7525.575,51321.42,-13227.705,-41140.44,-50126.895,-11984.805,4112.73
1764434815.3769703,21461.85,7527.42,51324.84,-13225.635,-41141.34,-50128.29,-11978.37,4112.37
1764434815.3769703,21466.26,7536.87,51336.18,-13216.995,-41136.48,-50125.455,-11963.52,4116.51
1764434815.3769703,21463.56,7543.844999999999,51347.07,-13207.275,-41131.44,-50122.935,-11946.33,4118.76
1764434815.3769703,21462.435,7546.679999999999,51350.76,-13204.215,-41130.585,-50123.52,-11934.09,4124.97
1764434815.3769703,21462.525,7542.405,51344.145,-13210.02,-41136.165,-50128.695,-11936.7,4128.12
1764434815.3769703,21463.83,7538.535,51338.295,-13213.845,-41137.92,-50129.415,-11944.89,4126.005
1764434815.3769703,21463.47,7532.054999999999,51329.61,-13221.045,-41142.33,-50131.26,-11957.67,4120.514999999999
1764434815.3769703,21462.39,7523.235,51318.045,-13230.9,-41148.765,-50135.265,-11977.92,4110.84
1764434815.3769703,21460.32,7520.625,51316.65,-13231.26,-41147.055,-50131.44,-11988.18,4104.945
1764434815.3769703,21458.835,7524.809999999999,51322.32,-13225.05,-41142.105,-50125.815,-11984.895,4104.945
1764434815.3769703,21463.38,7524.63,51322.095,-13226.445,-41146.245,-50132.025,-11980.8,4110.12
1764434815.3779826,21474.81,7535.88,51333.93,-13217.22,-41141.115,-50129.055,-11965.68,4118.58
1764434815.3779826,21473.19,7544.429999999999,51346.17,-13206.555,-41134.095,-50123.97,-11944.08,4128.66
1764434815.3779826,21466.485,7544.88,51349.05,-13203.765,-41133.285,-50125.005,-11932.83,4130.595
1764434815.3779826,21460.59,7541.009999999999,51344.82,-13207.32,-41136.885,-50128.605,-11935.08,4125.555
1764434815.3779826,21456.135,7532.099999999999,51334.515,-13216.545,-41143.725,-50134.095,-11947.455,4117.41
1764434815.3779826,21459.42,7527.69,51328.125,-13222.305,-41145.975,-50134.23,-11960.64,4114.71
1764434815.4268534,21465.135,7525.844999999999,51322.95,-13225.23,-41145.345,-50130.72,-11974.275,4112.685
1764434815.4268534,21469.77,7524.719999999999,51320.385,-13227.255,-41145.435,-50129.325,-11983.68,4110.12
1764434815.4268534,21466.17,7523.099999999999,51320.565,-13227.345,-41145.525,-50129.415,-11985.705,4106.52
1764434815.4268534,21469.05,7530.075,51328.8,-13219.245,-41140.08,-50125.23,-11974.86,4112.55
1764434815.4268534,21464.82,7534.665,51334.695,-13215.15,-41138.55,-50126.13,-11962.98,4114.395
1764434815.4268534,21461.58,7539.884999999999,51342.705,-13209.03,-41136.615,-50125.68,-11947.68,4118.58
1764434815.4268534,21460.41,7542.495,51346.665,-13206.42,-41136.255,-50127.165,-11937.195,4122.495
1764434815.4268534,21459.51,7540.11,51344.235,-13209.84,-41138.91,-50131.08,-11937.87,4124.88
1764434815.4268534,21459.555,7532.46,51333.435,-13219.785,-41145.975,-50137.11,-11947.815,4123.26
1764434815.4268534,21464.775,7535.205,51334.92,-13216.815,-41140.26,-50128.83,-11955.555,4120.02
1764434815.4268534,21466.845,7528.545,51326.73,-13222.665,-41143.14,-50128.02,-11972.295,4113.72
1764434815.4268534,21469.32,7527.285,51324.345,-13224.24,-41142.645,-50125.86,-11981.385,4109.985
1764434815.4268534,21468.105,7529.085,51326.82,-13221.36,-41141.025,-50124.105,-11979.405,4109.805
1764434815.4268534,21464.595,7530.795,51330.375,-13219.065,-41141.61,-50125.32,-11972.835,4110.66
1764434815.4268534,21465.765,7537.679999999999,51339.735,-13211.595,-41136.93,-50123.7,-11959.515,4115.52
1764434815.4268534,21472.92,7544.115,51347.97,-13204.8,-41133.78,-50124.15,-11940.615,4131.36
1764434815.4268534,21469.32,7544.745,51350.895,-13203.0,-41134.455,-50126.04,-11930.13,4135.185
1764434815.4268534,21462.48,7541.054999999999,51347.655,-13206.15,-41137.245,-50127.93,-11932.155,4130.235
1764434815.4268534,21452.13,7531.92,51337.845,-13214.43,-41143.23,-50132.07,-11945.295,4118.94
1764434815.4268534,21453.3,7526.474999999999,51330.78,-13219.155,-41144.94,-50131.62,-11956.815,4113.945
1764434815.4268534,21468.645,7524.719999999999,51325.605,-13222.17,-41144.13,-50128.335,-11969.325,4117.95
1764434815.4268534,21477.87,7528.455,51326.37,-13221.225,-41141.565,-50124.465,-11978.595,4117.185
1764434815.4268534,21475.44,7532.37,51329.655,-13217.715,-41139.09,-50121.81,-11974.905,4119.03
1764434815.4268534,21474.315,7533.36,51330.825,-13217.985,-41141.52,-50125.815,-11970.675,4116.599999999999
1764434815.4715312,21474.315,7539.84,51341.22,-13207.86,-41133.78,-50120.46,-11953.8,4123.395
1764434815.4715312,21471.57,7545.644999999999,51351.435,-13199.49,-41128.38,-50117.94,-11934.855,4130.73
1764434815.4715312,21468.87,7547.309999999999,51354.27,-13198.32,-41129.595,-50120.46,-11925.81,4133.43
1764434815.4715312,21467.16,7544.79,51350.31,-13202.415,-41133.51,-50123.925,-11927.07,4131.315
1764434815.472541,21468.42,7540.155,51342.885,-13209.075,-41139.0,-50126.805,-11937.555,4128.075
1764434815.472541,21465.63,7529.94,51330.24,-13219.02,-41146.92,-50131.935,-11954.385,4122.405
1764434815.472541,21463.56,7521.705,51320.745,-13226.13,-41150.205,-50133.195,-11972.16,4115.115
1764434815.472541,21468.285,7522.019999999999,51320.61,-13226.355,-41148.765,-50130.18,-11980.575,4111.92
1764434815.472541,21469.815,7527.554999999999,51326.91,-13221.18,-41144.04,-50125.32,-11976.84,4111.47
1764434815.472541,21472.785,7535.16,51337.395,-13211.55,-41136.39,-50119.875,-11963.655,4118.4
1764434815.472541,21471.705,7538.67,51342.57,-13207.815,-41136.255,-50121.135,-11949.84,4124.97
1764434815.4735456,21468.915,7544.655,51350.13,-13201.92,-41134.635,-50121.225,-11933.82,4130.19
1764434815.4735456,21466.26,7547.67,51355.08,-13197.15,-41132.385,-50121.09,-11923.695,4130.73
1764434815.4735456,21463.38,7544.429999999999,51351.255,-13200.975,-41134.635,-50123.52,-11926.17,4129.56
1764434815.4735456,21463.695,7538.355,51342.525,-13208.85,-41140.71,-50127.48,-11937.33,4128.075
1764434815.4735456,21466.98,7531.29,51332.31,-13216.95,-41145.93,-50129.55,-11951.325,4124.205
1764434815.4735456,21466.71,7523.505,51321.96,-13224.78,-41150.97,-50130.9,-11970.18,4114.53
1764434815.4735456,21469.455,7524.0,51321.87,-13223.655,-41148.405,-50127.075,-11977.92,4111.875
1764434815.4745398,21473.28,7530.21,51329.205,-13216.815,-41142.33,-50121.495,-11973.33,4115.835
1764434815.4745398,21466.755,7531.38,51332.31,-13214.925,-41142.465,-50122.215,-11965.905,4114.035
1764434815.4745398,21464.37,7537.905,51340.725,-13208.175,-41138.865,-50121.135,-11951.37,4116.69
1764434815.4750495,21466.755,7545.735,51350.535,-13200.525,-41134.005,-50119.155,-11933.01,4125.599999999999
1764434815.4750495,21470.085,7547.985,51353.37,-13198.59,-41133.195,-50119.155,-11921.04,4136.849999999999
1764434815.4750495,21461.625,7544.79,51351.21,-13199.85,-41134.05,-50120.415,-11921.67,4131.764999999999
1764434815.5191765,21462.075,7539.795,51345.09,-13204.62,-41136.93,-50122.215,-11931.48,4124.295
1764434815.5191765,21475.53,7537.23,51336.585,-13212.765,-41142.78,-50126.22,-11945.97,4125.87
1764434815.5191765,21481.38,7530.66,51325.695,-13222.17,-41148.36,-50128.785,-11962.89,4128.3
1764434815.5191765,21479.445,7530.21,51326.505,-13219.965,-41143.95,-50121.81,-11969.28,4122.81
1764434815.5191765,21479.22,7533.36,51331.77,-13215.6,-41140.17,-50118.885,-11966.895,4122.63
1764434815.5191765,21477.375,7538.309999999999,51339.195,-13209.39,-41135.85,-50116.59,-11956.725,4124.474999999999
1764434815.5191765,21473.91,7542.269999999999,51345.27,-13203.72,-41134.14,-50115.69,-11943.99,4127.58
1764434815.5191765,21468.33,7545.509999999999,51350.76,-13200.21,-41134.32,-50118.3,-11929.005,4131.18
1764434815.5191765,21469.095,7551.719999999999,51357.69,-13194.225,-41129.91,-50116.5,-11915.28,4137.885
1764434815.5191765,21467.88,7549.155,51354.36,-13197.24,-41132.61,-50119.29,-11917.71,4136.22
1764434815.5191765,21465.855,7540.155,51344.055,-13205.655,-41139.09,-50123.07,-11931.165,4127.355
1764434815.5191765,21470.4,7534.62,51338.07,-13209.75,-41140.845,-50122.26,-11944.395,4121.505
1764434815.520428,21472.335,7527.644999999999,51327.18,-13218.885,-41146.74,-50125.455,-11962.755,4117.455
1764434815.520428,21475.44,7529.804999999999,51325.29,-13221.045,-41147.91,-50124.6,-11970.945,4117.32
1764434815.520428,21478.32,7532.955,51327.99,-13219.11,-41146.515,-50123.52,-11967.525,4120.785
1764434815.520428,21480.12,7538.174999999999,51336.54,-13210.65,-41139.72,-50118.705,-11955.69,4126.86
1764434815.520428,21475.755,7540.875,51342.57,-13205.7,-41137.875,-50118.84,-11944.305,4128.615
1764434815.520428,21475.71,7550.82,51356.025,-13194.54,-41130.765,-50114.7,-11923.245,4136.535
1764434815.520428,21472.245,7552.304999999999,51359.085,-13192.965,-41130.405,-50116.14,-11914.47,4138.47
1764434815.520428,21468.51,7546.455,51351.345,-13199.94,-41136.705,-50121.81,-11920.32,4135.365
1764434815.520428,21470.76,7543.71,51346.71,-13203.54,-41138.19,-50121.09,-11927.88,4133.205
1764434815.520428,21469.185,7534.934999999999,51336.27,-13212.495,-41143.995,-50124.96,-11944.395,4125.735
1764434815.520428,21470.895,7528.769999999999,51327.63,-13219.155,-41145.93,-50125.725,-11961.72,4119.03
1764434815.5219364,21473.955,7528.32,51326.91,-13218.75,-41144.4,-50122.215,-11968.425,4116.87
1764434815.5655062,21475.26,7535.61,51336.27,-13209.615,-41137.65,-50114.745,-11960.685,4119.345
1764434815.5655062,21474.36,7540.785,51342.93,-13203.855,-41134.86,-50113.305,-11950.92,4121.82
1764434815.5665238,21474.045,7542.63,51346.89,-13202.595,-41136.885,-50117.355,-11941.785,4126.139999999999
1764434815.5665238,21479.76,7550.054999999999,51355.8,-13194.99,-41133.69,-50115.825,-11922.705,4139.73
1764434815.5665238,21476.205,7551.585,51358.23,-13193.73,-41133.78,-50116.365,-11912.76,4141.889999999999
1764434815.5675209,21471.03,7548.974999999999,51355.89,-13196.52,-41135.355,-50118.39,-11916.225,4137.795
1764434815.5675209,21469.095,7542.674999999999,51348.195,-13202.955,-41139.225,-50120.955,-11926.35,4131.81
1764434815.5675209,21469.77,7534.485,51337.755,-13211.145,-41145.48,-50123.835,-11942.055,4126.095
1764434815.5675209,21475.305,7530.344999999999,51330.915,-13216.59,-41147.55,-50122.305,-11957.445,4124.295
1764434815.5675209,21473.415,7525.125,51324.57,-13222.44,-41151.285,-50125.095,-11969.19,4117.635
1764434815.5675209,21472.92,7529.085,51329.34,-13217.355,-41147.505,-50121.99,-11965.455,4117.275
1764434815.5675209,21472.425,7534.08,51336.18,-13211.595,-41143.95,-50120.145,-11955.24,4121.73
1764434815.5675209,21472.695,7541.144999999999,51346.395,-13203.54,-41139.405,-50118.3,-11939.94,4127.58
1764434815.5675209,21474.675,7551.719999999999,51358.5,-13193.145,-41132.835,-50113.53,-11918.025,4138.155
1764434815.5675209,21472.605,7552.98,51360.03,-13191.975,-41133.51,-50114.7,-11909.97,4139.19
1764434815.5690322,21467.34,7546.049999999999,51352.74,-13198.14,-41138.595,-50119.83,-11916.585,4133.43
1764434815.5690322,21465.54,7543.259999999999,51348.87,-13201.29,-41138.955,-50119.065,-11923.29,4133.34
1764434815.5690322,21464.415,7536.915,51340.41,-13207.59,-41142.195,-50119.29,-11934.99,4130.46
1764434815.5690322,21474.945,7532.865,51332.265,-13213.125,-41145.12,-50119.065,-11951.91,4125.555
1764434815.5690322,21487.05,7538.67,51335.685,-13209.795,-41140.395,-50114.43,-11959.605,4121.099999999999
1764434815.6113029,21481.155,7536.599999999999,51335.955,-13209.93,-41139.765,-50114.52,-11959.245,4119.705
1764434815.6113029,21480.165,7538.67,51339.735,-13207.32,-41140.44,-50115.105,-11947.995,4130.595
1764434815.6113029,21477.51,7541.865,51343.92,-13205.61,-41143.05,-50119.515,-11937.645,4133.61
1764434815.6113029,21474.405,7550.684999999999,51356.115,-13195.08,-41136.66,-50115.645,-11918.565,4137.255
1764434815.6113029,21473.28,7553.61,51360.525,-13190.895,-41133.78,-50114.16,-11907.405,4141.215
1764434815.6113029,21468.87,7546.905,51352.11,-13198.905,-41140.845,-50120.19,-11913.57,4135.185
1764434815.6113029,21468.645,7541.28,51344.865,-13205.115,-41144.4,-50122.53,-11924.82,4129.785
1764434815.6113029,21471.03,7536.285,51338.25,-13209.345,-41145.795,-50121.72,-11936.97,4126.139999999999
1764434815.6113029,21475.35,7531.38,51330.51,-13214.745,-41148.315,-50121.09,-11952.27,4122.99
1764434815.6113029,21481.335,7535.745,51333.57,-13211.865,-41143.77,-50115.555,-11955.915,4124.25
1764434815.6113029,21481.38,7540.11,51338.97,-13206.24,-41140.08,-50112.27,-11951.865,4125.87
1764434815.6113029,21478.68,7542.674999999999,51343.965,-13201.065,-41138.145,-50111.82,-11942.415,4129.83
1764434815.6113029,21476.61,7546.275,51349.5,-13197.015,-41137.56,-50112.54,-11930.895,4131.855
1764434815.6113029,21476.61,7552.304999999999,51356.97,-13191.48,-41136.39,-50113.935,-11915.595,4135.545
1764434815.6113029,21471.255,7552.755,51359.445,-13189.815,-41135.94,-50115.645,-11907.315,4136.805
1764434815.6113029,21463.29,7545.915,51352.065,-13197.285,-41142.015,-50120.595,-11913.075,4129.65
1764434815.6113029,21465.585,7541.009999999999,51345.18,-13202.955,-41146.065,-50122.08,-11923.47,4125.87
1764434815.6113029,21476.205,7538.535,51339.285,-13207.05,-41147.145,-50120.865,-11935.665,4130.82
1764434815.6113029,21479.76,7533.45,51331.635,-13213.125,-41148.945,-50120.55,-11951.325,4126.5
1764434815.6113029,21479.13,7531.38,51328.485,-13214.79,-41149.26,-50119.11,-11958.165,4122.855
1764434815.6113029,21479.58,7533.405,51331.815,-13212.09,-41147.055,-50117.49,-11954.97,4123.845
1764434815.6113029,21476.385,7536.915,51337.53,-13207.005,-41145.03,-50116.815,-11946.78,4124.025
1764434815.61281,21475.215,7544.835,51347.97,-13198.365,-41139.72,-50113.89,-11930.13,4129.74
1764434815.61281,21473.28,7550.054999999999,51356.385,-13192.47,-41137.965,-50114.97,-11913.165,4136.849999999999
1764434815.655954,21473.685,7552.934999999999,51360.435,-13189.455,-41136.12,-50114.745,-11904.255,4141.26
1764434815.655954,21473.775,7548.615,51355.26,-13194.45,-41139.09,-50116.68,-11907.855,4140.585
1764434815.655954,21474.315,7543.304999999999,51346.98,-13201.38,-41143.995,-50119.245,-11918.925,4136.4
1764434815.655954,21470.58,7537.455,51337.845,-13208.94,-41148.27,-50121.045,-11934.72,4125.42
1764434815.655954,21476.07,7535.295,51333.255,-13211.01,-41146.965,-50117.895,-11947.185,4123.62
1764434815.655954,21478.59,7533.224999999999,51331.32,-13212.63,-41147.595,-50116.365,-11955.15,4121.73
1764434815.655954,21478.95,7534.755,51335.64,-13208.94,-41146.065,-50114.52,-11952.0,4122.945
1764434815.655954,21478.41,7539.929999999999,51342.48,-13203.27,-41143.59,-50113.395,-11941.74,4126.77
1764434815.657521,21474.18,7543.215,51347.97,-13200.12,-41143.32,-50115.87,-11930.13,4128.795
1764434815.657521,21477.42,7554.42,51361.335,-13188.6,-41135.895,-50111.64,-11909.52,4140.045
1764434815.657521,21475.26,7555.184999999999,51362.28,-13187.97,-41136.93,-50113.17,-11900.88,4142.07
1764434815.657521,21472.2,7549.514999999999,51355.71,-13194.585,-41143.23,-50118.435,-11908.305,4137.435
1764434815.657521,21475.26,7546.634999999999,51350.625,-13198.23,-41144.355,-50117.04,-11916.63,4136.49
1764434815.657521,21475.215,7539.66,51341.085,-13205.205,-41148.54,-50118.84,-11931.705,4130.19
1764434815.657521,21480.93,7536.509999999999,51335.775,-13208.805,-41148.09,-50116.86,-11945.07,4127.849999999999
1764434815.657521,21482.955,7535.07,51334.38,-13209.57,-41147.505,-50114.835,-11952.63,4125.78
1764434815.657521,21482.01,7536.375,51337.305,-13207.05,-41146.29,-50113.845,-11950.065,4126.095
1764434815.657521,21480.435,7541.144999999999,51344.235,-13201.425,-41143.32,-50113.08,-11938.995,4129.335
1764434815.657521,21475.755,7544.16,51349.41,-13197.51,-41142.825,-50115.6,-11927.745,4130.145
1764434815.657521,21474.855,7550.144999999999,51357.87,-13190.58,-41139.72,-50114.835,-11910.87,4136.264999999999
1764434815.657521,21474.405,7553.16,51360.66,-13188.78,-41139.09,-50115.24,-11901.105,4141.53
1764434815.657521,21468.33,7544.655,51351.075,-13198.86,-41147.28,-50122.89,-11909.655,4136.58
1764434815.657521,21472.785,7543.17,51348.465,-13199.715,-41146.155,-50119.335,-11917.035,4135.32
1764434815.657521,21475.71,7538.355,51340.68,-13204.665,-41149.08,-50119.515,-11930.895,4129.92
1764434815.705948,21478.905,7533.134999999999,51333.66,-13209.795,-41150.835,-50119.245,-11945.79,4124.835
1764434815.70696,21479.985,7531.65,51331.905,-13210.335,-41150.79,-50118.21,-11953.755,4122.36
1764434815.70696,21476.655,7530.795,51332.445,-13210.02,-41151.87,-50119.74,-11953.44,4120.245
1764434815.70696,21477.87,7537.995,51341.355,-13202.1,-41146.605,-50115.105,-11940.39,4125.195
1764434815.70696,21473.775,7541.549999999999,51347.07,-13198.545,-41146.155,-50116.59,-11928.33,4127.22
1764434815.707584,21473.145,7549.514999999999,51356.7,-13191.165,-41142.87,-50115.555,-11911.185,4135.41
1764434815.707584,21473.91,7552.304999999999,51360.93,-13187.7,-41141.25,-50114.655,-11901.33,4140.585
1764434815.707584,21471.48,7546.545,51354.405,-13192.92,-41144.85,-50116.815,-11906.055,4137.57
1764434815.7079637,21471.795,7539.75,51345.315,-13200.075,-41149.62,-50119.785,-11917.44,4133.61
1764434815.7079637,21478.905,7538.759999999999,51341.22,-13203.45,-41150.52,-50119.2,-11929.59,4133.07
1764434815.7079637,21479.985,7535.295,51335.82,-13207.23,-41150.88,-50117.04,-11944.305,4125.105
1764434815.7079637,21479.76,7532.73,51333.435,-13209.345,-41151.735,-50116.14,-11952.315,4121.46
1764434815.7079637,21476.745,7531.83,51334.29,-13209.66,-41152.455,-50117.265,-11952.63,4119.66
1764434815.7079637,21479.49,7540.424999999999,51344.685,-13199.895,-41145.885,-50112.855,-11938.455,4126.455
1764434815.7079637,21478.23,7545.509999999999,51351.93,-13193.415,-41142.915,-50112.27,-11922.48,4133.835
1764434815.7079637,21472.2,7547.535,51356.655,-13190.265,-41142.78,-50114.61,-11909.025,4137.525
1764434815.7089565,21474.405,7551.674999999999,51360.48,-13188.465,-41141.295,-50114.115,-11899.62,4141.62
1764434815.7089565,21473.145,7545.33,51352.47,-13196.07,-41147.55,-50120.505,-11907.99,4133.97
1764434815.7089565,21476.835,7543.304999999999,51349.905,-13197.645,-41146.965,-50117.94,-11914.47,4135.365
1764434815.7089565,21476.97,7536.059999999999,51340.995,-13204.305,-41151.33,-50119.47,-11929.95,4129.56
1764434815.7089565,21475.575,7527.96,51330.285,-13212.81,-41156.865,-50121.495,-11948.94,4120.92
1764434815.7089565,21481.2,7532.009999999999,51334.02,-13208.94,-41151.915,-50116.14,-11951.145,4123.349999999999
1764434815.7089565,21482.82,7536.105,51338.61,-13204.44,-41148.315,-50113.215,-11945.97,4126.68
1764434815.7089565,21481.155,7540.38,51344.595,-13199.13,-41145.84,-50111.685,-11935.53,4130.055
1764434815.7534068,21478.815,7545.735,51352.83,-13192.605,-41142.96,-50111.595,-11920.635,4134.96
1764434815.7534068,21474.81,7548.48,51358.005,-13189.14,-41143.545,-50114.43,-11906.82,4139.055
1764434815.7534068,21476.205,7552.259999999999,51362.37,-13186.08,-41142.015,-50113.71,-11897.73,4144.41
1764434815.7534068,21472.695,7546.86,51356.115,-13192.47,-41146.965,-50118.435,-11904.57,4139.639999999999
1764434815.7534068,21477.015,7545.285,51352.695,-13194.54,-41146.2,-50116.32,-11911.815,4139.415
1764434815.7534068,21480.435,7540.83,51345.36,-13199.805,-41148.495,-50115.555,-11925.36,4135.635
1764434815.7534068,21480.66,7534.035,51335.775,-13207.68,-41152.005,-50116.725,-11942.505,4127.715
1764434815.7534068,21482.325,7533.585,51334.83,-13207.905,-41151.915,-50114.835,-11947.815,4125.105
1764434815.7534068,21483.27,7537.049999999999,51340.635,-13203.045,-41148.99,-50112.405,-11942.82,4127.625
1764434815.7534068,21483.63,7543.08,51349.005,-13195.71,-41144.58,-50110.245,-11930.4,4132.889999999999
1764434815.7534068,21482.55,7548.57,51357.42,-13189.095,-41140.935,-50108.67,-11914.335,4138.514999999999
1764434815.7534068,21483.27,7556.894999999999,51368.085,-13180.5,-41134.905,-50105.97,-11895.39,4146.75
1764434815.7534068,21483.225,7559.28,51370.245,-13178.43,-41134.995,-50107.32,-11888.505,4149.945
1764434815.7534068,21481.74,7554.644999999999,51364.44,-13183.965,-41139.225,-50110.02,-11893.095,4148.325
1764434815.7534068,21479.31,7547.085,51353.235,-13192.965,-41145.525,-50114.115,-11907.405,4141.035
1764434815.7534068,21480.795,7541.505,51345.63,-13198.995,-41148.45,-50114.565,-11922.39,4135.905
1764434815.7544222,21485.565,7538.085,51339.735,-13202.415,-41149.53,-50113.08,-11936.295,4132.035
1764434815.7544222,21487.77,7537.769999999999,51340.005,-13202.1,-41149.035,-50111.19,-11942.19,4129.605
1764434815.7544222,21485.385,7538.67,51341.895,-13200.615,-41148.27,-50111.055,-11938.995,4129.83
1764434815.7544222,21484.575,7544.519999999999,51349.5,-13193.73,-41144.895,-50108.265,-11926.62,4134.33
1764434815.7544222,21486.375,7553.565,51360.93,-13183.74,-41139.135,-50104.845,-11908.395,4142.61
1764434815.7544222,21484.17,7558.335,51368.445,-13178.07,-41137.38,-50106.105,-11892.96,4148.099999999999
1764434815.7544222,21482.865,7559.865,51370.335,-13177.215,-41137.92,-50107.455,-11885.625,4151.16
1764434815.7544222,21481.47,7555.005,51364.98,-13181.94,-41141.025,-50109.165,-11890.89,4148.955
1764434815.796944,21481.425,7549.92,51356.52,-13188.6,-41145.12,-50110.92,-11902.005,4144.185
1764434815.796944,21479.985,7540.65,51344.46,-13199.175,-41151.42,-50114.385,-11919.645,4135.545
1764434815.796944,21482.685,7535.07,51337.395,-13205.115,-41153.895,-50114.655,-11936.205,4129.83
1764434815.796944,21486.375,7537.005,51339.645,-13202.64,-41150.745,-50110.56,-11939.85,4130.01
1764434815.796944,21489.03,7542.945,51347.25,-13195.89,-41145.39,-50106.06,-11931.93,4134.825
1764434815.796944,21486.825,7546.23,51352.245,-13191.615,-41144.31,-50105.88,-11921.94,4137.615
1764434815.796944,21480.885,7547.264999999999,51356.16,-13189.095,-41145.885,-50109.525,-11910.555,4137.66
1764434815.796944,21478.905,7552.934999999999,51364.845,-13182.705,-41143.095,-50108.94,-11894.04,4143.42
1764434815.796944,21481.92,7557.705,51368.895,-13178.745,-41139.54,-50107.23,-11884.725,4149.135
1764434815.796944,21480.66,7552.62,51362.775,-13184.235,-41143.77,-50111.19,-11890.845,4146.525
1764434815.796944,21478.95,7544.835,51353.37,-13192.11,-41149.395,-50114.295,-11902.905,4140.495
1764434815.796944,21481.2,7540.019999999999,51345.27,-13197.915,-41152.545,-50114.25,-11917.71,4135.005
1764434815.796944,21483.405,7535.79,51338.295,-13202.865,-41154.48,-50113.53,-11933.145,4130.46
1764434815.796944,21487.14,7537.634999999999,51339.69,-13200.57,-41151.42,-50109.84,-11936.61,4131.495
1764434815.796944,21490.11,7543.485,51347.475,-13193.415,-41146.515,-50105.655,-11929.095,4135.275
1764434815.796944,21486.555,7546.094999999999,51351.93,-13189.68,-41145.615,-50106.78,-11920.14,4136.22
1764434815.796944,21484.26,7552.53,51361.47,-13182.03,-41141.88,-50104.89,-11903.85,4143.645
1764434815.796944,21486.42,7562.835,51373.71,-13171.14,-41134.68,-50099.805,-11883.24,4155.03
1764434815.796944,21487.68,7566.03,51376.455,-13169.655,-41133.105,-50099.22,-11875.455,4158.315
1764434815.798488,21487.455,7559.37,51367.23,-13177.98,-41140.215,-50104.845,-11883.96,4151.565
1764434815.798488,21483.63,7549.875,51355.575,-13187.925,-41147.82,-50110.92,-11899.035,4145.445
1764434815.798488,21486.105,7544.969999999999,51348.555,-13192.425,-41149.485,-50110.425,-11913.165,4140.9
1764434815.8455572,21490.02,7540.38,51343.92,-13196.205,-41149.89,-50108.04,-11927.07,4136.849999999999
1764434815.8455572,21495.33,7544.205,51347.34,-13192.245,-41145.255,-50101.83,-11928.645,4139.37
1764434815.8455572,21494.07,7547.94,51352.2,-13187.97,-41142.96,-50101.2,-11923.695,4139.46
1764434815.8455572,21494.115,7552.844999999999,51359.715,-13181.94,-41139.405,-50099.805,-11912.49,4144.095
1764434815.8455572,21490.92,7557.929999999999,51366.915,-13176.54,-41137.92,-50100.255,-11898.45,4148.685
1764434815.8455572,21485.43,7559.235,51370.56,-13174.875,-41139.495,-50104.665,-11884.95,4150.8
1764434815.8455572,21487.14,7561.98,51374.115,-13172.13,-41137.695,-50103.54,-11876.49,4155.93
1764434815.8455572,21487.185,7558.92,51369.795,-13176.27,-41139.945,-50105.16,-11882.43,4154.445
1764434815.8455572,21487.68,7553.25,51361.38,-13182.795,-41142.645,-50106.105,-11893.23,4149.9
1764434815.8455572,21487.23,7544.969999999999,51351.165,-13191.12,-41147.64,-50108.085,-11910.105,4142.88
1764434815.8455572,21491.865,7542.585,51346.395,-13193.73,-41147.37,-50104.305,-11922.525,4139.865
1764434815.8455572,21494.16,7543.125,51347.295,-13192.83,-41145.57,-50101.83,-11927.52,4138.47
1764434815.8455572,21491.775,7545.059999999999,51350.805,-13190.4,-41145.795,-50102.685,-11924.19,4138.29
1764434815.8455572,21494.07,7553.205,51361.245,-13181.22,-41139.315,-50098.275,-11909.385,4145.625
1764434815.8455572,21492.135,7558.559999999999,51369.255,-13175.01,-41137.02,-50098.185,-11894.22,4151.474999999999
1764434815.8455572,21488.445,7562.34,51375.15,-13171.14,-41136.12,-50099.85,-11880.225,4155.48
1764434815.8455572,21489.93,7564.995,51377.85,-13168.665,-41134.77,-50098.14,-11872.17,4159.98
1764434815.8455572,21491.1,7562.205,51373.035,-13172.715,-41136.93,-50098.68,-11877.165,4159.305
1764434815.8455572,21491.73,7557.299999999999,51366.015,-13179.06,-41140.17,-50100.57,-11889.63,4154.22
1764434815.8455572,21491.235,7548.974999999999,51355.89,-13187.79,-41145.075,-50103.72,-11907.27,4146.66
1764434815.8455572,21496.77,7547.894999999999,51352.38,-13189.905,-41143.95,-50099.58,-11918.475,4145.264999999999
1764434815.8455572,21498.255,7548.03,51352.47,-13188.78,-41143.455,-50097.645,-11923.155,4144.095
1764434815.8936746,21494.97,7548.66,51354.81,-13186.53,-41143.59,-50099.04,-11919.6,4143.42
1764434815.8936746,21493.26,7552.53,51360.795,-13181.13,-41141.115,-50099.13,-11908.17,4146.435
1764434815.8936746,21494.385,7561.08,51372.63,-13172.49,-41136.165,-50096.925,-11890.8,4154.355
1764434815.8936746,21490.875,7564.905,51379.11,-13167.45,-41134.995,-50097.915,-11877.255,4158.36
1764434815.8936746,21492.045,7567.695,51381.36,-13165.155,-41132.88,-50096.565,-11869.83,4162.095
1764434815.8936746,21491.37,7562.655,51374.295,-13170.105,-41136.795,-50099.49,-11875.905,4159.035
1764434815.8936746,21489.12,7554.285,51364.395,-13178.745,-41142.195,-50103.54,-11890.755,4151.52
1764434815.8936746,21491.415,7549.38,51357.15,-13184.64,-41144.715,-50103.27,-11906.055,4147.11
1764434815.8936746,21499.605,7548.884999999999,51353.505,-13185.9,-41143.14,-50099.085,-11916.135,4147.38
1764434815.8936746,21501.405,7548.344999999999,51352.38,-13186.35,-41143.86,-50098.815,-11921.13,4146.255
1764434815.8936746,21498.435,7550.28,51356.25,-13183.74,-41142.42,-50098.455,-11917.395,4146.435
1764434815.8936746,21493.98,7552.17,51360.705,-13180.275,-41141.205,-50099.31,-11908.08,4148.055
1764434815.8936746,21492.135,7557.705,51369.705,-13173.705,-41139.18,-50099.49,-11891.565,4153.95
1764434815.8936746,21490.605,7562.745,51377.13,-13168.35,-41137.56,-50099.13,-11876.4,4159.215
1764434815.8936746,21492.63,7566.66,51380.505,-13165.065,-41135.13,-50098.05,-11867.895,4163.76
1764434815.8936746,21490.29,7560.315,51372.27,-13171.95,-41139.765,-50102.235,-11875.95,4159.349999999999
1764434815.8936746,21495.825,7559.684999999999,51370.155,-13173.3,-41138.865,-50098.32,-11882.745,4160.835
1764434815.8936746,21498.165,7555.724999999999,51363.36,-13177.08,-41140.62,-50096.655,-11896.515,4158.27
1764434815.8936746,21497.895,7550.009999999999,51354.765,-13184.19,-41143.77,-50097.825,-11913.705,4150.17
1764434815.8936746,21504.285,7552.304999999999,51356.97,-13182.345,-41141.88,-50094.9,-11916.675,4149.54
1764434815.8936746,21503.97,7554.059999999999,51361.02,-13178.52,-41139.99,-50094.855,-11912.175,4148.46
1764434815.8936746,21503.745,7560.63,51369.795,-13171.5,-41135.67,-50091.975,-11897.82,4155.93
1764434815.8936746,21501.585,7566.705,51378.66,-13164.84,-41132.565,-50090.625,-11881.62,4162.455
1764434815.8936746,21499.425,7571.07,51385.095,-13159.305,-41130.9,-50091.12,-11866.59,4166.91
1764434815.9370122,21498.93,7571.61,51386.13,-13158.63,-41131.215,-50092.245,-11861.865,4168.485
1764434815.9370122,21498.345,7567.155,51379.38,-13164.255,-41134.68,-50094.72,-11868.48,4165.605
1764434815.93754,21497.22,7559.505,51370.065,-13172.535,-41139.72,-50098.41,-11882.385,4159.035
1764434815.93754,21499.29,7553.519999999999,51361.605,-13179.15,-41142.915,-50098.815,-11898.36,4155.21
1764434815.93754,21503.475,7551.315,51356.655,-13182.255,-41142.69,-50096.34,-11911.41,4151.385
1764434815.93754,21507.345,7554.42,51360.12,-13178.295,-41137.605,-50091.165,-11911.545,4153.41
1764434815.93754,21504.555,7555.049999999999,51363.45,-13176.945,-41138.55,-50091.885,-11907.36,4153.23
1764434815.93754,21506.13,7563.599999999999,51374.16,-13167.945,-41132.925,-50088.105,-11893.23,4159.17
1764434815.93754,21504.78,7570.259999999999,51382.485,-13160.835,-41128.38,-50087.115,-11876.4,4164.389999999999
1764434815.93754,21502.98,7574.04,51388.425,-13155.3,-41126.76,-50086.44,-11860.965,4170.33
1764434815.93754,21502.44,7574.355,51388.785,-13155.345,-41127.48,-50087.295,-11856.555,4172.535
1764434815.93754,21501.945,7570.08,51382.755,-13160.97,-41131.35,-50091.03,-11863.71,4169.745
1764434815.93754,21500.1,7562.34,51372.36,-13169.835,-41137.965,-50095.89,-11879.145,4162.455
1764434815.93754,21502.395,7556.985,51365.655,-13174.92,-41139.63,-50094.99,-11893.905,4156.92
1764434815.93754,21505.995,7553.655,51360.975,-13177.98,-41139.495,-50093.1,-11906.28,4153.724999999999
1764434815.93754,21511.035,7557.929999999999,51365.745,-13172.445,-41134.77,-50087.34,-11905.83,4156.785
1764434815.93754,21506.535,7557.525,51367.095,-13171.95,-41136.57,-50089.095,-11903.625,4155.03
1764434815.93754,21503.475,7561.71,51373.35,-13167.045,-41134.365,-50088.195,-11892.465,4158.135
1764434815.93754,21503.565,7568.82,51383.88,-13158.36,-41129.415,-50085.495,-11873.97,4165.695
1764434815.93754,21501.18,7572.554999999999,51389.46,-13154.58,-41128.83,-50087.43,-11860.38,4170.78
1764434815.93754,21505.32,7578.0,51394.14,-13149.9,-41125.635,-50084.595,-11852.415,4176.945
1764434815.93754,21503.97,7572.42,51386.4,-13156.515,-41130.135,-50087.295,-11860.155,4173.03
1764434815.986156,21503.115,7564.95,51375.735,-13165.2,-41135.94,-50090.895,-11873.97,4166.099999999999
1764434815.986156,21509.91,7563.059999999999,51371.775,-13167.54,-41134.905,-50087.61,-11884.77,4163.67
1764434815.986156,21512.25,7558.74,51365.925,-13171.77,-41135.715,-50087.385,-11898.585,4158.405
1764434815.986156,21511.395,7558.29,51365.43,-13171.635,-41135.445,-50086.845,-11903.715,4155.389999999999
1764434815.986156,21506.805,7558.469999999999,51367.23,-13170.285,-41135.985,-50087.97,-11900.565,4154.22
1764434815.986156,21509.595,7568.054999999999,51378.885,-13160.205,-41129.145,-50083.38,-11884.95,4162.005
1764434815.986156,21506.805,7573.049999999999,51386.445,-13154.85,-41127.165,-50084.595,-11869.425,4165.965
1764434815.986156,21504.105,7575.075,51390.315,-13152.555,-41128.245,-50087.88,-11856.78,4170.645
1764434815.986156,21506.985,7577.91,51392.43,-13150.89,-41126.355,-50086.215,-11849.805,4176.585
1764434815.987169,21503.295,7571.655,51385.41,-13157.37,-41130.585,-50089.23,-11857.95,4172.805
1764434815.987169,21504.285,7567.605,51379.02,-13162.005,-41132.295,-50089.23,-11868.705,4169.52
1764434815.987169,21508.92,7563.33,51370.92,-13167.72,-41134.59,-50088.87,-11883.915,4164.66
1764434815.987169,21514.5,7560.674999999999,51365.61,-13171.365,-41136.165,-50088.195,-11897.91,4158.27
1764434815.987169,21514.455,7560.405,51366.69,-13169.79,-41133.87,-50086.08,-11899.98,4157.415
1764434815.987169,21511.755,7561.53,51370.785,-13166.64,-41132.565,-50085.81,-11894.625,4158.99
1764434815.987169,21508.47,7564.184999999999,51375.6,-13163.85,-41132.7,-50087.7,-11885.895,4161.105
1764434815.987169,21509.01,7574.58,51388.695,-13153.23,-41125.725,-50083.38,-11866.5,4167.36
1764434815.987169,21505.095,7579.934999999999,51395.58,-13148.235,-41123.295,-50082.93,-11852.19,4168.889999999999
1764434815.987169,21508.47,7581.87,51396.57,-13147.695,-41123.25,-50082.255,-11844.495,4176.495
1764434815.987169,21509.055,7575.12,51388.155,-13155.48,-41129.82,-50087.205,-11851.74,4179.105
1764434815.987169,21508.245,7568.684999999999,51381.225,-13161.6,-41132.61,-50087.115,-11864.385,4170.15
1764434815.987169,21511.305,7564.049999999999,51374.295,-13166.235,-41133.915,-50085.99,-11878.965,4165.38
1764434815.987169,21516.795,7563.735,51371.37,-13167.54,-41131.665,-50081.535,-11889.36,4164.075
1764434815.987169,21517.83,7563.915,51372.495,-13166.955,-41131.44,-50080.455,-11892.96,4163.13
1764434816.0304575,21514.14,7563.735,51374.745,-13164.975,-41132.115,-50082.345,-11889.18,4162.86
1764434816.0304575,21514.635,7571.07,51384.375,-13157.145,-41126.58,-50078.385,-11874.78,4169.025
1764434816.0304575,21510.54,7575.03,51390.99,-13152.69,-41125.68,-50080.365,-11860.65,4171.995
1764434816.0304575,21505.95,7577.099999999999,51394.86,-13149.99,-41127.03,-50083.92,-11849.13,4174.335
1764434816.0304575,21508.38,7580.969999999999,51399.18,-13146.885,-41123.79,-50081.85,-11842.11,4178.79
1764434816.0304575,21507.39,7575.299999999999,51391.89,-13152.78,-41128.02,-50084.01,-11850.795,4175.28
1764434816.0304575,21512.295,7573.545,51387.345,-13155.885,-41128.155,-50081.895,-11859.48,4175.415
1764434816.031469,21514.23,7568.28,51378.435,-13161.69,-41131.44,-50082.345,-11875.23,4169.88
1764434816.031469,21514.77,7562.474999999999,51370.38,-13167.855,-41134.815,-50083.56,-11890.395,4163.22
1764434816.031469,21519.675,7565.894999999999,51375.105,-13163.22,-41129.685,-50078.61,-11889.36,4165.38
1764434816.031469,21519.495,7570.394999999999,51381.495,-13157.73,-41125.905,-50076.855,-11881.845,4167.63
1764434816.031469,21517.155,7574.849999999999,51387.57,-13152.78,-41123.97,-50076.72,-11870.055,4171.724999999999
1764434816.031469,21513.96,7579.08,51394.77,-13147.47,-41122.26,-50077.17,-11854.26,4176.045
1764434816.031469,21510.135,7581.33,51398.055,-13145.58,-41122.485,-50080.365,-11842.515,4178.52
1764434816.031469,21512.07,7583.085,51399.405,-13143.78,-41121.54,-50079.015,-11836.575,4182.66
1764434816.031469,21511.845,7578.134999999999,51392.61,-13149.63,-41125.635,-50081.13,-11844.315,4179.285
1764434816.031469,21512.61,7572.96,51385.32,-13155.345,-41128.83,-50083.02,-11857.77,4174.38
1764434816.031469,21513.375,7565.49,51375.15,-13163.265,-41133.42,-50084.28,-11875.275,4167.27
1764434816.031469,21518.91,7565.174999999999,51374.205,-13163.13,-41130.63,-50079.285,-11883.825,4167.0
1764434816.031469,21520.98,7566.929999999999,51376.32,-13160.655,-41128.245,-50077.44,-11885.76,4167.675
1764434816.031469,21519.45,7568.91,51379.92,-13158.18,-41127.885,-50078.565,-11880.99,4167.0
1764434816.031469,21514.995,7571.519999999999,51384.735,-13154.67,-41127.525,-50079.825,-11871.045,4168.305
1764434816.074058,21515.58,7580.16,51396.21,-13144.59,-41122.26,-50076.945,-11852.19,4177.305
1764434816.074058,21512.61,7582.545,51400.305,-13141.53,-41122.17,-50078.52,-11839.455,4181.22
1764434816.074058,21515.535,7586.054999999999,51403.32,-13139.415,-41119.92,-50076.36,-11833.065,4185.945
1764434816.074058,21513.51,7580.79,51395.76,-13146.21,-41123.61,-50078.97,-11841.165,4182.75
1764434816.074058,21512.43,7573.365,51387.705,-13153.005,-41127.66,-50081.265,-11854.8,4177.845
1764434816.074058,21518.235,7571.295,51383.07,-13156.515,-41126.31,-50077.71,-11866.905,4175.505
1764434816.074058,21521.07,7565.58,51374.655,-13163.625,-41130.495,-50079.78,-11883.6,4166.73
1764434816.074058,21522.15,7565.985,51376.32,-13160.61,-41129.19,-50077.98,-11886.075,4164.435
1764434816.074058,21522.87,7573.23,51385.995,-13151.835,-41122.755,-50073.12,-11875.32,4170.195
1764434816.074058,21517.92,7575.12,51390.09,-13148.82,-41122.89,-50075.055,-11866.005,4172.13
1764434816.074058,21516.75,7581.42,51398.55,-13142.88,-41120.64,-50075.37,-11849.67,4178.88
1764434816.074058,21519.045,7588.844999999999,51407.055,-13136.04,-41116.59,-50073.03,-11831.76,4188.78
1764434816.074058,21519.585,7588.125,51405.21,-13137.12,-41118.48,-50074.56,-11829.06,4191.389999999999
1764434816.074058,21518.91,7583.94,51399.045,-13142.925,-41121.405,-50076.045,-11837.52,4186.53
1764434816.074058,21518.685,7578.495,51391.845,-13148.82,-41124.015,-50076.27,-11849.265,4180.995
1764434816.074058,21520.98,7572.42,51383.295,-13154.265,-41127.3,-50077.53,-11865.87,4175.145
1764434816.074058,21519.855,7566.255,51374.925,-13160.655,-41130.81,-50079.33,-11881.035,4167.495
1764434816.074058,21520.53,7567.065,51376.275,-13159.17,-41129.775,-50077.935,-11883.555,4166.235
1764434816.074058,21519.63,7570.755,51381.765,-13154.67,-41127.84,-50076.315,-11875.95,4168.125
1764434816.074058,21518.64,7575.57,51389.64,-13149.09,-41124.735,-50074.56,-11862.765,4174.02
1764434816.074058,21517.605,7581.42,51398.46,-13142.115,-41121.45,-50073.255,-11845.44,4179.42
1764434816.074058,21519.585,7589.565,51406.92,-13133.745,-41116.59,-50070.15,-11828.205,4187.16
1764434816.074058,21519.405,7589.745,51405.93,-13134.87,-41117.31,-50071.545,-11825.325,4191.21
1764434816.074058,21518.415,7584.48,51399.9,-13140.945,-41120.955,-50073.705,-11833.065,4188.42
1764434816.1220162,21520.395,7579.98,51393.195,-13146.795,-41123.52,-50073.48,-11845.395,4183.785
1764434816.1220162,21522.06,7574.355,51384.51,-13152.87,-41125.995,-50073.885,-11863.035,4177.485
1764434816.1220162,21521.925,7568.099999999999,51377.13,-13158.945,-41129.595,-50075.82,-11878.425,4170.33
1764434816.1220162,21524.31,7570.349999999999,51379.785,-13156.74,-41128.11,-50073.975,-11879.1,4171.32
1764434816.1225564,21526.425,7577.46,51388.56,-13149.405,-41122.89,-50069.52,-11867.76,4176.945
1764434816.1225564,21524.22,7581.644999999999,51395.895,-13143.69,-41120.37,-50069.475,-11856.105,4179.915
1764434816.1225564,21518.28,7583.58,51400.395,-13141.17,-41121.765,-50073.03,-11843.505,4181.805
1764434816.1225564,21517.695,7588.62,51406.155,-13137.21,-41119.695,-50072.715,-11829.06,4187.474999999999
1764434816.1225564,21519.585,7590.554999999999,51407.91,-13135.23,-41117.715,-50071.095,-11824.29,4190.13
1764434816.1225564,21515.535,7581.78,51397.245,-13145.04,-41124.465,-50076.09,-11836.935,4183.245
1764434816.1225564,21519.99,7579.125,51392.61,-13148.46,-41124.96,-50075.055,-11846.925,4181.985
1764434816.1230965,21519.495,7570.53,51381.405,-13157.01,-41130.9,-50077.845,-11865.375,4173.705
1764434816.1230965,21522.33,7567.155,51377.085,-13160.475,-41131.62,-50076.72,-11877.615,4169.43
1764434816.1230965,21524.895,7569.855,51380.37,-13157.505,-41128.74,-50073.48,-11877.03,4170.825
1764434816.1230965,21526.2,7575.884999999999,51388.02,-13150.035,-41123.295,-50069.115,-11866.995,4175.19
1764434816.1230965,21522.285,7578.405,51393.87,-13145.49,-41121.99,-50070.195,-11856.96,4177.395
1764434816.1230965,21523.23,7587.269999999999,51405.3,-13135.995,-41117.4,-50067.405,-11837.655,4186.08
1764434816.1230965,21520.305,7589.79,51409.125,-13133.115,-41117.085,-50068.71,-11825.055,4190.04
1764434816.1230965,21522.375,7592.355,51411.195,-13131.54,-41114.52,-50065.92,-11818.665,4195.17
1764434816.1230965,21521.61,7587.0,51404.805,-13136.355,-41117.04,-50067.54,-11826.495,4192.155
1764434816.1230965,21523.23,7581.96,51396.48,-13143.465,-41121.045,-50070.105,-11840.49,4186.485
1764434816.1241112,21522.78,7570.799999999999,51382.08,-13155.795,-41130.45,-50076.855,-11862.855,4172.94
1764434816.1241112,21524.31,7567.38,51377.985,-13158.675,-41130.81,-50074.92,-11874.87,4168.935
1764434816.1241112,21526.83,7570.98,51382.755,-13154.085,-41125.905,-50069.97,-11872.755,4172.13
1764434816.1681817,21522.87,7572.644999999999,51386.535,-13151.61,-41126.04,-50071.05,-11867.22,4171.815
1764434816.1681817,21523.365,7580.205,51397.245,-13142.565,-41120.595,-50066.505,-11852.19,4177.53
1764434816.1681817,21519.36,7584.12,51403.86,-13137.615,-41119.065,-50067.63,-11836.89,4181.58
1764434816.1681817,21522.42,7591.23,51411.735,-13130.91,-41114.115,-50065.605,-11821.725,4191.12
1764434816.1681817,21520.89,7590.15,51408.135,-13134.465,-41117.58,-50069.34,-11820.96,4192.785
1764434816.1681817,21519.45,7583.849999999999,51399.27,-13142.07,-41122.71,-50073.255,-11830.905,4188.599999999999
1764434816.1681817,21522.015,7577.594999999999,51390.45,-13149.495,-41128.38,-50075.595,-11844.81,4185.135
1764434816.1681817,21526.38,7575.21,51385.635,-13151.7,-41127.075,-50071.95,-11858.085,4179.96
1764434816.1681817,21526.11,7569.945,51379.11,-13157.28,-41129.775,-50072.895,-11871.99,4173.435
1764434816.1681817,21528.945,7574.13,51383.97,-13152.24,-41125.5,-50068.26,-11870.235,4176.0
1764434816.1702223,21526.83,7576.785,51388.92,-13148.415,-41124.33,-50068.305,-11863.8,4176.495
1764434816.1702223,21527.82,7583.94,51398.145,-13140.135,-41118.525,-50064.435,-11848.32,4182.57
1764434816.1712215,21522.96,7587.269999999999,51404.04,-13136.355,-41118.39,-50067.18,-11833.56,4185.0
1764434816.1712215,21523.59,7592.67,51410.07,-13131.495,-41115.69,-50066.865,-11818.665,4192.38
1764434816.1712215,21522.06,7590.285,51406.74,-13134.915,-41118.57,-50071.005,-11819.025,4194.855
1764434816.1712215,21520.53,7584.705,51399.765,-13140.09,-41122.98,-50073.525,-11828.88,4189.68
1764434816.1712215,21520.8,7577.91,51391.845,-13146.345,-41127.165,-50074.065,-11842.695,4182.93
1764434816.1712215,21526.11,7575.48,51386.22,-13149.54,-41126.76,-50071.095,-11857.14,4180.545
1764434816.1712215,21529.035,7573.23,51381.945,-13152.24,-41127.39,-50070.105,-11868.615,4176.945
1764434816.1712215,21526.155,7570.934999999999,51379.965,-13153.815,-41129.685,-50072.445,-11872.89,4172.805
1764434816.1712215,21523.68,7573.41,51384.645,-13150.26,-41127.66,-50071.095,-11865.555,4174.11
1764434816.1712215,21523.005,7579.259999999999,51393.105,-13144.05,-41123.655,-50069.16,-11851.11,4179.375
1764434816.21464,21523.86,7588.125,51404.715,-13134.735,-41117.625,-50066.64,-11830.95,4188.735
1764434816.21464,21520.53,7589.969999999999,51407.91,-13132.935,-41118.57,-50069.52,-11820.645,4191.21
1764434816.21464,21523.32,7591.995,51409.395,-13131.855,-41116.5,-50067.855,-11816.865,4194.81
1764434816.21464,21523.275,7587.45,51402.42,-13137.48,-41120.145,-50069.295,-11825.91,4191.3
1764434816.21464,21525.615,7582.769999999999,51394.815,-13142.43,-41121.945,-50069.52,-11837.655,4187.79
1764434816.21464,21529.305,7578.179999999999,51388.155,-13147.425,-41123.115,-50068.35,-11852.73,4183.425
1764434816.21464,21529.845,7574.04,51383.835,-13151.43,-41124.825,-50067.945,-11865.555,4177.935
1764434816.21464,21526.29,7571.205,51382.035,-13152.915,-41127.39,-50069.295,-11869.155,4173.3
1764434816.21464,21525.885,7575.84,51388.38,-13147.47,-41124.645,-50067.405,-11859.57,4177.035
1764434816.21464,21527.55,7584.03,51399.36,-13138.065,-41118.435,-50063.67,-11843.415,4185.0
1764434816.215655,21522.465,7587.54,51405.93,-13133.88,-41118.57,-50066.28,-11828.43,4188.78
1764434816.2166734,21523.905,7593.615,51413.355,-13126.995,-41113.71,-50064.93,-11813.76,4195.71
1764434816.2166734,21523.86,7592.4,51411.285,-13128.615,-41114.025,-50064.435,-11813.13,4196.25
1764434816.2166734,21522.96,7585.695,51403.095,-13135.59,-41119.065,-50067.495,-11823.48,4191.48
1764434816.2166734,21525.48,7581.059999999999,51396.795,-13141.35,-41121.315,-50067.495,-11835.18,4188.105
1764434816.2166734,21528.405,7575.255,51388.47,-13148.28,-41123.7,-50067.315,-11852.235,4182.795
1764434816.2166734,21527.73,7569.809999999999,51381.045,-13153.365,-41127.48,-50069.43,-11866.455,4176.495
1764434816.2166734,21527.91,7571.474999999999,51383.43,-13151.025,-41126.13,-50068.575,-11866.995,4176.405
1764434816.2166734,21527.01,7576.785,51390.585,-13144.815,-41122.575,-50065.38,-11857.725,4179.15
1764434816.2166734,21526.245,7582.905,51398.01,-13137.93,-41119.29,-50063.22,-11843.865,4184.235
1764434816.2166734,21525.885,7590.735,51408.63,-13128.93,-41114.475,-50060.97,-11824.155,4191.84
1764434816.2166734,21520.485,7589.745,51409.44,-13129.605,-41117.625,-50065.92,-11816.595,4192.605
1764434816.2166734,21521.79,7590.96,51409.98,-13128.57,-41116.14,-50065.065,-11813.535,4196.52
1764434816.2166734,21518.415,7584.84,51401.43,-13135.275,-41120.595,-50067.765,-11824.38,4189.77
1764434816.259694,21525.48,7583.67,51397.29,-13138.335,-41121.09,-50065.92,-11834.46,4187.52
1764434816.259694,21529.98,7576.74,51386.85,-13147.47,-41126.445,-50068.71,-11851.785,4181.985
1764434816.259694,21531.06,7574.13,51382.755,-13150.215,-41127.795,-50068.17,-11863.305,4179.69
1764434816.259694,21528.18,7572.78,51382.89,-13150.665,-41128.56,-50068.71,-11865.465,4176.27
1764434816.259694,21530.205,7579.844999999999,51392.115,-13142.025,-41122.755,-50063.715,-11853.45,4181.985
1764434816.259694,21527.64,7584.929999999999,51398.685,-13136.175,-41120.235,-50063.985,-11841.345,4185.45
1764434816.259694,21521.88,7587.0,51404.355,-13132.98,-41121.045,-50067.54,-11827.35,4187.61
1764434816.259694,21523.635,7592.849999999999,51411.105,-13127.04,-41116.545,-50065.155,-11812.77,4195.08
1764434816.259694,21525.075,7593.389999999999,51410.34,-13128.03,-41115.555,-50065.515,-11811.105,4196.7
1764434816.259694,21524.31,7587.855,51403.095,-13134.24,-41119.245,-50067.225,-11820.555,4192.425
1764434816.259694,21526.29,7582.455,51395.175,-13139.91,-41122.305,-50068.035,-11833.965,4188.599999999999
1764434816.259694,21527.595,7575.12,51385.455,-13148.055,-41127.03,-50070.33,-11853.09,4181.445
1764434816.259694,21532.86,7576.424999999999,51385.635,-13146.93,-41124.105,-50064.84,-11860.425,4181.715
1764434816.259694,21531.825,7577.054999999999,51387.3,-13145.22,-41124.06,-50064.345,-11861.145,4179.555
1764434816.2612388,21530.97,7581.644999999999,51393.6,-13140.765,-41120.91,-50062.365,-11852.415,4182.03
1764434816.2612388,21529.35,7586.37,51400.35,-13135.5,-41118.435,-50061.375,-11839.5,4186.395
1764434816.2612388,21528.81,7593.165,51410.88,-13127.355,-41113.98,-50059.44,-11820.555,4193.19
1764434816.2612388,21525.75,7594.785,51414.12,-13124.43,-41113.395,-50060.43,-11810.565,4195.125
1764434816.2612388,21527.73,7595.28,51413.265,-13125.15,-41113.62,-50059.845,-11808.495,4198.32
1764434816.2612388,21524.625,7586.235,51401.43,-13135.23,-41122.395,-50067.63,-11821.68,4195.17
1764434816.2612388,21527.82,7585.559999999999,51398.46,-13136.805,-41121.495,-50064.03,-11831.31,4191.435
1764434816.2612388,21532.095,7581.059999999999,51392.025,-13142.205,-41123.115,-50062.5,-11846.97,4187.205
1764434816.3091877,21531.51,7575.075,51384.825,-13147.515,-41126.13,-50063.94,-11860.38,4181.085
1764434816.3091877,21531.33,7576.2,51386.715,-13145.58,-41124.105,-50062.725,-11860.065,4180.185
1764434816.3091877,21529.485,7579.71,51392.7,-13141.035,-41122.35,-50061.915,-11851.11,4183.11
1764434816.3091877,21528.945,7585.83,51401.385,-13134.195,-41118.39,-50060.43,-11837.115,4188.285
1764434816.3091877,21529.17,7594.605,51413.085,-13124.655,-41112.855,-50057.415,-11817.315,4196.7
1764434816.3091877,21525.93,7595.684999999999,51414.885,-13124.16,-41113.665,-50060.43,-11807.415,4198.905
1764434816.3091877,21528.0,7595.505,51413.805,-13124.655,-41113.215,-50060.655,-11806.38,4201.155
1764434816.3096974,21524.355,7586.505,51402.06,-13135.005,-41120.82,-50066.235,-11819.79,4193.685
1764434816.3096974,21526.47,7581.105,51394.95,-13140.99,-41123.07,-50067.0,-11832.795,4188.96
1764434816.3096974,21530.52,7577.144999999999,51388.335,-13145.895,-41124.15,-50065.875,-11848.68,4184.82
1764434816.3096974,21534.795,7577.37,51387.3,-13145.355,-41122.575,-50061.69,-11856.24,4183.65
1764434816.3096974,21534.57,7580.205,51391.35,-13141.215,-41120.19,-50060.655,-11855.475,4183.155
1764434816.3096974,21531.69,7583.715,51397.47,-13137.255,-41117.94,-50059.215,-11846.565,4184.955
1764434816.3096974,21526.2,7586.775,51403.77,-13133.025,-41115.87,-50059.845,-11835.09,4187.385
1764434816.3096974,21522.555,7590.509999999999,51409.845,-13128.615,-41115.195,-50061.825,-11819.205,4192.83
1764434816.3096974,21526.02,7591.995,51410.835,-13128.795,-41118.525,-50065.92,-11810.205,4196.655
1764434816.3096974,21529.26,7592.67,51410.61,-13128.795,-41117.31,-50065.155,-11808.99,4198.86
1764434816.3096974,21525.57,7586.28,51402.42,-13136.085,-41121.585,-50068.305,-11820.78,4192.74
1764434816.3096974,21530.07,7584.57,51398.82,-13137.705,-41120.91,-50065.02,-11830.545,4191.389999999999
1764434816.3096974,21532.77,7579.755,51391.755,-13142.43,-41122.125,-50063.22,-11846.34,4186.215
1764434816.3096974,21532.905,7576.65,51387.615,-13145.49,-41123.205,-50062.86,-11857.455,4180.995
1764434816.3096974,21529.08,7574.085,51385.68,-13147.38,-41124.87,-50065.695,-11859.615,4177.8
1764434816.3096974,21529.08,7578.179999999999,51391.35,-13142.88,-41122.53,-50065.02,-11849.04,4182.615
1764434816.3096974,21531.69,7587.134999999999,51403.365,-13132.89,-41116.455,-50061.06,-11832.03,4190.22
1764434816.3096974,21527.82,7591.005,51410.295,-13128.03,-41115.42,-50062.59,-11817.315,4193.955
1764434816.3096974,21528.855,7597.259999999999,51417.405,-13122.405,-41111.055,-50059.62,-11803.995,4200.795
1764434816.3528793,21528.18,7594.92,51414.03,-13126.275,-41112.765,-50061.33,-11805.21,4200.165
1764434816.3533916,21524.985,7585.965,51403.005,-13135.995,-41120.055,-50066.73,-11819.52,4190.985
1764434816.3533916,21527.325,7581.105,51396.165,-13140.63,-41122.395,-50067.585,-11832.975,4187.295
1764434816.3533916,21529.755,7575.48,51387.57,-13146.795,-41125.455,-50067.9,-11849.805,4183.695
1764434816.3533916,21530.295,7572.285,51383.16,-13149.27,-41126.715,-50066.055,-11859.975,4180.95
1764434816.3533916,21532.32,7576.335,51389.1,-13144.59,-41122.62,-50061.825,-11856.87,4182.345
1764434816.3533916,21533.22,7582.95,51398.55,-13136.58,-41117.04,-50058.585,-11844.495,4187.52
1764434816.3533916,21527.055,7583.849999999999,51401.925,-13134.195,-41118.255,-50062.995,-11835.27,4187.205
1764434816.3533916,21527.055,7591.995,51412.095,-13125.87,-41113.665,-50061.42,-11816.64,4195.485
1764434816.3533916,21522.375,7591.815,51412.32,-13125.6,-41115.195,-50064.615,-11808.54,4196.295
1764434816.3539238,21524.04,7591.455,51411.51,-13126.455,-41113.98,-50063.67,-11806.74,4197.465
1764434816.3539238,21520.755,7583.355,51401.61,-13135.095,-41120.145,-50068.35,-11820.78,4189.905
1764434816.3539238,21522.06,7578.179999999999,51394.635,-13140.855,-41123.52,-50068.845,-11834.865,4184.775
1764434816.3539238,21526.11,7571.07,51383.88,-13149.045,-41129.505,-50070.51,-11850.795,4181.67
1764434816.3539238,21529.395,7570.215,51381.81,-13149.54,-41128.29,-50068.62,-11859.39,4179.825
1764434816.3539238,21532.545,7576.92,51390.72,-13142.025,-41122.08,-50063.04,-11854.53,4181.985
1764434816.3539238,21528.495,7578.134999999999,51394.5,-13139.145,-41121.855,-50064.03,-11848.05,4181.355
1764434816.3539238,21526.83,7582.905,51401.745,-13133.79,-41119.02,-50063.895,-11834.91,4186.305
1764434816.3539238,21524.76,7588.755,51409.53,-13128.075,-41116.995,-50064.93,-11817.36,4193.145
1764434816.3539238,21523.545,7591.5,51412.725,-13125.87,-41116.23,-50065.29,-11807.19,4197.555
1764434816.4005136,21526.47,7591.905,51412.545,-13124.925,-41114.52,-50062.815,-11805.615,4199.535
1764434816.4005136,21523.41,7582.724999999999,51401.43,-13134.645,-41121.27,-50067.495,-11818.98,4192.065
1764434816.4005136,21525.93,7578.63,51394.995,-13140.27,-41123.79,-50067.495,-11832.12,4188.33
1764434816.4005136,21529.53,7574.894999999999,51388.38,-13144.815,-41124.78,-50065.83,-11847.915,4183.83
1764434816.4005136,21535.785,7576.74,51389.595,-13142.925,-41121.45,-50061.78,-11853.135,4183.245
1764434816.4005136,21534.93,7577.505,51391.71,-13141.26,-41120.73,-50060.97,-11851.605,4183.11
1764434816.4005136,21530.745,7578.855,51395.445,-13138.335,-41120.415,-50062.275,-11844.405,4183.875
1764434816.4005136,21530.385,7586.46,51404.76,-13129.83,-41114.565,-50059.305,-11828.475,4190.04
1764434816.4005136,21525.75,7590.014999999999,51410.43,-13125.735,-41115.06,-50061.825,-11814.39,4193.82
1764434816.4015243,21527.01,7594.785,51415.38,-13121.55,-41112.18,-50059.98,-11802.645,4200.795
1764434816.4015243,21526.74,7591.679999999999,51411.735,-13124.835,-41114.16,-50061.645,-11804.625,4199.805
1764434816.4015243,21523.095,7582.769999999999,51400.71,-13134.105,-41120.64,-50067.09,-11818.62,4191.795
1764434816.4015243,21524.445,7576.92,51393.195,-13140.855,-41124.24,-50067.99,-11831.94,4186.845
1764434816.4015243,21528.99,7571.835,51385.815,-13145.49,-41126.175,-50066.73,-11848.005,4182.389999999999
1764434816.4025214,21533.22,7571.88,51385.185,-13145.04,-41124.645,-50063.58,-11855.52,4182.255
1764434816.4025214,21535.695,7577.144999999999,51391.845,-13139.685,-41119.92,-50059.44,-11850.39,4184.82
1764434816.4025214,21532.185,7579.98,51396.165,-13136.49,-41119.29,-50060.565,-11842.74,4185.855
1764434816.4030418,21531.06,7587.224999999999,51405.705,-13128.615,-41114.205,-50057.595,-11827.35,4191.525
1764434816.4030418,21525.075,7589.61,51410.655,-13125.465,-41114.97,-50060.79,-11814.165,4192.47
1764434816.4030418,21524.175,7592.67,51413.625,-13122.27,-41113.98,-50060.88,-11804.49,4195.395
1764434816.4040496,21529.035,7594.2,51414.21,-13122.27,-41112.72,-50059.305,-11802.015,4203.45
1764434816.4040496,21525.075,7585.019999999999,51403.095,-13132.215,-41119.155,-50064.84,-11814.795,4198.995
1764434816.4040496,21529.53,7583.174999999999,51398.01,-13135.635,-41119.065,-50062.365,-11826.27,4195.035
1764434816.4040496,21530.61,7574.085,51385.455,-13146.84,-41126.265,-50067.315,-11848.095,4182.705
1764434816.448085,21530.835,7571.61,51382.755,-13148.01,-41126.58,-50065.65,-11857.05,4179.599999999999
1764434816.448085,21531.015,7575.705,51388.47,-13143.06,-41123.34,-50062.905,-11853.315,4182.389999999999
1764434816.449082,21532.905,7582.815,51399.135,-13134.915,-41117.265,-50058.18,-11839.185,4189.41
1764434816.4495976,21530.52,7587.045,51405.66,-13129.29,-41115.465,-50058.315,-11825.64,4193.46
1764434816.4495976,21528.0,7591.815,51412.77,-13123.485,-41113.08,-50058.99,-11810.745,4198.095
1764434816.4495976,21525.84,7593.299999999999,51413.94,-13122.765,-41113.305,-50060.205,-11801.52,4201.514999999999
1764434816.4500546,21526.785,7592.219999999999,51411.375,-13125.555,-41115.735,-50062.32,-11804.265,4201.155
1764434816.4500546,21524.535,7584.48,51402.42,-13133.565,-41120.595,-50066.1,-11817.72,4193.28
1764434816.4500546,21526.965,7580.16,51395.22,-13138.56,-41122.485,-50065.785,-11830.455,4189.185
1764434816.450606,21532.365,7577.865,51391.215,-13141.305,-41121.495,-50062.365,-11843.82,4186.53
1764434816.450606,21532.14,7573.86,51386.355,-13145.355,-41123.52,-50062.275,-11854.125,4181.849999999999
1764434816.450606,21534.345,7577.46,51390.855,-13141.035,-41119.29,-50058.63,-11848.905,4186.62
1764434816.450606,21535.02,7583.13,51398.775,-13134.33,-41115.825,-50056.74,-11838.24,4190.264999999999
1764434816.450606,21534.21,7589.565,51408.81,-13126.725,-41111.55,-50055.03,-11824.02,4194.855
1764434816.450606,21528.63,7592.085,51413.67,-13123.17,-41112.045,-50057.73,-11810.07,4197.195
1764434816.450606,21526.38,7594.785,51416.19,-13121.64,-41111.73,-50058.225,-11801.43,4200.48
1764434816.4516027,21531.285,7595.505,51415.38,-13122.27,-41111.28,-50057.595,-11800.035,4205.43
1764434816.4516027,21532.725,7591.005,51408.495,-13127.895,-41114.115,-50058.72,-11810.25,4202.91
1764434816.4516027,21534.03,7585.2,51400.71,-13133.61,-41116.455,-50058.63,-11824.56,4197.555
1764434816.4516027,21535.38,7578.63,51392.43,-13139.775,-41119.74,-50058.27,-11842.47,4190.4
1764434816.4516027,21534.345,7574.985,51388.065,-13143.375,-41122.755,-50059.53,-11853.675,4184.19
1764434816.4516027,21536.73,7579.394999999999,51393.645,-13137.705,-41117.85,-50055.57,-11847.645,4186.935
1764434816.4516027,21535.29,7583.355,51399.27,-13132.53,-41115.105,-50055.03,-11837.97,4190.22
1764434816.4516027,21531.6,7586.415,51404.715,-13129.155,-41115.96,-50057.955,-11826.495,4194.27
1764434816.4957905,21531.78,7595.054999999999,51415.335,-13120.47,-41111.64,-50056.02,-11807.595,4201.92
1764434816.4957905,21528.405,7596.945,51418.305,-13118.535,-41111.1,-50056.47,-11799.225,4203.135
1764434816.4957905,21528.09,7593.21,51413.58,-13123.44,-41113.08,-50058.09,-11802.645,4202.775
1764434816.4957905,21526.2,7584.03,51402.87,-13131.945,-41120.01,-50062.815,-11816.19,4194.855
1764434816.4957905,21528.27,7578.315,51394.185,-13138.56,-41123.475,-50063.49,-11830.77,4189.635
1764434816.4957905,21528.81,7571.519999999999,51383.925,-13145.985,-41126.58,-50064.12,-11848.32,4183.38
1764434816.4957905,21531.195,7571.969999999999,51383.52,-13144.68,-41124.33,-50061.69,-11855.34,4180.77
1764434816.4957905,21535.695,7578.405,51392.925,-13135.905,-41118.12,-50055.705,-11847.915,4186.125
1764434816.4957905,21532.77,7582.184999999999,51398.91,-13130.595,-41115.195,-50054.355,-11837.07,4190.805
1764434816.4957905,21527.505,7584.884999999999,51403.005,-13128.57,-41116.095,-50057.955,-11825.82,4193.145
1764434816.4957905,21526.92,7589.565,51409.71,-13124.745,-41115.42,-50060.115,-11810.79,4196.88
1764434816.4957905,21526.155,7590.554999999999,51411.915,-13123.71,-41115.285,-50060.43,-11803.545,4195.17
1764434816.4957905,21529.44,7593.389999999999,51413.895,-13120.65,-41110.965,-50055.48,-11801.205,4199.535
1764434816.4957905,21529.305,7587.269999999999,51405.57,-13127.715,-41115.015,-50058.855,-11812.005,4198.86
1764434816.4957905,21530.88,7578.495,51393.825,-13138.695,-41122.53,-50064.165,-11828.97,4194.18
1764434816.4957905,21537.945,7577.594999999999,51390.135,-13140.045,-41120.37,-50058.945,-11841.93,4191.705
1764434816.4957905,21537.315,7576.74,51388.875,-13139.865,-41119.425,-50057.64,-11849.535,4186.935
1764434816.4957905,21531.915,7575.66,51388.695,-13140.36,-41121.405,-50059.98,-11850.165,4183.83
1764434816.4957905,21531.24,7579.799999999999,51395.4,-13134.42,-41119.02,-50058.855,-11839.185,4189.005
1764434816.4957905,21532.275,7588.08,51406.695,-13125.69,-41113.8,-50055.615,-11822.265,4196.565
1764434816.4957905,21527.55,7590.554999999999,51411.24,-13123.215,-41113.305,-50058.36,-11808.495,4199.31
1764434816.4957905,21526.695,7592.985,51412.905,-13121.415,-41112.495,-50058.72,-11800.665,4202.145
1764434816.4957905,21529.17,7593.525,51412.05,-13122.0,-41111.01,-50057.46,-11801.025,4204.349999999999
1764434816.4957905,21526.92,7585.605,51401.97,-13130.37,-41117.355,-50061.015,-11814.66,4197.33
1764434816.5432649,21532.68,7584.525,51398.73,-13132.8,-41117.265,-50057.505,-11825.325,4196.565
1764434816.5432649,21536.91,7580.79,51392.88,-13137.075,-41118.165,-50056.515,-11840.895,4191.93
1764434816.5432649,21535.74,7577.054999999999,51389.01,-13139.685,-41119.515,-50056.785,-11851.02,4186.755
1764434816.5432649,21537.765,7581.285,51395.535,-13134.24,-41115.195,-50053.32,-11845.26,4189.815
1764434816.5432649,21533.355,7581.285,51397.785,-13132.8,-41116.995,-50056.29,-11838.24,4190.31
1764434816.5442724,21533.085,7587.269999999999,51406.155,-13126.545,-41114.925,-50056.965,-11823.03,4197.51
1764434816.5442724,21533.805,7596.36,51417.81,-13117.365,-41108.58,-50053.545,-11803.815,4205.295
1764434816.5442724,21532.86,7598.79,51420.78,-13115.115,-41107.86,-50054.625,-11796.3,4208.13
1764434816.5442724,21532.815,7596.63,51417.135,-13117.905,-41108.94,-50054.715,-11798.865,4207.724999999999
1764434816.5442724,21532.005,7590.78,51407.955,-13125.915,-41113.305,-50057.055,-11811.42,4202.46
1764434816.5442724,21531.735,7583.13,51397.83,-13134.645,-41118.165,-50060.295,-11828.295,4195.035
1764434816.5442724,21538.62,7581.735,51394.77,-13135.725,-41115.915,-50054.805,-11840.985,4193.82
1764434816.5442724,21538.44,7578.179999999999,51391.71,-13137.795,-41116.815,-50054.625,-11849.76,4189.545
1764434816.5442724,21539.61,7581.554999999999,51396.795,-13134.195,-41114.79,-50053.32,-11844.225,4191.66
1764434816.5442724,21536.415,7584.344999999999,51402.42,-13129.47,-41113.305,-50053.725,-11834.37,4192.92
1764434816.5442724,21536.82,7592.535,51412.545,-13121.055,-41108.22,-50049.72,-11817.27,4200.48
1764434816.5442724,21533.625,7596.585,51418.62,-13116.6,-41106.33,-50050.125,-11800.98,4204.845
1764434816.5442724,21533.58,7598.34,51420.87,-13114.485,-41106.915,-50052.195,-11793.69,4207.95
1764434816.5442724,21535.38,7596.63,51417.54,-13117.77,-41108.535,-50053.68,-11797.785,4208.13
1764434816.5442724,21535.47,7592.67,51411.465,-13123.215,-41110.83,-50054.22,-11808.99,4201.155
1764434816.5442724,21535.56,7586.37,51403.32,-13128.795,-41113.395,-50053.905,-11823.03,4194.0
1764434816.5442724,21537.45,7578.674999999999,51393.645,-13136.67,-41117.67,-50055.66,-11840.76,4191.165
1764434816.5889616,21543.345,7579.844999999999,51393.78,-13135.905,-41116.68,-50053.68,-11845.215,4194.405
1764434816.5889616,21540.195,7580.835,51396.39,-13134.06,-41116.905,-50054.265,-11844.0,4190.895
1764434816.5889616,21537.855,7586.009999999999,51404.58,-13128.435,-41113.08,-50052.915,-11834.145,4193.639999999999
1764434816.5899622,21536.235,7591.23,51412.05,-13122.045,-41109.57,-50051.655,-11818.44,4199.355
1764434816.5899622,21536.325,7599.105,51421.815,-13113.405,-41104.575,-50048.955,-11799.63,4207.41
1764434816.5899622,21532.68,7598.16,51420.735,-13115.385,-41107.05,-50052.645,-11795.355,4207.545
1764434816.5899622,21535.605,7597.71,51418.665,-13116.465,-41106.645,-50051.7,-11797.02,4208.985
1764434816.5899622,21533.67,7589.34,51409.17,-13124.475,-41112.36,-50055.66,-11811.465,4201.02
1764434816.5909607,21536.55,7585.38,51402.105,-13129.29,-41113.98,-50055.3,-11825.325,4196.565
1764434816.5909607,21540.735,7581.554999999999,51395.625,-13133.295,-41114.52,-50052.87,-11838.96,4194.855
1764434816.5909607,21538.08,7576.245,51391.17,-13137.075,-41118.03,-50055.705,-11848.995,4188.375
1764434816.5909607,21536.46,7579.035,51395.715,-13133.835,-41116.365,-50054.535,-11846.52,4187.835
1764434816.5909607,21535.2,7583.264999999999,51402.645,-13128.03,-41113.845,-50053.185,-11835.27,4192.02
1764434816.5909607,21535.11,7589.924999999999,51411.195,-13121.145,-41110.29,-50051.52,-11819.205,4198.86
1764434816.5909607,21536.46,7599.059999999999,51421.86,-13112.37,-41104.26,-50048.595,-11798.82,4207.95
1764434816.591971,21535.965,7601.309999999999,51424.245,-13110.165,-41103.18,-50048.955,-11790.855,4212.135
1764434816.591971,21535.11,7597.17,51418.845,-13115.34,-41105.79,-50051.34,-11796.255,4209.255
1764434816.591971,21530.745,7587.315,51406.695,-13125.78,-41113.35,-50056.74,-11812.365,4201.605
1764434816.591971,21531.33,7581.735,51398.37,-13131.18,-41115.69,-50057.235,-11826.72,4197.69
1764434816.591971,21535.83,7579.485,51393.33,-13133.88,-41115.33,-50054.895,-11839.815,4193.505
1764434816.591971,21543.885,7582.634999999999,51395.22,-13132.53,-41113.08,-50051.295,-11843.865,4192.425
1764434816.5929725,21540.96,7582.995,51397.11,-13131.27,-41112.585,-50052.195,-11841.705,4190.94
1764434816.5929725,21539.385,7588.304999999999,51405.075,-13124.88,-41109.165,-50049.945,-11830.23,4196.565
1764434816.5929725,21539.43,7596.9,51416.415,-13114.395,-41102.73,-50046.03,-11812.005,4203.72
1764434816.637406,21534.3,7599.87,51422.58,-13110.075,-41101.695,-50047.695,-11797.695,4206.465
1764434816.637406,21536.595,7603.65,51427.62,-13106.25,-41098.545,-50045.175,-11787.84,4212.54
1764434816.637406,21541.68,7601.309999999999,51421.77,-13112.1,-41102.955,-50048.595,-11790.81,4218.12
1764434816.637406,21542.895,7595.37,51413.22,-13118.76,-41107.14,-50050.665,-11803.5,4213.98
1764434816.637406,21543.165,7590.735,51406.83,-13123.305,-41108.67,-50049.36,-11817.9,4206.51
1764434816.637406,21544.875,7585.469999999999,51400.44,-13128.66,-41110.38,-50049.18,-11834.1,4200.3
1764434816.637406,21544.695,7583.894999999999,51399.09,-13129.515,-41110.11,-50048.28,-11840.985,4197.645
1764434816.637406,21543.66,7585.785,51403.05,-13126.005,-41108.085,-50046.345,-11835.405,4198.59
1764434816.637406,21539.61,7587.269999999999,51407.01,-13123.035,-41108.58,-50048.145,-11826.81,4200.21
1764434816.637406,21542.58,7598.07,51419.655,-13112.19,-41101.155,-50044.275,-11808.45,4209.66
1764434816.637406,21540.33,7603.559999999999,51426.81,-13106.7,-41098.77,-50045.22,-11793.24,4214.88
1764434816.637406,21538.26,7604.28,51426.81,-13107.51,-41100.03,-50046.795,-11787.12,4216.545
1764434816.638078,21538.215,7600.184999999999,51421.635,-13112.235,-41103.135,-50048.865,-11792.34,4213.889999999999
1764434816.638078,21534.705,7590.375,51409.98,-13122.63,-41110.65,-50054.895,-11808.585,4205.52
1764434816.638078,21541.185,7588.485,51405.66,-13124.88,-41109.57,-50051.52,-11820.15,4204.395
1764434816.638078,21544.605,7585.019999999999,51399.72,-13128.255,-41110.515,-50049.72,-11834.685,4201.155
1764434816.638078,21542.985,7582.23,51396.885,-13130.64,-41112.45,-50050.62,-11842.605,4196.385
1764434816.638078,21542.76,7585.469999999999,51401.61,-13126.14,-41109.615,-50048.91,-11837.43,4198.41
1764434816.638078,21542.355,7590.735,51408.81,-13120.605,-41106.33,-50047.38,-11825.82,4203.18
1764434816.638078,21544.47,7600.094999999999,51421.5,-13109.895,-41099.625,-50042.655,-11806.65,4212.54
1764434816.638078,21542.58,7604.684999999999,51428.16,-13105.08,-41097.69,-50043.195,-11791.08,4217.94
1764434816.638078,21540.87,7605.045,51427.62,-13105.8,-41098.32,-50045.445,-11786.355,4219.245
1764434816.6826224,21538.755,7599.96,51420.78,-13111.605,-41103.135,-50048.91,-11793.24,4215.375
1764434816.6826224,21535.65,7591.005,51409.71,-13121.28,-41110.425,-50053.86,-11808.945,4206.78
1764434816.6826224,21538.62,7587.045,51402.42,-13126.545,-41111.865,-50052.915,-11822.49,4202.73
1764434816.6826224,21545.505,7586.505,51400.035,-13127.355,-41109.705,-50047.83,-11833.74,4201.38
1764434816.6826224,21546.99,7586.46,51400.26,-13126.725,-41108.94,-50045.895,-11838.645,4200.389999999999
1764434816.6826224,21546.72,7589.07,51404.58,-13123.17,-41106.555,-50044.905,-11833.695,4202.28
1764434816.6826224,21545.325,7592.804999999999,51410.655,-13117.77,-41104.62,-50044.77,-11823.075,4205.61
1764434816.6826224,21543.255,7598.07,51418.755,-13111.155,-41101.74,-50044.455,-11808.36,4209.795
1764434816.6826224,21539.925,7602.929999999999,51425.19,-13106.745,-41099.76,-50045.625,-11794.05,4213.755
1764434816.6826224,21536.28,7600.95,51422.985,-13109.58,-41103.045,-50050.035,-11790.945,4213.26
1764434816.6826224,21539.295,7599.96,51421.32,-13110.795,-41102.19,-50048.145,-11792.295,4215.195
1764434816.6826224,21539.115,7593.974999999999,51412.995,-13117.005,-41106.645,-50049.63,-11804.4,4209.48
1764434816.6826224,21538.485,7585.424999999999,51402.645,-13126.23,-41112.45,-50052.51,-11822.58,4201.83
1764434816.6826224,21544.92,7584.57,51399.36,-13127.67,-41110.515,-50048.19,-11833.605,4200.974999999999
1764434816.6826224,21547.53,7584.57,51399.45,-13126.185,-41108.805,-50045.535,-11837.565,4200.66
1764434816.6826224,21545.01,7585.38,51401.52,-13124.79,-41109.075,-50046.255,-11835.225,4199.58
1764434816.6826224,21545.685,7592.715,51410.79,-13116.555,-41104.17,-50042.385,-11822.175,4203.9
1764434816.6826224,21544.2,7598.474999999999,51419.655,-13109.58,-41100.795,-50041.485,-11807.1,4207.635
1764434816.6826224,21541.68,7603.559999999999,51427.035,-13104.405,-41099.355,-50043.285,-11792.655,4212.855
1764434816.6826224,21537.405,7600.995,51424.02,-13106.565,-41103.855,-50047.74,-11789.64,4214.43
1764434816.6826224,21539.7,7600.545,51422.13,-13108.275,-41103.405,-50046.795,-11792.295,4216.86
1764434816.6826224,21542.13,7596.54,51417.27,-13112.505,-41103.81,-50045.04,-11802.555,4214.25
1764434816.6826224,21543.795,7590.105,51408.765,-13119.03,-41106.15,-50044.995,-11817.495,4209.165
1764434816.6826224,21546.585,7584.03,51399.855,-13125.69,-41110.695,-50047.11,-11834.415,4203.045
1764434816.727197,21547.485,7581.33,51396.12,-13129.29,-41114.115,-50049.945,-11843.64,4196.205
1764434816.727197,21546.135,7586.684999999999,51403.005,-13122.945,-41110.2,-50046.66,-11836.665,4198.545
1764434816.727197,21543.93,7591.184999999999,51410.25,-13117.14,-41107.275,-50045.715,-11826.045,4202.145
1764434816.727197,21541.365,7595.325,51417.99,-13111.74,-41105.475,-50046.03,-11810.565,4207.139999999999
1764434816.727197,21538.98,7600.634999999999,51425.37,-13105.98,-41102.28,-50045.805,-11794.815,4212.63
1764434816.727197,21541.095,7603.965,51427.89,-13103.55,-41099.625,-50044.77,-11787.705,4216.545
1764434816.727197,21539.745,7599.509999999999,51421.635,-13108.86,-41102.955,-50047.155,-11794.05,4213.665
1764434816.727197,21537.135,7588.485,51408.765,-13121.37,-41112.63,-50054.31,-11810.205,4207.23
1764434816.727197,21539.385,7583.04,51401.025,-13126.905,-41115.015,-50054.04,-11825.145,4202.19
1764434816.727197,21545.1,7582.094999999999,51398.46,-13128.345,-41112.72,-50049.9,-11837.25,4199.49
1764434816.727197,21546.315,7582.455,51398.235,-13127.58,-41111.235,-50047.92,-11842.065,4198.005
1764434816.727197,21545.01,7585.2,51402.375,-13123.26,-41108.85,-50046.435,-11836.485,4198.86
1764434816.727197,21541.995,7588.349999999999,51408.135,-13119.12,-41107.635,-50047.155,-11826.72,4199.625
1764434816.727197,21540.06,7595.73,51418.53,-13111.29,-41102.235,-50044.455,-11808.675,4206.735
1764434816.727197,21535.335,7597.394999999999,51422.13,-13109.175,-41102.82,-50048.46,-11795.805,4209.48
1764434816.727197,21537.27,7598.295,51422.355,-13109.13,-41103.495,-50049.495,-11790.0,4214.61
1764434816.727197,21543.66,7600.094999999999,51421.77,-13109.445,-41102.19,-50046.75,-11791.305,4219.335
1764434816.727197,21542.22,7593.884999999999,51414.705,-13115.835,-41106.33,-50049.45,-11804.85,4212.135
1764434816.727197,21540.42,7584.03,51402.555,-13126.14,-41112.63,-50053.23,-11823.975,4202.595
1764434816.727197,21542.535,7580.61,51396.3,-13130.19,-41113.665,-50052.42,-11839.095,4197.465
1764434816.727197,21545.28,7582.41,51398.37,-13127.13,-41110.11,-50049.135,-11843.505,4195.485
1764434816.727197,21543.345,7583.174999999999,51401.745,-13124.115,-41108.04,-50045.94,-11834.685,4196.16
1764434816.727197,21544.695,7590.69,51411.915,-13116.69,-41103.18,-50045.085,-11822.085,4204.035
1764434816.727197,21544.155,7598.205,51422.535,-13107.69,-41097.78,-50042.205,-11802.915,4215.645
1764434816.7753265,21537.315,7600.275,51425.235,-13105.89,-41098.86,-50046.345,-11791.665,4216.095
1764434816.7753265,21538.8,7600.005,51423.03,-13108.59,-41102.325,-50049.765,-11789.37,4216.005
1764434816.7753265,21542.49,7598.969999999999,51420.645,-13110.03,-41102.685,-50048.55,-11793.69,4215.06
1764434816.7753265,21539.43,7591.275,51410.835,-13117.95,-41108.04,-50051.97,-11808.0,4208.31
1764434816.7753265,21543.435,7587.54,51404.805,-13122.27,-41108.265,-50049.45,-11821.185,4205.43
1764434816.7753265,21546.225,7584.48,51399.945,-13125.915,-41108.625,-50047.695,-11834.91,4201.29
1764434816.7753265,21546.405,7584.705,51400.17,-13124.25,-41107.815,-50045.94,-11837.97,4199.355
1764434816.7753265,21546.135,7588.53,51406.29,-13118.94,-41104.89,-50044.365,-11831.67,4201.47
1764434816.7753265,21542.67,7591.275,51411.285,-13115.745,-41103.945,-50045.67,-11821.77,4203.81
1764434816.7753265,21543.48,7600.184999999999,51422.355,-13106.115,-41097.825,-50041.665,-11802.87,4212.675
1764434816.7753265,21541.455,7605.269999999999,51429.195,-13101.615,-41096.745,-50042.655,-11788.47,4217.805
1764434816.7763443,21538.17,7603.155,51426.27,-13104.54,-41099.49,-50046.48,-11786.805,4216.185
1764434816.7763443,21540.645,7601.67,51423.435,-13105.71,-41099.535,-50045.355,-11790.63,4216.41
1764434816.7763443,21538.485,7593.075,51413.445,-13115.34,-41105.52,-50049.81,-11805.705,4209.389999999999
1764434816.7763443,21543.795,7590.509999999999,51408.855,-13118.58,-41104.485,-50046.03,-11818.26,4207.095
1764434816.7763443,21546.585,7587.315,51403.68,-13122.405,-41105.025,-50044.455,-11832.93,4202.685
1764434816.7763443,21544.605,7584.165,51400.98,-13125.06,-41107.14,-50045.49,-11839.23,4198.275
1764434816.7763443,21544.605,7586.37,51403.86,-13122.27,-41106.195,-50045.985,-11832.435,4201.56
1764434816.7763443,21544.56,7592.58,51411.915,-13115.79,-41103.405,-50044.95,-11820.375,4206.825
1764434816.7763443,21545.55,7602.705,51425.01,-13104.315,-41095.89,-50039.73,-11800.845,4216.005
1764434816.7763443,21539.475,7603.245,51427.8,-13102.56,-41096.97,-50042.655,-11789.37,4217.94
1764434816.7763443,21539.295,7603.559999999999,51428.205,-13102.965,-41096.385,-50043.6,-11785.14,4219.245
1764434816.820639,21542.67,7603.605,51425.73,-13104.495,-41095.89,-50042.34,-11788.38,4219.74
1764434816.820639,21539.655,7594.2,51413.805,-13114.125,-41103.585,-50047.605,-11804.04,4211.955
1764434816.820639,21542.445,7588.259999999999,51406.38,-13120.065,-41105.295,-50047.02,-11819.115,4207.5
1764434816.820639,21542.58,7581.509999999999,51398.145,-13126.275,-41109.165,-50048.37,-11836.17,4200.435
1764434816.820639,21545.685,7583.49,51400.485,-13123.845,-41107.275,-50045.175,-11837.88,4200.885
1764434816.820639,21541.365,7584.255,51403.185,-13121.685,-41107.095,-50046.435,-11834.235,4198.23
1764434816.820639,21539.385,7590.96,51412.68,-13112.685,-41101.155,-50043.24,-11821.095,4201.11
1764434816.820639,21542.895,7600.905,51424.56,-13102.695,-41094.81,-50039.775,-11800.53,4212.045
1764434816.820639,21542.13,7603.695,51428.565,-13100.805,-41095.98,-50042.88,-11787.66,4219.695
1764434816.8216517,21539.25,7601.67,51425.64,-13103.55,-41099.085,-50046.57,-11786.535,4219.56
1764434816.8216517,21540.735,7601.13,51424.605,-13103.55,-41097.06,-50044.095,-11789.955,4218.03
1764434816.8216517,21540.105,7594.695,51416.595,-13110.075,-41100.615,-50045.58,-11802.555,4212.045
1764434816.8216517,21541.005,7587.99,51406.335,-13118.13,-41105.07,-50046.615,-11820.195,4205.025
1764434816.8216517,21540.24,7580.79,51397.02,-13126.905,-41110.785,-50050.26,-11838.69,4196.16
1764434816.8216517,21540.96,7580.474999999999,51397.02,-13126.365,-41110.47,-50049.99,-11842.38,4195.71
1764434816.8216517,21541.77,7586.415,51404.76,-13119.66,-41105.43,-50046.525,-11832.93,4203.54
1764434816.8216517,21539.16,7590.78,51411.015,-13114.125,-41103.36,-50046.39,-11821.455,4205.25
1764434816.8216517,21536.91,7596.36,51418.71,-13107.555,-41100.975,-50045.985,-11806.335,4209.345
1764434816.8216517,21533.04,7598.88,51422.76,-13105.17,-41100.93,-50047.29,-11793.555,4213.44
1764434816.8216517,21530.385,7597.799999999999,51421.59,-13106.385,-41101.875,-50048.775,-11791.215,4213.98
1764434816.8216517,21534.075,7597.98,51419.88,-13106.925,-41099.94,-50045.94,-11793.105,4215.78
1764434816.8216517,21535.92,7592.309999999999,51410.97,-13114.395,-41104.125,-50048.73,-11806.695,4210.56
1764434816.8216517,21539.61,7585.965,51402.06,-13122.9,-41108.445,-50050.62,-11824.605,4202.099999999999
1764434816.8216517,21541.455,7582.005,51397.02,-13125.69,-41109.165,-50048.82,-11837.88,4198.139999999999
1764434816.8654988,21541.41,7582.905,51398.415,-13124.025,-41107.68,-50047.29,-11840.22,4197.78
1764434816.8660443,21541.41,7586.549999999999,51404.085,-13119.615,-41104.755,-50044.23,-11833.29,4200.885
1764434816.8660443,21540.555,7591.455,51411.96,-13113.99,-41101.785,-50042.835,-11820.915,4205.474999999999
1764434816.8660443,21535.785,7594.424999999999,51417.27,-13110.615,-41101.695,-50045.535,-11806.965,4207.77
1764434816.8660443,21533.58,7599.195,51423.12,-13105.89,-41099.805,-50045.49,-11792.835,4212.585
1764434816.8660443,21535.695,7601.58,51425.505,-13104.315,-41098.68,-50044.5,-11787.885,4216.32
1764434816.8660443,21535.605,7597.08,51418.575,-13110.12,-41102.055,-50047.11,-11795.625,4213.935
1764434816.8660443,21534.66,7589.835,51409.08,-13117.815,-41106.645,-50049.36,-11809.17,4207.545
1764434816.8660443,21533.4,7581.33,51398.19,-13127.22,-41111.64,-50052.42,-11828.115,4198.5
1764434816.8660443,21536.46,7578.585,51393.51,-13129.515,-41111.82,-50050.035,-11841.03,4193.775
1764434816.8660443,21540.78,7582.95,51397.83,-13124.565,-41106.87,-50045.445,-11840.04,4196.52
1764434816.8660443,21538.44,7584.03,51400.575,-13124.07,-41108.49,-50048.235,-11835.495,4198.86
1764434816.8660443,21538.17,7590.825,51409.71,-13115.79,-41103.09,-50044.905,-11820.735,4204.8
1764434816.8660443,21535.785,7596.315,51418.71,-13108.725,-41099.94,-50044.77,-11805.48,4209.615
1764434816.8660443,21531.51,7597.844999999999,51422.13,-13106.16,-41100.57,-50047.47,-11793.96,4212.45
1764434816.8660443,21528.225,7594.92,51418.8,-13109.31,-41103.855,-50050.035,-11793.645,4211.73
1764434816.8660443,21532.5,7595.054999999999,51416.28,-13110.39,-41102.955,-50047.695,-11797.515,4211.91
1764434816.8660443,21533.31,7589.519999999999,51408.63,-13116.78,-41106.78,-50049.765,-11809.98,4206.825
1764434816.8660443,21534.48,7582.545,51399.0,-13124.295,-41110.74,-50051.43,-11826.945,4200.075
1764434816.8660443,21534.03,7576.605,51391.845,-13130.82,-41114.925,-50053.41,-11843.55,4191.93
1764434816.8660443,21536.19,7578.269999999999,51394.005,-13128.84,-41112.27,-50050.17,-11845.17,4192.065
1764434816.8660443,21537.72,7584.255,51401.835,-13121.235,-41106.69,-50045.76,-11834.64,4197.78
1764434816.9142966,21533.67,7585.11,51405.255,-13118.58,-41107.68,-50048.505,-11825.46,4199.985
1764434816.9142966,21534.03,7593.21,51416.46,-13109.22,-41101.47,-50045.4,-11807.37,4207.635
1764434816.9142966,21530.16,7594.83,51419.745,-13107.375,-41101.74,-50048.73,-11796.03,4210.56
1764434816.9142966,21533.085,7597.394999999999,51420.735,-13106.43,-41101.38,-50049.27,-11791.395,4214.655
1764434816.9142966,21536.73,7599.195,51420.42,-13106.025,-41098.77,-50045.67,-11793.465,4215.42
1764434816.9142966,21535.785,7590.69,51410.97,-13114.98,-41103.9,-50048.46,-11808.99,4208.264999999999
1764434816.9142966,21541.095,7587.36,51404.355,-13118.625,-41104.62,-50046.57,-11823.255,4205.43
1764434816.9142966,21539.835,7580.429999999999,51395.805,-13125.015,-41108.445,-50048.64,-11839.995,4197.87
1764434816.9142966,21542.13,7583.4,51399.945,-13121.325,-41104.53,-50044.725,-11839.68,4198.995
1764434816.9142966,21541.905,7588.394999999999,51405.795,-13115.79,-41101.2,-50042.79,-11831.31,4202.415
1764434816.9142966,21537.045,7590.42,51410.07,-13112.325,-41101.605,-50044.77,-11822.58,4203.27
1764434816.9142966,21534.885,7596.134999999999,51418.395,-13105.845,-41098.725,-50044.545,-11807.01,4209.03
1764434816.9142966,21535.785,7602.165,51426.36,-13099.86,-41094.855,-50043.105,-11790.81,4216.23
1764434816.9142966,21536.595,7602.344999999999,51425.235,-13100.22,-41094.855,-50043.33,-11787.39,4218.12
1764434816.9152896,21538.98,7599.599999999999,51421.32,-13103.64,-41096.52,-50044.365,-11794.14,4217.355
1764434816.9152896,21537.765,7592.445,51412.23,-13111.965,-41100.93,-50046.885,-11808.09,4210.92
1764434816.9152896,21536.91,7583.085,51401.025,-13120.92,-41105.43,-50048.82,-11826.945,4201.83
1764434816.9165418,21542.13,7582.41,51399.135,-13120.965,-41103.63,-50044.77,-11837.205,4201.29
1764434816.9165418,21544.965,7583.625,51401.16,-13119.3,-41102.505,-50043.42,-11838.42,4202.37
1764434816.9165418,21543.885,7587.134999999999,51407.19,-13114.395,-41100.12,-50041.44,-11831.67,4203.27
1764434816.9165418,21541.59,7592.309999999999,51415.56,-13107.915,-41095.98,-50040.45,-11819.295,4205.295
1764434816.9165418,21538.44,7596.99,51423.48,-13102.245,-41094.0,-50041.26,-11803.185,4211.505
1764434816.9165418,21531.96,7597.08,51424.335,-13102.74,-41096.565,-50045.31,-11793.33,4213.845
1764434816.9165418,21534.66,7596.809999999999,51422.805,-13104.72,-41097.69,-50047.065,-11790.63,4217.49
1764434816.96014,21542.265,7598.474999999999,51421.545,-13105.125,-41096.25,-50044.905,-11793.42,4221.405
1764434816.96014,21540.24,7592.49,51412.68,-13111.65,-41100.165,-50046.84,-11807.055,4213.98
1764434816.96014,21537.675,7581.87,51399.9,-13122.225,-41106.6,-50050.62,-11827.485,4203.945
1764434816.96014,21541.68,7580.655,51397.605,-13122.765,-41105.295,-50047.29,-11838.15,4201.695
1764434816.96014,21539.205,7579.53,51397.065,-13122.27,-41105.295,-50047.47,-11841.975,4198.365
1764434816.9606645,21539.16,7583.94,51403.905,-13116.69,-41101.65,-50044.68,-11833.2,4201.92
1764434816.9606645,21540.195,7592.085,51414.03,-13108.77,-41096.205,-50042.115,-11818.53,4208.535
1764434816.9606645,21541.095,7600.86,51425.37,-13099.23,-41090.22,-50038.92,-11799.63,4216.995
1764434816.9606645,21535.155,7601.04,51426.18,-13099.905,-41092.83,-50042.7,-11790.54,4217.445
1764434816.9606645,21535.11,7600.455,51425.235,-13100.49,-41093.73,-50044.14,-11787.84,4219.065
1764434816.9606645,21538.08,7598.835,51422.355,-13101.705,-41093.37,-50042.655,-11792.385,4221.405
1764434816.9606645,21534.885,7590.059999999999,51411.96,-13110.93,-41099.76,-50046.84,-11808.09,4213.71
1764434816.9606645,21540.195,7586.325,51404.58,-13116.465,-41101.29,-50045.445,-11823.03,4208.849999999999
1764434816.9606645,21546.81,7585.335,51401.565,-13118.4,-41100.75,-50043.105,-11834.64,4203.36
1764434816.9606645,21547.485,7586.594999999999,51404.58,-13115.295,-41097.915,-50040.36,-11834.865,4203.45
1764434816.9606645,21546.36,7590.554999999999,51410.97,-13110.57,-41094.855,-50038.605,-11826.315,4207.5
1764434816.9606645,21544.695,7595.73,51418.17,-13105.71,-41092.02,-50038.695,-11813.805,4213.53
1764434816.9606645,21543.705,7602.389999999999,51427.485,-13098.24,-41088.195,-50037.255,-11796.93,4219.514999999999
1764434816.9606645,21540.285,7603.92,51430.905,-13095.225,-41088.96,-50038.785,-11785.995,4221.945
1764434816.9606645,21536.325,7599.195,51426.27,-13099.455,-41093.37,-50042.7,-11786.715,4219.965
1764434816.9606645,21539.925,7597.53,51422.265,-13102.335,-41093.955,-50041.89,-11792.295,4220.055
1764434816.9606645,21537.36,7588.98,51410.16,-13112.955,-41101.02,-50047.02,-11808.315,4212.585
1764434816.9606645,21540.015,7585.92,51403.815,-13117.455,-41101.65,-50046.12,-11824.605,4206.375
1764434816.9606645,21542.31,7583.67,51401.16,-13119.12,-41101.2,-50043.105,-11835.54,4202.46
1764434817.0053685,21544.65,7586.775,51405.48,-13114.845,-41098.05,-50039.595,-11835.135,4204.08
1764434817.0053685,21548.295,7595.144999999999,51415.875,-13105.125,-41090.805,-50033.79,-11822.22,4210.92
1764434817.0053685,21546.72,7599.15,51421.5,-13102.065,-41089.995,-50034.465,-11808.54,4216.275
1764434817.0053685,21544.065,7603.605,51429.33,-13096.755,-41088.6,-50036.13,-11794.005,4221.945
1764434817.0053685,21539.07,7604.73,51432.255,-13094.37,-41089.23,-50038.74,-11784.015,4222.935
1764434817.0053685,21539.61,7604.37,51431.13,-13094.82,-41089.14,-50038.47,-11780.955,4224.15
1764434817.0053685,21544.245,7604.415,51427.845,-13096.44,-41087.88,-50036.265,-11785.455,4225.59
1764434817.0053685,21545.37,7599.42,51421.68,-13102.155,-41090.985,-50037.705,-11800.17,4219.335
1764434817.0053685,21546.225,7592.759999999999,51412.545,-13108.68,-41093.955,-50038.2,-11817.27,4211.01
1764434817.0053685,21546.81,7588.62,51407.01,-13112.955,-41096.025,-50038.11,-11830.32,4204.8
1764434817.0053685,21550.815,7591.41,51410.52,-13110.345,-41093.91,-50035.905,-11828.205,4210.965
1764434817.0053685,21550.995,7595.82,51416.955,-13105.62,-41090.895,-50035.095,-11820.015,4214.565
1764434817.0053685,21546.045,7598.655,51421.995,-13101.795,-41090.76,-50036.715,-11810.07,4214.385
1764434817.005897,21542.175,7602.66,51429.24,-13095.675,-41088.555,-50037.165,-11794.14,4218.66
1764434817.005897,21540.78,7605.719999999999,51434.01,-13093.065,-41086.98,-50037.345,-11781.54,4223.61
1764434817.005897,21544.92,7609.41,51436.935,-13090.365,-41083.92,-50034.105,-11776.68,4228.56
1764434817.005897,21547.17,7608.105,51431.895,-13093.38,-41085.18,-50033.79,-11783.385,4227.885
1764434817.005897,21547.17,7601.085,51422.76,-13100.58,-41089.14,-50035.905,-11797.155,4222.755
1764434817.005897,21547.62,7592.04,51411.24,-13109.265,-41094.18,-50038.605,-11816.415,4214.115
1764434817.005897,21549.735,7589.295,51407.64,-13111.74,-41094.27,-50037.165,-11827.89,4210.785
1764434817.0069122,21551.85,7591.995,51411.51,-13107.96,-41091.3,-50034.285,-11827.26,4212.135
1764434817.0069122,21552.75,7598.07,51419.43,-13101.165,-41087.16,-50031.045,-11818.71,4215.105
1764434817.0560937,21549.825,7602.12,51426.0,-13095.945,-41083.605,-50029.065,-11802.96,4219.245
1764434817.0560937,21546.585,7607.34,51432.975,-13090.455,-41082.345,-50031.36,-11787.03,4223.97
1764434817.0560937,21543.615,7609.995,51435.945,-13088.745,-41081.535,-50032.845,-11776.545,4227.57
1764434817.0560937,21545.775,7610.715,51435.765,-13088.52,-41081.22,-50032.08,-11772.72,4232.115
1764434817.0560937,21547.035,7605.495,51429.33,-13094.505,-41084.91,-50034.825,-11781.99,4228.875
1764434817.0560937,21544.38,7596.585,51418.035,-13104.54,-41091.615,-50039.46,-11799.45,4220.505
1764434817.0560937,21546.18,7590.465,51409.17,-13110.705,-41094.495,-50038.83,-11816.145,4214.205
1764434817.0560937,21549.375,7589.34,51407.01,-13111.155,-41093.865,-50037.165,-11827.35,4211.235
1764434817.0560937,21549.825,7590.059999999999,51408.45,-13109.22,-41092.74,-50036.265,-11827.305,4211.055
1764434817.0560937,21549.195,7593.929999999999,51414.165,-13104.315,-41089.77,-50034.24,-11817.63,4214.295
1764434817.0560937,21546.945,7599.285,51422.58,-13097.925,-41086.08,-50033.43,-11804.895,4218.345
1764434817.0560937,21543.21,7603.605,51429.645,-13092.705,-41084.505,-50034.645,-11789.325,4222.575
1764434817.0560937,21540.285,7608.42,51434.685,-13089.33,-41082.93,-50035.14,-11777.535,4224.87
1764434817.0560937,21544.38,7609.905,51434.82,-13089.195,-41082.705,-50034.24,-11775.51,4228.785
1764434817.0560937,21550.455,7608.465,51431.085,-13091.58,-41082.615,-50031.855,-11780.37,4230.81
1764434817.0560937,21548.07,7600.905,51422.13,-13099.365,-41087.295,-50035.095,-11794.995,4224.42
1764434817.0560937,21552.03,7596.585,51415.92,-13104.45,-41087.925,-50033.25,-11808.9,4222.08
1764434817.0560937,21557.25,7596.585,51413.4,-13105.17,-41086.575,-50030.055,-11819.16,4219.83
1764434817.0560937,21557.295,7598.429999999999,51416.01,-13102.47,-41085.0,-50028.84,-11819.025,4219.29
1764434817.0560937,21555.18,7601.804999999999,51421.455,-13097.655,-41082.615,-50027.895,-11810.655,4220.415
1764434817.0560937,21552.705,7606.08,51428.295,-13093.2,-41080.23,-50027.805,-11798.055,4223.88
1764434817.0560937,21547.845,7609.95,51435.18,-13087.98,-41078.43,-50028.84,-11783.43,4227.84
1764434817.0560937,21547.305,7615.259999999999,51441.705,-13081.905,-41074.965,-50027.22,-11769.795,4234.59
1764434817.0560937,21546.63,7614.495,51439.455,-13083.255,-41076.495,-50028.165,-11770.29,4233.87
1764434817.0961137,21549.555,7608.554999999999,51429.96,-13091.535,-41081.805,-50032.62,-11781.63,4228.92
1764434817.0961137,21549.645,7599.509999999999,51418.935,-13101.75,-41088.735,-50036.94,-11797.92,4221.63
1764434817.0986764,21551.715,7595.28,51412.005,-13106.565,-41090.13,-50035.23,-11813.445,4217.67
1764434817.0986764,21555.27,7594.83,51410.835,-13106.61,-41088.24,-50032.35,-11821.77,4215.78
1764434817.0986764,21556.53,7596.855,51414.075,-13103.235,-41085.585,-50030.55,-11820.78,4216.32
1764434817.0986764,21555.72,7601.759999999999,51420.465,-13097.385,-41082.57,-50029.2,-11812.275,4219.65
1764434817.0986764,21554.145,7607.519999999999,51429.015,-13090.77,-41079.42,-50027.265,-11798.325,4224.96
1764434817.0986764,21551.805,7613.28,51437.565,-13083.84,-41076.27,-50027.175,-11781.54,4230.405
1764434817.0986764,21548.88,7614.36,51439.635,-13082.94,-41077.17,-50029.2,-11771.64,4232.16
1764434817.0986764,21546.9,7611.299999999999,51436.035,-13086.405,-41079.645,-50031.495,-11773.62,4231.035
1764434817.0986764,21550.77,7609.679999999999,51432.12,-13089.24,-41080.095,-50029.92,-11779.065,4233.06
1764434817.0986764,21549.825,7601.535,51421.545,-13097.385,-41085.765,-50033.115,-11794.77,4225.455
1764434817.0986764,21554.235,7598.79,51416.19,-13100.13,-41086.305,-50031.18,-11810.52,4221.54
1764434817.0986764,21554.145,7593.299999999999,51409.98,-13106.16,-41088.915,-50032.44,-11823.615,4215.555
1764434817.0986764,21556.845,7597.035,51414.885,-13102.335,-41085.09,-50028.615,-11820.78,4217.445
1764434817.0994308,21553.515,7598.969999999999,51419.295,-13098.915,-41084.28,-50029.155,-11814.165,4218.03
1764434817.1004407,21553.875,7605.224999999999,51427.26,-13091.67,-41079.42,-50027.67,-11799.45,4223.97
1764434817.1004407,21555.585,7615.53,51439.68,-13081.23,-41073.03,-50023.305,-11778.615,4233.285
1764434817.1004407,21552.3,7617.375,51442.605,-13079.295,-41073.345,-50025.555,-11769.255,4235.58
1764434817.1004407,21550.635,7613.549999999999,51436.755,-13083.615,-41077.035,-50029.515,-11771.955,4233.825
1764434817.1004407,21553.785,7611.66,51433.02,-13085.82,-41077.305,-50027.85,-11778.615,4234.095
1764434817.1004407,21552.255,7602.705,51422.58,-13094.505,-41083.155,-50030.91,-11794.59,4226.22
1764434817.1442523,21555.27,7597.304999999999,51414.66,-13099.68,-41085.405,-50029.92,-11810.61,4221.045
1764434817.1442523,21561.03,7598.79,51415.605,-13098.87,-41081.67,-50024.79,-11817.63,4220.055
1764434817.1452577,21558.195,7597.62,51416.145,-13098.42,-41082.255,-50026.05,-11819.385,4217.535
1764434817.1452577,21556.71,7601.04,51421.41,-13094.415,-41080.59,-50026.23,-11811.24,4222.08
1764434817.1457758,21556.305,7605.63,51428.07,-13089.465,-41078.34,-50026.14,-11797.155,4229.055
1764434817.1457758,21557.25,7615.304999999999,51440.085,-13079.88,-41072.085,-50023.395,-11777.265,4236.84
1764434817.1457758,21551.31,7617.15,51442.155,-13078.125,-41072.85,-50025.24,-11769.39,4235.715
1764434817.1457758,21554.91,7618.86,51443.595,-13076.415,-41070.735,-50022.63,-11766.555,4239.36
1764434817.1467886,21555.9,7614.134999999999,51437.295,-13082.715,-41073.75,-50023.845,-11775.6,4237.38
1764434817.1467886,21556.845,7606.889999999999,51427.08,-13090.545,-41078.745,-50026.68,-11790.495,4232.43
1764434817.1467886,21557.835,7599.509999999999,51416.145,-13099.77,-41083.605,-50027.895,-11809.125,4226.13
1764434817.1477892,21560.355,7598.969999999999,51415.875,-13098.915,-41081.085,-50024.97,-11818.215,4222.98
1764434817.1477892,21561.66,7602.075,51420.06,-13094.55,-41078.205,-50022.09,-11816.01,4224.06
1764434817.1477892,21560.13,7604.775,51424.83,-13089.78,-41076.855,-50021.865,-11806.785,4226.445
1764434817.1477892,21556.35,7609.005,51431.535,-13085.145,-41074.695,-50022.27,-11793.915,4230.135
1764434817.1477892,21549.87,7611.84,51436.755,-13081.77,-41075.37,-50026.32,-11781.18,4232.16
1764434817.1477892,21548.835,7614.224999999999,51440.13,-13079.565,-41073.975,-50027.535,-11769.93,4236.3
1764434817.1493,21554.145,7617.509999999999,51442.245,-13077.36,-41069.79,-50024.16,-11765.745,4240.935
1764434817.1493,21556.17,7613.549999999999,51436.26,-13082.085,-41071.545,-50024.115,-11774.115,4238.19
1764434817.1493,21552.885,7604.549999999999,51425.505,-13091.31,-41077.71,-50027.895,-11791.53,4229.01
1764434817.1493,21558.285,7601.264999999999,51419.295,-13094.91,-41077.53,-50024.43,-11805.615,4226.085
1764434817.1493,21559.77,7599.42,51417.09,-13097.43,-41077.08,-50022.27,-11814.03,4222.845
1764434817.1493,21558.105,7598.205,51416.955,-13098.87,-41079.915,-50026.005,-11816.19,4221.675
1764434817.150317,21557.88,7603.559999999999,51424.065,-13092.75,-41076.54,-50024.205,-11806.56,4225.32
1764434817.1909328,21558.06,7611.884999999999,51434.505,-13084.56,-41071.23,-50020.245,-11791.125,4230.99
1764434817.191448,21558.87,7621.38,51445.755,-13074.795,-41065.245,-50016.645,-11770.515,4240.26
1764434817.191448,21556.485,7622.054999999999,51447.33,-13073.31,-41066.82,-50019.93,-11762.055,4244.22
1764434817.191448,21557.115,7621.29,51445.53,-13073.895,-41067.18,-50019.705,-11762.64,4244.445
1764434817.191448,21557.835,7616.835,51439.59,-13079.205,-41069.7,-50019.795,-11771.325,4241.52
1764434817.191448,21556.26,7607.34,51428.835,-13088.745,-41075.73,-50024.295,-11788.785,4233.195
1764434817.191448,21561.21,7603.785,51423.12,-13092.345,-41075.325,-50021.685,-11802.915,4230.855
1764434817.191448,21559.275,7600.005,51417.99,-13095.27,-41076.765,-50022.18,-11814.3,4225.68
1764434817.191448,21560.985,7603.83,51421.95,-13091.715,-41074.38,-50019.39,-11810.79,4225.995
1764434817.191448,21566.16,7610.985,51430.725,-13084.965,-41070.555,-50017.14,-11799.315,4229.82
1764434817.191448,21562.56,7614.9,51437.295,-13080.42,-41068.125,-50017.59,-11787.615,4232.43
1764434817.191448,21561.255,7622.46,51448.32,-13071.195,-41062.59,-50014.395,-11767.995,4240.889999999999
1764434817.191448,21559.455,7624.844999999999,51450.93,-13069.26,-41062.905,-50016.6,-11757.87,4246.56
1764434817.191448,21560.265,7623.495,51448.185,-13072.68,-41064.615,-50017.455,-11758.095,4248.405
1764434817.191448,21560.445,7618.679999999999,51442.425,-13078.215,-41066.865,-50018.355,-11768.625,4243.365
1764434817.191448,21558.69,7609.545,51430.725,-13087.71,-41073.615,-50023.395,-11786.85,4233.915
1764434817.191448,21560.94,7603.469999999999,51422.535,-13093.605,-41076.63,-50023.53,-11803.005,4227.974999999999
1764434817.191448,21564.225,7603.469999999999,51421.32,-13094.415,-41075.775,-50020.245,-11811.51,4226.13
1764434817.191448,21565.395,7606.844999999999,51425.235,-13090.275,-41072.445,-50017.41,-11808.45,4228.245
1764434817.191448,21567.6,7614.315,51435.405,-13081.005,-41065.695,-50012.64,-11794.77,4235.31
1764434817.191448,21563.91,7617.33,51441.12,-13076.865,-41063.76,-50013.405,-11782.44,4237.875
1764434817.191448,21564.81,7625.969999999999,51452.55,-13067.325,-41057.865,-50009.85,-11762.55,4246.38
1764434817.237502,21560.58,7624.665,51452.37,-13068.045,-41059.71,-50013.315,-11755.305,4248.045
1764434817.237502,21564.27,7624.98,51452.1,-13068.855,-41059.62,-50012.37,-11754.09,4251.599999999999
1764434817.237502,21565.08,7622.549999999999,51447.15,-13072.77,-41062.275,-50013.72,-11763.72,4248.045
1764434817.237502,21564.495,7615.934999999999,51438.24,-13079.745,-41065.38,-50015.205,-11778.57,4240.53
1764434817.237502,21565.44,7608.96,51429.735,-13086.495,-41069.205,-50016.915,-11797.02,4233.06
1764434817.237502,21569.58,7610.13,51429.555,-13085.055,-41066.73,-50012.28,-11802.42,4233.33
1764434817.237502,21569.04,7611.84,51432.705,-13082.445,-41064.705,-50010.84,-11800.26,4233.555
1764434817.237502,21567.285,7614.495,51437.25,-13079.97,-41064.48,-50012.415,-11792.34,4236.165
1764434817.237502,21564.36,7617.285,51440.985,-13077.81,-41065.38,-50015.16,-11783.7,4238.235
1764434817.237502,21557.925,7619.94,51447.42,-13072.23,-41062.635,-50013.63,-11765.205,4241.79
1764434817.237502,21559.185,7622.775,51450.795,-13070.835,-41062.23,-50017.32,-11756.61,4246.965
1764434817.237502,21563.55,7624.844999999999,51451.155,-13069.08,-41059.62,-50015.07,-11754.99,4250.07
1764434817.237502,21564.135,7619.94,51444.945,-13073.895,-41062.14,-50015.925,-11764.215,4248.315
1764434817.237502,21564.18,7612.83,51435.315,-13081.635,-41066.595,-50017.77,-11779.425,4241.745
1764434817.237502,21564.27,7605.585,51424.92,-13089.555,-41071.545,-50019.93,-11797.965,4232.88
1764434817.237502,21567.06,7604.505,51423.615,-13090.185,-41070.69,-50017.86,-11806.065,4231.08
1764434817.237502,21570.93,7611.705,51432.255,-13081.995,-41063.715,-50011.245,-11799.405,4235.4
1764434817.237502,21570.435,7616.835,51439.95,-13075.155,-41059.575,-50008.59,-11788.875,4239.18
1764434817.237502,21567.015,7620.299999999999,51446.07,-13070.295,-41058.09,-50009.13,-11776.275,4242.87
1764434817.237502,21565.395,7627.184999999999,51454.62,-13064.04,-41054.355,-50008.635,-11758.815,4248.9
1764434817.237502,21563.55,7629.075,51456.87,-13062.42,-41054.76,-50011.02,-11750.94,4251.96
1764434817.237502,21564.81,7627.545,51454.71,-13064.715,-41056.38,-50011.695,-11751.615,4253.22
1764434817.237502,21568.005,7624.485,51449.4,-13068.765,-41057.055,-50010.48,-11759.13,4252.32
1764434817.237502,21569.13,7618.815,51440.85,-13075.245,-41060.565,-50011.29,-11773.44,4246.785
1764434817.282488,21570.21,7611.434999999999,51431.31,-13082.265,-41063.67,-50012.55,-11791.935,4237.56
1764434817.282488,21569.805,7607.88,51427.62,-13084.47,-41064.39,-50012.505,-11802.825,4231.485
1764434817.282488,21571.56,7611.57,51433.02,-13080.465,-41061.51,-50009.355,-11798.595,4235.535
1764434817.282488,21567.24,7612.695,51436.035,-13079.205,-41062.59,-50012.325,-11791.17,4238.55
1764434817.282488,21564.63,7617.42,51443.055,-13073.355,-41059.71,-50011.605,-11777.94,4242.105
1764434817.283482,21563.955,7624.98,51453.18,-13065.03,-41054.85,-50009.265,-11759.085,4249.035
1764434817.283482,21559.095,7624.08,51453.36,-13065.795,-41056.965,-50012.955,-11754.315,4248.315
1764434817.283988,21560.49,7624.844999999999,51453.315,-13066.2,-41055.57,-50011.56,-11753.955,4250.61
1764434817.283988,21566.295,7623.99,51449.31,-13068.36,-41055.705,-50009.04,-11758.32,4253.895
1764434817.283988,21567.465,7617.285,51439.5,-13075.605,-41060.205,-50011.245,-11773.575,4247.145
1764434817.283988,21568.545,7608.195,51427.62,-13086.54,-41067.405,-50015.745,-11795.22,4235.13
1764434817.283988,21571.2,7608.735,51428.43,-13085.01,-41065.38,-50012.82,-11801.79,4234.32
1764434817.283988,21574.89,7615.17,51437.16,-13076.865,-41058.72,-50006.34,-11793.825,4240.665
1764434817.283988,21573.81,7620.165,51443.82,-13070.88,-41055.48,-50004.9,-11783.565,4243.995
1764434817.285494,21567.375,7621.065,51447.645,-13069.35,-41055.975,-50008.23,-11773.08,4244.535
1764434817.285494,21563.73,7625.384999999999,51454.215,-13063.905,-41054.31,-50008.995,-11757.105,4249.485
1764434817.285494,21561.21,7626.509999999999,51455.655,-13062.78,-41054.13,-50009.85,-11749.455,4251.285
1764434817.28639,21562.695,7625.384999999999,51453.585,-13064.085,-41054.13,-50009.805,-11750.85,4251.285
1764434817.28639,21566.16,7622.91,51449.31,-13067.685,-41055.03,-50008.545,-11758.005,4249.98
1764434817.28639,21566.655,7614.63,51437.745,-13077.9,-41062.365,-50013.405,-11776.095,4244.13
1764434817.2874067,21571.515,7612.92,51432.795,-13080.87,-41061.15,-50010.165,-11789.685,4241.16
1764434817.2874067,21573.27,7612.65,51432.39,-13079.7,-41058.99,-50006.88,-11796.795,4237.875
1764434817.3310757,21571.56,7613.549999999999,51435.765,-13077.135,-41058.72,-50006.79,-11795.13,4236.93
1764434817.3310757,21568.23,7615.259999999999,51440.13,-13074.39,-41058.72,-50008.365,-11786.76,4238.37
1764434817.3310757,21568.545,7622.82,51449.58,-13066.2,-41053.32,-50005.89,-11769.21,4246.92
1764434817.3310757,21569.04,7630.155,51458.67,-13058.865,-41049.63,-50004.99,-11750.67,4254.84
1764434817.3310757,21566.655,7631.775,51461.19,-13057.02,-41050.08,-50005.44,-11742.57,4256.595
1764434817.3310757,21568.32,7631.28,51459.435,-13058.82,-41050.8,-50005.215,-11745.225,4256.73
1764434817.3310757,21568.86,7626.195,51452.73,-13064.715,-41053.545,-50007.105,-11755.665,4253.4
1764434817.3310757,21570.255,7620.434999999999,51444.63,-13070.835,-41056.29,-50007.78,-11769.795,4248.764999999999
1764434817.3310757,21572.37,7614.674999999999,51435.18,-13077.36,-41059.89,-50008.725,-11787.075,4242.285
1764434817.3310757,21570.975,7610.849999999999,51430.905,-13081.05,-41062.275,-50009.31,-11797.605,4236.075
1764434817.3310757,21571.245,7613.235,51435.27,-13077.18,-41060.025,-50007.015,-11793.42,4236.615
1764434817.3310757,21571.605,7618.995,51443.46,-13070.43,-41055.21,-50004.09,-11781.63,4242.06
1764434817.3320782,21570.3,7624.71,51451.965,-13064.175,-41051.115,-50002.74,-11766.195,4248.27
1764434817.3320782,21572.19,7634.61,51463.98,-13054.095,-41043.87,-49999.14,-11745.765,4257.99
1764434817.3320782,21572.505,7637.309999999999,51467.67,-13051.395,-41043.6,-49999.905,-11737.8,4261.59
1764434817.3320782,21572.235,7634.295,51463.395,-13054.905,-41045.715,-50001.165,-11741.445,4259.474999999999
1764434817.3320782,21572.46,7629.795,51456.87,-13059.855,-41048.685,-50002.65,-11752.56,4254.705
1764434817.3320782,21571.245,7621.605,51446.16,-13068.765,-41053.905,-50005.62,-11769.705,4246.695
1764434817.3320782,21573.495,7616.429999999999,51438.105,-13074.975,-41056.065,-50005.305,-11785.545,4242.96
