Timestamp,Channel1,Channel2,Channel3,Channel4,Channel5,Channel6,Channel7,Channel8
1764434736.8408296,-576.54,-9359.955,-37903.095,-25659.81,-21560.49,-21125.25,-11883.105,-6905.745
1764434736.8408296,-574.47,-9357.975,-37907.505,-25657.74,-21559.41,-21114.09,-11893.185,-6914.52
1764434736.8408296,-569.52,-9354.42,-37909.89,-25652.475,-21555.945,-21098.565,-11902.545,-6923.16
1764434736.8408296,-561.735,-9347.265,-37909.98,-25644.42,-21549.285,-21077.775,-11912.67,-6929.73
1764434736.8408296,-556.245,-9342.09,-37908.585,-25638.39,-21544.335,-21064.14,-11916.81,-6932.835
1764434736.8408296,-556.92,-9342.945,-37907.505,-25638.03,-21544.29,-21067.29,-11913.705,-6929.505
1764434736.8408296,-562.995,-9349.02,-37907.865,-25643.925,-21549.24,-21082.86,-11906.73,-6925.455
1764434736.8408296,-569.61,-9353.97,-37907.235,-25650.54,-21554.37,-21099.96,-11898.855,-6919.245
1764434736.8408296,-575.415,-9358.47,-37904.625,-25655.805,-21558.465,-21119.175,-11886.84,-6909.12
1764434736.8408296,-578.52,-9360.945,-37902.645,-25659.405,-21561.21,-21130.065,-11879.82,-6903.855
1764434736.8779216,-577.125,-9358.56,-37903.32,-25659.225,-21560.445,-21125.88,-11882.115,-6905.52
1764434736.8779216,-577.215,-9359.415,-37909.485,-25660.215,-21561.75,-21117.465,-11894.895,-6916.455
1764434736.8779216,-567.72,-9351.045,-37907.595,-25651.26,-21553.965,-21097.44,-11901.33,-6920.054999999999
1764434736.8779216,-562.41,-9346.77,-37910.52,-25645.005,-21550.5,-21079.485,-11912.895,-6929.505
1764434736.8779216,-557.9549999999999,-9343.17,-37910.295,-25639.605,-21546.585,-21067.065,-11918.07,-6933.69
1764434736.8779216,-558.18,-9343.89,-37908.09,-25638.39,-21545.595,-21069.54,-11914.965,-6929.865
1764434736.8779216,-558.855,-9344.205,-37902.015,-25638.165,-21544.155,-21079.305,-11902.995,-6919.29
1764434736.8779216,-566.37,-9351.18,-37902.105,-25645.995,-21550.23,-21098.34,-11894.805,-6913.8
1764434736.8779216,-572.67,-9355.905,-37900.17,-25652.79,-21555.45,-21117.42,-11884.275,-6904.395
1764434736.8779216,-579.42,-9361.08,-37902.24,-25659.855,-21561.615,-21131.28,-11881.98,-6901.92
1764434736.878934,-579.8249999999999,-9360.99,-37904.94,-25661.205,-21562.74,-21129.795,-11885.895,-6906.825
1764434736.878934,-579.645,-9360.54,-37910.295,-25660.665,-21563.235,-21119.76,-11897.325,-6916.634999999999
1764434736.878934,-575.37,-9358.065,-37914.165,-25656.975,-21560.625,-21104.37,-11908.215,-6925.995
1764434736.878934,-567.18,-9351.945,-37915.965,-25649.145,-21554.775,-21083.895,-11918.565,-6934.275
1764434736.878934,-561.51,-9346.41,-37913.625,-25642.53,-21549.42,-21070.8,-11920.725,-6935.445
1764434736.878934,-560.52,-9346.5,-37910.115,-25640.91,-21548.475,-21072.645,-11916.315,-6931.44
1764434736.878934,-563.805,-9349.515,-37907.505,-25644.285,-21551.22,-21084.57,-11906.955,-6923.969999999999
1764434736.878934,-568.89,-9352.305,-37905.615,-25648.245,-21554.28,-21100.68,-11896.695,-6915.105
1764434736.878934,-575.8199999999999,-9358.605,-37903.815,-25656.12,-21559.095,-21121.335,-11885.94,-6906.599999999999
1764434736.878934,-582.12,-9363.195,-37905.48,-25663.455,-21564.27,-21135.33,-11882.925,-6904.98
1764434736.878934,-580.77,-9360.72,-37905.705,-25661.88,-21562.965,-21130.47,-11885.625,-6906.42
1764434736.878934,-577.755,-9358.965,-37909.215,-25659.765,-21562.605,-21118.815,-11896.47,-6915.554999999999
1764434736.878934,-572.355,-9354.015,-37910.97,-25654.365,-21558.42,-21101.805,-11906.19,-6923.384999999999
1764434736.878934,-567.855,-9350.865,-37914.705,-25649.37,-21555.27,-21083.985,-11917.755,-6933.825
1764434736.9224594,-562.4549999999999,-9346.185,-37913.715,-25643.025,-21550.77,-21071.385,-11920.455,-6936.165
1764434736.9224594,-562.59,-9346.365,-37912.23,-25641.18,-21549.645,-21073.365,-11916.09,-6931.889999999999
1764434736.9224594,-565.74,-9348.84,-37909.035,-25643.115,-21551.985,-21086.28,-11907.315,-6923.16
1764434736.9224594,-569.115,-9350.82,-37905.03,-25646.76,-21553.29,-21101.49,-11897.145,-6913.08
1764434736.9224594,-575.685,-9356.67,-37903.68,-25653.78,-21559.095,-21121.785,-11886.39,-6905.384999999999
1764434736.9224594,-581.355,-9360.495,-37905.615,-25659.81,-21564.63,-21135.195,-11882.79,-6903.495
1764434736.9224594,-581.76,-9360.27,-37907.91,-25661.745,-21566.565,-21132.72,-11887.47,-6908.085
1764434736.9224594,-582.165,-9360.585,-37914.255,-25662.15,-21567.51,-21123.585,-11898.72,-6919.605
1764434736.9224594,-575.64,-9355.545,-37915.335,-25655.49,-21562.245,-21106.215,-11908.035,-6926.355
1764434736.9224594,-568.125,-9349.2,-37916.415,-25647.255,-21556.305,-21085.245,-11918.475,-6933.78
1764434736.9224594,-561.6,-9343.44,-37913.94,-25639.965,-21549.825,-21071.7,-11921.445,-6934.77
1764434736.9224594,-560.385,-9341.955,-37909.44,-25637.85,-21546.495,-21072.24,-11915.46,-6928.875
1764434736.9224594,-566.3249999999999,-9347.355,-37908.27,-25643.52,-21550.455,-21086.82,-11907.675,-6923.34
1764434736.9224594,-574.605,-9355.005,-37908.54,-25651.17,-21557.52,-21106.305,-11900.43,-6918.705
1764434736.9224594,-578.295,-9357.3,-37904.04,-25654.995,-21559.59,-21123.855,-11888.1,-6907.455
1764434736.9224594,-583.47,-9360.315,-37905.255,-25661.385,-21564.0,-21136.14,-11883.96,-6905.115
1764434736.9224594,-579.375,-9356.49,-37904.58,-25659.81,-21561.93,-21129.84,-11885.265,-6905.384999999999
1764434736.9224594,-578.6999999999999,-9356.715,-37910.655,-25659.855,-21562.83,-21120.165,-11897.145,-6917.355
1764434736.9224594,-571.77,-9351.54,-37911.015,-25652.43,-21556.755,-21101.895,-11905.47,-6924.014999999999
1764434736.9239905,-564.615,-9345.87,-37911.555,-25644.33,-21552.255,-21081.42,-11916.0,-6931.98
1764434736.9239905,-558.855,-9340.875,-37908.99,-25637.4,-21546.945,-21068.415,-11918.475,-6934.32
1764434736.9239905,-558.27,-9340.245,-37905.255,-25634.745,-21544.11,-21070.98,-11913.345,-6928.65
1764434736.9721825,-562.4549999999999,-9344.52,-37903.23,-25638.795,-21547.62,-21084.21,-11904.39,-6920.91
1764434736.9721825,-570.42,-9351.45,-37903.32,-25646.535,-21553.155,-21102.84,-11897.37,-6915.645
1764434736.9721825,-577.62,-9357.03,-37902.105,-25654.23,-21557.88,-21122.595,-11887.065,-6907.905
1764434736.9721825,-583.3349999999999,-9362.07,-37904.895,-25660.935,-21562.785,-21134.745,-11883.915,-6906.645
1764434736.9721825,-580.3199999999999,-9358.38,-37904.805,-25659.405,-21560.895,-21128.625,-11886.165,-6907.59
1764434736.9721825,-579.42,-9357.75,-37910.565,-25658.955,-21561.39,-21118.725,-11898.315,-6918.57
1764434736.9721825,-571.8149999999999,-9351.09,-37909.575,-25651.215,-21555.27,-21099.825,-11907.225,-6924.465
1764434736.9721825,-564.93,-9345.645,-37911.195,-25643.925,-21550.095,-21080.565,-11917.395,-6932.925
1764434736.9721825,-563.67,-9344.655,-37912.68,-25640.865,-21548.16,-21071.295,-11922.75,-6937.74
1764434736.9721825,-563.265,-9344.475,-37909.62,-25640.1,-21547.08,-21073.815,-11917.98,-6932.115
1764434736.9721825,-564.7049999999999,-9345.6,-37904.76,-25641.045,-21546.63,-21084.12,-11906.865,-6922.98
1764434736.9721825,-573.84,-9353.52,-37906.02,-25648.74,-21553.38,-21104.19,-11899.665,-6917.535
1764434736.9721825,-578.52,-9357.165,-37901.7,-25653.645,-21556.125,-21122.91,-11887.965,-6907.139999999999
1764434736.9721825,-585.765,-9363.195,-37904.85,-25662.15,-21563.505,-21136.86,-11886.075,-6907.05
1764434736.9721825,-582.48,-9359.64,-37904.49,-25660.845,-21561.345,-21130.245,-11888.685,-6908.13
1764434736.9721825,-578.88,-9357.165,-37907.685,-25657.92,-21559.635,-21118.14,-11899.485,-6916.77
1764434736.9721825,-570.645,-9350.64,-37908.54,-25650.9,-21553.65,-21099.105,-11906.685,-6923.07
1764434736.9721825,-562.68,-9343.755,-37909.665,-25642.395,-21547.89,-21077.685,-11915.775,-6930.63
1764434736.9721825,-558.5849999999999,-9340.29,-37909.035,-25637.895,-21543.795,-21066.84,-11919.735,-6933.78
1764434736.9721825,-559.845,-9341.775,-37907.19,-25637.94,-21543.48,-21070.98,-11915.82,-6930.045
1764434736.9721825,-564.75,-9346.185,-37905.525,-25642.44,-21546.225,-21084.975,-11907.315,-6923.34
1764434736.9721825,-573.39,-9354.465,-37906.47,-25650.72,-21553.56,-21104.55,-11899.89,-6918.12
1764434737.015771,-577.215,-9356.04,-37901.565,-25654.455,-21555.72,-21122.01,-11886.66,-6905.61
1764434737.015771,-580.4549999999999,-9358.29,-37901.565,-25659.18,-21558.69,-21132.09,-11882.07,-6902.639999999999
1764434737.015771,-580.905,-9358.83,-37905.3,-25660.26,-21560.13,-21129.795,-11887.065,-6908.085
1764434737.015771,-578.745,-9357.39,-37909.44,-25659.72,-21559.32,-21118.365,-11898.225,-6918.57
1764434737.015771,-573.5699999999999,-9352.665,-37911.78,-25654.68,-21555.405,-21101.265,-11907.54,-6926.175
1764434737.015771,-564.2099999999999,-9344.385,-37910.43,-25643.61,-21547.44,-21078.09,-11915.505,-6931.665
1764434737.015771,-560.925,-9343.305,-37911.69,-25639.83,-21545.28,-21069.045,-11920.365,-6935.895
1764434737.015771,-562.14,-9344.79,-37910.34,-25641.27,-21546.27,-21074.4,-11916.18,-6932.7
1764434737.015771,-565.0649999999999,-9347.265,-37906.47,-25643.205,-21547.665,-21086.685,-11906.055,-6923.745
1764434737.015771,-569.5649999999999,-9351.135,-37903.32,-25646.895,-21549.735,-21102.435,-11895.975,-6913.889999999999
1764434737.015771,-577.755,-9358.74,-37904.355,-25655.805,-21557.205,-21124.395,-11886.66,-6907.679999999999
1764434737.015771,-578.2049999999999,-9358.155,-37901.07,-25657.29,-21558.465,-21131.235,-11880.18,-6901.965
1764434737.015771,-579.3299999999999,-9358.02,-37904.355,-25658.64,-21559.905,-21128.535,-11886.03,-6907.185
1764434737.015771,-579.915,-9358.83,-37911.465,-25658.775,-21561.66,-21119.715,-11898.99,-6919.605
1764434737.015771,-571.5,-9351.63,-37910.475,-25650.72,-21554.73,-21100.14,-11906.55,-6925.094999999999
1764434737.0167854,-563.49,-9344.97,-37911.195,-25643.25,-21547.755,-21078.99,-11916.495,-6932.115
1764434737.0167854,-560.2049999999999,-9341.235,-37910.25,-25638.03,-21544.155,-21068.01,-11919.33,-6934.005
1764434737.0167854,-560.88,-9343.08,-37908.765,-25638.12,-21544.335,-21073.14,-11914.515,-6930.719999999999
1764434737.0167854,-564.615,-9346.86,-37906.56,-25641.54,-21547.125,-21086.955,-11905.785,-6922.755
1764434737.0167854,-569.0699999999999,-9350.775,-37904.895,-25647.03,-21550.32,-21103.605,-11896.02,-6914.34
1764434737.0167854,-578.43,-9358.83,-37906.29,-25657.515,-21557.97,-21125.655,-11887.515,-6908.804999999999
1764434737.0167854,-580.725,-9359.37,-37904.445,-25660.17,-21559.365,-21133.305,-11882.88,-6904.98
1764434737.0167854,-579.78,-9358.875,-37907.28,-25660.125,-21559.905,-21129.3,-11887.965,-6909.615
1764434737.0167854,-577.62,-9356.445,-37910.52,-25658.19,-21558.285,-21116.385,-11898.495,-6918.705
1764434737.0644326,-572.715,-9352.665,-37912.995,-25653.195,-21554.73,-21099.78,-11907.945,-6926.895
1764434737.0644326,-563.985,-9345.195,-37912.635,-25643.97,-21547.755,-21078.045,-11916.18,-6933.15
1764434737.0644326,-557.865,-9339.84,-37909.305,-25636.14,-21541.095,-21065.355,-11916.9,-6932.79
1764434737.0644326,-557.01,-9340.65,-37904.895,-25634.88,-21539.205,-21068.415,-11911.635,-6926.759999999999
1764434737.0644326,-561.915,-9345.015,-37903.05,-25639.605,-21542.625,-21083.49,-11902.275,-6919.29
1764434737.0644326,-569.61,-9351.405,-37903.005,-25647.255,-21547.845,-21102.12,-11893.995,-6914.115
1764434737.0644326,-578.115,-9356.94,-37902.015,-25655.13,-21554.955,-21122.955,-11883.69,-6906.285
1764434737.0644326,-582.975,-9360.765,-37904.04,-25661.07,-21560.895,-21134.115,-11881.575,-6905.115
1764434737.0644326,-579.015,-9357.525,-37903.77,-25659.045,-21558.78,-21126.735,-11884.68,-6906.24
1764434737.0644326,-577.98,-9357.03,-37909.215,-25658.595,-21558.69,-21115.44,-11896.29,-6917.355
1764434737.0644326,-568.665,-9348.525,-37908.0,-25648.515,-21550.365,-21094.83,-11903.22,-6922.259999999999
1764434737.0644326,-563.535,-9343.98,-37911.015,-25641.99,-21545.595,-21076.47,-11914.47,-6932.205
1764434737.065426,-557.9549999999999,-9339.165,-37908.36,-25634.385,-21540.33,-21064.95,-11916.045,-6932.07
1764434737.065426,-561.87,-9343.26,-37908.945,-25637.22,-21542.49,-21072.015,-11912.985,-6929.955
1764434737.065426,-563.9399999999999,-9346.05,-37905.21,-25639.83,-21543.57,-21084.12,-11903.04,-6921.0
1764434737.065426,-572.85,-9354.015,-37906.92,-25649.01,-21550.23,-21105.09,-11896.38,-6915.825
1764434737.065426,-578.115,-9357.255,-37903.095,-25654.455,-21554.055,-21123.18,-11884.68,-6905.835
1764434737.065426,-583.245,-9360.99,-37904.04,-25659.99,-21559.41,-21133.35,-11881.845,-6905.25
1764434737.065426,-579.555,-9357.48,-37904.4,-25658.01,-21557.34,-21126.69,-11885.805,-6907.95
1764434737.065426,-575.595,-9354.42,-37907.505,-25654.365,-21555.09,-21113.37,-11895.93,-6916.23
1764434737.065426,-568.395,-9348.12,-37907.955,-25647.615,-21549.42,-21094.695,-11904.075,-6922.889999999999
1764434737.065426,-562.05,-9342.54,-37910.16,-25640.955,-21544.29,-21075.165,-11914.47,-6930.99
1764434737.0665636,-557.55,-9339.255,-37908.54,-25635.78,-21540.06,-21064.815,-11916.045,-6931.889999999999
1764434737.0675683,-557.64,-9340.47,-37905.795,-25635.645,-21539.655,-21069.495,-11910.87,-6927.48
1764434737.111815,-563.0849999999999,-9345.15,-37904.04,-25640.145,-21542.4,-21084.12,-11903.04,-6919.514999999999
1764434737.111815,-570.8249999999999,-9352.44,-37904.13,-25648.47,-21548.205,-21103.29,-11895.03,-6913.889999999999
1764434737.111815,-579.24,-9360.09,-37904.805,-25657.47,-21555.765,-21125.745,-11886.345,-6907.905
1764434737.1123197,-580.545,-9360.54,-37903.23,-25659.63,-21557.34,-21132.945,-11882.07,-6904.259999999999
1764434737.1123197,-578.2049999999999,-9357.84,-37904.715,-25658.46,-21556.575,-21127.005,-11886.03,-6907.365
1764434737.1123197,-576.045,-9355.77,-37909.89,-25656.39,-21555.855,-21114.81,-11897.37,-6917.895
1764434737.1123197,-570.645,-9351.27,-37911.78,-25650.855,-21552.075,-21097.62,-11906.865,-6925.95
1764434737.1123197,-562.4549999999999,-9344.205,-37911.87,-25642.575,-21544.965,-21076.38,-11915.595,-6932.34
1764434737.1123197,-555.885,-9337.725,-37907.595,-25635.015,-21537.675,-21064.005,-11915.28,-6930.224999999999
1764434737.1123197,-559.665,-9341.82,-37908.09,-25638.525,-21540.915,-21072.42,-11912.67,-6928.11
1764434737.1123197,-567.855,-9349.695,-37908.855,-25645.725,-21547.665,-21090.105,-11906.865,-6924.33
1764434737.1123197,-572.895,-9353.79,-37905.39,-25650.675,-21550.32,-21106.17,-11896.695,-6915.42
1764434737.1123197,-578.34,-9358.29,-37903.32,-25656.795,-21553.65,-21125.25,-11885.355,-6906.105
1764434737.1123197,-581.22,-9360.0,-37903.68,-25661.07,-21556.215,-21133.44,-11881.665,-6903.945
1764434737.1123197,-579.285,-9357.435,-37904.805,-25660.305,-21555.855,-21126.87,-11886.03,-6907.905
1764434737.1123197,-580.8149999999999,-9358.695,-37912.905,-25661.16,-21557.565,-21118.23,-11900.295,-6921.315
1764434737.1123197,-573.615,-9353.97,-37915.2,-25654.815,-21552.84,-21100.5,-11909.88,-6928.56
1764434737.1123197,-566.505,-9347.76,-37915.335,-25646.265,-21546.9,-21079.215,-11919.33,-6935.804999999999
1764434737.1123197,-559.98,-9341.145,-37910.43,-25638.255,-21539.745,-21066.345,-11918.52,-6933.735
1764434737.1123197,-565.245,-9346.23,-37911.735,-25641.675,-21543.705,-21076.155,-11916.09,-6933.014999999999
1764434737.1123197,-570.15,-9351.45,-37909.98,-25646.04,-21547.44,-21090.96,-11907.045,-6924.78
1764434737.1123197,-575.64,-9355.815,-37907.82,-25651.44,-21551.535,-21108.24,-11897.64,-6917.219999999999
1764434737.1123197,-578.79,-9357.21,-37903.545,-25655.49,-21553.695,-21124.8,-11884.77,-6906.06
1764434737.1123197,-581.5799999999999,-9359.19,-37904.4,-25659.675,-21557.025,-21132.945,-11882.43,-6904.53
1764434737.156773,-578.6999999999999,-9355.59,-37905.255,-25658.55,-21555.54,-21125.88,-11885.715,-6908.04
1764434737.1577938,-575.145,-9353.205,-37908.315,-25655.67,-21553.605,-21113.19,-11896.38,-6917.04
1764434737.1577938,-567.18,-9346.995,-37908.63,-25648.155,-21547.89,-21093.66,-11903.805,-6922.259999999999
1764434737.1577938,-560.115,-9341.055,-37910.07,-25640.235,-21542.22,-21073.95,-11913.84,-6930.99
1764434737.1577938,-556.74,-9339.03,-37909.305,-25635.87,-21538.935,-21065.31,-11916.9,-6933.285
1764434737.1577938,-560.5649999999999,-9343.215,-37908.72,-25639.02,-21541.77,-21072.735,-11913.57,-6930.9
1764434737.1577938,-567.405,-9349.245,-37908.18,-25645.095,-21546.765,-21088.53,-11905.92,-6924.69
1764434737.1577938,-572.5799999999999,-9353.52,-37905.57,-25650.45,-21550.14,-21106.845,-11896.065,-6916.455
1764434737.1577938,-579.645,-9359.055,-37903.815,-25658.145,-21555.99,-21127.23,-11886.03,-6909.255
1764434737.1577938,-584.055,-9362.79,-37906.245,-25663.635,-21559.995,-21136.14,-11884.32,-6908.13
1764434737.1577938,-578.115,-9356.49,-37903.86,-25658.775,-21555.135,-21125.655,-11885.76,-6908.219999999999
1764434737.1577938,-572.9399999999999,-9351.945,-37905.975,-25654.68,-21552.03,-21111.03,-11894.67,-6916.005
1764434737.1577938,-566.8199999999999,-9346.725,-37907.64,-25648.245,-21547.53,-21093.795,-11904.48,-6923.52
1764434737.1577938,-562.545,-9343.26,-37910.745,-25642.71,-21544.56,-21076.515,-11915.73,-6933.69
1764434737.1577938,-556.8299999999999,-9338.895,-37907.01,-25635.195,-21538.8,-21065.625,-11915.82,-6931.844999999999
1764434737.1577938,-561.465,-9343.395,-37907.55,-25638.885,-21541.275,-21075.03,-11913.66,-6929.594999999999
1764434737.1577938,-569.745,-9351.135,-37908.765,-25646.535,-21547.53,-21092.67,-11907.405,-6926.04
1764434737.1577938,-575.595,-9356.04,-37906.515,-25652.97,-21551.715,-21110.175,-11897.865,-6918.03
1764434737.1577938,-578.745,-9358.605,-37901.655,-25656.885,-21553.515,-21126.735,-11885.805,-6906.69
1764434737.1577938,-582.93,-9360.945,-37903.455,-25661.745,-21557.52,-21134.475,-11883.465,-6906.509999999999
1764434737.1577938,-580.59,-9358.425,-37905.3,-25660.665,-21556.755,-21127.32,-11887.92,-6910.065
1764434737.1577938,-577.62,-9356.895,-37910.52,-25658.865,-21555.54,-21115.395,-11899.395,-6919.469999999999
1764434737.1577938,-572.895,-9353.34,-37913.445,-25653.78,-21551.805,-21098.7,-11909.655,-6929.009999999999
1764434737.1577938,-563.85,-9344.745,-37912.545,-25643.52,-21544.38,-21077.19,-11917.08,-6933.645
1764434737.2019844,-561.285,-9343.44,-37912.455,-25639.695,-21542.22,-21070.575,-11920.005,-6935.085
1764434737.2019844,-568.215,-9350.73,-37914.795,-25645.545,-21547.62,-21081.735,-11919.555,-6936.12
1764434737.2019844,-572.715,-9354.33,-37912.23,-25649.505,-21550.59,-21095.595,-11911.05,-6928.514999999999
1764434737.2019844,-576.72,-9358.47,-37909.89,-25654.095,-21553.515,-21112.425,-11900.475,-6919.74
1764434737.2019844,-583.8299999999999,-9364.635,-37908.945,-25661.34,-21558.78,-21132.315,-11889.855,-6911.594999999999
1764434737.2019844,-583.155,-9362.34,-37905.795,-25661.88,-21557.025,-21136.185,-11884.995,-6905.969999999999
1764434737.2019844,-579.645,-9358.2,-37906.065,-25659.54,-21554.46,-21128.04,-11888.46,-6909.75
1764434737.2019844,-576.63,-9355.41,-37909.665,-25656.345,-21553.47,-21114.225,-11898.315,-6919.065
1764434737.2019844,-568.305,-9347.985,-37909.71,-25648.29,-21546.99,-21094.155,-11906.64,-6925.365
1764434737.2019844,-563.805,-9344.97,-37913.94,-25643.88,-21544.065,-21076.74,-11918.43,-6934.95
1764434737.2019844,-559.62,-9341.955,-37911.105,-25638.345,-21539.43,-21067.92,-11918.79,-6934.365
1764434737.2019844,-560.52,-9342.54,-37907.37,-25637.4,-21539.115,-21073.23,-11912.04,-6927.795
1764434737.2019844,-569.295,-9350.46,-37909.575,-25645.32,-21545.91,-21091.815,-11906.37,-6924.06
1764434737.2019844,-575.595,-9356.265,-37907.685,-25652.16,-21550.635,-21110.49,-11897.19,-6916.365
1764434737.2019844,-581.22,-9360.315,-37904.175,-25658.28,-21554.1,-21127.905,-11886.345,-6907.59
1764434737.2019844,-586.62,-9364.95,-37907.955,-25664.58,-21559.815,-21137.94,-11887.065,-6909.21
1764434737.2019844,-580.59,-9359.145,-37906.155,-25659.81,-21555.315,-21128.175,-11889.405,-6909.795
1764434737.2019844,-576.405,-9356.31,-37910.07,-25656.615,-21553.74,-21114.81,-11898.945,-6918.21
1764434737.2019844,-570.285,-9351.405,-37912.32,-25650.81,-21550.095,-21097.53,-11908.755,-6926.895
1764434737.2019844,-560.655,-9342.045,-37910.205,-25639.695,-21541.365,-21075.345,-11914.92,-6931.53
1764434737.2499363,-559.17,-9340.83,-37910.295,-25636.995,-21538.89,-21069.72,-11917.305,-6932.969999999999
1764434737.2499363,-558.045,-9340.11,-37904.31,-25634.88,-21536.37,-21073.185,-11910.15,-6924.69
1764434737.2509377,-562.59,-9344.655,-37902.24,-25640.235,-21538.755,-21087.09,-11900.79,-6917.219999999999
1764434737.2509377,-570.15,-9350.55,-37900.845,-25647.525,-21544.065,-21105.0,-11891.34,-6910.29
1764434737.2509377,-576.18,-9354.78,-37899.09,-25653.78,-21548.835,-21123.225,-11880.585,-6901.02
1764434737.2519364,-577.395,-9355.95,-37899.855,-25657.245,-21550.905,-21130.065,-11878.02,-6899.58
1764434737.2519364,-574.515,-9353.295,-37900.035,-25655.715,-21549.555,-21122.1,-11882.745,-6903.54
1764434737.2519364,-571.8149999999999,-9351.63,-37903.905,-25652.565,-21547.845,-21109.005,-11894.265,-6913.215
1764434737.2519364,-567.045,-9347.715,-37907.595,-25647.345,-21544.065,-21092.13,-11905.29,-6922.035
1764434737.2519364,-563.49,-9345.195,-37912.14,-25643.745,-21542.58,-21075.57,-11916.72,-6933.15
1764434737.2531028,-559.62,-9340.92,-37909.53,-25637.94,-21537.675,-21067.605,-11916.45,-6932.474999999999
1764434737.2531028,-559.7099999999999,-9341.505,-37905.795,-25636.68,-21536.595,-21073.365,-11909.34,-6925.5
1764434737.2531028,-566.685,-9348.255,-37906.065,-25644.015,-21542.805,-21090.6,-11902.77,-6920.505
1764434737.2531028,-572.5799999999999,-9353.295,-37904.355,-25650.54,-21547.17,-21108.645,-11893.77,-6912.81
1764434737.2541108,-581.76,-9360.54,-37905.39,-25659.54,-21554.55,-21129.435,-11885.04,-6906.599999999999
1764434737.2541108,-580.5,-9358.38,-37902.33,-25659.09,-21553.425,-21132.27,-11879.865,-6901.74
1764434737.2541108,-576.5849999999999,-9354.33,-37902.735,-25656.435,-21551.13,-21123.27,-11884.005,-6905.295
1764434737.2541108,-573.93,-9352.17,-37906.695,-25654.095,-21549.96,-21110.355,-11895.795,-6915.105
1764434737.2551005,-570.1949999999999,-9349.29,-37910.925,-25650.045,-21548.205,-21094.83,-11906.82,-6925.41
1764434737.2559812,-562.905,-9342.45,-37911.15,-25642.62,-21542.04,-21074.49,-11916.0,-6932.429999999999
1764434737.2559812,-556.425,-9337.905,-37905.84,-25635.6,-21535.335,-21064.545,-11914.29,-6929.415
1764434737.2559812,-559.62,-9340.605,-37904.4,-25637.895,-21536.37,-21072.42,-11909.025,-6925.185
1764434737.2559812,-567.495,-9347.805,-37905.03,-25646.175,-21542.715,-21091.005,-11902.68,-6920.594999999999
1764434737.2559812,-574.65,-9354.105,-37905.075,-25653.51,-21548.475,-21110.67,-11894.04,-6914.429999999999
1764434737.296766,-581.22,-9359.19,-37904.22,-25660.395,-21553.245,-21129.615,-11884.095,-6907.05
1764434737.296766,-582.03,-9359.595,-37903.95,-25662.195,-21554.64,-21133.665,-11881.71,-6904.304999999999
1764434737.296766,-578.025,-9355.905,-37904.49,-25659.9,-21552.75,-21125.295,-11886.12,-6908.175
1764434737.296766,-577.35,-9355.5,-37910.07,-25659.765,-21553.155,-21114.045,-11898.765,-6919.514999999999
1764434737.296766,-570.06,-9349.56,-37911.42,-25653.24,-21548.475,-21095.055,-11907.99,-6927.344999999999
1764434737.296766,-561.24,-9342.72,-37910.79,-25644.33,-21541.275,-21074.715,-11915.82,-6932.835
1764434737.296766,-558.72,-9341.145,-37909.845,-25639.695,-21537.405,-21068.28,-11917.08,-6933.06
1764434737.296766,-561.6899999999999,-9344.88,-37909.035,-25642.665,-21539.295,-21076.785,-11913.165,-6929.415
1764434737.296766,-563.13,-9346.185,-37903.68,-25644.87,-21539.205,-21088.53,-11901.735,-6919.425
1764434737.296766,-573.12,-9354.78,-37905.075,-25654.365,-21547.89,-21110.31,-11894.4,-6914.88
1764434737.296766,-580.4549999999999,-9360.81,-37904.895,-25661.34,-21554.46,-21130.065,-11886.12,-6908.67
1764434737.296766,-579.42,-9359.01,-37902.645,-25660.44,-21553.02,-21132.09,-11881.575,-6904.304999999999
1764434737.2984407,-576.27,-9356.805,-37904.13,-25659.315,-21551.85,-21124.08,-11886.345,-6909.389999999999
1764434737.2984407,-574.515,-9355.32,-37909.71,-25658.46,-21551.4,-21112.065,-11899.215,-6920.37
1764434737.2984407,-565.0649999999999,-9346.275,-37908.585,-25648.065,-21542.85,-21090.24,-11906.28,-6924.554999999999
1764434737.2988944,-558.495,-9340.65,-37908.9,-25640.82,-21537.045,-21070.845,-11914.155,-6931.215
1764434737.2988944,-557.37,-9340.47,-37908.135,-25638.615,-21535.65,-21066.03,-11915.595,-6932.474999999999
1764434737.2994509,-559.0799999999999,-9342.225,-37905.21,-25639.605,-21535.965,-21073.725,-11908.485,-6926.94
1764434737.3004518,-563.04,-9345.555,-37902.015,-25643.07,-21538.44,-21087.495,-11898.18,-6918.12
1764434737.3004518,-566.64,-9348.345,-37898.235,-25647.525,-21540.645,-21104.235,-11887.065,-6907.995
1764434737.3004518,-574.11,-9355.005,-37898.55,-25655.22,-21545.82,-21124.53,-11878.2,-6901.92
1764434737.3004518,-578.295,-9358.38,-37900.89,-25659.945,-21549.87,-21131.505,-11878.245,-6902.865
1764434737.3004518,-571.545,-9351.54,-37897.74,-25653.195,-21543.795,-21118.095,-11879.955,-6902.594999999999
1764434737.3004518,-569.5649999999999,-9350.46,-37903.455,-25651.845,-21542.625,-21105.18,-11891.52,-6913.53
1764434737.340283,-561.51,-9342.99,-37904.04,-25643.745,-21536.505,-21084.84,-11900.655,-6920.19
1764434737.340283,-551.5649999999999,-9333.945,-37901.07,-25632.765,-21527.46,-21061.71,-11907.495,-6923.384999999999
1764434737.3413022,-549.9449999999999,-9332.505,-37900.44,-25629.255,-21524.04,-21055.455,-11908.62,-6924.285
1764434737.3413022,-555.48,-9337.725,-37901.295,-25633.89,-21527.82,-21066.795,-11904.57,-6922.889999999999
1764434737.3413022,-559.755,-9340.605,-37898.145,-25636.815,-21529.89,-21080.52,-11894.13,-6914.16
1764434737.3413022,-564.39,-9344.34,-37895.355,-25641.63,-21532.905,-21097.62,-11883.6,-6903.945
1764434737.3413022,-571.23,-9350.28,-37895.13,-25650.09,-21539.475,-21118.455,-11875.14,-6897.42
1764434737.3413022,-575.505,-9352.89,-37897.29,-25654.815,-21544.695,-21125.88,-11875.995,-6898.59
1764434737.3413022,-570.3299999999999,-9347.67,-37895.94,-25650.45,-21541.32,-21115.755,-11879.955,-6901.29
1764434737.3413022,-565.92,-9343.845,-37898.145,-25647.3,-21538.8,-21102.12,-11889.765,-6909.48
1764434737.3413022,-559.4399999999999,-9337.23,-37899.72,-25640.46,-21534.345,-21084.03,-11898.99,-6917.13
1764434737.3413022,-551.5649999999999,-9331.47,-37900.215,-25632.315,-21528.855,-21064.905,-11907.315,-6923.655
1764434737.3413022,-549.675,-9330.39,-37899.225,-25629.66,-21527.595,-21061.89,-11908.89,-6924.195
1764434737.3413022,-555.5699999999999,-9336.51,-37901.025,-25635.645,-21533.895,-21074.85,-11905.695,-6922.8
1764434737.3413022,-560.0699999999999,-9340.29,-37899.225,-25640.64,-21538.665,-21090.735,-11896.02,-6914.7
1764434737.3413022,-564.93,-9343.035,-37895.355,-25645.59,-21542.13,-21109.05,-11885.085,-6903.99
1764434737.3413022,-571.725,-9349.29,-37894.185,-25652.925,-21548.115,-21128.49,-11876.265,-6896.835
1764434737.3413022,-574.38,-9351.18,-37896.795,-25657.29,-21552.075,-21134.61,-11876.355,-6897.375
1764434737.3413022,-573.525,-9349.47,-37900.485,-25657.515,-21553.065,-21129.03,-11883.87,-6903.945
1764434737.3413022,-572.535,-9348.885,-37906.785,-25657.29,-21553.74,-21117.915,-11896.875,-6915.69
1764434737.3413022,-565.74,-9343.485,-37907.28,-25650.27,-21547.485,-21097.62,-11906.82,-6923.429999999999
1764434737.3413022,-553.59,-9332.505,-37902.555,-25637.13,-21536.01,-21072.69,-11910.87,-6924.33
1764434737.3422956,-551.0699999999999,-9330.57,-37901.205,-25632.765,-21531.42,-21065.445,-11910.15,-6923.79
1764434737.3422956,-554.49,-9333.405,-37899.225,-25634.295,-21532.005,-21072.78,-11903.355,-6918.255
1764434737.3904076,-560.6999999999999,-9339.39,-37898.73,-25639.83,-21535.74,-21087.765,-11895.48,-6911.73
1764434737.3904076,-569.385,-9347.085,-37899.045,-25648.245,-21542.445,-21107.655,-11886.975,-6906.509999999999
1764434737.3904076,-574.3349999999999,-9351.315,-37895.805,-25653.42,-21545.955,-21124.035,-11876.76,-6898.005
1764434737.3904076,-575.235,-9351.72,-37896.21,-25655.76,-21546.135,-21126.87,-11874.33,-6896.969999999999
1764434737.3904076,-572.805,-9349.83,-37898.865,-25654.59,-21544.92,-21117.42,-11880.72,-6902.639999999999
1764434737.3904076,-568.665,-9346.455,-37902.465,-25650.585,-21542.31,-21102.39,-11891.43,-6910.875
1764434737.3904076,-562.005,-9340.605,-37903.995,-25643.52,-21536.415,-21083.67,-11900.745,-6918.795
1764434737.3904076,-558.855,-9339.3,-37907.595,-25639.74,-21534.345,-21068.73,-11912.445,-6929.19
1764434737.3904076,-557.505,-9338.355,-37906.515,-25637.265,-21532.23,-21064.68,-11914.29,-6929.594999999999
1764434737.3904076,-557.865,-9338.94,-37902.78,-25635.645,-21531.735,-21071.7,-11905.965,-6921.945
1764434737.3904076,-566.055,-9346.365,-37903.905,-25643.25,-21538.08,-21089.295,-11899.35,-6917.895
1764434737.3904076,-571.275,-9350.325,-37901.07,-25648.92,-21542.22,-21106.98,-11887.785,-6908.715
1764434737.3904076,-576.405,-9354.105,-37898.55,-25654.95,-21546.27,-21124.575,-11877.075,-6900.12
1764434737.3904076,-575.91,-9353.16,-37897.92,-25656.525,-21546.54,-21127.185,-11875.05,-6898.005
1764434737.3904076,-571.59,-9349.29,-37898.055,-25653.645,-21544.47,-21117.195,-11880.54,-6902.009999999999
1764434737.3904076,-569.925,-9347.76,-37903.68,-25651.89,-21544.875,-21104.73,-11892.915,-6912.54
1764434737.3904076,-560.88,-9340.065,-37902.825,-25642.89,-21537.63,-21083.22,-11901.105,-6918.165
1764434737.3904076,-554.04,-9334.44,-37902.915,-25635.645,-21531.78,-21064.59,-11908.62,-6925.679999999999
1764434737.3904076,-553.905,-9335.565,-37903.14,-25634.07,-21530.79,-21062.655,-11909.925,-6927.255
1764434737.3904076,-555.615,-9337.545,-37900.53,-25634.79,-21530.925,-21071.025,-11903.49,-6920.73
1764434737.3904076,-562.905,-9345.105,-37902.33,-25642.935,-21537.405,-21089.61,-11897.01,-6916.185
1764434737.3904076,-568.8,-9348.885,-37899.9,-25647.93,-21541.14,-21107.43,-11886.255,-6906.375
1764434737.4338896,-578.79,-9358.29,-37902.465,-25658.55,-21550.815,-21128.625,-11880.9,-6902.775
1764434737.4338896,-579.555,-9358.47,-37902.645,-25660.53,-21552.165,-21131.055,-11879.28,-6901.514999999999
1764434737.4338896,-574.47,-9352.935,-37902.24,-25656.255,-21548.43,-21119.58,-11884.59,-6904.8
1764434737.4338896,-573.345,-9351.495,-37907.415,-25653.78,-21548.07,-21107.205,-11896.875,-6915.915
1764434737.4338896,-564.2099999999999,-9342.99,-37905.615,-25644.78,-21540.465,-21085.155,-11904.03,-6921.54
1764434737.4338896,-558.18,-9337.995,-37906.155,-25638.165,-21535.695,-21067.47,-11912.13,-6928.695
1764434737.4338896,-554.0849999999999,-9334.08,-37902.555,-25631.955,-21530.43,-21060.99,-11910.465,-6925.455
1764434737.4338896,-560.79,-9341.055,-37904.535,-25637.445,-21535.29,-21073.14,-11907.855,-6923.474999999999
1764434737.4338896,-566.145,-9346.77,-37904.31,-25643.52,-21539.7,-21088.98,-11898.945,-6916.094999999999
1764434737.4338896,-572.805,-9351.945,-37902.465,-25650.27,-21545.19,-21108.15,-11889.225,-6908.58
1764434737.4338896,-577.98,-9355.59,-37899.72,-25656.12,-21549.465,-21125.88,-11879.64,-6901.83
1764434737.4338896,-576.9449999999999,-9354.24,-37898.46,-25656.705,-21548.52,-21127.095,-11877.345,-6899.49
1764434737.4338896,-573.39,-9351.72,-37900.44,-25654.68,-21547.215,-21117.15,-11882.88,-6903.719999999999
1764434737.4338896,-567.855,-9346.365,-37902.195,-25650.27,-21543.615,-21101.715,-11891.385,-6910.245
1764434737.4355466,-561.9599999999999,-9341.19,-37904.445,-25643.925,-21539.025,-21083.895,-11902.275,-6919.065
1764434737.4355466,-557.055,-9338.49,-37907.415,-25638.885,-21536.46,-21068.46,-11912.67,-6928.514999999999
1764434737.4355466,-554.5799999999999,-9336.465,-37905.075,-25634.88,-21533.67,-21062.745,-11911.59,-6926.58
1764434737.4355466,-555.795,-9337.275,-37901.52,-25634.745,-21533.22,-21070.395,-11902.815,-6919.155
1764434737.4355466,-559.62,-9341.055,-37898.82,-25638.255,-21535.425,-21085.47,-11893.275,-6910.74
1764434737.4355466,-568.935,-9348.975,-37899.495,-25648.74,-21542.94,-21107.16,-11884.68,-6905.25
1764434737.4355466,-571.77,-9349.2,-37894.365,-25651.8,-21544.29,-21120.615,-11872.71,-6893.685
1764434737.4355466,-572.49,-9349.065,-37894.725,-25653.825,-21545.415,-21123.18,-11872.08,-6893.639999999999
1764434737.4355466,-566.865,-9344.52,-37895.31,-25650.54,-21541.95,-21111.93,-11876.49,-6897.599999999999
1764434737.4355466,-562.68,-9340.83,-37897.56,-25646.535,-21538.845,-21096.945,-11886.615,-6906.105
1764434737.4827502,-558.3149999999999,-9337.095,-37901.79,-25641.045,-21535.515,-21080.295,-11899.215,-6916.23
1764434737.4827502,-554.4449999999999,-9334.62,-37905.345,-25636.005,-21532.455,-21064.23,-11909.52,-6924.599999999999
1764434737.4827502,-549.63,-9330.84,-37900.98,-25630.785,-21527.325,-21057.705,-11906.28,-6921.0
1764434737.4832752,-552.375,-9333.99,-37899.045,-25632.405,-21528.18,-21068.1,-11898.675,-6914.88
1764434737.4832752,-558.36,-9338.895,-37897.155,-25637.805,-21532.95,-21084.39,-11890.665,-6907.77
1764434737.4832752,-566.145,-9345.735,-37895.895,-25645.5,-21538.665,-21103.92,-11881.44,-6900.929999999999
1764434737.4832752,-571.8149999999999,-9350.19,-37895.67,-25651.665,-21543.255,-21121.11,-11872.665,-6893.73
1764434737.4832752,-574.245,-9351.495,-37897.335,-25655.265,-21545.685,-21124.8,-11873.25,-6894.945
1764434737.4832752,-572.895,-9350.415,-37900.89,-25655.175,-21546.09,-21116.43,-11881.08,-6902.91
1764434737.4832752,-571.8149999999999,-9349.515,-37906.83,-25654.095,-21546.09,-21104.19,-11894.265,-6914.61
1764434737.4832752,-560.925,-9340.155,-37904.76,-25643.97,-21537.99,-21081.285,-11902.365,-6918.48
1764434737.4832752,-554.355,-9334.845,-37904.715,-25636.32,-21531.555,-21063.105,-11909.7,-6924.509999999999
1764434737.4832752,-553.635,-9334.485,-37903.5,-25634.07,-21529.89,-21061.35,-11910.06,-6924.554999999999
1764434737.4832752,-558.765,-9339.975,-37903.815,-25638.39,-21533.85,-21073.455,-11906.055,-6921.764999999999
1764434737.4832752,-565.6949999999999,-9346.635,-37904.04,-25645.815,-21539.52,-21091.59,-11897.82,-6916.86
1764434737.4832752,-573.7049999999999,-9353.34,-37903.095,-25653.645,-21544.605,-21110.76,-11889.315,-6909.3
1764434737.4832752,-576.4499999999999,-9354.69,-37899.135,-25657.11,-21546.54,-21125.475,-11878.29,-6899.49
1764434737.4832752,-576.9449999999999,-9355.005,-37899.63,-25658.505,-21547.98,-21128.175,-11877.57,-6898.77
1764434737.4832752,-573.66,-9352.305,-37902.195,-25656.3,-21546.99,-21118.905,-11885.445,-6905.205
1764434737.4832752,-571.3199999999999,-9350.235,-37907.1,-25653.87,-21546.315,-21105.765,-11897.73,-6915.195
1764434737.4832752,-566.4599999999999,-9345.555,-37909.98,-25648.965,-21542.805,-21087.495,-11908.485,-6924.33
1764434737.4832752,-559.5749999999999,-9339.84,-37908.99,-25641.54,-21536.19,-21069.045,-11916.09,-6929.505
1764434737.526368,-555.795,-9337.5,-37905.84,-25636.59,-21532.545,-21064.365,-11913.84,-6926.804999999999
1764434737.526368,-562.14,-9343.98,-37907.595,-25642.215,-21537.855,-21077.685,-11909.52,-6925.32
1764434737.526368,-567.72,-9348.84,-37905.66,-25647.66,-21541.14,-21092.58,-11900.565,-6917.895
1764434737.526368,-571.8149999999999,-9351.9,-37902.105,-25652.655,-21544.11,-21109.86,-11889.405,-6907.32
1764434737.527391,-579.735,-9358.02,-37903.59,-25661.205,-21550.86,-21129.345,-11882.43,-6902.73
1764434737.527391,-578.385,-9355.905,-37901.565,-25660.35,-21549.915,-21129.885,-11880.09,-6900.344999999999
1764434737.527391,-574.74,-9352.485,-37903.725,-25658.73,-21549.465,-21120.57,-11886.795,-6906.554999999999
1764434737.527391,-572.85,-9352.125,-37909.665,-25657.785,-21549.33,-21108.825,-11899.485,-6918.705
1764434737.527391,-563.04,-9343.89,-37908.99,-25648.83,-21541.815,-21086.64,-11906.865,-6923.88
1764434737.527391,-555.48,-9337.185,-37907.955,-25640.73,-21534.795,-21067.605,-11913.48,-6928.11
1764434737.527391,-551.5649999999999,-9333.765,-37903.995,-25634.925,-21529.8,-21061.845,-11910.42,-6923.88
1764434737.527391,-555.615,-9336.78,-37901.88,-25637.355,-21531.465,-21071.565,-11902.32,-6917.49
1764434737.527391,-559.98,-9341.145,-37899.585,-25642.35,-21534.615,-21087.585,-11892.465,-6910.155
1764434737.527391,-566.64,-9346.815,-37898.19,-25649.37,-21539.925,-21107.97,-11882.475,-6901.65
1764434737.527391,-573.795,-9353.25,-37898.685,-25656.93,-21546.54,-21127.005,-11874.87,-6897.24
1764434737.527391,-570.87,-9349.245,-37896.255,-25654.68,-21543.93,-21125.97,-11871.765,-6893.775
1764434737.527391,-569.25,-9347.13,-37900.08,-25654.005,-21543.795,-21116.97,-11879.685,-6900.974999999999
1764434737.527391,-569.25,-9347.805,-37906.515,-25654.275,-21545.595,-21106.305,-11893.905,-6913.349999999999
1764434737.527391,-561.285,-9341.64,-37907.01,-25646.445,-21539.34,-21085.425,-11903.67,-6919.695
1764434737.527391,-553.41,-9334.62,-37905.12,-25637.445,-21532.32,-21065.895,-11910.105,-6924.105
1764434737.527391,-553.5,-9335.385,-37905.345,-25636.41,-21533.13,-21065.4,-11910.51,-6924.42
1764434737.527391,-557.73,-9338.805,-37904.805,-25639.785,-21536.1,-21077.82,-11905.245,-6920.415
1764434737.527391,-561.78,-9342.765,-37900.98,-25644.015,-21538.71,-21092.895,-11894.895,-6911.415
1764434737.527391,-571.5,-9351.945,-37901.88,-25654.095,-21546.675,-21115.215,-11886.84,-6905.79
1764434737.5765069,-576.045,-9355.05,-37900.125,-25659.63,-21550.05,-21130.245,-11878.245,-6898.23
1764434737.5765069,-575.1899999999999,-9353.16,-37899.405,-25659.135,-21549.87,-21130.47,-11878.38,-6897.24
1764434737.5765069,-572.715,-9351.72,-37902.69,-25657.74,-21549.105,-21120.84,-11886.165,-6904.215
1764434737.5765069,-570.105,-9349.515,-37906.965,-25655.445,-21547.44,-21107.025,-11897.19,-6914.34
1764434737.5765069,-562.9499999999999,-9343.665,-37908.855,-25648.38,-21543.48,-21087.63,-11907.0,-6922.44
1764434737.5765069,-554.31,-9334.89,-37905.57,-25637.985,-21534.705,-21067.425,-11913.165,-6925.139999999999
1764434737.5765069,-551.6999999999999,-9332.865,-37902.42,-25634.205,-21531.42,-21063.375,-11910.195,-6921.99
1764434737.5765069,-555.7049999999999,-9337.14,-37901.205,-25637.265,-21533.4,-21074.895,-11903.67,-6916.815
1764434737.5765069,-562.14,-9342.63,-37900.08,-25643.7,-21538.215,-21091.95,-11894.4,-6910.469999999999
1764434737.5765069,-573.165,-9351.99,-37902.78,-25654.365,-21548.025,-21115.53,-11888.145,-6907.005
1764434737.5765069,-577.125,-9354.555,-37900.17,-25658.865,-21551.13,-21130.11,-11878.785,-6899.175
1764434737.5765069,-580.725,-9356.715,-37902.87,-25663.005,-21553.695,-21133.665,-11880.99,-6902.054999999999
1764434737.5765069,-575.37,-9352.08,-37902.78,-25658.595,-21549.15,-21121.29,-11886.975,-6906.69
1764434737.5765069,-573.165,-9350.235,-37907.325,-25656.21,-21547.665,-21107.52,-11898.72,-6917.085
1764434737.5765069,-563.265,-9340.83,-37906.155,-25645.545,-21539.385,-21084.165,-11906.28,-6922.215
1764434737.5765069,-558.9,-9338.04,-37908.675,-25640.415,-21536.19,-21069.135,-11915.1,-6930.54
1764434737.5765069,-555.345,-9335.835,-37905.3,-25636.41,-21532.32,-21065.58,-11912.805,-6927.389999999999
1764434737.5765069,-555.255,-9336.33,-37900.08,-25636.14,-21530.52,-21073.86,-11902.905,-6917.49
1764434737.57718,-560.385,-9341.055,-37897.74,-25641.045,-21533.67,-21089.295,-11892.69,-6909.705
1764434737.57718,-571.59,-9350.64,-37899.99,-25651.89,-21542.76,-21112.83,-11886.48,-6905.52
1764434737.57718,-580.14,-9358.155,-37901.97,-25661.295,-21550.545,-21131.685,-11881.53,-6902.37
1764434737.57718,-577.485,-9354.69,-37900.575,-25659.54,-21549.015,-21130.02,-11879.82,-6899.895
1764434737.57718,-574.74,-9353.07,-37903.995,-25657.335,-21547.62,-21119.625,-11887.155,-6907.139999999999
1764434737.57718,-573.12,-9352.215,-37909.62,-25656.255,-21547.125,-21106.935,-11899.89,-6918.48
1764434737.6245923,-561.6899999999999,-9341.685,-37906.875,-25644.87,-21537.945,-21082.545,-11906.595,-6922.755
1764434737.6245923,-555.03,-9336.33,-37906.515,-25637.4,-21531.78,-21065.58,-11912.535,-6927.795
1764434737.6245923,-557.91,-9339.345,-37908.495,-25638.885,-21532.59,-21066.885,-11914.02,-6928.74
1764434737.6245923,-563.04,-9343.665,-37906.29,-25641.99,-21535.47,-21079.17,-11907.945,-6923.384999999999
1764434737.6245923,-565.92,-9345.645,-37902.78,-25644.96,-21537.18,-21092.76,-11896.875,-6913.62
1764434737.6245923,-574.6949999999999,-9353.925,-37903.455,-25653.87,-21544.47,-21113.865,-11888.145,-6907.41
1764434737.6245923,-578.88,-9357.48,-37901.34,-25658.865,-21547.305,-21127.995,-11880.225,-6900.57
1764434737.6245923,-580.005,-9356.76,-37901.97,-25660.62,-21548.385,-21128.22,-11881.35,-6901.245
1764434737.6245923,-575.37,-9352.215,-37902.555,-25656.615,-21544.695,-21115.89,-11886.93,-6905.925
1764434737.6245923,-573.5699999999999,-9352.125,-37907.955,-25655.445,-21544.605,-21103.92,-11899.71,-6918.75
1764434737.6245923,-565.245,-9344.25,-37908.945,-25648.02,-21539.025,-21083.13,-11910.015,-6925.815
1764434737.6255884,-557.64,-9337.68,-37906.515,-25639.38,-21531.915,-21064.41,-11916.045,-6929.28
1764434737.6255884,-557.37,-9338.175,-37904.445,-25638.255,-21531.15,-21063.915,-11914.02,-6928.02
1764434737.6255884,-558.63,-9338.805,-37900.485,-25638.435,-21530.97,-21072.42,-11904.66,-6919.605
1764434737.6255884,-564.795,-9344.205,-37900.08,-25644.915,-21535.335,-21089.655,-11896.155,-6913.215
1764434737.6255884,-575.55,-9354.105,-37901.565,-25655.715,-21544.245,-21113.415,-11888.82,-6908.445
1764434737.6255884,-582.435,-9360.405,-37902.195,-25663.455,-21550.275,-21130.245,-11882.385,-6903.719999999999
1764434737.6255884,-582.5699999999999,-9359.325,-37903.545,-25664.76,-21550.455,-21130.74,-11883.69,-6903.855
1764434737.6255884,-575.415,-9351.945,-37902.285,-25657.605,-21544.83,-21115.8,-11887.965,-6905.925
1764434737.6255884,-573.48,-9351.72,-37908.54,-25656.345,-21545.19,-21103.515,-11901.015,-6917.625
1764434737.6255884,-565.0649999999999,-9344.7,-37908.405,-25647.57,-21538.98,-21082.455,-11909.835,-6924.509999999999
1764434737.6255884,-558.495,-9339.3,-37907.505,-25640.505,-21532.77,-21065.085,-11916.765,-6928.965
1764434737.66904,-555.345,-9336.465,-37903.95,-25636.905,-21529.08,-21061.215,-11912.49,-6925.23
1764434737.66904,-561.9599999999999,-9342.54,-37904.535,-25642.08,-21533.67,-21075.705,-11906.82,-6921.9
1764434737.66904,-563.715,-9343.395,-37899.675,-25643.655,-21533.355,-21088.98,-11894.265,-6910.65
1764434737.66904,-571.23,-9349.065,-37898.235,-25651.215,-21538.89,-21109.095,-11884.14,-6902.955
1764434737.66904,-577.395,-9354.42,-37898.685,-25658.64,-21544.875,-21125.835,-11877.12,-6897.509999999999
1764434737.66904,-579.87,-9356.13,-37901.925,-25662.015,-21548.925,-21128.445,-11879.955,-6901.155
1764434737.66904,-575.37,-9351.45,-37902.555,-25657.245,-21546.09,-21115.71,-11886.12,-6905.52
1764434737.66904,-573.795,-9350.595,-37907.91,-25655.67,-21545.325,-21103.605,-11899.665,-6916.905
1764434737.66904,-563.265,-9341.865,-37905.525,-25646.04,-21536.415,-21080.655,-11907.27,-6922.665
1764434737.66904,-561.555,-9340.74,-37908.945,-25642.935,-21534.57,-21067.605,-11916.81,-6931.844999999999
1764434737.66904,-560.6999999999999,-9340.83,-37907.415,-25640.37,-21533.22,-21067.29,-11914.965,-6930.0
1764434737.66904,-562.905,-9342.99,-37904.265,-25641.495,-21534.84,-21077.775,-11906.55,-6922.17
1764434737.6702368,-565.785,-9345.015,-37900.08,-25644.375,-21536.865,-21091.275,-11895.615,-6911.82
1764434737.6702368,-574.29,-9351.945,-37899.99,-25652.34,-21542.895,-21113.055,-11886.84,-6904.98
1764434737.6702368,-579.555,-9356.67,-37899.72,-25658.685,-21547.53,-21127.59,-11879.235,-6900.435
1764434737.6702368,-579.87,-9357.615,-37901.295,-25661.07,-21549.33,-21127.725,-11880.54,-6902.91
1764434737.6702368,-576.99,-9354.87,-37904.22,-25658.505,-21547.89,-21117.33,-11888.955,-6909.795
1764434737.6702368,-573.615,-9352.395,-37908.18,-25655.49,-21546.135,-21103.2,-11901.69,-6919.245
1764434737.671227,-566.73,-9346.815,-37910.295,-25648.02,-21541.95,-21084.39,-11911.275,-6927.165
1764434737.671227,-560.2049999999999,-9341.505,-37910.115,-25640.82,-21536.19,-21068.865,-11917.08,-6931.62
1764434737.671227,-558.54,-9340.11,-37906.92,-25638.705,-21533.49,-21066.885,-11914.875,-6928.29
1764434737.671227,-561.015,-9341.955,-37903.095,-25640.28,-21533.67,-21076.965,-11907.09,-6920.325
1764434737.671227,-567.4499999999999,-9348.12,-37902.195,-25646.85,-21538.215,-21094.605,-11897.64,-6913.844999999999
1764434737.671227,-578.2049999999999,-9357.3,-37904.4,-25657.83,-21547.395,-21118.455,-11890.08,-6909.344999999999
1764434737.715005,-583.65,-9360.945,-37903.86,-25664.175,-21552.48,-21132.855,-11882.61,-6902.91
1764434737.7155435,-582.255,-9358.785,-37903.68,-25663.905,-21551.355,-21130.965,-11882.565,-6902.505
1764434737.7155435,-577.17,-9353.25,-37903.275,-25659.405,-21546.405,-21116.61,-11888.82,-6907.455
1764434737.7155435,-575.145,-9352.71,-37908.54,-25658.01,-21545.865,-21103.695,-11901.375,-6919.065
1764434737.7155435,-566.4599999999999,-9345.285,-37907.91,-25649.505,-21538.845,-21081.6,-11910.06,-6925.77
1764434737.7155435,-558.5849999999999,-9338.49,-37905.255,-25640.28,-21531.555,-21065.04,-11914.47,-6928.469999999999
1764434737.7155435,-554.715,-9335.025,-37899.315,-25634.565,-21526.56,-21062.25,-11909.835,-6922.889999999999
1764434737.7155435,-559.17,-9339.21,-37898.01,-25638.975,-21529.665,-21074.715,-11903.04,-6916.95
1764434737.7155435,-565.11,-9344.565,-37897.47,-25645.545,-21535.245,-21091.545,-11893.815,-6909.929999999999
1764434737.7155435,-571.4549999999999,-9349.785,-37896.165,-25652.745,-21540.24,-21110.67,-11882.295,-6901.38
1764434737.7155435,-576.27,-9354.105,-37896.075,-25658.55,-21544.83,-21125.07,-11874.465,-6896.115
1764434737.7155435,-576.855,-9353.79,-37897.29,-25659.99,-21545.955,-21124.845,-11876.67,-6898.139999999999
1764434737.7155435,-573.03,-9350.865,-37899.315,-25657.065,-21543.345,-21113.64,-11885.22,-6904.844999999999
1764434737.7155435,-571.005,-9350.37,-37904.94,-25655.04,-21542.895,-21100.815,-11898.45,-6916.634999999999
1764434737.7155435,-565.47,-9346.14,-37908.0,-25649.325,-21539.655,-21082.005,-11909.61,-6926.49
1764434737.7155435,-559.0799999999999,-9340.56,-37906.875,-25641.81,-21533.67,-21065.58,-11915.235,-6930.179999999999
1764434737.7155435,-555.12,-9336.6,-37901.52,-25636.275,-21528.585,-21062.61,-11909.7,-6923.565
1764434737.7155435,-559.62,-9340.83,-37900.26,-25640.37,-21531.195,-21074.67,-11902.905,-6916.86
1764434737.7155435,-566.9549999999999,-9347.265,-37899.99,-25647.345,-21537.0,-21093.48,-11894.58,-6910.83
1764434737.7155435,-571.86,-9350.415,-37896.12,-25651.665,-21540.195,-21111.93,-11882.07,-6900.389999999999
1764434737.7155435,-577.62,-9355.5,-37895.85,-25658.19,-21544.605,-21126.465,-11875.77,-6895.755
1764434737.7155435,-578.88,-9356.265,-37898.415,-25660.935,-21546.315,-21126.645,-11878.695,-6899.625
1764434737.7155435,-575.4599999999999,-9353.115,-37901.07,-25658.145,-21544.83,-21114.855,-11887.245,-6906.96
1764434737.7155435,-573.75,-9351.63,-37906.56,-25656.03,-21544.695,-21102.21,-11900.07,-6918.03
1764434737.762354,-562.095,-9340.47,-37902.825,-25644.24,-21535.515,-21077.82,-11906.595,-6921.134999999999
1764434737.762354,-556.38,-9335.25,-37901.835,-25637.445,-21529.98,-21062.925,-11911.635,-6924.825
1764434737.762354,-557.865,-9337.095,-37902.015,-25637.49,-21530.43,-21065.265,-11909.88,-6924.15
1764434737.762354,-561.285,-9341.19,-37900.08,-25640.415,-21532.185,-21077.055,-11902.77,-6917.715
1764434737.762354,-564.795,-9343.755,-37896.3,-25643.565,-21534.075,-21092.22,-11891.835,-6908.264999999999
1764434737.762354,-576.765,-9353.43,-37898.145,-25654.77,-21543.39,-21115.665,-11884.14,-6903.945
1764434737.762354,-582.12,-9358.155,-37899.045,-25661.07,-21548.655,-21130.875,-11878.38,-6899.715
1764434737.762354,-581.4449999999999,-9357.48,-37900.665,-25662.375,-21549.69,-21129.885,-11880.45,-6901.38
1764434737.763365,-574.155,-9350.055,-37899.0,-25655.535,-21543.615,-21113.955,-11885.625,-6904.395
1764434737.763365,-569.79,-9346.905,-37902.015,-25651.98,-21540.6,-21099.195,-11896.515,-6914.565
1764434737.763365,-564.3,-9342.765,-37905.57,-25646.895,-21537.405,-21081.015,-11908.485,-6924.42
1764434737.763365,-559.215,-9337.86,-37904.625,-25640.775,-21531.015,-21065.805,-11914.83,-6928.605
1764434737.763365,-557.415,-9335.07,-37901.295,-25637.49,-21527.595,-21064.905,-11911.005,-6923.745
1764434737.763365,-564.66,-9342.045,-37902.42,-25643.565,-21532.995,-21080.205,-11904.885,-6920.099999999999
1764434737.763365,-567.99,-9345.78,-37898.73,-25646.535,-21535.83,-21094.29,-11893.23,-6910.02
1764434737.763365,-572.13,-9349.245,-37894.365,-25651.8,-21539.115,-21112.515,-11881.305,-6899.49
1764434737.763365,-578.115,-9353.7,-37894.77,-25658.64,-21544.245,-21127.68,-11875.815,-6895.844999999999
1764434737.763365,-578.97,-9352.71,-37896.39,-25659.405,-21545.01,-21126.375,-11878.38,-6898.679999999999
1764434737.763365,-573.12,-9347.265,-37897.02,-25654.32,-21540.825,-21112.065,-11884.77,-6903.9
1764434737.763365,-568.98,-9344.7,-37900.845,-25650.99,-21538.71,-21097.845,-11895.975,-6913.71
1764434737.8102615,-561.465,-9339.255,-37901.655,-25644.195,-21532.815,-21077.28,-11906.145,-6921.764999999999
1764434737.8102615,-558.405,-9336.915,-37903.23,-25639.515,-21530.07,-21064.635,-11914.02,-6927.84
1764434737.8102615,-561.555,-9340.065,-37904.85,-25641.045,-21531.69,-21068.055,-11913.84,-6928.469999999999
1764434737.8102615,-563.31,-9342.09,-37900.62,-25642.35,-21532.185,-21078.675,-11904.795,-6920.235
1764434737.8114653,-568.845,-9347.355,-37899.18,-25648.695,-21536.82,-21095.73,-11895.795,-6913.304999999999
1764434737.8114653,-580.8149999999999,-9357.75,-37902.78,-25660.665,-21546.54,-21120.795,-11888.865,-6909.929999999999
1764434737.8114653,-585.765,-9361.8,-37903.095,-25667.28,-21551.67,-21134.43,-11883.24,-6905.969999999999
1764434737.8114653,-583.74,-9360.495,-37903.005,-25666.965,-21550.815,-21131.01,-11884.77,-6906.554999999999
1764434737.8114653,-579.915,-9356.715,-37905.345,-25663.95,-21548.52,-21119.49,-11892.78,-6913.889999999999
1764434737.8114653,-577.395,-9353.655,-37909.62,-25661.295,-21546.27,-21105.495,-11904.345,-6924.15
1764434737.8114653,-565.515,-9343.305,-37907.01,-25649.775,-21536.505,-21080.655,-11911.41,-6927.929999999999
1764434737.8114653,-560.16,-9338.715,-37905.705,-25642.62,-21531.015,-21066.3,-11916.765,-6931.215
1764434737.8114653,-560.61,-9340.47,-37904.085,-25641.405,-21530.34,-21067.785,-11914.065,-6929.82
1764434737.8114653,-566.37,-9345.87,-37903.905,-25646.445,-21535.02,-21082.095,-11906.865,-6924.554999999999
1764434737.8114653,-568.7099999999999,-9347.22,-37899.54,-25650.09,-21536.505,-21096.27,-11895.39,-6913.665
1764434737.8114653,-578.745,-9356.265,-37900.755,-25660.305,-21543.975,-21119.58,-11886.84,-6907.365
1764434737.8114653,-583.38,-9359.955,-37900.62,-25665.255,-21548.295,-21132.855,-11880.54,-6902.639999999999
1764434737.8114653,-584.505,-9359.82,-37902.51,-25666.65,-21549.15,-21131.46,-11884.635,-6905.925
1764434737.8114653,-579.555,-9354.195,-37903.545,-25662.33,-21545.37,-21117.195,-11892.555,-6911.505
1764434737.8114653,-578.34,-9354.33,-37910.07,-25662.105,-21546.27,-21105.675,-11906.505,-6924.33
1764434737.8114653,-569.295,-9346.545,-37909.26,-25652.115,-21538.98,-21082.86,-11915.145,-6931.44
1764434737.8114653,-561.915,-9339.84,-37906.245,-25643.655,-21531.24,-21066.21,-11919.33,-6932.969999999999
1764434737.8114653,-561.105,-9340.92,-37904.58,-25641.9,-21530.565,-21067.38,-11915.91,-6930.179999999999
1764434737.8114653,-566.505,-9346.32,-37904.265,-25646.895,-21534.615,-21081.195,-11908.98,-6925.139999999999
1764434737.8119707,-572.535,-9350.82,-37901.97,-25652.475,-21537.855,-21098.34,-11899.845,-6917.94
1764434737.8119707,-579.1949999999999,-9356.265,-37900.485,-25659.495,-21543.165,-21118.23,-11888.595,-6908.895
1764434737.8545442,-585.09,-9360.945,-37900.98,-25665.57,-21548.115,-21132.315,-11883.555,-6905.025
1764434737.8545442,-588.15,-9362.745,-37905.615,-25668.72,-21551.04,-21133.395,-11888.73,-6910.245
1764434737.8545442,-580.3199999999999,-9354.24,-37903.815,-25661.43,-21544.695,-21116.88,-11892.465,-6913.17
1764434737.8545442,-576.675,-9352.215,-37907.73,-25658.415,-21542.715,-21102.39,-11904.435,-6923.655
1764434737.8545442,-566.8199999999999,-9343.62,-37906.155,-25647.84,-21534.255,-21078.585,-11912.985,-6929.82
1764434737.8545442,-564.12,-9342.225,-37908.63,-25644.105,-21530.925,-21067.605,-11920.455,-6936.255
1764434737.8545442,-561.8249999999999,-9340.29,-37904.805,-25641.72,-21528.18,-21067.155,-11915.37,-6930.764999999999
1764434737.8545442,-567.855,-9345.33,-37903.905,-25646.985,-21532.05,-21082.365,-11908.08,-6925.545
1764434737.8545442,-572.67,-9349.965,-37901.88,-25652.205,-21536.01,-21098.34,-11898.27,-6916.77
1764434737.8545442,-581.04,-9356.805,-37901.07,-25660.845,-21542.535,-21119.265,-11889.225,-6909.12
1764434737.8545442,-582.93,-9356.715,-37897.695,-25664.13,-21543.615,-21129.165,-11881.305,-6902.145
1764434737.8545442,-582.66,-9355.77,-37899.135,-25664.58,-21543.66,-21127.005,-11883.825,-6904.17
1764434737.8545442,-578.34,-9351.45,-37902.24,-25661.565,-21541.005,-21113.955,-11892.735,-6910.245
1764434737.8545442,-575.415,-9348.615,-37905.885,-25658.28,-21539.205,-21099.78,-11904.435,-6920.19
1764434737.8545442,-568.845,-9344.115,-37908.945,-25652.475,-21535.92,-21080.655,-11915.595,-6930.81
1764434737.8545442,-561.9599999999999,-9338.445,-37906.2,-25644.645,-21528.945,-21065.4,-11919.375,-6932.474999999999
1764434737.8545442,-562.095,-9339.255,-37904.625,-25644.285,-21528.18,-21068.145,-11915.64,-6929.37
1764434737.8560665,-569.34,-9346.455,-37906.29,-25650.81,-21534.57,-21084.39,-11910.51,-6926.58
1764434737.8560665,-572.4449999999999,-9348.93,-37902.06,-25654.095,-21536.28,-21098.835,-11899.215,-6916.365
1764434737.8560665,-580.5,-9355.32,-37901.115,-25662.15,-21542.04,-21120.21,-11889.495,-6908.445
1764434737.8560665,-587.97,-9361.215,-37904.265,-25670.475,-21549.195,-21136.05,-11886.255,-6907.455
1764434737.8560665,-586.305,-9358.965,-37905.255,-25670.61,-21549.375,-21133.62,-11888.37,-6909.705
1764434737.902761,-579.42,-9352.26,-37904.265,-25664.085,-21543.93,-21117.06,-11894.58,-6913.62
1764434737.902761,-577.935,-9350.955,-37909.17,-25661.925,-21542.85,-21103.11,-11907.27,-6924.78
1764434737.902761,-567.135,-9341.73,-37907.64,-25650.36,-21532.86,-21079.08,-11914.56,-6929.415
1764434737.902761,-564.12,-9340.425,-37908.63,-25645.545,-21529.89,-21067.245,-11921.49,-6935.175
1764434737.902761,-567.18,-9344.43,-37909.305,-25648.2,-21532.14,-21072.105,-11919.78,-6935.04
1764434737.902761,-571.77,-9348.75,-37907.73,-25651.08,-21535.515,-21085.29,-11911.59,-6927.57
1764434737.902761,-574.38,-9349.515,-37902.465,-25653.735,-21536.685,-21098.88,-11899.845,-6916.05
1764434737.902761,-580.8149999999999,-9354.87,-37900.53,-25660.665,-21541.095,-21118.59,-11888.19,-6906.105
1764434737.902761,-586.35,-9360.045,-37902.105,-25667.865,-21546.63,-21132.36,-11883.24,-6903.09
1764434737.902761,-587.8349999999999,-9360.72,-37905.48,-25670.52,-21548.925,-21131.64,-11887.875,-6908.355
1764434737.902761,-580.3199999999999,-9354.105,-37904.715,-25663.68,-21543.57,-21115.215,-11894.22,-6911.505
1764434737.902761,-580.905,-9354.645,-37911.87,-25663.14,-21544.47,-21104.55,-11908.98,-6924.915
1764434737.902761,-573.48,-9348.03,-37913.58,-25655.4,-21538.665,-21084.12,-11919.645,-6933.645
1764434737.902761,-569.2049999999999,-9345.78,-37914.345,-25650.54,-21535.02,-21071.79,-11926.215,-6938.19
1764434737.902761,-567.81,-9345.69,-37911.33,-25648.47,-21533.535,-21073.05,-11922.03,-6933.78
1764434737.902761,-569.115,-9346.5,-37906.155,-25648.56,-21533.535,-21083.58,-11910.645,-6923.655
1764434737.902761,-575.145,-9351.27,-37904.265,-25654.86,-21538.71,-21100.32,-11900.385,-6916.275
1764434737.902761,-585.5849999999999,-9359.64,-37905.48,-25665.57,-21546.54,-21123.495,-11891.97,-6910.92
1764434737.902761,-588.51,-9361.89,-37904.49,-25669.71,-21548.745,-21135.33,-11886.12,-6906.105
1764434737.902761,-583.47,-9356.625,-37901.88,-25665.39,-21545.46,-21128.265,-11885.67,-6904.259999999999
1764434737.902761,-576.81,-9350.28,-37901.745,-25659.855,-21540.105,-21111.93,-11891.025,-6908.31
1764434737.902761,-572.4,-9346.905,-37905.12,-25656.03,-21537.81,-21096.72,-11902.005,-6917.355
1764434737.9037752,-565.6949999999999,-9341.235,-37907.01,-25648.56,-21532.725,-21077.055,-11912.85,-6926.804999999999
1764434737.9037752,-565.29,-9341.415,-37910.07,-25646.895,-21532.14,-21068.055,-11921.58,-6934.139999999999
1764434737.9482098,-565.155,-9341.775,-37907.055,-25646.445,-21531.285,-21070.08,-11918.115,-6929.955
1764434737.9482098,-568.17,-9345.33,-37903.725,-25648.83,-21533.58,-21082.995,-11908.89,-6921.945
1764434737.9482098,-577.62,-9353.565,-37905.345,-25657.92,-21540.87,-21104.235,-11901.69,-6917.715
1764434737.9482098,-585.9,-9360.18,-37905.39,-25665.255,-21546.765,-21125.115,-11892.15,-6910.56
1764434737.9482098,-588.78,-9361.62,-37903.77,-25668.27,-21548.745,-21134.43,-11885.22,-6905.384999999999
1764434737.9482098,-585.405,-9357.48,-37902.96,-25665.705,-21546.225,-21128.49,-11887.2,-6906.509999999999
1764434737.9482098,-580.77,-9352.89,-37904.985,-25661.79,-21542.805,-21114.99,-11895.795,-6913.17
1764434737.950357,-576.405,-9349.2,-37907.64,-25657.425,-21538.98,-21099.24,-11905.92,-6921.585
1764434737.950357,-568.035,-9342.675,-37908.405,-25649.775,-21532.77,-21077.73,-11915.46,-6929.415
1764434737.950357,-566.9549999999999,-9342.495,-37911.96,-25647.93,-21532.05,-21068.865,-11922.48,-6936.165
1764434737.950357,-566.91,-9343.575,-37910.655,-25647.705,-21531.42,-21071.925,-11918.925,-6932.34
1764434737.950357,-571.095,-9348.345,-37908.81,-25650.765,-21534.12,-21084.57,-11910.555,-6924.915
1764434737.950357,-574.785,-9351.09,-37904.895,-25655.13,-21536.73,-21099.87,-11899.89,-6915.78
1764434737.950357,-584.235,-9359.145,-37905.39,-25664.715,-21544.83,-21122.82,-11891.25,-6910.155
1764434737.950357,-586.62,-9360.045,-37903.14,-25668.495,-21547.08,-21132.855,-11885.31,-6904.98
1764434737.950357,-586.98,-9360.855,-37906.245,-25670.295,-21549.15,-21131.19,-11890.62,-6909.075
1764434737.951359,-581.0849999999999,-9355.86,-37906.74,-25664.67,-21544.56,-21116.43,-11897.82,-6914.34
1764434737.951359,-579.735,-9354.87,-37912.275,-25662.15,-21543.885,-21103.47,-11910.735,-6926.13
1764434737.951359,-567.63,-9344.7,-37909.215,-25650.495,-21534.03,-21078.09,-11917.665,-6930.045
1764434737.951359,-564.03,-9341.64,-37909.485,-25646.13,-21531.24,-21067.47,-11922.705,-6934.455
1764434737.9523602,-567.495,-9345.375,-37910.835,-25648.29,-21533.94,-21073.185,-11920.545,-6934.05
1764434737.9523602,-572.9399999999999,-9350.37,-37909.71,-25651.935,-21536.55,-21086.19,-11913.75,-6927.974999999999
1764434737.952872,-575.235,-9351.09,-37903.815,-25653.015,-21535.785,-21098.34,-11900.88,-6916.455
1764434737.952872,-583.785,-9358.155,-37903.005,-25660.845,-21541.59,-21119.58,-11890.845,-6909.48
1764434737.996112,-587.79,-9360.675,-37902.285,-25664.94,-21544.74,-21130.515,-11885.355,-6905.79
1764434737.996112,-583.0649999999999,-9356.445,-37900.26,-25662.555,-21541.59,-21123.45,-11885.805,-6906.105
1764434737.996112,-576.54,-9350.73,-37899.81,-25656.885,-21535.38,-21107.205,-11891.43,-6910.695
1764434737.996112,-574.92,-9349.65,-37906.47,-25654.815,-21534.795,-21093.21,-11904.84,-6922.485
1764434737.996112,-567.5849999999999,-9343.17,-37906.605,-25646.625,-21529.35,-21072.69,-11915.055,-6930.45
1764434737.996112,-563.49,-9340.245,-37906.245,-25641.045,-21525.255,-21062.295,-11920.275,-6933.465
1764434737.996112,-561.1949999999999,-9338.805,-37901.385,-25638.885,-21522.735,-21063.51,-11914.155,-6926.895
1764434737.996112,-568.395,-9344.655,-37901.07,-25645.59,-21528.9,-21079.98,-11906.595,-6921.495
1764434737.996112,-574.38,-9349.02,-37899.765,-25651.8,-21534.57,-21099.24,-11897.685,-6913.71
1764434737.996112,-579.735,-9353.655,-37897.38,-25658.595,-21539.835,-21119.67,-11886.525,-6904.62
1764434737.996112,-579.78,-9351.27,-37893.42,-25659.27,-21539.79,-21127.68,-11878.38,-6897.825
1764434737.996112,-577.935,-9348.525,-37893.555,-25658.145,-21539.205,-21123.315,-11880.45,-6900.21
1764434737.9981084,-571.5,-9342.54,-37893.15,-25653.195,-21535.38,-21108.915,-11886.975,-6904.889999999999
1764434737.9981084,-567.3149999999999,-9340.515,-37896.525,-25649.235,-21533.895,-21094.965,-11898.63,-6913.8
1764434737.9981084,-558.99,-9333.54,-37897.02,-25641.18,-21528.18,-21074.535,-11908.035,-6921.09
1764434737.9981084,-555.03,-9330.165,-37896.525,-25636.59,-21524.715,-21064.005,-11912.76,-6923.835
1764434737.999107,-556.11,-9331.83,-37894.59,-25636.995,-21525.66,-21069.135,-11908.35,-6919.83
1764434737.999107,-562.68,-9338.4,-37896.48,-25644.465,-21532.77,-21086.955,-11901.87,-6916.139999999999
1764434737.999107,-565.785,-9340.245,-37892.25,-25646.985,-21534.3,-21101.94,-11889.72,-6905.7
1764434737.999107,-573.48,-9347.265,-37891.44,-25654.77,-21539.97,-21122.595,-11879.595,-6897.554999999999
1764434737.999107,-577.7099999999999,-9351.27,-37892.385,-25660.35,-21543.435,-21132.945,-11874.69,-6894.9
1764434737.999107,-577.485,-9350.91,-37895.175,-25661.61,-21543.075,-21129.03,-11878.875,-6899.67
1764434737.999107,-569.655,-9343.44,-37894.005,-25653.78,-21535.965,-21110.49,-11885.31,-6903.36
1764434737.999107,-563.67,-9339.435,-37896.255,-25647.705,-21532.275,-21092.535,-11895.345,-6912.27
1764434738.0444777,-555.615,-9333.045,-37897.065,-25639.92,-21525.48,-21070.485,-11904.435,-6920.415
1764434738.0444777,-553.77,-9332.145,-37899.27,-25636.32,-21522.87,-21060.99,-11910.105,-6925.139999999999
1764434738.0444777,-557.235,-9336.69,-37899.9,-25638.03,-21524.76,-21067.29,-11907.945,-6924.105
1764434738.0444777,-561.1949999999999,-9340.38,-37897.38,-25641.045,-21526.065,-21079.215,-11899.395,-6915.645
1764434738.0454922,-570.6,-9349.29,-37899.495,-25650.585,-21533.76,-21099.195,-11893.14,-6911.82
1764434738.0454922,-577.305,-9354.87,-37897.2,-25656.975,-21538.215,-21118.05,-11881.575,-6903.27
1764434738.0454922,-575.73,-9352.755,-37893.645,-25657.605,-21537.36,-21124.215,-11873.43,-6895.755
1764434738.0454922,-572.4449999999999,-9348.165,-37892.52,-25655.49,-21535.2,-21118.05,-11874.15,-6895.889999999999
1764434738.0454922,-567.81,-9344.115,-37894.41,-25651.665,-21532.635,-21104.955,-11883.33,-6903.63
1764434738.0454922,-562.14,-9339.255,-37896.885,-25646.535,-21528.765,-21087.495,-11893.455,-6912.0
1764434738.0454922,-555.7049999999999,-9334.26,-37898.505,-25640.775,-21524.445,-21067.515,-11904.795,-6921.495
1764434738.0454922,-553.3199999999999,-9332.595,-37898.865,-25636.815,-21521.835,-21057.705,-11909.385,-6924.915
1764434738.0454922,-556.56,-9335.295,-37898.595,-25638.93,-21523.185,-21064.5,-11906.28,-6922.53
1764434738.0469992,-559.845,-9338.445,-37895.085,-25641.855,-21525.615,-21078.0,-11897.505,-6914.07
1764434738.0469992,-563.4449999999999,-9341.82,-37891.17,-25645.005,-21527.325,-21093.525,-11886.705,-6904.98
1764434738.0469992,-569.295,-9347.445,-37889.91,-25652.25,-21532.725,-21113.505,-11875.815,-6896.7
1764434738.0469992,-572.265,-9350.1,-37890.495,-25656.885,-21536.28,-21123.405,-11871.18,-6893.37
1764434738.0469992,-571.995,-9348.975,-37892.925,-25656.84,-21536.19,-21119.175,-11875.905,-6897.465
1764434738.0480103,-569.2049999999999,-9345.735,-37895.76,-25653.915,-21533.94,-21106.395,-11885.715,-6906.509999999999
1764434738.0480103,-566.9549999999999,-9343.665,-37901.565,-25651.71,-21533.76,-21092.265,-11899.53,-6918.3
1764434738.0480103,-555.7049999999999,-9333.99,-37899.765,-25640.865,-21524.625,-21068.595,-11907.9,-6922.395
1764434738.0480103,-550.845,-9330.39,-37897.785,-25635.555,-21519.72,-21057.165,-11909.295,-6923.295
1764434738.089003,-554.265,-9334.395,-37898.235,-25637.445,-21522.195,-21064.05,-11906.145,-6921.54
1764434738.089003,-558.9449999999999,-9339.345,-37897.155,-25641.315,-21525.975,-21079.305,-11898.675,-6915.42
1764434738.089003,-563.04,-9343.125,-37893.555,-25645.68,-21528.315,-21094.83,-11887.92,-6905.384999999999
1764434738.089003,-572.715,-9351.405,-37894.995,-25655.445,-21536.37,-21117.015,-11879.82,-6898.634999999999
1764434738.089003,-580.68,-9358.02,-37899.585,-25664.4,-21544.245,-21130.47,-11878.92,-6899.94
1764434738.089003,-578.745,-9355.455,-37900.89,-25663.005,-21543.39,-21124.755,-11882.655,-6903.405
1764434738.089003,-569.79,-9346.23,-37898.28,-25655.04,-21536.325,-21106.845,-11887.56,-6906.915
1764434738.089003,-566.64,-9344.07,-37903.455,-25652.43,-21534.795,-21093.165,-11899.98,-6917.715
1764434738.089003,-559.35,-9338.175,-37904.58,-25645.05,-21529.08,-21072.645,-11909.205,-6925.815
1764434738.089003,-556.245,-9336.195,-37903.905,-25640.64,-21525.975,-21063.33,-11913.57,-6928.29
1764434738.089003,-558.495,-9338.445,-37902.51,-25641.855,-21526.47,-21068.865,-11911.185,-6925.05
1764434738.089003,-560.61,-9340.47,-37898.325,-25643.475,-21526.605,-21080.925,-11901.69,-6915.87
1764434738.089003,-567.0,-9346.77,-37897.47,-25650.765,-21532.005,-21099.42,-11893.095,-6908.625
1764434738.089003,-577.0799999999999,-9354.825,-37898.19,-25661.565,-21540.96,-21122.01,-11884.5,-6903.0
1764434738.089003,-581.49,-9358.74,-37900.215,-25666.785,-21545.595,-21132.765,-11880.945,-6902.145
1764434738.089003,-576.045,-9352.62,-37897.83,-25661.7,-21540.78,-21122.82,-11881.89,-6900.795
1764434738.089003,-571.095,-9347.715,-37899.0,-25657.515,-21537.405,-21108.375,-11889.99,-6907.679999999999
1764434738.089003,-569.655,-9346.545,-37903.905,-25656.165,-21536.82,-21095.235,-11903.22,-6920.054999999999
1764434738.089003,-560.34,-9339.39,-37903.635,-25647.12,-21528.99,-21072.78,-11911.995,-6926.49
1764434738.089003,-557.73,-9337.995,-37903.68,-25643.655,-21525.93,-21064.905,-11916.09,-6929.145
1764434738.089003,-555.84,-9337.32,-37899.0,-25641.405,-21523.995,-21068.01,-11909.205,-6921.99
1764434738.090006,-561.465,-9342.765,-37898.82,-25646.715,-21528.27,-21083.535,-11900.835,-6916.365
1764434738.090006,-565.8299999999999,-9346.23,-37895.715,-25651.08,-21531.105,-21099.105,-11889.0,-6907.05
1764434738.090006,-574.29,-9353.07,-37896.03,-25660.665,-21537.855,-21121.245,-11880.09,-6900.795
1764434738.137391,-576.135,-9354.42,-37895.715,-25663.995,-21539.205,-21130.2,-11876.22,-6897.465
1764434738.137391,-578.295,-9356.085,-37900.53,-25666.605,-21541.995,-21128.22,-11883.87,-6904.844999999999
1764434738.137391,-571.365,-9350.055,-37899.72,-25659.855,-21537.27,-21111.39,-11891.61,-6910.02
1764434738.138406,-568.4399999999999,-9347.58,-37903.905,-25656.03,-21536.28,-21095.595,-11903.67,-6920.415
1764434738.138406,-558.5849999999999,-9338.58,-37902.015,-25645.725,-21528.18,-21071.925,-11910.645,-6926.4
1764434738.138406,-557.28,-9337.455,-37903.23,-25642.665,-21525.345,-21064.815,-11914.695,-6929.594999999999
1764434738.138406,-556.515,-9336.825,-37899.495,-25640.865,-21523.23,-21067.515,-11907.54,-6922.575
1764434738.138406,-564.795,-9344.79,-37901.52,-25649.01,-21530.565,-21085.605,-11902.14,-6919.514999999999
1764434738.1394024,-570.915,-9349.38,-37898.73,-25655.175,-21535.02,-21102.48,-11892.42,-6911.28
1764434738.1394024,-576.9449999999999,-9353.88,-37896.435,-25662.555,-21539.565,-21122.415,-11881.62,-6902.054999999999
1764434738.1394024,-577.89,-9354.555,-37895.265,-25665.03,-21541.455,-21130.02,-11877.525,-6898.724999999999
1764434738.1394024,-578.2049999999999,-9354.51,-37899.045,-25667.235,-21543.39,-21126.195,-11884.005,-6904.44
1764434738.1404018,-570.6,-9346.32,-37897.74,-25659.765,-21536.235,-21108.555,-11889.945,-6907.815
1764434738.1404018,-566.775,-9342.81,-37901.025,-25654.185,-21533.805,-21092.58,-11900.655,-6916.77
1764434738.1404018,-560.5649999999999,-9337.77,-37903.905,-25647.345,-21528.81,-21073.365,-11911.455,-6925.815
1764434738.1404018,-553.365,-9332.685,-37900.125,-25639.695,-21522.555,-21061.575,-11912.355,-6924.554999999999
1764434738.1404018,-557.28,-9337.905,-37900.44,-25643.295,-21525.84,-21070.125,-11909.565,-6922.665
1764434738.1404018,-564.795,-9343.665,-37900.89,-25650.495,-21530.52,-21086.505,-11903.31,-6917.67
1764434738.1404018,-568.98,-9346.95,-37898.01,-25654.185,-21533.4,-21103.065,-11892.195,-6907.995
1764434738.1404018,-574.155,-9350.595,-37894.68,-25659.585,-21537.09,-21121.515,-11880.675,-6898.094999999999
1764434738.1404018,-580.005,-9356.175,-37897.92,-25667.19,-21542.895,-21132.18,-11879.145,-6898.995
1764434738.1404018,-578.0699999999999,-9353.79,-37899.18,-25666.29,-21542.22,-21125.43,-11883.96,-6903.09
1764434738.1414034,-570.285,-9346.59,-37898.28,-25659.045,-21535.785,-21108.24,-11890.89,-6907.545
1764434738.1414034,-566.235,-9343.71,-37902.015,-25655.13,-21533.265,-21093.03,-11902.365,-6917.264999999999
1764434738.1860683,-561.915,-9339.84,-37905.12,-25649.865,-21529.98,-21074.4,-11914.38,-6927.615
1764434738.1860683,-558.99,-9338.22,-37905.075,-25645.545,-21526.92,-21066.795,-11918.25,-6929.73
1764434738.1860683,-557.685,-9337.725,-37899.945,-25643.25,-21525.21,-21071.25,-11910.645,-6922.844999999999
1764434738.1860683,-561.15,-9340.065,-37896.93,-25646.49,-21528.045,-21084.39,-11900.925,-6914.429999999999
1764434738.1860683,-569.52,-9347.58,-37897.83,-25654.995,-21535.02,-21103.65,-11892.87,-6908.58
1764434738.1860683,-575.145,-9351.585,-37895.94,-25660.62,-21538.665,-21122.28,-11882.205,-6898.679999999999
1764434738.1860683,-577.755,-9352.98,-37895.85,-25664.13,-21541.365,-21130.47,-11877.975,-6896.429999999999
1764434738.1860683,-575.1899999999999,-9349.83,-37897.02,-25663.635,-21539.79,-21123.72,-11882.34,-6900.389999999999
1764434738.1860683,-570.24,-9345.6,-37898.685,-25659.63,-21536.82,-21108.96,-11891.43,-6908.625
1764434738.1860683,-567.36,-9343.575,-37903.365,-25656.615,-21536.145,-21095.37,-11905.065,-6919.65
1764434738.1860683,-561.1949999999999,-9338.895,-37905.12,-25649.37,-21530.925,-21075.795,-11915.82,-6927.84
1764434738.1860683,-555.39,-9334.665,-37901.79,-25643.07,-21524.67,-21064.77,-11916.855,-6926.94
1764434738.1860683,-556.875,-9337.275,-37900.125,-25643.34,-21525.165,-21071.385,-11911.365,-6922.575
1764434738.1860683,-562.005,-9341.505,-37898.235,-25647.93,-21528.765,-21086.19,-11902.41,-6915.105
1764434738.1860683,-570.42,-9348.615,-37898.505,-25655.895,-21535.56,-21106.845,-11893.725,-6910.02
1764434738.1860683,-577.125,-9354.195,-37896.66,-25662.555,-21540.78,-21126.51,-11883.375,-6902.46
1764434738.1860683,-576.54,-9353.295,-37894.14,-25663.905,-21541.14,-21131.55,-11878.605,-6897.465
1764434738.1860683,-573.84,-9349.965,-37894.995,-25662.195,-21539.655,-21124.8,-11882.52,-6900.929999999999
1764434738.1860683,-568.125,-9344.565,-37896.66,-25657.155,-21535.605,-21109.59,-11890.845,-6907.86
1764434738.1860683,-564.165,-9342.09,-37899.945,-25652.925,-21533.715,-21094.155,-11903.13,-6917.715
1764434738.1860683,-557.1899999999999,-9335.61,-37900.53,-25644.87,-21528.36,-21073.68,-11911.95,-6925.094999999999
1764434738.1860683,-556.1999999999999,-9335.565,-37902.555,-25643.88,-21527.19,-21067.11,-11916.18,-6928.92
1764434738.230199,-555.7049999999999,-9335.61,-37898.505,-25643.115,-21524.85,-21071.79,-11909.205,-6922.215
1764434738.230199,-559.89,-9338.76,-37894.815,-25646.175,-21527.145,-21085.605,-11899.845,-6913.844999999999
1764434738.230199,-571.005,-9348.705,-37896.84,-25656.705,-21535.74,-21107.385,-11893.14,-6909.795
1764434738.230199,-579.42,-9356.49,-37897.425,-25665.525,-21542.13,-21129.12,-11884.95,-6903.585
1764434738.230199,-580.4549999999999,-9356.715,-37897.065,-25667.28,-21543.435,-21135.285,-11880.09,-6899.985
1764434738.230199,-577.5749999999999,-9353.79,-37898.19,-25665.615,-21542.22,-21127.86,-11884.905,-6903.495
1764434738.230199,-569.88,-9347.265,-37897.335,-25658.775,-21536.64,-21110.535,-11892.42,-6907.455
1764434738.230199,-567.405,-9345.645,-37902.6,-25657.2,-21536.28,-21096.27,-11905.605,-6919.2
1764434738.230199,-558.09,-9337.14,-37901.43,-25646.895,-21528.765,-21073.995,-11913.39,-6924.465
1764434738.230199,-552.96,-9332.145,-37897.965,-25640.19,-21523.32,-21063.915,-11913.795,-6923.25
1764434738.230199,-556.47,-9336.24,-37898.055,-25643.34,-21525.885,-21072.24,-11909.655,-6920.28
1764434738.230199,-561.42,-9340.83,-37896.3,-25647.435,-21528.63,-21086.775,-11902.005,-6912.9
1764434738.230199,-567.405,-9344.79,-37894.23,-25652.61,-21532.14,-21104.37,-11891.07,-6904.485
1764434738.230199,-575.055,-9351.81,-37893.87,-25661.025,-21538.845,-21124.98,-11881.215,-6898.005
1764434738.2312143,-581.4,-9357.48,-37898.055,-25668.54,-21545.595,-21135.6,-11881.98,-6900.705
1764434738.2312143,-577.845,-9352.575,-37897.29,-25665.3,-21542.715,-21125.88,-11885.58,-6903.0
1764434738.2312143,-569.5649999999999,-9344.25,-37895.265,-25656.795,-21535.29,-21106.485,-11891.07,-6905.79
1764434738.2312143,-565.155,-9340.245,-37898.64,-25652.475,-21531.465,-21090.06,-11902.95,-6915.06
1764434738.2312143,-558.855,-9334.62,-37899.765,-25644.375,-21525.525,-21070.215,-11912.4,-6923.07
1764434738.2312143,-556.965,-9334.305,-37900.395,-25641.225,-21523.41,-21063.825,-11916.09,-6925.86
1764434738.2312143,-558.99,-9336.825,-37899.045,-25642.215,-21524.22,-21070.35,-11911.05,-6921.54
1764434738.2312143,-565.11,-9342.72,-37898.235,-25648.155,-21528.945,-21086.415,-11903.445,-6915.735
1764434738.2759104,-572.265,-9348.345,-37896.975,-25655.31,-21534.39,-21105.495,-11893.77,-6908.175
1764434738.2759104,-582.255,-9358.155,-37899.675,-25666.155,-21542.67,-21128.265,-11887.065,-6903.63
1764434738.2759104,-583.02,-9358.29,-37898.595,-25667.82,-21543.255,-21133.62,-11884.095,-6900.705
1764434738.2759104,-577.53,-9352.125,-37896.795,-25663.185,-21538.665,-21123.09,-11886.84,-6902.054999999999
1764434738.2759104,-572.4449999999999,-9347.67,-37898.235,-25658.82,-21534.48,-21107.52,-11894.895,-6908.58
1764434738.2759104,-570.285,-9347.22,-37904.85,-25656.39,-21534.3,-21093.57,-11908.62,-6920.46
1764434738.2759104,-560.295,-9337.275,-37902.195,-25645.14,-21525.66,-21069.765,-11915.685,-6924.554999999999
1764434738.2759104,-557.235,-9335.295,-37900.935,-25641.54,-21522.78,-21062.34,-11917.17,-6925.23
1764434738.2759104,-560.925,-9339.12,-37900.305,-25643.655,-21524.535,-21071.115,-11913.03,-6922.485
1764434738.2759104,-563.715,-9341.19,-37896.39,-25645.725,-21525.84,-21083.715,-11902.095,-6913.8
1764434738.2759104,-571.365,-9347.94,-37896.39,-25653.69,-21532.545,-21103.65,-11893.185,-6907.545
1764434738.2759104,-578.43,-9354.015,-37895.4,-25661.655,-21537.225,-21123.09,-11884.455,-6899.219999999999
1764434738.2759104,-583.56,-9358.74,-37898.685,-25667.595,-21543.12,-21132.54,-11884.68,-6901.065
1764434738.2759104,-578.2049999999999,-9353.52,-37897.74,-25663.32,-21539.7,-21122.01,-11887.65,-6903.179999999999
1764434738.2759104,-573.5699999999999,-9349.29,-37899.72,-25659.315,-21535.965,-21107.025,-11896.83,-6910.605
1764434738.2759104,-570.24,-9346.815,-37903.815,-25655.94,-21534.12,-21091.59,-11909.295,-6921.54
1764434738.2759104,-565.605,-9342.18,-37906.11,-25650.495,-21529.35,-21072.87,-11920.095,-6930.945
1764434738.2759104,-561.555,-9338.58,-37904.22,-25644.645,-21524.94,-21064.41,-11921.94,-6930.719999999999
1764434738.2759104,-564.66,-9341.73,-37903.815,-25647.39,-21526.875,-21073.32,-11916.27,-6927.255
1764434738.2759104,-567.5849999999999,-9344.07,-37900.17,-25650.405,-21528.9,-21086.775,-11905.605,-6918.12
1764434738.2759104,-574.245,-9350.055,-37898.505,-25656.57,-21533.58,-21105.72,-11895.615,-6909.48
1764434738.2759104,-579.1949999999999,-9354.6,-37896.12,-25661.97,-21536.91,-21123.315,-11884.545,-6900.57
1764434738.2759104,-580.995,-9355.815,-37896.48,-25666.02,-21539.835,-21129.12,-11882.565,-6899.04
1764434738.2759104,-579.1949999999999,-9353.115,-37898.1,-25665.3,-21538.8,-21121.875,-11887.47,-6903.945
1764434738.3248353,-575.1899999999999,-9348.795,-37900.98,-25661.25,-21536.28,-21107.745,-11896.695,-6912.719999999999
1764434738.3248353,-573.39,-9347.49,-37907.145,-25659.18,-21536.145,-21093.345,-11911.59,-6925.724999999999
1764434738.3248353,-563.5799999999999,-9339.03,-37904.625,-25648.605,-21527.55,-21071.295,-11918.835,-6930.45
1764434738.3248353,-562.365,-9339.03,-37905.435,-25646.805,-21525.795,-21066.39,-11921.67,-6932.745
1764434738.3248353,-562.995,-9339.84,-37902.105,-25646.67,-21525.39,-21071.295,-11914.38,-6925.905
1764434738.3248353,-571.185,-9348.165,-37903.77,-25654.995,-21532.365,-21090.51,-11908.575,-6922.395
1764434738.3248353,-576.99,-9353.295,-37900.89,-25660.71,-21536.325,-21108.285,-11897.415,-6913.304999999999
1764434738.3248353,-584.8199999999999,-9359.415,-37900.395,-25669.395,-21542.445,-21128.535,-11888.73,-6906.375
1764434738.3248353,-586.62,-9360.225,-37901.16,-25672.68,-21544.695,-21134.295,-11887.29,-6905.07
1764434738.3248353,-583.65,-9356.13,-37901.52,-25669.665,-21543.075,-21125.295,-11892.06,-6909.255
1764434738.3248353,-577.0799999999999,-9349.605,-37901.34,-25663.095,-21537.495,-21107.475,-11899.53,-6914.474999999999
1764434738.3248353,-574.47,-9348.66,-37907.505,-25660.845,-21536.775,-21092.805,-11912.76,-6926.264999999999
1764434738.3248353,-566.505,-9342.09,-37907.145,-25652.565,-21529.215,-21072.87,-11921.265,-6933.105
1764434738.3248353,-562.185,-9339.615,-37904.49,-25647.48,-21524.895,-21065.985,-11921.265,-6932.745
1764434738.3248353,-563.895,-9341.685,-37901.97,-25648.155,-21526.245,-21073.86,-11915.145,-6926.849999999999
1764434738.3248353,-569.43,-9347.265,-37900.53,-25653.24,-21530.475,-21089.205,-11907.045,-6920.054999999999
1764434738.3248353,-573.66,-9350.28,-37896.57,-25657.605,-21534.03,-21105.45,-11895.795,-6909.974999999999
1764434738.3248353,-584.145,-9359.235,-37898.865,-25668.36,-21542.715,-21127.365,-11888.955,-6905.88
1764434738.3248353,-585.99,-9359.64,-37899.405,-25671.105,-21545.1,-21133.17,-11887.335,-6904.62
1764434738.3248353,-579.645,-9353.25,-37897.29,-25665.84,-21539.655,-21121.47,-11889.765,-6906.105
1764434738.3258345,-575.145,-9349.605,-37899.225,-25662.24,-21536.145,-21106.935,-11899.215,-6914.115
1764434738.3258345,-573.165,-9348.885,-37905.57,-25660.08,-21535.695,-21092.715,-11912.85,-6927.165
1764434738.3258345,-565.245,-9341.73,-37905.615,-25651.395,-21528.045,-21070.98,-11920.5,-6932.115
1764434738.3258345,-561.8249999999999,-9338.76,-37903.545,-25646.04,-21524.13,-21063.78,-11920.32,-6931.665
1764434738.3704512,-564.0749999999999,-9341.145,-37900.89,-25647.39,-21526.02,-21072.825,-11914.56,-6926.4
1764434738.3704512,-569.52,-9345.735,-37899.765,-25652.115,-21529.62,-21088.035,-11905.56,-6919.155
1764434738.3704512,-572.76,-9348.795,-37896.435,-25656.345,-21532.365,-21104.055,-11893.725,-6908.759999999999
1764434738.3704512,-582.615,-9356.67,-37897.29,-25666.47,-21540.015,-21124.665,-11886.255,-6904.17
1764434738.3704512,-582.03,-9355.275,-37895.4,-25667.145,-21540.015,-21127.95,-11883.015,-6900.48
1764434738.3704512,-579.1949999999999,-9353.16,-37897.875,-25665.21,-21538.71,-21120.255,-11889.225,-6905.52
1764434738.3704512,-574.425,-9349.065,-37900.215,-25660.71,-21535.2,-21105.675,-11898.945,-6913.62
1764434738.3704512,-569.6999999999999,-9346.095,-37903.86,-25655.265,-21532.14,-21088.665,-11911.14,-6923.655
1764434738.3704512,-562.185,-9340.74,-37904.805,-25647.21,-21526.47,-21069.495,-11920.23,-6930.495
1764434738.3704512,-561.375,-9341.505,-37905.57,-25645.86,-21526.38,-21066.345,-11922.165,-6933.15
1764434738.3704512,-562.68,-9342.54,-37902.645,-25645.905,-21525.975,-21072.6,-11915.595,-6927.344999999999
1764434738.3704512,-568.125,-9346.77,-37901.025,-25650.72,-21528.99,-21088.08,-11907.315,-6919.514999999999
1764434738.3704512,-578.61,-9356.085,-37902.825,-25660.755,-21537.585,-21110.445,-11900.07,-6914.925
1764434738.3704512,-586.755,-9362.43,-37903.05,-25668.9,-21543.03,-21130.605,-11891.97,-6908.535
1764434738.3704512,-587.745,-9362.88,-37902.465,-25671.69,-21545.28,-21134.565,-11889.18,-6906.645
1764434738.3704512,-584.28,-9359.46,-37903.455,-25668.765,-21543.975,-21125.565,-11894.445,-6910.875
1764434738.3704512,-578.0699999999999,-9352.845,-37903.545,-25661.52,-21538.8,-21108.465,-11902.32,-6916.679999999999
1764434738.3704512,-575.28,-9351.09,-37908.315,-25659.27,-21537.54,-21094.155,-11916.54,-6928.695
1764434738.3704512,-565.155,-9342.585,-37905.39,-25648.965,-21529.17,-21071.925,-11923.02,-6932.79
1764434738.3704512,-564.255,-9342.405,-37905.3,-25646.715,-21527.685,-21067.47,-11924.55,-6934.5
1764434738.3704512,-562.59,-9341.01,-37899.27,-25644.96,-21524.355,-21072.24,-11915.055,-6925.005
1764434738.3704512,-568.305,-9346.095,-37898.325,-25650.855,-21527.64,-21087.855,-11905.83,-6917.175
1764434738.4151387,-577.125,-9354.6,-37899.99,-25660.17,-21535.11,-21108.6,-11897.055,-6911.594999999999
1764434738.4151387,-585.855,-9361.71,-37901.115,-25669.305,-21542.13,-21129.795,-11890.485,-6906.69
1764434738.4151387,-586.305,-9361.62,-37899.99,-25671.6,-21543.03,-21133.62,-11887.92,-6904.485
1764434738.4151387,-582.0749999999999,-9357.12,-37900.575,-25668.63,-21540.06,-21123.315,-11893.275,-6908.355
1764434738.4151387,-578.88,-9353.25,-37904.04,-25664.175,-21537.54,-21109.32,-11903.445,-6917.58
1764434738.4151387,-576.63,-9352.08,-37910.07,-25661.7,-21538.215,-21094.74,-11918.295,-6930.315
1764434738.4151387,-568.0799999999999,-9344.61,-37908.135,-25652.52,-21530.25,-21073.005,-11925.855,-6935.264999999999
1764434738.4161396,-568.17,-9345.915,-37909.62,-25651.845,-21529.215,-21069.765,-11928.06,-6937.38
1764434738.4161396,-568.89,-9346.815,-37905.795,-25651.71,-21528.63,-21077.46,-11919.42,-6930.495
1764434738.4161396,-570.6,-9349.2,-37901.43,-25653.735,-21529.53,-21090.105,-11907.72,-6920.415
1764434738.4161396,-580.14,-9357.615,-37902.285,-25662.24,-21537.585,-21110.94,-11899.845,-6914.88
1764434738.4161396,-586.035,-9361.755,-37900.62,-25668.675,-21542.58,-21128.49,-11890.53,-6907.094999999999
1764434738.4161396,-585.99,-9360.405,-37899.0,-25669.17,-21542.13,-21131.595,-11887.65,-6904.53
1764434738.4161396,-586.485,-9360.9,-37904.355,-25670.43,-21543.255,-21125.88,-11896.335,-6913.08
1764434738.4161396,-577.4399999999999,-9352.53,-37902.33,-25661.88,-21536.145,-21106.305,-11902.365,-6916.59
1764434738.4161396,-572.49,-9348.57,-37905.705,-25656.3,-21532.545,-21088.26,-11914.245,-6925.905
1764434738.4161396,-565.38,-9342.27,-37905.39,-25648.2,-21525.84,-21069.09,-11921.67,-6931.62
1764434738.4161396,-565.515,-9343.215,-37906.02,-25646.895,-21525.48,-21066.39,-11923.92,-6934.23
1764434738.4161396,-565.155,-9343.35,-37901.79,-25646.94,-21524.49,-21072.42,-11915.415,-6926.219999999999
1764434738.4161396,-570.9599999999999,-9347.94,-37900.665,-25651.575,-21528.675,-21087.72,-11906.55,-6919.02
1764434738.4161396,-575.8199999999999,-9351.855,-37897.425,-25656.525,-21532.635,-21104.505,-11895.39,-6909.03
1764434738.4161396,-582.345,-9358.515,-37897.2,-25664.49,-21538.8,-21124.26,-11887.245,-6903.0
1764434738.4161396,-585.18,-9360.765,-37898.325,-25668.18,-21540.87,-21129.165,-11886.795,-6903.63
1764434738.4161396,-583.92,-9358.83,-37901.43,-25667.415,-21540.24,-21120.84,-11894.895,-6910.065
1764434738.4649704,-579.42,-9355.095,-37903.815,-25663.14,-21537.585,-21106.17,-11905.38,-6918.615
1764434738.4649704,-578.115,-9354.78,-37910.52,-25661.565,-21537.405,-21092.805,-11919.465,-6931.889999999999
1764434738.4649704,-569.88,-9346.905,-37909.71,-25653.105,-21530.565,-21072.69,-11927.025,-6936.84
1764434738.4649704,-565.155,-9342.675,-37905.75,-25647.885,-21525.48,-21065.04,-11926.08,-6934.41
1764434738.4649704,-566.9549999999999,-9344.565,-37902.33,-25648.515,-21525.255,-21072.915,-11917.62,-6927.75
1764434738.4649704,-572.535,-9349.065,-37900.62,-25653.915,-21529.305,-21089.205,-11909.385,-6920.91
1764434738.4649704,-578.34,-9353.52,-37898.37,-25659.675,-21533.31,-21107.115,-11897.91,-6912.585
1764434738.4649704,-585.72,-9359.505,-37898.685,-25667.28,-21539.745,-21126.42,-11889.225,-6906.825
1764434738.4649704,-589.8149999999999,-9362.43,-37901.88,-25672.23,-21544.245,-21132.765,-11890.98,-6909.165
1764434738.4649704,-585.9,-9358.56,-37902.645,-25669.395,-21541.77,-21122.64,-11896.245,-6913.17
1764434738.4649704,-578.52,-9351.81,-37901.79,-25661.565,-21534.93,-21105.045,-11903.445,-6917.985
1764434738.4649704,-574.8299999999999,-9349.425,-37905.975,-25658.145,-21533.445,-21089.115,-11917.215,-6929.594999999999
1764434738.4659736,-569.43,-9345.51,-37907.28,-25652.07,-21528.765,-21071.97,-11926.44,-6937.11
1764434738.4659736,-567.27,-9344.565,-37906.155,-25648.74,-21526.74,-21068.19,-11926.98,-6937.02
1764434738.4659736,-566.865,-9344.205,-37900.71,-25647.435,-21525.165,-21074.265,-11917.62,-6927.705
1764434738.4659736,-574.245,-9350.64,-37900.62,-25654.095,-21530.295,-21091.05,-11909.16,-6922.17
1764434738.4659736,-582.345,-9357.39,-37901.205,-25662.24,-21536.955,-21112.29,-11899.845,-6915.78
1764434738.4659736,-585.405,-9359.505,-37897.695,-25667.145,-21539.52,-21127.725,-11889.27,-6906.375
1764434738.4659736,-587.43,-9361.17,-37899.405,-25670.475,-21542.22,-21132.135,-11888.82,-6906.554999999999
1764434738.4659736,-587.52,-9361.035,-37902.87,-25670.745,-21543.03,-21124.98,-11897.595,-6914.655
1764434738.4659736,-578.745,-9352.845,-37900.98,-25662.105,-21535.74,-21105.99,-11903.625,-6918.255
1764434738.4659736,-576.045,-9351.675,-37906.965,-25659.495,-21535.245,-21090.78,-11917.035,-6930.855
1764434738.4659736,-568.53,-9344.88,-37906.695,-25651.35,-21528.855,-21071.565,-11924.37,-6936.57
1764434738.4659736,-565.425,-9342.045,-37904.22,-25646.58,-21525.075,-21065.94,-11923.965,-6934.679999999999
1764434738.5103333,-564.84,-9341.325,-37898.415,-25644.69,-21522.69,-21071.43,-11913.975,-6925.86
1764434738.5103333,-569.655,-9345.42,-37896.435,-25649.955,-21526.47,-21087.72,-11904.255,-6918.255
1764434738.5103333,-577.125,-9351.36,-37894.455,-25657.56,-21531.6,-21107.97,-11894.49,-6909.884999999999
1764434738.5103333,-587.115,-9361.08,-37897.965,-25668.405,-21541.005,-21129.84,-11889.9,-6907.185
1764434738.5103333,-588.78,-9361.44,-37899.18,-25670.565,-21543.615,-21133.215,-11890.35,-6907.815
1764434738.5103333,-585.63,-9358.29,-37899.945,-25667.55,-21541.365,-21122.955,-11896.83,-6913.035
1764434738.5103333,-577.485,-9350.415,-37898.82,-25659.405,-21534.12,-21104.19,-11903.67,-6917.49
1764434738.5103333,-574.515,-9348.705,-37904.4,-25656.12,-21532.365,-21088.53,-11916.945,-6930.179999999999
1764434738.5103333,-563.9399999999999,-9339.255,-37901.565,-25645.455,-21523.05,-21066.525,-11922.66,-6932.969999999999
1764434738.5103333,-562.8149999999999,-9337.86,-37900.8,-25642.665,-21521.25,-21062.52,-11922.705,-6932.115
1764434738.5113251,-566.3249999999999,-9341.415,-37898.82,-25644.645,-21522.42,-21072.465,-11916.0,-6925.815
1764434738.5113251,-574.8299999999999,-9350.01,-37899.72,-25652.475,-21529.98,-21092.625,-11909.16,-6922.17
1764434738.5113251,-580.545,-9354.105,-37897.47,-25659.0,-21534.705,-21111.03,-11898.0,-6912.719999999999
1764434738.5113251,-584.415,-9355.725,-37894.41,-25664.265,-21536.865,-21126.51,-11887.11,-6903.224999999999
1764434738.5113251,-585.9,-9357.255,-37895.535,-25667.19,-21539.205,-21130.065,-11887.02,-6904.349999999999
1764434738.5113251,-585.27,-9356.715,-37899.045,-25666.74,-21539.79,-21122.595,-11895.345,-6911.955
1764434738.5113251,-579.06,-9350.685,-37899.495,-25660.17,-21534.39,-21105.495,-11904.165,-6918.48
1764434738.5123217,-576.5849999999999,-9350.19,-37905.66,-25658.775,-21534.165,-21091.14,-11918.88,-6931.8
1764434738.5123217,-567.045,-9342.045,-37903.095,-25648.38,-21525.525,-21070.08,-11924.73,-6933.78
1764434738.5123217,-563.805,-9340.11,-37900.485,-25644.06,-21522.105,-21065.355,-11923.245,-6931.844999999999
1764434738.5123217,-567.045,-9343.53,-37898.955,-25648.155,-21524.985,-21075.57,-11917.305,-6927.075
1764434738.5123217,-577.755,-9353.25,-37902.33,-25657.38,-21533.67,-21096.675,-11913.165,-6924.69
1764434738.5123217,-583.605,-9358.245,-37899.405,-25662.645,-21537.45,-21115.89,-11902.23,-6915.465
1764434738.5123217,-586.305,-9359.415,-37895.265,-25665.525,-21539.115,-21129.165,-11889.54,-6904.17
1764434738.5556054,-589.995,-9361.755,-37897.92,-25670.43,-21542.985,-21133.17,-11890.35,-6906.78
1764434738.5561414,-584.64,-9356.805,-37897.965,-25666.29,-21538.215,-21121.11,-11895.975,-6910.514999999999
1764434738.5561414,-579.375,-9352.935,-37900.485,-25661.565,-21535.155,-21105.495,-11905.47,-6918.57
1764434738.5561414,-576.5849999999999,-9351.99,-37906.425,-25659.09,-21533.805,-21089.79,-11919.465,-6931.53
1764434738.5561414,-565.56,-9343.17,-37903.365,-25648.425,-21524.535,-21068.865,-11924.37,-6934.005
1764434738.5561414,-565.515,-9343.08,-37902.78,-25646.715,-21523.32,-21066.39,-11924.505,-6933.915
1764434738.556677,-572.13,-9348.93,-37903.455,-25651.755,-21528.09,-21079.35,-11919.915,-6930.495
1764434738.556677,-578.745,-9355.14,-37902.465,-25658.415,-21533.805,-21096.63,-11912.265,-6924.78
1764434738.556677,-583.245,-9357.615,-37899.045,-25663.68,-21537.18,-21113.82,-11899.53,-6914.79
1764434738.556677,-585.135,-9359.325,-37894.635,-25666.83,-21538.575,-21127.815,-11888.415,-6904.44
1764434738.556677,-585.5849999999999,-9359.145,-37895.49,-25667.685,-21540.105,-21129.525,-11887.38,-6903.63
1764434738.556677,-583.56,-9356.625,-37899.045,-25666.56,-21539.7,-21120.57,-11895.39,-6911.19
1764434738.556677,-580.05,-9354.015,-37901.88,-25663.455,-21536.505,-21106.35,-11906.91,-6920.594999999999
1764434738.556677,-576.855,-9352.44,-37906.83,-25660.44,-21535.605,-21090.24,-11921.04,-6933.554999999999
1764434738.556677,-573.435,-9349.965,-37909.44,-25656.39,-21532.905,-21075.795,-11931.255,-6942.33
1764434738.556677,-571.905,-9347.85,-37906.92,-25652.43,-21529.44,-21071.88,-11929.23,-6939.54
1764434738.556677,-571.9499999999999,-9347.265,-37901.7,-25651.125,-21527.505,-21078.045,-11919.42,-6929.685
1764434738.556677,-578.0699999999999,-9353.34,-37901.745,-25657.74,-21532.23,-21095.055,-11910.915,-6923.52
1764434738.556677,-585.81,-9359.73,-37901.295,-25665.84,-21538.485,-21116.25,-11901.51,-6917.355
1764434738.559796,-589.59,-9361.44,-37898.055,-25671.195,-21541.905,-21131.595,-11891.925,-6908.804999999999
1764434738.559796,-594.18,-9365.04,-37902.69,-25676.685,-21546.99,-21136.995,-11895.075,-6912.719999999999
1764434738.559796,-589.68,-9360.9,-37904.13,-25672.77,-21544.425,-21126.06,-11901.915,-6916.95
1764434738.6044626,-577.8,-9350.775,-37900.035,-25661.16,-21534.435,-21103.38,-11906.1,-6917.759999999999
1764434738.6044626,-571.3199999999999,-9345.105,-37901.79,-25654.815,-21529.44,-21083.895,-11916.27,-6926.264999999999
1764434738.6044626,-564.93,-9340.11,-37902.195,-25646.76,-21524.31,-21067.605,-11923.515,-6932.34
1764434738.6044626,-567.045,-9342.9,-37903.275,-25647.84,-21525.255,-21068.64,-11925.81,-6935.085
1764434738.6049316,-567.9449999999999,-9344.025,-37898.685,-25647.93,-21524.715,-21076.425,-11916.72,-6927.03
1764434738.6049316,-576.045,-9351.315,-37899.36,-25656.165,-21530.565,-21094.38,-11908.98,-6921.719999999999
1764434738.6049316,-580.23,-9354.51,-37896.03,-25660.53,-21532.455,-21111.075,-11896.38,-6911.054999999999
1764434738.6049316,-587.88,-9361.665,-37897.74,-25669.17,-21539.835,-21129.57,-11890.845,-6906.735
1764434738.6049316,-592.38,-9365.67,-37902.33,-25674.705,-21545.145,-21134.295,-11894.535,-6911.19
1764434738.6049316,-588.105,-9361.35,-37903.995,-25671.825,-21541.815,-21123.36,-11901.69,-6916.86
1764434738.6049316,-578.655,-9352.035,-37901.565,-25662.285,-21533.265,-21104.145,-11907.18,-6920.46
1764434738.6049316,-571.995,-9346.68,-37903.095,-25654.815,-21528.0,-21084.975,-11916.72,-6929.46
1764434738.6049316,-565.785,-9342.045,-37903.05,-25647.885,-21523.095,-21067.605,-11924.64,-6935.355
1764434738.6049316,-567.09,-9345.105,-37904.805,-25648.065,-21524.445,-21067.785,-11926.665,-6935.49
1764434738.6049316,-572.805,-9349.83,-37905.48,-25652.52,-21528.36,-21079.62,-11920.86,-6931.395
1764434738.6049316,-578.475,-9354.285,-37903.32,-25657.74,-21532.14,-21096.09,-11912.265,-6924.554999999999
1764434738.6049316,-588.105,-9363.105,-37903.86,-25667.91,-21540.24,-21118.545,-11904.66,-6919.38
1764434738.6049316,-595.0799999999999,-9368.01,-37903.905,-25674.615,-21545.415,-21135.87,-11898.0,-6914.474999999999
1764434738.6049316,-592.785,-9364.365,-37901.61,-25673.04,-21543.615,-21134.16,-11894.85,-6911.55
1764434738.6049316,-589.77,-9362.115,-37903.995,-25671.6,-21542.715,-21124.395,-11901.915,-6918.344999999999
1764434738.6049316,-579.78,-9353.34,-37901.115,-25662.42,-21534.03,-21104.145,-11907.585,-6921.495
1764434738.6049316,-577.0799999999999,-9352.305,-37906.965,-25659.405,-21532.77,-21088.44,-11922.165,-6934.32
1764434738.6049316,-568.89,-9345.195,-37905.39,-25650.405,-21524.895,-21069.09,-11927.97,-6938.775
1764434738.6049316,-566.595,-9343.17,-37903.05,-25645.635,-21520.89,-21064.77,-11926.62,-6936.255
1764434738.649541,-573.435,-9349.065,-37903.545,-25650.495,-21526.02,-21077.82,-11922.165,-6933.105
1764434738.649541,-579.735,-9355.185,-37902.375,-25657.065,-21530.565,-21094.785,-11913.84,-6926.49
1764434738.649541,-585.045,-9358.92,-37899.135,-25663.05,-21533.085,-21112.74,-11902.005,-6916.32
1764434738.649541,-588.015,-9359.865,-37895.715,-25666.245,-21534.93,-21125.295,-11891.025,-6906.915
1764434738.649541,-589.41,-9360.945,-37898.235,-25668.81,-21536.865,-21127.995,-11892.555,-6909.12
1764434738.649541,-587.25,-9359.46,-37901.565,-25667.865,-21536.325,-21119.76,-11900.88,-6917.085
1764434738.649541,-579.555,-9352.935,-37900.17,-25661.205,-21531.555,-21102.48,-11908.665,-6922.44
1764434738.649541,-575.415,-9350.19,-37905.255,-25657.47,-21530.295,-21085.965,-11921.895,-6934.275
1764434738.649541,-566.415,-9342.09,-37902.915,-25648.425,-21522.735,-21066.795,-11927.25,-6936.21
1764434738.649541,-570.105,-9345.015,-37904.895,-25650.0,-21525.84,-21070.575,-11930.13,-6938.37
1764434738.649541,-570.465,-9345.33,-37899.9,-25649.145,-21524.985,-21079.53,-11921.13,-6929.37
1764434738.649541,-576.495,-9350.73,-37897.83,-25655.04,-21529.395,-21097.08,-11912.04,-6921.495
1764434738.649541,-583.6949999999999,-9356.715,-37896.255,-25662.465,-21534.795,-21118.095,-11901.06,-6913.53
1764434738.649541,-592.65,-9363.825,-37899.045,-25672.68,-21543.975,-21138.525,-11896.155,-6911.28
1764434738.649541,-591.345,-9361.35,-37897.695,-25672.545,-21543.885,-21137.67,-11895.345,-6910.605
1764434738.649541,-588.015,-9358.47,-37900.215,-25670.295,-21542.805,-21128.265,-11903.445,-6916.95
1764434738.649541,-581.22,-9352.665,-37901.205,-25664.445,-21538.08,-21112.065,-11912.445,-6923.34
1764434738.649541,-574.785,-9347.715,-37902.96,-25658.1,-21533.445,-21092.805,-11923.47,-6932.34
1764434738.649541,-567.225,-9340.74,-37901.88,-25649.145,-21527.505,-21075.84,-11928.42,-6936.435
1764434738.649541,-565.0649999999999,-9339.165,-37900.125,-25646.265,-21525.39,-21073.59,-11924.82,-6933.33
1764434738.649541,-568.8,-9343.665,-37898.64,-25650.18,-21528.09,-21084.975,-11917.755,-6927.884999999999
1764434738.649541,-572.895,-9346.14,-37894.32,-25653.24,-21529.305,-21097.395,-11906.145,-6918.03
1764434738.6950772,-582.12,-9354.42,-37895.22,-25661.25,-21535.335,-21117.645,-11896.695,-6911.55
1764434738.6950772,-584.415,-9355.905,-37891.845,-25663.59,-21535.965,-21129.93,-11886.345,-6902.415
1764434738.6950772,-582.615,-9353.925,-37891.08,-25663.005,-21535.02,-21127.275,-11884.365,-6900.705
1764434738.6950772,-579.735,-9351.045,-37894.23,-25660.755,-21532.77,-21116.115,-11891.97,-6907.41
1764434738.6950772,-571.41,-9343.62,-37893.33,-25651.89,-21525.93,-21096.63,-11899.08,-6911.82
1764434738.6950772,-565.65,-9338.94,-37896.165,-25646.355,-21522.015,-21076.47,-11910.69,-6921.36
1764434738.6950772,-559.17,-9334.215,-37896.48,-25639.47,-21516.12,-21059.73,-11916.9,-6927.344999999999
1764434738.6950772,-558.3149999999999,-9334.35,-37894.815,-25636.77,-21513.285,-21057.075,-11914.245,-6925.86
1764434738.6950772,-563.715,-9339.255,-37894.05,-25641.405,-21517.155,-21069.585,-11907.765,-6921.0
1764434738.6950772,-567.4499999999999,-9341.91,-37890.54,-25644.915,-21519.855,-21084.03,-11897.46,-6911.594999999999
1764434738.6950772,-576.9449999999999,-9350.235,-37892.43,-25655.13,-21528.495,-21106.845,-11889.675,-6906.69
1764434738.6950772,-584.865,-9356.805,-37894.005,-25664.67,-21535.515,-21126.195,-11884.59,-6903.945
1764434738.6950772,-582.615,-9354.78,-37892.655,-25663.545,-21535.065,-21124.305,-11884.41,-6902.91
1764434738.6950772,-578.97,-9351.72,-37895.76,-25661.205,-21533.445,-21113.64,-11892.06,-6909.66
1764434738.6950772,-567.765,-9341.055,-37891.8,-25650.54,-21524.085,-21092.355,-11896.155,-6910.965
1764434738.6950772,-563.0849999999999,-9337.455,-37895.49,-25646.22,-21521.43,-21075.48,-11908.665,-6921.315
1764434738.6950772,-560.79,-9336.69,-37898.595,-25642.53,-21519.81,-21063.24,-11917.89,-6930.179999999999
1764434738.6950772,-561.285,-9337.185,-37897.425,-25641.045,-21519.405,-21063.105,-11917.53,-6929.009999999999
1764434738.6950772,-561.8249999999999,-9338.265,-37892.34,-25641.18,-21518.145,-21071.97,-11907.675,-6919.155
1764434738.6950772,-567.0,-9342.495,-37890.135,-25646.715,-21522.465,-21088.125,-11897.955,-6912.63
1764434738.6950772,-577.305,-9351.585,-37891.395,-25656.795,-21530.295,-21111.435,-11890.08,-6907.545
1764434738.6950772,-582.03,-9355.23,-37890.9,-25662.24,-21533.67,-21126.555,-11882.745,-6900.705
1764434738.6950772,-586.0799999999999,-9358.065,-37896.21,-25667.37,-21537.99,-21130.83,-11886.48,-6905.969999999999
1764434738.6950772,-580.905,-9353.295,-37895.355,-25662.69,-21534.615,-21117.105,-11892.375,-6910.29
1764434738.7407029,-569.745,-9342.72,-37891.215,-25652.295,-21525.57,-21094.92,-11897.055,-6912.224999999999
1764434738.7407029,-564.66,-9338.22,-37894.14,-25646.85,-21522.51,-21076.875,-11909.52,-6922.259999999999
1764434738.7407029,-560.8349999999999,-9336.06,-37896.345,-25641.765,-21519.675,-21063.105,-11917.575,-6929.19
1764434738.7407029,-556.515,-9332.415,-37891.845,-25636.905,-21514.455,-21058.965,-11912.58,-6923.34
1764434738.7407029,-560.025,-9335.16,-37889.325,-25639.065,-21516.345,-21069.9,-11905.2,-6916.815
1764434738.7407029,-566.865,-9341.415,-37888.785,-25646.76,-21521.745,-21088.395,-11897.505,-6910.965
1764434738.7407029,-577.4399999999999,-9350.46,-37890.54,-25657.695,-21530.385,-21111.435,-11889.09,-6906.465
1764434738.7407029,-583.515,-9355.59,-37891.17,-25664.265,-21535.83,-21127.86,-11883.105,-6901.74
1764434738.7407029,-583.605,-9354.78,-37892.205,-25664.67,-21536.19,-21127.185,-11884.59,-6902.19
1764434738.7407029,-575.64,-9347.265,-37890.27,-25657.155,-21529.395,-21111.48,-11888.595,-6904.62
1764434738.7407029,-567.9449999999999,-9339.885,-37890.27,-25650.0,-21523.455,-21093.3,-11895.165,-6910.065
1764434738.7407029,-564.345,-9337.77,-37895.265,-25646.265,-21522.285,-21076.335,-11908.935,-6921.585
1764434738.7407029,-561.87,-9336.33,-37898.64,-25642.53,-21521.25,-21063.15,-11918.655,-6930.315
1764434738.7407029,-561.1949999999999,-9335.88,-37896.39,-25640.37,-21519.81,-21063.195,-11916.225,-6927.705
1764434738.7407029,-565.29,-9340.11,-37895.22,-25643.835,-21521.385,-21075.255,-11909.565,-6921.36
1764434738.7407029,-572.04,-9346.32,-37894.77,-25650.0,-21527.01,-21092.85,-11902.005,-6915.33
1764434738.742532,-576.135,-9349.515,-37889.955,-25654.635,-21529.98,-21110.445,-11889.63,-6904.62
1764434738.742532,-584.145,-9356.04,-37892.115,-25663.185,-21536.64,-21127.545,-11884.995,-6901.56
1764434738.742532,-585.495,-9356.445,-37894.455,-25666.335,-21538.53,-21128.715,-11887.83,-6904.53
1764434738.742532,-579.555,-9351.495,-37894.905,-25661.655,-21534.435,-21115.08,-11893.455,-6910.469999999999
1764434738.742532,-572.715,-9344.43,-37895.13,-25654.905,-21527.91,-21097.17,-11901.285,-6915.645
1764434738.742532,-566.37,-9338.445,-37896.93,-25648.2,-21523.59,-21077.55,-11911.5,-6924.825
1764434738.7867131,-561.555,-9334.98,-37896.705,-25642.17,-21519.9,-21063.24,-11917.53,-6930.09
1764434738.7867131,-560.6999999999999,-9334.89,-37894.5,-25640.595,-21518.145,-21061.935,-11915.37,-6927.075
1764434738.7867131,-562.365,-9335.97,-37890.27,-25641.405,-21517.74,-21070.62,-11905.245,-6917.625
1764434738.7867131,-571.365,-9344.34,-37892.34,-25650.405,-21525.03,-21090.24,-11898.765,-6913.62
1764434738.7867131,-577.665,-9349.695,-37889.64,-25657.065,-21530.16,-21110.805,-11888.28,-6904.485
1764434738.7867131,-582.5699999999999,-9352.665,-37888.875,-25662.195,-21533.58,-21125.205,-11881.62,-6898.815
1764434738.7867131,-585.72,-9354.69,-37893.24,-25665.93,-21536.865,-21127.14,-11885.22,-6903.45
1764434738.7867131,-580.23,-9349.065,-37893.195,-25660.665,-21532.995,-21113.28,-11891.79,-6907.77
1764434738.7867131,-570.3299999999999,-9340.335,-37890.45,-25651.755,-21525.12,-21093.255,-11898.405,-6911.505
1764434738.7867131,-565.425,-9337.32,-37894.77,-25647.57,-21523.095,-21075.57,-11911.185,-6922.665
1764434738.787248,-562.8149999999999,-9336.285,-37898.505,-25644.195,-21521.34,-21063.915,-11919.6,-6930.9
1764434738.787248,-561.6899999999999,-9335.7,-37895.67,-25641.405,-21519.405,-21063.105,-11916.36,-6927.12
1764434738.787248,-562.905,-9336.465,-37890.495,-25642.17,-21520.305,-21072.645,-11907.0,-6918.255
1764434738.787248,-567.9449999999999,-9341.595,-37888.92,-25647.3,-21524.445,-21089.52,-11897.64,-6910.245
1764434738.787248,-578.2049999999999,-9350.82,-37891.035,-25657.965,-21532.32,-21113.505,-11889.315,-6905.295
1764434738.787248,-582.5699999999999,-9353.34,-37889.505,-25662.555,-21535.785,-21126.51,-11881.665,-6899.804999999999
1764434738.787248,-581.04,-9350.46,-37888.83,-25662.915,-21535.695,-21123.855,-11881.89,-6899.895
1764434738.787248,-575.73,-9345.51,-37890.855,-25658.955,-21532.545,-21110.85,-11889.315,-6905.7
1764434738.787248,-566.1899999999999,-9337.14,-37888.83,-25650.315,-21524.4,-21091.32,-11895.93,-6909.705
1764434738.787248,-561.915,-9334.17,-37892.925,-25645.68,-21521.655,-21073.455,-11908.935,-6920.82
1764434738.789266,-559.5749999999999,-9332.775,-37896.03,-25642.08,-21519.855,-21061.845,-11918.52,-6928.56
1764434738.789266,-556.56,-9331.02,-37892.07,-25638.57,-21516.075,-21059.82,-11914.92,-6923.205
1764434738.789266,-560.79,-9335.52,-37890.225,-25642.395,-21518.64,-21072.78,-11906.46,-6917.219999999999
1764434738.789266,-570.105,-9344.16,-37891.98,-25651.53,-21526.83,-21093.525,-11900.34,-6914.07
1764434738.832898,-576.18,-9348.885,-37888.56,-25657.695,-21530.385,-21112.47,-11889.315,-6904.215
1764434738.832898,-582.5699999999999,-9353.61,-37889.325,-25664.67,-21535.56,-21127.185,-11883.24,-6900.12
1764434738.832898,-583.3349999999999,-9354.195,-37892.745,-25667.37,-21538.08,-21128.22,-11886.48,-6903.855
1764434738.832898,-576.09,-9347.13,-37891.755,-25660.35,-21532.815,-21112.92,-11891.88,-6906.42
1764434738.832898,-570.645,-9342.27,-37893.6,-25654.095,-21529.62,-21097.035,-11901.375,-6914.205
1764434738.832898,-566.415,-9340.065,-37898.145,-25650.045,-21527.01,-21079.98,-11915.19,-6926.759999999999
1764434738.832898,-562.8149999999999,-9337.095,-37899.36,-25645.545,-21524.04,-21066.435,-11922.165,-6931.98
1764434738.832898,-559.755,-9334.62,-37894.68,-25641.54,-21519.945,-21063.555,-11916.81,-6926.04
1764434738.832898,-562.4549999999999,-9337.41,-37891.935,-25644.06,-21520.935,-21076.245,-11907.495,-6917.985
1764434738.832898,-569.385,-9344.07,-37891.305,-25651.17,-21525.93,-21094.785,-11899.26,-6912.405
1764434738.832898,-580.365,-9353.115,-37893.735,-25661.655,-21534.3,-21118.68,-11891.565,-6907.545
1764434738.832898,-585.855,-9356.67,-37894.5,-25668.09,-21539.115,-21133.125,-11885.58,-6902.865
1764434738.832898,-583.6949999999999,-9354.195,-37894.095,-25666.92,-21538.08,-21130.02,-11885.715,-6903.045
1764434738.832898,-577.4399999999999,-9347.94,-37893.33,-25661.88,-21534.12,-21116.07,-11891.88,-6907.59
1764434738.832898,-570.285,-9341.73,-37892.88,-25654.725,-21528.09,-21097.35,-11899.98,-6913.395
1764434738.832898,-566.865,-9339.03,-37898.505,-25651.305,-21526.02,-21079.845,-11914.785,-6925.094999999999
1764434738.832898,-563.895,-9337.14,-37900.89,-25646.355,-21524.265,-21068.28,-11922.075,-6931.575
1764434738.832898,-564.525,-9338.22,-37899.18,-25646.13,-21524.04,-21070.125,-11919.96,-6929.235
1764434738.832898,-567.3149999999999,-9341.28,-37896.48,-25649.19,-21525.57,-21082.095,-11910.78,-6921.764999999999
1764434738.832898,-574.155,-9347.175,-37895.85,-25655.94,-21530.88,-21100.815,-11902.41,-6915.78
1764434738.832898,-580.545,-9351.54,-37893.555,-25661.88,-21535.065,-21119.94,-11891.745,-6906.33
1764434738.832898,-581.49,-9351.27,-37889.595,-25663.995,-21534.84,-21130.155,-11881.89,-6898.005
1764434738.878253,-581.04,-9350.28,-37891.035,-25664.67,-21535.11,-21129.03,-11884.275,-6900.165
1764434738.878253,-579.24,-9348.84,-37894.545,-25663.725,-21535.29,-21118.635,-11893.905,-6909.03
1764434738.878253,-571.05,-9341.73,-37893.06,-25655.715,-21528.99,-21099.645,-11901.375,-6913.665
1764434738.878253,-567.0,-9338.22,-37897.02,-25651.035,-21526.155,-21081.87,-11914.47,-6924.87
1764434738.878253,-564.12,-9336.015,-37899.135,-25646.895,-21523.545,-21069.675,-11920.95,-6930.405
1764434738.878253,-562.59,-9334.71,-37896.03,-25644.375,-21521.385,-21068.28,-11917.305,-6926.13
1764434738.878253,-568.395,-9340.875,-37895.58,-25649.37,-21525.48,-21082.68,-11910.6,-6921.585
1764434738.878253,-571.8149999999999,-9344.655,-37892.115,-25653.645,-21528.045,-21098.07,-11900.655,-6912.09
1764434738.878253,-581.5799999999999,-9352.71,-37893.78,-25664.265,-21536.19,-21121.47,-11891.43,-6905.745
1764434738.878253,-587.385,-9357.03,-37894.68,-25671.015,-21541.545,-21135.555,-11887.29,-6902.28
1764434738.878253,-589.4549999999999,-9357.615,-37897.92,-25673.355,-21544.245,-21135.69,-11891.88,-6906.735
1764434738.878253,-582.345,-9350.865,-37896.345,-25665.885,-21538.35,-21119.985,-11896.515,-6910.38
1764434738.878253,-577.485,-9346.005,-37898.235,-25659.99,-21534.03,-21102.75,-11906.01,-6918.57
1764434738.878253,-572.265,-9342.81,-37901.43,-25654.68,-21530.88,-21084.345,-11918.88,-6929.054999999999
1764434738.8792613,-566.775,-9338.175,-37900.89,-25648.11,-21525.84,-21069.9,-11923.695,-6933.375
1764434738.8792613,-569.79,-9341.55,-37902.375,-25649.415,-21527.415,-21074.31,-11922.705,-6932.745
1764434738.8792613,-573.7049999999999,-9345.33,-37900.44,-25653.555,-21529.845,-21086.685,-11915.1,-6926.264999999999
1764434738.8792613,-578.97,-9349.83,-37898.595,-25659.09,-21534.39,-21104.415,-11906.055,-6919.245
1764434738.8792613,-584.865,-9354.825,-37895.76,-25664.535,-21538.08,-21123.18,-11894.22,-6909.255
1764434738.8792613,-591.165,-9360.0,-37897.38,-25671.78,-21543.93,-21137.265,-11889.9,-6906.554999999999
1764434738.8792613,-591.39,-9359.145,-37899.315,-25672.995,-21544.965,-21136.14,-11892.735,-6909.165
1764434738.8792613,-586.0799999999999,-9354.285,-37900.215,-25668.405,-21540.555,-21122.505,-11900.295,-6915.509999999999
1764434738.8792613,-577.125,-9345.51,-37897.92,-25659.405,-21532.995,-21102.12,-11907.495,-6920.235
1764434738.8792613,-571.5,-9342.045,-37901.34,-25653.375,-21529.71,-21083.265,-11919.645,-6930.27
1764434738.9227886,-568.62,-9339.93,-37903.005,-25649.415,-21527.685,-21071.835,-11926.53,-6936.705
1764434738.9227886,-567.855,-9338.94,-37899.585,-25647.03,-21525.165,-21072.375,-11922.48,-6932.52
1764434738.9227886,-572.895,-9344.43,-37898.415,-25651.395,-21528.54,-21085.92,-11915.145,-6926.49
1764434738.9227886,-575.8199999999999,-9345.915,-37893.285,-25654.05,-21528.945,-21099.42,-11903.265,-6915.69
1764434738.9227886,-582.615,-9350.64,-37891.35,-25660.845,-21533.895,-21119.4,-11891.655,-6906.78
1764434738.9227886,-588.645,-9355.95,-37893.555,-25668.135,-21539.745,-21133.215,-11887.695,-6904.98
1764434738.9238071,-587.2049999999999,-9354.69,-37894.455,-25668.36,-21540.42,-21130.2,-11890.215,-6907.32
1764434738.9238071,-582.48,-9350.37,-37895.715,-25663.545,-21536.91,-21116.16,-11897.955,-6913.259999999999
1764434738.9238071,-577.4399999999999,-9346.05,-37897.47,-25657.785,-21533.265,-21099.78,-11908.17,-6921.54
1764434738.9238071,-572.85,-9342.765,-37901.88,-25652.79,-21530.835,-21081.6,-11921.4,-6932.835
1764434738.9238071,-568.0799999999999,-9339.21,-37901.34,-25646.805,-21526.2,-21068.415,-11926.215,-6936.615
1764434738.9238071,-571.545,-9343.35,-37902.735,-25649.64,-21528.54,-21074.49,-11925.72,-6936.525
1764434738.9238071,-575.865,-9346.77,-37900.08,-25652.745,-21531.69,-21086.865,-11916.765,-6929.099999999999
1764434738.9238071,-581.22,-9350.91,-37897.92,-25657.74,-21535.38,-21102.57,-11907.09,-6920.865
1764434738.9250095,-585.0,-9353.385,-37893.96,-25661.34,-21537.495,-21120.705,-11894.04,-6909.344999999999
1764434738.926023,-592.0649999999999,-9359.955,-37896.57,-25669.935,-21543.885,-21135.96,-11890.08,-6908.175
1764434738.926023,-591.885,-9358.92,-37898.865,-25670.655,-21544.605,-21133.89,-11893.5,-6911.46
1764434738.926023,-585.36,-9352.53,-37899.045,-25664.94,-21539.565,-21118.68,-11899.89,-6916.815
1764434738.926023,-577.0799999999999,-9345.42,-37898.19,-25656.84,-21532.005,-21098.88,-11907.855,-6922.259999999999
1764434738.9270208,-576.225,-9345.465,-37905.12,-25655.265,-21531.87,-21084.03,-11924.37,-6936.525
1764434738.9270208,-568.305,-9338.895,-37902.33,-25646.355,-21524.445,-21067.695,-11926.395,-6937.065
1764434738.9270208,-571.05,-9342.855,-37902.69,-25647.75,-21526.38,-21071.97,-11924.64,-6936.615
1764434738.9709806,-574.8299999999999,-9346.635,-37900.44,-25650.54,-21528.225,-21084.57,-11916.405,-6928.83
1764434738.9709806,-580.14,-9351.18,-37898.415,-25655.94,-21531.33,-21101.085,-11906.505,-6920.28
1764434738.9709806,-583.92,-9353.07,-37892.88,-25660.44,-21533.175,-21117.69,-11892.465,-6908.264999999999
1764434738.9709806,-589.8149999999999,-9357.39,-37894.095,-25666.785,-21538.98,-21131.145,-11887.875,-6906.105
1764434738.9715242,-591.435,-9358.065,-37897.92,-25669.71,-21541.365,-21131.28,-11892.375,-6910.29
1764434738.9715242,-586.17,-9353.25,-37898.955,-25665.48,-21537.72,-21117.195,-11900.25,-6916.005
1764434738.9715242,-578.025,-9345.87,-37898.46,-25657.695,-21531.06,-21097.44,-11908.08,-6921.405
1764434738.9715242,-575.865,-9345.195,-37905.03,-25654.545,-21529.935,-21082.005,-11923.065,-6935.67
1764434738.972551,-569.745,-9339.345,-37902.06,-25645.995,-21523.455,-21067.515,-11926.305,-6937.469999999999
1764434738.973078,-567.09,-9336.87,-37896.75,-25642.215,-21519.72,-21066.48,-11920.14,-6930.945
1764434738.973078,-571.68,-9340.65,-37894.68,-25646.175,-21522.87,-21080.115,-11911.32,-6924.33
1764434738.973078,-578.8349999999999,-9346.995,-37895.31,-25654.05,-21529.35,-21098.7,-11903.31,-6918.929999999999
1764434738.9758296,-581.355,-9348.795,-37889.91,-25657.155,-21530.655,-21115.08,-11889.405,-6906.014999999999
1764434738.9758296,-586.98,-9353.115,-37891.215,-25663.95,-21536.055,-21128.67,-11885.49,-6903.764999999999
1764434738.9758296,-589.905,-9355.14,-37896.03,-25667.145,-21539.115,-21128.445,-11890.98,-6909.974999999999
1764434738.9758296,-583.74,-9350.1,-37896.39,-25660.755,-21534.03,-21113.595,-11897.145,-6915.014999999999
1764434738.9758296,-575.415,-9342.045,-37895.58,-25651.845,-21526.83,-21094.605,-11904.66,-6919.965
1764434738.9758296,-574.6949999999999,-9342.81,-37903.545,-25650.63,-21528.27,-21080.385,-11920.905,-6934.679999999999
1764434738.9758296,-568.845,-9338.355,-37902.195,-25643.52,-21522.78,-21067.02,-11924.64,-6936.12
1764434738.9758296,-565.6949999999999,-9335.43,-37896.93,-25640.145,-21519.0,-21066.57,-11918.88,-6929.009999999999
1764434738.9758296,-570.555,-9339.84,-37894.86,-25643.43,-21521.34,-21079.395,-11910.24,-6922.035
1764434738.9758296,-579.42,-9346.905,-37895.13,-25652.025,-21527.73,-21098.835,-11903.175,-6916.905
1764434738.9763536,-589.635,-9355.455,-37896.615,-25663.05,-21535.11,-21122.91,-11894.58,-6912.315
1764434738.9763536,-592.8299999999999,-9358.47,-37896.57,-25668.09,-21538.755,-21134.43,-11888.73,-6908.04
1764434738.9763536,-590.22,-9355.95,-37896.165,-25666.74,-21537.495,-21129.255,-11890.98,-6909.21
1764434738.9763536,-583.965,-9349.56,-37895.895,-25660.89,-21532.545,-21113.505,-11897.64,-6913.755
1764434739.01639,-578.745,-9345.6,-37898.505,-25655.58,-21528.765,-21097.305,-11907.765,-6922.844999999999
1764434739.0169177,-576.18,-9343.17,-37903.32,-25651.62,-21527.505,-21080.07,-11921.4,-6935.49
1764434739.0169177,-570.105,-9338.715,-37900.215,-25643.925,-21520.53,-21065.4,-11923.965,-6936.795
1764434739.0169177,-568.035,-9336.735,-37895.49,-25640.595,-21517.065,-21065.715,-11917.755,-6929.325
1764434739.0169177,-574.605,-9342.675,-37895.445,-25647.39,-21522.465,-21081.69,-11910.285,-6924.87
1764434739.0169177,-580.23,-9347.715,-37894.275,-25654.275,-21527.595,-21099.15,-11901.555,-6917.895
1764434739.0169177,-584.8199999999999,-9351.225,-37891.26,-25659.765,-21530.61,-21116.745,-11889.855,-6907.545
1764434739.0169177,-592.47,-9357.39,-37894.365,-25668.045,-21538.305,-21131.235,-11887.65,-6907.545
1764434739.0169177,-591.48,-9356.355,-37896.165,-25668.495,-21538.98,-21128.085,-11891.295,-6911.054999999999
1764434739.0169177,-586.215,-9351.405,-37896.795,-25663.05,-21533.625,-21113.415,-11899.125,-6916.59
1764434739.0169177,-577.485,-9343.575,-37895.58,-25654.185,-21526.605,-21093.93,-11906.82,-6921.764999999999
1764434739.0169177,-573.84,-9340.155,-37899.495,-25649.37,-21524.175,-21075.57,-11920.095,-6932.205
1764434739.0169177,-571.5,-9339.795,-37901.79,-25646.895,-21522.735,-21067.335,-11925.765,-6937.605
1764434739.0169177,-573.0749999999999,-9342.765,-37901.025,-25647.615,-21523.23,-21072.015,-11923.47,-6935.715
1764434739.0169177,-576.63,-9346.32,-37898.415,-25650.405,-21524.985,-21085.155,-11914.29,-6927.84
1764434739.0169177,-583.74,-9351.18,-37896.57,-25656.21,-21529.62,-21102.84,-11905.74,-6920.099999999999
1764434739.0169177,-588.42,-9354.24,-37892.745,-25660.89,-21532.185,-21119.4,-11892.915,-6908.895
1764434739.0169177,-595.17,-9360.495,-37895.67,-25668.765,-21538.08,-21133.305,-11890.485,-6908.715
1764434739.0169177,-596.34,-9361.485,-37900.125,-25670.295,-21540.555,-21131.64,-11895.03,-6914.205
1764434739.0169177,-589.23,-9355.455,-37899.585,-25663.365,-21535.83,-21115.62,-11902.005,-6919.065
1764434739.0169177,-580.9499999999999,-9347.67,-37898.19,-25656.165,-21529.53,-21096.63,-11909.97,-6924.014999999999
1764434739.0189235,-577.665,-9345.6,-37903.77,-25652.025,-21527.19,-21080.16,-11923.38,-6936.21
1764434739.0629854,-571.68,-9340.74,-37901.115,-25644.42,-21521.07,-21066.39,-11925.63,-6936.974999999999
1764434739.0629854,-569.8349999999999,-9339.48,-37897.155,-25641.99,-21518.145,-21067.47,-11919.33,-6930.315
1764434739.065646,-576.5849999999999,-9345.465,-37897.74,-25648.65,-21524.175,-21083.49,-11912.94,-6925.815
1764434739.065646,-584.28,-9351.45,-37896.525,-25655.49,-21530.25,-21101.76,-11905.155,-6919.83
1764434739.065646,-589.635,-9356.175,-37893.465,-25661.295,-21534.075,-21120.84,-11893.32,-6909.795
1764434739.065646,-592.0649999999999,-9357.93,-37892.745,-25665.255,-21535.47,-21130.245,-11887.425,-6904.844999999999
1764434739.065646,-593.415,-9358.515,-37896.795,-25668.18,-21537.765,-21128.31,-11892.78,-6911.054999999999
1764434739.065646,-588.3299999999999,-9353.655,-37897.92,-25663.455,-21534.12,-21114.0,-11900.745,-6916.995
1764434739.065646,-578.43,-9344.565,-37895.94,-25653.24,-21526.29,-21093.48,-11906.82,-6920.73
1764434739.065646,-576.27,-9344.205,-37902.195,-25651.035,-21526.065,-21078.18,-11922.255,-6934.094999999999
1764434739.065646,-571.185,-9340.245,-37900.26,-25645.095,-21521.025,-21066.255,-11925.63,-6936.255
1764434739.065646,-576.54,-9345.69,-37901.655,-25648.29,-21524.58,-21073.32,-11924.19,-6936.795
1764434739.065646,-580.77,-9349.02,-37899.72,-25651.125,-21527.145,-21087.27,-11915.325,-6929.775
1764434739.065646,-587.2049999999999,-9354.78,-37898.415,-25658.1,-21531.87,-21104.28,-11906.415,-6922.665
1764434739.065646,-593.9549999999999,-9360.315,-37897.155,-25665.48,-21536.505,-21124.755,-11895.66,-6913.755
1764434739.065646,-598.365,-9364.185,-37897.74,-25670.88,-21540.915,-21136.23,-11892.645,-6911.73
1764434739.065646,-596.115,-9361.89,-37898.91,-25670.385,-21540.555,-21131.415,-11895.84,-6914.205
1764434739.065646,-588.6899999999999,-9354.645,-37898.37,-25663.77,-21534.57,-21114.09,-11901.87,-6917.985
1764434739.065646,-583.965,-9350.595,-37901.295,-25658.64,-21531.825,-21097.8,-11912.085,-6926.67
1764434739.0666456,-580.14,-9347.715,-37906.29,-25654.905,-21529.98,-21081.465,-11926.44,-6939.315
1764434739.0666456,-572.67,-9341.91,-37902.6,-25646.445,-21523.095,-21067.02,-11927.745,-6938.594999999999
1764434739.0666456,-575.73,-9345.465,-37903.14,-25648.515,-21524.985,-21073.32,-11924.505,-6936.929999999999
1764434739.1101584,-578.5649999999999,-9347.715,-37899.765,-25650.99,-21526.29,-21085.515,-11914.335,-6928.29
1764434739.1107008,-580.9499999999999,-9349.245,-37894.455,-25653.195,-21526.56,-21099.015,-11902.05,-6917.085
1764434739.1107008,-587.88,-9354.825,-37892.655,-25660.17,-21531.24,-21118.68,-11890.665,-6908.58
1764434739.1107008,-596.295,-9361.89,-37897.92,-25669.44,-21539.43,-21133.62,-11891.25,-6910.514999999999
1764434739.1107008,-592.155,-9357.705,-37897.065,-25666.785,-21536.235,-21127.005,-11892.87,-6912.27
1764434739.1107008,-589.41,-9355.68,-37900.755,-25664.175,-21534.93,-21114.72,-11902.05,-6920.594999999999
1764434739.1107008,-581.9399999999999,-9348.165,-37900.35,-25656.57,-21528.855,-21095.325,-11910.465,-6925.41
1764434739.1107008,-578.385,-9346.365,-37904.49,-25652.88,-21526.92,-21078.405,-11924.73,-6937.83
1764434739.1107008,-571.5,-9340.695,-37900.71,-25644.69,-21519.27,-21064.905,-11925.63,-6936.929999999999
1764434739.1107008,-573.5699999999999,-9342.765,-37899.315,-25644.825,-21519.9,-21069.99,-11921.04,-6932.969999999999
1764434739.1107008,-578.475,-9346.815,-37897.47,-25649.325,-21523.32,-21084.345,-11912.445,-6926.67
1764434739.1107008,-584.415,-9351.9,-37895.58,-25654.59,-21527.73,-21101.13,-11902.5,-6919.065
1764434739.1107008,-591.525,-9357.705,-37893.78,-25661.79,-21533.985,-21121.695,-11892.15,-6911.46
1764434739.1107008,-597.555,-9362.655,-37896.615,-25668.54,-21540.285,-21133.89,-11890.755,-6911.505
1764434739.1107008,-592.92,-9358.155,-37895.895,-25665.075,-21537.45,-21126.195,-11892.915,-6912.09
1764434739.1107008,-589.77,-9354.825,-37899.0,-25662.87,-21536.01,-21113.46,-11902.23,-6920.415
1764434739.1107008,-581.49,-9347.13,-37898.01,-25654.905,-21530.07,-21093.885,-11909.34,-6924.78
1764434739.1107008,-577.53,-9343.89,-37901.88,-25649.505,-21527.46,-21076.245,-11922.12,-6935.985
1764434739.1112416,-570.8249999999999,-9338.49,-37898.37,-25641.72,-21520.26,-21062.52,-11922.93,-6935.67
1764434739.1112416,-574.3349999999999,-9343.755,-37899.225,-25644.555,-21522.51,-21070.395,-11920.77,-6934.59
1764434739.1112416,-575.8199999999999,-9344.565,-37894.905,-25646.445,-21522.87,-21082.005,-11910.33,-6924.915
1764434739.1112416,-582.525,-9350.055,-37894.455,-25653.78,-21528.495,-21100.77,-11901.105,-6918.03
1764434739.1112416,-591.615,-9357.345,-37894.77,-25662.555,-21535.515,-21122.595,-11891.34,-6911.639999999999
1764434739.1112416,-592.74,-9357.84,-37893.15,-25665.255,-21536.73,-21129.93,-11886.57,-6906.24
1764434739.1605155,-590.265,-9355.365,-37894.77,-25664.13,-21535.875,-21124.62,-11890.08,-6909.389999999999
1764434739.1605155,-585.72,-9350.595,-37895.58,-25659.135,-21532.14,-21109.905,-11898.135,-6916.185
1764434739.1605155,-581.715,-9347.94,-37898.28,-25654.32,-21528.54,-21093.165,-11909.115,-6925.094999999999
1764434739.1605155,-579.78,-9347.715,-37905.21,-25652.205,-21527.595,-21077.595,-11924.145,-6939.0
1764434739.1605155,-573.885,-9342.27,-37901.97,-25644.33,-21521.565,-21065.49,-11925.945,-6938.955
1764434739.1605155,-573.0749999999999,-9341.55,-37897.785,-25641.99,-21519.09,-21067.65,-11919.96,-6932.655
1764434739.1605155,-579.915,-9347.94,-37897.92,-25649.28,-21524.265,-21084.12,-11912.985,-6927.795
1764434739.1605155,-587.34,-9354.465,-37897.92,-25656.03,-21530.115,-21103.695,-11904.57,-6921.855
1764434739.1605155,-593.64,-9359.505,-37895.895,-25662.42,-21535.38,-21123.675,-11893.41,-6912.36
1764434739.1605155,-596.295,-9361.665,-37896.255,-25666.74,-21538.17,-21132.045,-11889.72,-6909.57
1764434739.1605155,-590.985,-9355.725,-37894.365,-25662.87,-21532.95,-21123.09,-11890.35,-6909.12
1764434739.1605155,-587.79,-9352.395,-37897.605,-25659.765,-21531.195,-21110.265,-11900.385,-6917.264999999999
1764434739.1615174,-583.965,-9349.56,-37901.34,-25656.48,-21529.575,-21094.875,-11912.4,-6927.615
1764434739.1615174,-580.8149999999999,-9347.94,-37907.415,-25653.465,-21527.955,-21078.27,-11926.485,-6940.304999999999
1764434739.1615174,-576.72,-9344.115,-37905.435,-25647.93,-21523.365,-21067.965,-11928.375,-6941.61
1764434739.1615174,-577.755,-9345.645,-37903.41,-25647.93,-21523.275,-21072.69,-11923.425,-6937.38
1764434739.1615174,-579.87,-9346.995,-37898.865,-25648.83,-21523.68,-21084.435,-11912.535,-6927.344999999999
1764434739.1615174,-588.15,-9353.88,-37898.91,-25656.795,-21530.07,-21103.605,-11905.605,-6921.764999999999
1764434739.1615174,-598.3199999999999,-9362.88,-37899.945,-25666.92,-21537.9,-21126.96,-11897.505,-6916.59
