Timestamp,Channel1,Channel2,Channel3,Channel4,Channel5,Channel6,Channel7,Channel8
1764433722.8667588,-2084.175,-14527.26,-43274.25,-31501.53,-29306.025,-23949.09,-12184.155,-11484.27
1764433722.8667588,-2082.6,-14529.33,-43277.895,-31502.16,-29307.42,-23943.735,-12189.105,-11489.31
1764433722.8667588,-2080.71,-14531.31,-43281.495,-31501.53,-29307.69,-23936.49,-12193.2,-11494.26
1764433722.8667588,-2078.055,-14530.32,-43281.675,-31498.92,-29304.855,-23929.155,-12195.9,-11496.42
1764433722.8667588,-2077.83,-14530.59,-43280.775,-31498.335,-29303.82,-23928.39,-12195.09,-11495.34
1764433722.8667588,-2080.17,-14531.67,-43279.38,-31499.415,-29304.765,-23933.835,-12193.065,-11493.0
1764433722.8667588,-2082.825,-14530.68,-43277.13,-31499.64,-29305.08,-23938.605,-12188.88,-11489.76
1764433722.8667588,-2085.12,-14529.375,-43273.17,-31499.28,-29304.495,-23944.455,-12183.66,-11484.09
1764433722.8667588,-2087.775,-14529.285,-43272.315,-31501.575,-29305.485,-23949.945,-12180.78,-11482.02
1764433722.8667588,-2087.325,-14528.88,-43272.99,-31501.935,-29304.54,-23949.495,-12181.23,-11481.75
1764433722.8667588,-2085.12,-14529.375,-43275.06,-31500.72,-29303.19,-23943.915,-12183.03,-11484.36
1764433722.8667588,-2083.185,-14530.23,-43277.625,-31498.965,-29301.57,-23936.49,-12185.55,-11488.005
1764433722.8667588,-2081.88,-14532.345,-43280.775,-31498.29,-29299.86,-23927.445,-12190.095,-11493.18
1764433722.8667588,-2083.14,-14536.665,-43285.455,-31499.235,-29300.58,-23923.125,-12195.63,-11499.48
1764433722.8667588,-2080.755,-14533.83,-43282.08,-31495.68,-29296.53,-23919.705,-12193.695,-11495.88
1764433722.8667588,-2082.645,-14533.155,-43279.965,-31496.985,-29297.565,-23925.06,-12190.68,-11493.045
1764433722.8677547,-2086.965,-14534.505,-43279.695,-31500.18,-29300.895,-23933.745,-12188.115,-11490.975
1764433722.8677547,-2092.23,-14535.99,-43279.65,-31504.77,-29304.765,-23944.995,-12185.19,-11488.905
1764433722.8677547,-2094.48,-14535.63,-43278.795,-31506.255,-29306.97,-23952.15,-12183.345,-11486.34
1764433722.8677547,-2092.995,-14533.38,-43276.77,-31504.545,-29306.025,-23951.115,-12181.815,-11485.17
1764433722.8677547,-2087.37,-14530.365,-43274.205,-31500.315,-29301.795,-23941.575,-12181.545,-11483.865
1764433722.8677547,-2085.705,-14531.67,-43277.265,-31500.18,-29301.93,-23935.95,-12185.82,-11488.905
1764433722.8677547,-2084.58,-14533.785,-43281.675,-31500.315,-29302.38,-23929.11,-12191.67,-11495.07
1764433722.8677547,-2079.54,-14531.94,-43279.02,-31495.905,-29298.285,-23920.245,-12191.805,-11494.215
1764433722.9112349,-2077.515,-14530.185,-43275.78,-31493.385,-29295.495,-23918.445,-12189.87,-11490.705
1764433722.9112349,-2081.79,-14532.21,-43276.68,-31497.57,-29298.96,-23925.87,-12188.79,-11491.155
1764433722.9112349,-2083.95,-14532.66,-43275.78,-31499.415,-29301.39,-23933.43,-12186.18,-11489.04
1764433722.9112349,-2085.795,-14531.445,-43272.72,-31500.0,-29302.65,-23941.62,-12181.635,-11483.28
1764433722.9112349,-2086.02,-14528.97,-43270.245,-31499.865,-29303.01,-23946.255,-12178.35,-11478.87
1764433722.9112349,-2086.83,-14529.51,-43270.875,-31500.495,-29303.73,-23946.615,-12178.98,-11480.265
1764433722.9112349,-2086.92,-14531.22,-43273.53,-31501.305,-29305.395,-23943.555,-12182.445,-11485.395
1764433722.9112349,-2088.9,-14536.035,-43279.605,-31505.4,-29308.68,-23940.54,-12189.285,-11493.72
1764433722.9112349,-2084.58,-14536.17,-43281.045,-31502.43,-29305.215,-23930.235,-12192.795,-11497.005
1764433722.9112349,-2079.18,-14532.885,-43277.49,-31496.355,-29299.005,-23920.29,-12192.345,-11495.07
1764433722.9112349,-2081.745,-14535.765,-43279.425,-31497.39,-29300.94,-23923.845,-12193.56,-11496.51
1764433722.9112349,-2081.16,-14533.38,-43275.825,-31495.95,-29300.265,-23926.185,-12190.05,-11491.74
1764433722.9112349,-2084.625,-14533.29,-43274.34,-31498.245,-29302.47,-23933.655,-12187.26,-11488.5
1764433722.9112349,-2087.235,-14532.795,-43272.045,-31500.54,-29303.91,-23943.42,-12184.155,-11484.0
1764433722.9112349,-2090.34,-14533.605,-43272.315,-31503.42,-29307.33,-23950.665,-12182.895,-11482.83
1764433722.9112349,-2090.88,-14534.055,-43273.44,-31504.725,-29308.59,-23951.025,-12183.435,-11484.315
1764433722.912245,-2089.935,-14535.495,-43276.365,-31504.995,-29308.23,-23946.615,-12186.135,-11488.185
1764433722.912245,-2091.735,-14539.905,-43283.565,-31507.02,-29310.57,-23943.78,-12192.525,-11496.06
1764433722.912245,-2087.28,-14539.365,-43285.365,-31503.06,-29307.96,-23933.835,-12195.99,-11499.03
1764433722.912245,-2080.71,-14535.9,-43282.62,-31497.975,-29302.245,-23923.62,-12196.305,-11497.59
1764433722.912245,-2080.125,-14535.18,-43281.315,-31496.895,-29301.21,-23923.62,-12195.0,-11496.645
1764433722.912245,-2081.97,-14535.36,-43278.84,-31497.57,-29302.065,-23929.065,-12191.895,-11493.405
1764433722.912245,-2087.595,-14538.33,-43280.28,-31502.655,-29306.88,-23939.775,-12191.58,-11493.045
1764433722.912245,-2089.35,-14536.8,-43276.59,-31503.42,-29308.32,-23947.965,-12186.36,-11487.915
1764433722.9593012,-2092.275,-14536.665,-43276.32,-31505.49,-29310.57,-23954.445,-12184.29,-11486.565
1764433722.9593012,-2091.96,-14536.755,-43276.545,-31505.985,-29310.84,-23954.13,-12185.37,-11487.555
1764433722.9593012,-2087.01,-14534.82,-43275.87,-31502.745,-29306.925,-23946.165,-12185.64,-11487.42
1764433722.9593012,-2087.775,-14537.655,-43281.0,-31503.78,-29308.725,-23941.305,-12190.725,-11493.855
1764433722.9593012,-2081.34,-14534.37,-43280.775,-31498.38,-29303.37,-23928.84,-12192.21,-11495.565
1764433722.9593012,-2080.17,-14535.99,-43283.115,-31497.12,-29302.38,-23923.98,-12194.775,-11499.75
1764433722.9593012,-2079.27,-14535.495,-43281.585,-31496.04,-29301.57,-23923.44,-12193.74,-11497.905
1764433722.9593012,-2078.325,-14532.705,-43276.77,-31494.69,-29299.725,-23926.14,-12189.645,-11492.235
1764433722.9593012,-2084.94,-14536.62,-43279.02,-31500.45,-29305.485,-23937.03,-12189.915,-11492.145
1764433722.9593012,-2088.72,-14536.125,-43276.23,-31502.205,-29307.105,-23947.47,-12185.73,-11487.465
1764433722.9593012,-2091.69,-14536.26,-43275.735,-31505.04,-29309.58,-23953.95,-12183.435,-11485.845
1764433722.9593012,-2088.495,-14533.29,-43274.385,-31503.195,-29306.88,-23950.44,-12181.32,-11483.145
1764433722.9593012,-2083.41,-14529.87,-43272.27,-31499.19,-29302.74,-23941.755,-12181.14,-11482.425
1764433722.9593012,-2084.58,-14533.92,-43277.49,-31501.305,-29304.18,-23938.515,-12187.44,-11489.625
1764433722.9593012,-2081.16,-14534.73,-43279.965,-31499.415,-29302.515,-23929.29,-12190.77,-11494.305
1764433722.9593012,-2078.415,-14534.19,-43281.18,-31497.615,-29300.58,-23922.855,-12193.695,-11495.88
1764433722.9593012,-2078.01,-14532.795,-43279.11,-31495.905,-29298.645,-23922.54,-12192.66,-11493.945
1764433722.9593012,-2076.39,-14529.87,-43274.07,-31493.61,-29295.81,-23923.755,-12187.575,-11487.915
1764433722.9593012,-2083.995,-14534.505,-43276.365,-31499.865,-29302.83,-23935.77,-12187.755,-11489.445
1764433722.9593012,-2088.18,-14535.27,-43275.105,-31502.925,-29306.565,-23947.02,-12184.515,-11486.34
1764433722.9593012,-2089.035,-14533.74,-43272.855,-31503.24,-29307.06,-23951.655,-12181.365,-11482.74
1764433722.9593012,-2084.355,-14528.43,-43269.84,-31499.37,-29303.145,-23946.84,-12177.99,-11479.59
1764433722.9593012,-2081.97,-14528.07,-43271.685,-31497.345,-29302.02,-23940.855,-12179.79,-11482.155
1764433722.9608195,-2081.97,-14530.545,-43275.51,-31497.795,-29303.415,-23935.59,-12185.64,-11487.42
1764433723.0030518,-2081.835,-14533.515,-43280.505,-31498.515,-29303.955,-23929.065,-12191.355,-11494.8
1764433723.0030518,-2075.985,-14530.005,-43278.075,-31492.755,-29297.79,-23918.94,-12190.5,-11493.675
1764433723.0030518,-2075.445,-14530.005,-43276.815,-31492.575,-29297.52,-23919.75,-12190.14,-11492.145
1764433723.0030518,-2079.81,-14533.02,-43278.345,-31496.49,-29300.805,-23927.94,-12189.465,-11492.325
1764433723.0030518,-2083.995,-14534.01,-43277.49,-31499.595,-29303.595,-23937.345,-12187.44,-11490.435
1764433723.0030518,-2088.09,-14534.505,-43275.24,-31502.835,-29306.565,-23947.245,-12184.695,-11487.105
1764433723.0030518,-2090.475,-14535.0,-43274.205,-31504.86,-29308.815,-23954.355,-12182.49,-11485.26
1764433723.0030518,-2088.135,-14533.155,-43273.305,-31503.15,-29306.88,-23951.835,-12181.545,-11483.91
1764433723.0030518,-2083.14,-14529.24,-43272.36,-31498.83,-29302.515,-23942.475,-12181.41,-11482.47
1764433723.0030518,-2080.755,-14530.365,-43274.655,-31497.93,-29302.38,-23935.545,-12184.92,-11487.33
1764433723.0040658,-2077.74,-14532.165,-43277.67,-31496.175,-29301.48,-23927.355,-12189.15,-11492.955
1764433723.0040658,-2079.18,-14534.91,-43281.405,-31497.165,-29302.245,-23923.35,-12193.965,-11497.77
1764433723.0040658,-2081.79,-14537.79,-43283.655,-31499.505,-29304.27,-23926.14,-12196.35,-11499.705
1764433723.0040658,-2081.925,-14536.395,-43280.055,-31499.145,-29304.315,-23930.28,-12192.93,-11495.295
1764433723.0040658,-2087.19,-14539.14,-43280.28,-31503.015,-29308.095,-23940.855,-12191.895,-11494.35
1764433723.0040658,-2088.18,-14536.44,-43275.33,-31502.655,-29307.465,-23947.92,-12186.045,-11487.15
1764433723.0040658,-2087.595,-14533.02,-43271.19,-31502.475,-29306.79,-23950.845,-12181.545,-11482.605
1764433723.0040658,-2087.1,-14533.335,-43271.82,-31503.15,-29306.745,-23950.53,-12181.455,-11482.605
1764433723.0040658,-2084.94,-14533.38,-43273.935,-31502.025,-29306.205,-23944.995,-12183.705,-11485.485
1764433723.0040658,-2086.83,-14538.06,-43280.055,-31504.23,-29308.23,-23941.845,-12189.735,-11493.405
1764433723.0471222,-2083.32,-14537.745,-43282.755,-31501.215,-29305.53,-23932.98,-12193.2,-11497.365
1764433723.0471222,-2079.18,-14535.675,-43281.36,-31497.435,-29301.66,-23925.015,-12193.695,-11497.725
1764433723.0471222,-2078.64,-14534.325,-43278.615,-31496.355,-29300.94,-23924.925,-12192.57,-11495.88
1764433723.047632,-2078.595,-14532.075,-43274.655,-31495.545,-29299.95,-23927.58,-12187.71,-11490.39
1764433723.047632,-2078.28,-14529.915,-43270.065,-31494.78,-29298.87,-23931.63,-12182.49,-11484.27
1764433723.047632,-2081.79,-14530.05,-43268.85,-31496.805,-29301.48,-23942.475,-12179.61,-11480.58
1764433723.047632,-2085.12,-14530.995,-43269.885,-31500.09,-29304.315,-23949.63,-12178.26,-11480.175
1764433723.047632,-2085.165,-14531.265,-43272.18,-31501.935,-29304.855,-23949.63,-12179.43,-11482.335
1764433723.047632,-2083.77,-14532.03,-43275.555,-31502.16,-29304.54,-23945.22,-12182.625,-11485.8
1764433723.047632,-2084.94,-14535.09,-43280.325,-31503.69,-29305.62,-23940.315,-12188.07,-11492.64
1764433723.047632,-2078.415,-14532.93,-43279.83,-31498.605,-29301.255,-23929.155,-12189.915,-11494.62
1764433723.047632,-2076.525,-14533.2,-43280.73,-31496.355,-29299.5,-23923.125,-12192.03,-11496.015
1764433723.047632,-2078.01,-14534.685,-43280.73,-31497.705,-29300.49,-23925.105,-12192.705,-11496.42
1764433723.047632,-2080.89,-14536.53,-43280.145,-31500.27,-29303.055,-23931.405,-12190.815,-11494.935
1764433723.047632,-2080.44,-14533.695,-43274.925,-31498.245,-29300.805,-23935.86,-12185.145,-11487.915
1764433723.047632,-2085.075,-14534.28,-43273.62,-31501.755,-29304.135,-23946.39,-12181.68,-11485.17
1764433723.0481396,-2085.57,-14532.885,-43272.045,-31503.015,-29304.765,-23951.79,-12179.07,-11482.155
1764433723.0481396,-2081.97,-14529.015,-43269.165,-31499.595,-29301.615,-23947.38,-12176.235,-11479.905
1764433723.0481396,-2080.98,-14530.185,-43272.045,-31499.595,-29302.47,-23943.015,-12179.655,-11484.81
1764433723.0481396,-2080.665,-14532.93,-43276.86,-31500.675,-29303.73,-23938.29,-12184.965,-11490.66
1764433723.0481396,-2073.69,-14529.51,-43275.78,-31494.87,-29297.475,-23925.105,-12186.18,-11491.38
1764433723.0481396,-2070.855,-14529.195,-43274.61,-31491.585,-29294.595,-23917.995,-12186.855,-11492.46
1764433723.0481396,-2072.07,-14530.05,-43274.565,-31491.99,-29294.955,-23919.48,-12186.405,-11491.83
1764433723.0481396,-2075.49,-14531.4,-43274.115,-31493.835,-29297.34,-23926.77,-12185.82,-11489.805
1764433723.0972018,-2080.35,-14533.155,-43272.99,-31498.02,-29300.895,-23936.58,-12184.605,-11488.365
1764433723.0972018,-2087.64,-14535.81,-43274.07,-31503.915,-29305.71,-23949.675,-12183.255,-11488.77
1764433723.0972018,-2089.17,-14535.225,-43273.8,-31505.355,-29307.06,-23954.49,-12180.78,-11486.565
1764433723.0972018,-2084.13,-14530.545,-43269.795,-31500.36,-29302.065,-23948.415,-12177.765,-11482.47
1764433723.0972018,-2080.755,-14529.24,-43269.66,-31498.29,-29299.5,-23940.405,-12179.655,-11484.495
1764433723.0972018,-2078.595,-14529.87,-43272.405,-31496.985,-29299.14,-23934.42,-12183.525,-11488.68
1764433723.098197,-2076.255,-14531.67,-43276.23,-31495.455,-29298.42,-23926.095,-12187.62,-11494.305
1764433723.098197,-2072.52,-14530.455,-43274.52,-31490.82,-29293.83,-23918.04,-12187.935,-11493.945
1764433723.098197,-2075.805,-14534.1,-43276.95,-31494.285,-29296.89,-23922.135,-12189.69,-11495.835
1764433723.0987084,-2077.245,-14533.92,-43275.915,-31495.275,-29298.87,-23927.85,-12187.71,-11492.865
1764433723.0987084,-2080.215,-14533.92,-43274.79,-31497.39,-29300.625,-23936.13,-12185.685,-11489.715
1764433723.0987084,-2083.86,-14533.065,-43272.135,-31499.19,-29301.75,-23945.04,-12181.68,-11485.215
1764433723.0987084,-2085.39,-14532.84,-43271.505,-31500.765,-29303.235,-23950.575,-12179.025,-11483.595
1764433723.0987084,-2084.58,-14532.39,-43272.18,-31500.27,-29302.605,-23948.73,-12179.475,-11484.945
1764433723.0987084,-2082.96,-14531.805,-43273.575,-31498.47,-29300.355,-23941.755,-12182.13,-11487.06
1764433723.0987084,-2083.995,-14535.855,-43278.93,-31500.99,-29302.83,-23937.615,-12188.385,-11493.045
1764433723.099718,-2077.29,-14533.245,-43278.57,-31494.555,-29297.43,-23925.285,-12189.6,-11494.26
1764433723.099718,-2075.85,-14534.64,-43279.245,-31493.385,-29295.99,-23920.155,-12191.31,-11496.465
1764433723.099718,-2073.915,-14531.94,-43275.285,-31490.685,-29293.065,-23919.165,-12188.835,-11492.28
1764433723.099718,-2078.28,-14534.415,-43275.915,-31494.15,-29296.575,-23927.04,-12187.845,-11491.2
1764433723.099718,-2078.19,-14531.445,-43271.73,-31492.575,-29294.865,-23931.99,-12182.58,-11484.225
1764433723.099718,-2082.06,-14530.635,-43270.02,-31495.365,-29296.89,-23941.755,-12179.835,-11480.805
1764433723.099718,-2087.01,-14533.92,-43272.27,-31500.045,-29301.525,-23951.43,-12179.925,-11482.38
1764433723.099718,-2085.075,-14531.49,-43270.83,-31497.57,-29300.13,-23948.37,-12177.63,-11481.48
1764433723.1398392,-2079.72,-14528.34,-43268.04,-31492.53,-29295.27,-23938.245,-12176.73,-11480.58
1764433723.1398392,-2076.75,-14529.015,-43270.605,-31491.27,-29293.92,-23931.0,-12179.79,-11485.035
1764433723.1398392,-2074.32,-14529.96,-43273.89,-31490.055,-29292.3,-23921.91,-12182.94,-11490.345
1764433723.1398392,-2075.805,-14533.11,-43276.365,-31490.28,-29293.155,-23919.84,-12186.45,-11494.89
1764433723.1408484,-2076.075,-14533.515,-43275.915,-31490.64,-29292.795,-23920.83,-12187.53,-11493.09
1764433723.1408484,-2074.635,-14529.555,-43271.415,-31488.03,-29290.815,-23923.08,-12183.3,-11486.745
1764433723.1408484,-2078.145,-14531.13,-43270.155,-31491.135,-29294.01,-23932.26,-12181.365,-11484.36
1764433723.1418612,-2083.23,-14532.21,-43269.435,-31494.87,-29297.565,-23942.7,-12178.17,-11482.11
1764433723.1418612,-2082.375,-14529.465,-43266.735,-31493.43,-29296.395,-23944.86,-12174.21,-11477.925
1764433723.142884,-2082.33,-14529.33,-43267.095,-31493.16,-29296.44,-23943.33,-12174.48,-11478.555
1764433723.142884,-2081.745,-14530.365,-43270.065,-31493.655,-29296.89,-23938.92,-12178.17,-11483.145
1764433723.142884,-2083.77,-14535.405,-43277.355,-31496.715,-29300.76,-23935.905,-12185.865,-11492.055
1764433723.1438663,-2079.585,-14535.27,-43279.02,-31494.105,-29297.79,-23926.275,-12189.195,-11495.88
1764433723.1438663,-2074.815,-14533.65,-43278.165,-31490.145,-29293.47,-23918.58,-12188.745,-11495.07
1764433723.1438663,-2071.845,-14529.915,-43272.765,-31486.815,-29290.23,-23916.015,-12185.64,-11490.435
1764433723.1438663,-2074.05,-14530.095,-43270.965,-31488.39,-29292.12,-23921.955,-12183.795,-11487.87
1764433723.1438663,-2079.945,-14532.705,-43271.46,-31492.395,-29296.89,-23933.385,-12182.355,-11486.295
1764433723.1448636,-2080.035,-14529.78,-43266.33,-31491.99,-29295.27,-23940.81,-12176.1,-11480.04
1764433723.1451657,-2085.345,-14531.895,-43268.22,-31496.175,-29299.635,-23948.91,-12176.46,-11481.57
1764433723.1451657,-2082.645,-14530.41,-43267.68,-31494.555,-29298.24,-23945.175,-12175.92,-11480.4
1764433723.1451657,-2079.945,-14530.23,-43270.02,-31493.475,-29296.125,-23938.65,-12178.08,-11482.83
1764433723.1451657,-2078.64,-14531.4,-43273.035,-31493.205,-29295.945,-23931.99,-12182.94,-11487.825
1764433723.1451657,-2076.255,-14533.74,-43276.14,-31493.295,-29295.315,-23923.935,-12187.98,-11493.81
1764433723.1451657,-2076.525,-14536.08,-43279.29,-31494.105,-29295.63,-23920.47,-12190.68,-11497.14
1764433723.1847486,-2073.465,-14533.155,-43275.105,-31489.695,-29291.67,-23918.67,-12187.755,-11492.505
1764433723.1852849,-2074.68,-14532.615,-43272.585,-31489.92,-29292.345,-23924.34,-12184.29,-11488.545
1764433723.1852849,-2081.475,-14536.08,-43274.295,-31495.545,-29297.97,-23935.68,-12184.155,-11488.77
1764433723.1852849,-2083.77,-14534.235,-43270.065,-31496.085,-29298.42,-23942.79,-12179.115,-11483.505
1764433723.1852849,-2083.365,-14532.12,-43266.87,-31494.915,-29296.8,-23945.85,-12175.335,-11479.005
1764433723.1852849,-2086.335,-14534.91,-43270.245,-31497.03,-29299.815,-23947.065,-12177.945,-11482.74
1764433723.1852849,-2082.42,-14532.12,-43270.605,-31494.555,-29296.08,-23938.515,-12179.25,-11483.37
1764433723.1852849,-2080.665,-14533.515,-43274.295,-31493.835,-29295.09,-23932.125,-12183.885,-11488.77
1764433723.1852849,-2077.83,-14534.595,-43276.635,-31491.765,-29293.695,-23922.99,-12188.565,-11493.495
1764433723.1888373,-2076.57,-14535.54,-43276.815,-31490.505,-29293.155,-23918.76,-12191.085,-11496.375
1764433723.1888373,-2079.72,-14538.51,-43279.02,-31493.34,-29295.63,-23923.62,-12192.48,-11498.22
1764433723.1888373,-2080.71,-14536.44,-43275.645,-31492.755,-29294.91,-23928.075,-12189.015,-11493.585
1764433723.1888373,-2081.655,-14533.92,-43271.73,-31492.89,-29294.145,-23933.43,-12184.155,-11487.645
1764433723.1898367,-2089.485,-14537.97,-43274.115,-31499.73,-29301.345,-23947.065,-12184.695,-11488.5
1764433723.1898367,-2092.275,-14538.555,-43274.61,-31502.295,-29303.505,-23952.555,-12184.335,-11486.97
1764433723.1898367,-2085.795,-14532.075,-43269.84,-31496.445,-29296.89,-23944.545,-12178.98,-11481.795
1764433723.1898367,-2084.445,-14533.02,-43271.46,-31495.59,-29296.17,-23938.74,-12181.68,-11485.35
1764433723.1898367,-2086.2,-14537.205,-43276.365,-31497.39,-29298.645,-23935.41,-12188.565,-11492.865
1764433723.1898367,-2080.485,-14535.855,-43277.13,-31493.115,-29295.045,-23924.97,-12190.95,-11495.205
1764433723.1898367,-2080.8,-14538.645,-43279.965,-31493.79,-29295.135,-23922.405,-12193.335,-11499.12
1764433723.2336726,-2079.495,-14536.98,-43276.365,-31492.17,-29292.57,-23922.405,-12191.67,-11495.88
1764433723.2336726,-2077.065,-14533.155,-43271.145,-31489.92,-29290.41,-23924.43,-12186.585,-11488.275
1764433723.2336726,-2079.855,-14533.065,-43270.2,-31491.99,-29293.2,-23933.07,-12183.165,-11485.17
1764433723.2336726,-2085.21,-14535.54,-43269.165,-31496.175,-29297.025,-23945.085,-12180.555,-11483.64
1764433723.2336726,-2084.13,-14532.03,-43265.43,-31494.645,-29295.855,-23946.57,-12176.37,-11478.555
1764433723.2336726,-2083.365,-14531.67,-43266.825,-31494.69,-29295.225,-23944.635,-12176.73,-11480.22
1764433723.2336726,-2080.53,-14530.995,-43267.995,-31493.16,-29293.335,-23938.335,-12178.395,-11482.74
1764433723.2336726,-2079.495,-14532.975,-43271.46,-31492.665,-29293.065,-23931.945,-12182.94,-11487.375
1764433723.2336726,-2075.985,-14533.2,-43274.43,-31489.965,-29290.905,-23923.665,-12186.585,-11491.65
1764433723.2336726,-2074.77,-14534.19,-43275.645,-31489.155,-29290.365,-23919.255,-12188.43,-11493.81
1764433723.2336726,-2074.59,-14533.245,-43272.63,-31487.715,-29288.16,-23919.075,-12187.17,-11490.48
1764433723.2336726,-2077.29,-14532.66,-43270.785,-31489.38,-29289.105,-23924.52,-12184.965,-11487.555
1764433723.2336726,-2079.855,-14533.02,-43268.895,-31491.81,-29291.67,-23932.845,-12181.995,-11484.54
1764433723.234667,-2085.615,-14536.17,-43269.885,-31497.12,-29297.07,-23945.535,-12180.78,-11483.28
1764433723.234667,-2084.625,-14533.02,-43266.555,-31496.04,-29295.855,-23947.245,-12177.315,-11479.005
1764433723.234667,-2082.825,-14531.535,-43266.915,-31495.32,-29294.46,-23944.68,-12176.37,-11478.735
1764433723.234667,-2081.43,-14533.11,-43269.93,-31495.455,-29294.055,-23939.415,-12179.025,-11482.74
1764433723.234667,-2081.97,-14536.89,-43275.465,-31497.435,-29295.315,-23934.87,-12185.415,-11490.3
1764433723.234667,-2074.77,-14533.29,-43274.205,-31491.63,-29289.6,-23922.045,-12186.63,-11490.93
1764433723.234667,-2071.575,-14532.3,-43273.215,-31488.165,-29286.99,-23915.52,-12186.18,-11491.245
1764433723.234667,-2073.375,-14532.48,-43272.585,-31488.84,-29287.8,-23918.535,-12185.685,-11490.93
1764433723.234667,-2077.875,-14534.865,-43272.855,-31492.44,-29290.995,-23927.175,-12184.515,-11489.985
1764433723.234667,-2078.37,-14532.75,-43268.625,-31491.99,-29290.995,-23933.025,-12180.735,-11484.315
1764433723.234667,-2084.895,-14535.36,-43269.705,-31498.245,-29296.845,-23946.48,-12179.79,-11484.315
1764433723.2368782,-2087.19,-14534.91,-43269.84,-31499.955,-29298.78,-23951.115,-12179.115,-11483.28
1764433723.2368782,-2084.22,-14532.57,-43268.715,-31497.615,-29295.855,-23946.66,-12177.855,-11482.29
1764433723.2814467,-2079.945,-14530.365,-43268.31,-31493.43,-29292.435,-23938.74,-12179.16,-11482.74
1764433723.2814467,-2079.54,-14533.515,-43273.44,-31494.375,-29293.605,-23932.98,-12184.74,-11488.86
1764433723.2814467,-2077.245,-14535.09,-43276.95,-31494.195,-29292.705,-23924.79,-12189.6,-11495.07
1764433723.2814467,-2076.84,-14535.99,-43277.94,-31493.115,-29292.3,-23920.29,-12192.885,-11497.905
1764433723.2814467,-2077.965,-14536.575,-43276.545,-31493.295,-29292.165,-23921.73,-12192.03,-11496.825
1764433723.2814467,-2083.77,-14539.995,-43277.895,-31497.435,-29296.26,-23931.225,-12191.985,-11496.915
1764433723.2814467,-2087.685,-14540.715,-43276.725,-31500.54,-29298.87,-23939.28,-12189.42,-11493.9
1764433723.2814467,-2090.25,-14540.04,-43274.34,-31502.43,-29300.355,-23948.37,-12185.775,-11489.49
1764433723.2814467,-2088.045,-14535.99,-43269.48,-31499.865,-29297.97,-23950.44,-12181.05,-11484.495
1764433723.2814467,-2086.695,-14534.235,-43269.705,-31499.145,-29296.62,-23947.38,-12180.465,-11484.27
1764433723.2814467,-2084.94,-14535.315,-43272.315,-31498.515,-29295.54,-23940.72,-12183.345,-11487.78
1764433723.2814467,-2083.545,-14537.745,-43276.095,-31498.65,-29296.35,-23935.275,-12188.7,-11493.72
1764433723.2814467,-2080.44,-14538.465,-43278.57,-31496.67,-29294.82,-23926.545,-12192.93,-11497.455
1764433723.2814467,-2078.01,-14538.555,-43278.255,-31495.05,-29293.02,-23921.775,-12194.055,-11499.12
1764433723.2814467,-2081.025,-14541.165,-43279.605,-31497.66,-29295.27,-23926.32,-12195.135,-11499.84
1764433723.2814467,-2079.81,-14537.43,-43273.305,-31494.51,-29292.03,-23928.345,-12189.87,-11492.91
1764433723.2814467,-2082.87,-14536.395,-43271.37,-31496.04,-29293.965,-23935.86,-12185.505,-11490.03
1764433723.2814467,-2085.12,-14534.955,-43268.715,-31497.66,-29295.99,-23944.23,-12180.87,-11485.575
1764433723.2814467,-2088.63,-14536.305,-43270.02,-31501.215,-29298.87,-23950.125,-12180.915,-11485.755
1764433723.2814467,-2089.665,-14538.15,-43273.08,-31502.61,-29300.715,-23950.305,-12183.12,-11489.04
1764433723.2814467,-2083.995,-14534.865,-43271.1,-31497.48,-29296.44,-23941.17,-12182.85,-11489.085
1764433723.2814467,-2083.23,-14536.215,-43275.195,-31497.435,-29296.845,-23935.365,-12187.305,-11494.755
1764433723.3263557,-2081.52,-14538.96,-43281.09,-31497.705,-29297.745,-23929.155,-12192.66,-11500.65
1764433723.3268638,-2078.415,-14538.105,-43279.74,-31495.23,-29294.865,-23922.72,-12193.29,-11499.615
1764433723.3268638,-2075.895,-14535.225,-43275.87,-31492.71,-29292.03,-23921.82,-12190.455,-11495.16
1764433723.3268638,-2079.495,-14535.765,-43275.015,-31495.005,-29293.02,-23929.065,-12187.89,-11493.045
1764433723.3268638,-2081.07,-14534.1,-43270.965,-31495.68,-29293.245,-23934.825,-12184.02,-11487.42
1764433723.327875,-2086.965,-14536.26,-43270.605,-31499.28,-29298.105,-23946.57,-12182.265,-11486.025
1764433723.327875,-2085.93,-14533.605,-43268.445,-31498.47,-29297.655,-23949.495,-12179.07,-11483.145
1764433723.327875,-2088.0,-14536.53,-43272.09,-31501.35,-29300.58,-23950.125,-12182.13,-11488.095
1764433723.327875,-2082.96,-14534.64,-43270.92,-31497.615,-29295.99,-23940.765,-12182.85,-11487.87
1764433723.327875,-2083.365,-14538.015,-43275.645,-31499.37,-29296.98,-23935.68,-12188.655,-11494.08
1764433723.327875,-2078.19,-14536.62,-43275.555,-31495.095,-29293.02,-23924.565,-12191.715,-11495.205
1764433723.3288743,-2078.1,-14538.195,-43277.49,-31494.96,-29293.29,-23921.37,-12194.46,-11498.265
1764433723.3288743,-2081.295,-14541.12,-43279.515,-31497.795,-29295.315,-23926.23,-12195.765,-11499.975
1764433723.3288743,-2082.42,-14539.635,-43276.095,-31497.39,-29295.0,-23930.955,-12191.625,-11496.06
1764433723.3288743,-2083.905,-14538.24,-43272.405,-31497.3,-29295.315,-23937.57,-12187.08,-11490.57
1764433723.3288743,-2085.255,-14535.18,-43267.545,-31496.85,-29294.91,-23944.995,-12181.815,-11483.865
1764433723.3288743,-2087.46,-14536.35,-43268.355,-31499.64,-29297.655,-23950.44,-12181.32,-11484.09
1764433723.3288743,-2086.38,-14537.16,-43270.2,-31499.64,-29298.15,-23948.91,-12181.68,-11485.755
1764433723.329872,-2081.88,-14534.235,-43270.155,-31495.815,-29294.055,-23940.09,-12182.13,-11485.89
1764433723.329872,-2082.645,-14537.61,-43275.42,-31497.165,-29295.54,-23935.185,-12188.07,-11493.09
1764433723.329872,-2075.76,-14534.775,-43274.07,-31491.18,-29289.645,-23922.09,-12189.42,-11493.405
1764433723.329872,-2074.59,-14535.855,-43274.07,-31489.515,-29288.97,-23917.815,-12191.355,-11494.71
1764433723.329872,-2078.64,-14539.86,-43276.455,-31493.115,-29293.02,-23924.07,-12193.065,-11496.645
1764433723.329872,-2078.19,-14536.305,-43272.27,-31492.08,-29290.95,-23927.355,-12187.98,-11490.12
1764433723.3739147,-2082.915,-14537.97,-43272.27,-31496.175,-29294.145,-23936.94,-12186.045,-11488.77
1764433723.3739147,-2083.68,-14534.865,-43267.14,-31496.445,-29294.055,-23943.33,-12180.96,-11482.92
1764433723.3739147,-2084.94,-14536.035,-43268.175,-31498.965,-29296.53,-23948.505,-12180.42,-11481.84
1764433723.3739147,-2084.085,-14535.81,-43269.66,-31497.795,-29295.54,-23945.49,-12180.465,-11483.055
1764433723.3739147,-2082.69,-14536.395,-43272.495,-31496.535,-29294.955,-23939.73,-12183.165,-11486.52
1764433723.3739147,-2083.41,-14540.895,-43277.535,-31498.245,-29297.205,-23936.355,-12189.78,-11493.405
1764433723.3739147,-2077.83,-14539.32,-43277.4,-31493.79,-29292.03,-23924.52,-12192.615,-11495.43
1764433723.3739147,-2076.93,-14540.31,-43279.02,-31493.295,-29291.67,-23920.515,-12193.83,-11497.68
1764433723.3739147,-2074.095,-14535.99,-43274.25,-31490.145,-29289.06,-23919.525,-12190.725,-11492.325
1764433723.3739147,-2075.625,-14535.495,-43271.46,-31491.315,-29290.095,-23925.24,-12188.07,-11488.95
1764433723.3739147,-2080.35,-14537.25,-43270.83,-31494.825,-29293.29,-23935.455,-12185.145,-11487.465
1764433723.3739147,-2081.115,-14534.28,-43265.565,-31493.655,-29292.705,-23942.835,-12178.17,-11481.03
1764433723.3739147,-2086.29,-14537.385,-43269.3,-31499.37,-29297.835,-23950.395,-12179.34,-11483.19
1764433723.3739147,-2081.97,-14533.29,-43267.23,-31495.455,-29294.55,-23944.095,-12178.305,-11481.48
1764433723.3739147,-2079.27,-14533.11,-43268.445,-31493.205,-29291.76,-23936.67,-12180.915,-11484.765
1764433723.3739147,-2077.38,-14534.73,-43271.955,-31492.665,-29290.995,-23929.425,-12184.74,-11489.31
1764433723.3739147,-2075.94,-14537.43,-43276.455,-31492.845,-29290.995,-23922.855,-12190.95,-11495.385
1764433723.3739147,-2073.105,-14535.855,-43275.33,-31489.245,-29287.62,-23917.5,-12190.725,-11494.44
1764433723.3739147,-2076.705,-14538.465,-43275.69,-31492.305,-29290.905,-23922.45,-12192.255,-11495.835
1764433723.3749266,-2077.83,-14536.755,-43272.63,-31492.485,-29290.59,-23927.355,-12188.655,-11491.47
1764433723.3749266,-2083.185,-14539.68,-43273.17,-31496.265,-29294.55,-23938.425,-12187.305,-11490.255
1764433723.3749266,-2083.815,-14537.43,-43268.355,-31495.905,-29294.145,-23945.535,-12182.13,-11484.09
1764433723.418139,-2089.89,-14541.345,-43271.415,-31501.26,-29299.41,-23953.14,-12184.47,-11487.015
1764433723.418139,-2087.82,-14539.77,-43270.29,-31499.19,-29297.52,-23948.235,-12184.695,-11487.555
1764433723.418139,-2085.165,-14540.265,-43273.71,-31498.245,-29297.025,-23941.665,-12186.855,-11491.065
1764433723.418139,-2085.345,-14543.82,-43279.515,-31499.91,-29299.185,-23938.02,-12192.525,-11497.725
1764433723.418139,-2080.62,-14543.595,-43280.055,-31496.805,-29296.17,-23928.03,-12195.63,-11499.615
1764433723.418139,-2078.595,-14542.65,-43279.605,-31495.005,-29293.695,-23923.35,-12196.215,-11499.345
1764433723.418139,-2079.99,-14542.47,-43278.57,-31495.365,-29293.74,-23925.915,-12195.27,-11498.265
1764433723.418139,-2082.465,-14541.03,-43276.14,-31495.545,-29294.055,-23931.855,-12192.3,-11494.755
1764433723.418139,-2084.625,-14540.94,-43274.025,-31497.075,-29295.81,-23939.415,-12188.61,-11490.705
1764433723.418139,-2086.92,-14539.68,-43271.145,-31499.1,-29297.34,-23947.425,-12183.39,-11485.89
1764433723.418139,-2088.315,-14539.77,-43271.28,-31500.81,-29298.87,-23950.845,-12181.905,-11484.63
1764433723.418139,-2082.465,-14535.45,-43267.095,-31495.545,-29294.055,-23943.42,-12178.71,-11481.03
1764433723.418139,-2079.18,-14534.685,-43268.49,-31493.7,-29292.21,-23937.39,-12180.6,-11483.91
1764433723.419147,-2077.785,-14536.35,-43272.0,-31493.07,-29291.49,-23930.55,-12185.415,-11488.77
1764433723.419147,-2076.39,-14538.465,-43275.6,-31492.395,-29290.68,-23922.495,-12190.05,-11494.08
1764433723.419147,-2074.455,-14539.32,-43275.96,-31490.505,-29288.385,-23918.22,-12191.085,-11494.935
1764433723.419147,-2075.67,-14539.815,-43274.655,-31491.0,-29289.24,-23921.775,-12190.545,-11493.675
1764433723.419147,-2080.755,-14541.57,-43275.015,-31495.59,-29293.74,-23930.64,-12189.105,-11493.63
1764433723.419147,-2083.005,-14541.03,-43271.955,-31497.3,-29295.63,-23938.47,-12185.415,-11489.265
1764433723.419147,-2083.455,-14538.06,-43267.68,-31496.67,-29295.18,-23945.265,-12179.655,-11483.46
1764433723.419147,-2087.73,-14539.815,-43270.38,-31500.855,-29299.59,-23952.285,-12180.33,-11484.99
1764433723.419147,-2083.095,-14536.215,-43267.815,-31496.31,-29295.315,-23945.31,-12178.845,-11482.785
1764433723.419147,-2080.89,-14536.575,-43269.255,-31495.545,-29293.74,-23939.46,-12180.735,-11486.385
1764433723.419147,-2081.835,-14541.93,-43275.465,-31498.02,-29296.17,-23935.815,-12187.755,-11494.395
1764433723.4688332,-2078.955,-14543.325,-43278.39,-31496.175,-29294.28,-23926.995,-12192.57,-11498.715
1764433723.4688332,-2077.065,-14542.92,-43277.715,-31493.025,-29291.49,-23922.63,-12193.245,-11499.03
1764433723.4688332,-2077.245,-14541.255,-43275.105,-31491.405,-29290.59,-23924.205,-12191.355,-11495.88
1764433723.4688332,-2076.12,-14536.215,-43269.615,-31489.56,-29287.665,-23926.545,-12185.19,-11488.23
1764433723.4688332,-2080.935,-14536.665,-43268.715,-31492.62,-29290.32,-23935.455,-12183.255,-11486.205
1764433723.4688332,-2084.805,-14537.565,-43267.41,-31496.13,-29293.56,-23945.85,-12180.375,-11483.505
1764433723.4688332,-2091.105,-14542.515,-43272.405,-31501.665,-29300.04,-23953.995,-12183.39,-11487.51
1764433723.4688332,-2088.945,-14541.3,-43272.99,-31500.09,-29297.97,-23949.855,-12183.93,-11488.23
1764433723.4688332,-2080.53,-14536.035,-43268.13,-31492.71,-29290.905,-23938.605,-12181.455,-11485.125
1764433723.4688332,-2078.865,-14537.16,-43271.55,-31492.08,-29290.545,-23931.405,-12185.73,-11490.57
1764433723.4688332,-2078.235,-14540.085,-43276.23,-31492.98,-29290.545,-23924.25,-12191.22,-11497.365
1764433723.4688332,-2073.24,-14536.305,-43270.92,-31487.22,-29284.56,-23916.465,-12189.285,-11494.665
1764433723.4688332,-2076.12,-14538.375,-43271.73,-31488.885,-29286.225,-23920.92,-12189.015,-11495.295
1764433723.4688332,-2078.145,-14537.565,-43269.345,-31489.695,-29286.36,-23926.185,-12185.505,-11491.335
1764433723.4688332,-2081.295,-14536.665,-43266.78,-31491.09,-29287.8,-23933.115,-12181.86,-11487.33
1764433723.4688332,-2082.735,-14536.035,-43262.19,-31490.955,-29288.34,-23939.91,-12177.045,-11480.85
1764433723.4688332,-2082.15,-14534.145,-43259.175,-31489.74,-29286.99,-23940.315,-12174.48,-11477.43
1764433723.4688332,-2082.24,-14534.91,-43260.615,-31489.11,-29286.18,-23937.03,-12175.74,-11480.265
1764433723.4688332,-2083.005,-14538.645,-43266.33,-31491.54,-29288.025,-23933.835,-12181.23,-11486.7
1764433723.4688332,-2084.31,-14543.19,-43273.485,-31494.555,-29290.995,-23930.28,-12188.25,-11495.115
1764433723.4688332,-2079.225,-14541.165,-43273.35,-31490.505,-29287.755,-23919.66,-12190.725,-11497.23
1764433723.4688332,-2079.09,-14541.93,-43274.565,-31490.82,-29288.88,-23919.12,-12193.47,-11500.02
1764433723.4688332,-2076.075,-14538.69,-43270.695,-31488.39,-29287.035,-23919.705,-12190.41,-11494.44
1764433723.4688332,-2078.775,-14539.86,-43270.245,-31491.63,-29290.95,-23928.39,-12189.105,-11491.92
1764433723.5136447,-2081.655,-14539.365,-43267.905,-31493.655,-29294.055,-23937.57,-12185.91,-11488.41
1764433723.51466,-2085.03,-14538.78,-43265.61,-31496.04,-29295.945,-23947.02,-12182.49,-11484.72
1764433723.51466,-2087.415,-14539.41,-43266.825,-31498.38,-29298.42,-23952.105,-12182.445,-11485.17
1764433723.51466,-2086.92,-14539.725,-43268.58,-31498.785,-29298.87,-23950.26,-12184.02,-11487.195
1764433723.51466,-2084.49,-14539.77,-43270.605,-31498.29,-29297.88,-23944.68,-12186.81,-11491.515
1764433723.51466,-2085.345,-14544.63,-43277.355,-31501.395,-29300.805,-23941.8,-12193.965,-11499.705
1764433723.51466,-2081.61,-14544.135,-43278.975,-31499.235,-29299.005,-23933.34,-12197.79,-11502.72
1764433723.51466,-2077.605,-14542.2,-43276.545,-31496.22,-29295.765,-23928.525,-12196.98,-11500.74
1764433723.51466,-2075.04,-14538.915,-43271.775,-31493.115,-29293.155,-23928.48,-12193.515,-11494.17
1764433723.51466,-2078.55,-14539.725,-43270.155,-31494.42,-29295.63,-23935.59,-12191.4,-11491.74
1764433723.51466,-2081.205,-14539.32,-43268.13,-31496.13,-29297.07,-23943.375,-12187.71,-11488.59
1764433723.515661,-2084.895,-14539.005,-43267.14,-31498.515,-29298.285,-23950.845,-12183.885,-11484.72
1764433723.515661,-2086.92,-14538.69,-43266.645,-31499.415,-29298.645,-23952.465,-12181.995,-11483.91
1764433723.515661,-2084.085,-14537.205,-43265.79,-31496.67,-29294.91,-23946.03,-12180.555,-11484.585
1764433723.515661,-2082.105,-14537.655,-43268.355,-31494.87,-29292.93,-23938.74,-12183.75,-11488.005
1764433723.515661,-2085.3,-14544.18,-43276.365,-31499.055,-29296.395,-23936.355,-12191.94,-11497.815
1764433723.516659,-2081.205,-14543.775,-43277.94,-31496.13,-29293.92,-23926.86,-12194.145,-11501.055
1764433723.516659,-2077.515,-14542.56,-43276.095,-31492.575,-29290.5,-23921.415,-12192.615,-11499.3
1764433723.516659,-2077.245,-14540.265,-43272.63,-31490.685,-29288.295,-23921.775,-12189.96,-11494.755
1764433723.516659,-2076.57,-14537.385,-43266.51,-31488.48,-29286.09,-23923.62,-12183.93,-11487.6
1764433723.516659,-2081.205,-14538.645,-43266.645,-31491.99,-29289.33,-23933.565,-12181.68,-11485.89
1764433723.5176578,-2080.53,-14534.1,-43261.155,-31490.055,-29285.73,-23937.975,-12175.29,-11478.24
1764433723.558564,-2082.24,-14534.73,-43261.47,-31492.17,-29287.845,-23941.665,-12173.94,-11478.06
1764433723.558564,-2080.485,-14533.965,-43262.19,-31491.36,-29287.485,-23938.02,-12174.12,-11479.545
1764433723.558564,-2078.415,-14534.865,-43264.395,-31490.55,-29286.27,-23931.54,-12176.865,-11483.19
1764433723.558564,-2078.19,-14538.69,-43269.705,-31491.99,-29288.07,-23927.175,-12182.58,-11490.435
1764433723.558564,-2072.7,-14537.43,-43270.245,-31488.165,-29283.84,-23916.915,-12184.74,-11492.01
1764433723.558564,-2073.96,-14539.86,-43272.63,-31489.425,-29284.695,-23916.42,-12188.25,-11495.115
1764433723.558564,-2072.43,-14536.26,-43268.13,-31487.22,-29281.905,-23916.06,-12184.56,-11490.165
1764433723.558564,-2076.57,-14538.195,-43268.265,-31489.38,-29285.595,-23925.465,-12182.805,-11488.905
1764433723.558564,-2079.405,-14538.24,-43266.195,-31491.63,-29288.295,-23934.69,-12179.79,-11485.35
1764433723.558564,-2082.42,-14538.06,-43263.9,-31494.015,-29290.77,-23944.095,-12177.135,-11481.615
1764433723.558564,-2082.465,-14536.215,-43262.955,-31494.465,-29290.905,-23946.39,-12176.19,-11479.95
1764433723.558564,-2084.76,-14538.69,-43267.095,-31497.3,-29293.92,-23946.255,-12179.655,-11484.675
1764433723.5595794,-2082.24,-14539.095,-43268.67,-31495.545,-29292.57,-23940.09,-12183.39,-11488.005
1764433723.5595794,-2084.355,-14544.945,-43275.915,-31499.055,-29295.405,-23935.995,-12191.49,-11497.365
1764433723.5595794,-2079.99,-14544.495,-43277.535,-31496.265,-29292.48,-23926.275,-12194.775,-11500.695
1764433723.5595794,-2077.74,-14543.64,-43276.68,-31493.43,-29290.455,-23922.315,-12194.64,-11499.66
1764433723.5595794,-2077.92,-14542.56,-43273.755,-31492.305,-29288.43,-23923.305,-12192.57,-11495.88
1764433723.5595794,-2075.895,-14538.33,-43266.285,-31489.11,-29285.415,-23925.735,-12186.675,-11488.005
1764433723.5605764,-2079.495,-14538.015,-43264.845,-31491.72,-29287.89,-23935.005,-12183.21,-11484.315
1764433723.5605764,-2086.02,-14540.58,-43267.905,-31497.93,-29293.74,-23947.155,-12182.13,-11484.27
1764433723.5605764,-2086.965,-14540.22,-43267.32,-31499.595,-29293.92,-23949.945,-12181.005,-11483.595
1764433723.5605764,-2082.465,-14537.07,-43264.62,-31495.77,-29290.455,-23943.015,-12179.88,-11482.155
1764433723.5605764,-2080.89,-14538.915,-43268.265,-31495.455,-29290.32,-23937.93,-12184.065,-11486.88
1764433723.5605764,-2082.78,-14544.0,-43274.88,-31498.065,-29292.57,-23934.33,-12191.265,-11495.07
1764433723.6071062,-2077.92,-14543.1,-43274.745,-31493.655,-29288.79,-23923.485,-12193.83,-11497.05
1764433723.6071062,-2077.245,-14543.685,-43274.205,-31491.63,-29287.935,-23921.415,-12194.955,-11498.76
1764433723.6071062,-2081.07,-14545.575,-43275.87,-31494.06,-29289.78,-23926.005,-12195.495,-11498.94
1764433723.6071062,-2084.22,-14545.62,-43274.52,-31496.58,-29291.94,-23932.62,-12193.02,-11495.88
1764433723.6071062,-2086.425,-14544.765,-43271.64,-31498.02,-29293.155,-23941.035,-12189.555,-11491.605
1764433723.6071062,-2088.09,-14543.1,-43269.075,-31499.505,-29294.145,-23948.82,-12184.965,-11486.925
1764433723.6071062,-2091.24,-14545.53,-43271.235,-31503.33,-29297.34,-23953.455,-12184.335,-11488.365
1764433723.6071062,-2089.89,-14545.215,-43271.865,-31502.475,-29296.98,-23951.16,-12185.64,-11489.895
1764433723.6071062,-2083.455,-14542.47,-43270.56,-31497.255,-29292.165,-23941.62,-12185.91,-11490.435
1764433723.6071062,-2084.805,-14546.88,-43276.545,-31499.055,-29294.01,-23936.58,-12191.895,-11497.77
1764433723.6071062,-2081.25,-14546.79,-43277.67,-31497.705,-29292.615,-23927.895,-12195.18,-11501.055
1764433723.607782,-2076.255,-14544.495,-43274.34,-31493.925,-29289.24,-23922.585,-12194.505,-11498.49
1764433723.607782,-2079.81,-14546.655,-43275.195,-31496.355,-29292.255,-23927.4,-12194.955,-11498.355
1764433723.607782,-2081.16,-14544.99,-43272.18,-31495.545,-29292.3,-23931.99,-12191.58,-11493.54
1764433723.607782,-2087.145,-14547.78,-43272.675,-31499.865,-29297.34,-23943.87,-12190.59,-11492.64
1764433723.607782,-2089.755,-14546.79,-43269.93,-31501.845,-29299.005,-23951.925,-12187.935,-11488.365
1764433723.607782,-2090.97,-14547.105,-43270.425,-31504.32,-29299.365,-23954.715,-12186.81,-11488.32
1764433723.607782,-2089.395,-14546.43,-43271.145,-31503.69,-29298.555,-23951.34,-12186.945,-11489.94
1764433723.607782,-2083.41,-14543.64,-43269.12,-31498.695,-29294.28,-23940.945,-12187.26,-11489.49
1764433723.607782,-2082.06,-14546.025,-43272.81,-31498.065,-29294.775,-23933.925,-12192.3,-11495.655
1764433723.607782,-2078.91,-14545.89,-43275.33,-31496.715,-29292.165,-23925.69,-12194.955,-11498.58
1764433723.607782,-2079.225,-14547.465,-43276.23,-31496.85,-29292.975,-23924.61,-12197.43,-11500.74
1764433723.607782,-2076.03,-14542.785,-43270.425,-31492.665,-29288.43,-23923.17,-12191.67,-11494.08
1764433723.607782,-2078.64,-14542.065,-43267.725,-31493.745,-29289.645,-23929.29,-12187.62,-11490.84
1764433723.6554365,-2082.915,-14542.38,-43266.555,-31496.535,-29291.895,-23938.605,-12186.09,-11487.555
1764433723.6554365,-2088.63,-14545.08,-43267.23,-31501.305,-29297.7,-23949.945,-12186.225,-11487.195
1764433723.6554365,-2094.84,-14550.12,-43272.855,-31508.145,-29304.72,-23957.415,-12190.185,-11492.82
1764433723.6564264,-2093.22,-14549.49,-43273.08,-31506.66,-29303.37,-23953.995,-12190.905,-11493.675
1764433723.6564264,-2087.37,-14546.115,-43271.505,-31502.07,-29298.015,-23943.915,-12191.445,-11493.81
1764433723.6564264,-2088.315,-14550.345,-43277.805,-31504.59,-29300.04,-23939.46,-12198.24,-11501.955
1764433723.6564264,-2082.375,-14547.825,-43277.13,-31499.46,-29294.73,-23927.67,-12199.095,-11502.315
1764433723.6574314,-2082.645,-14549.22,-43277.94,-31498.65,-29295.0,-23925.735,-12199.86,-11503.845
1764433723.6574314,-2083.95,-14549.265,-43276.95,-31498.92,-29295.45,-23928.84,-12198.51,-11502.09
1764433723.6574314,-2084.58,-14547.105,-43273.395,-31499.055,-29294.73,-23934.15,-12195.18,-11497.41
1764433723.6574314,-2085.075,-14543.55,-43268.445,-31497.885,-29293.92,-23939.415,-12190.275,-11490.615
1764433723.6574314,-2089.08,-14544.09,-43268.085,-31501.395,-29296.89,-23949.495,-12187.17,-11487.645
1764433723.6574314,-2092.095,-14547.105,-43271.01,-31504.77,-29300.355,-23955.705,-12187.08,-11489.58
1764433723.6574314,-2088.63,-14544.27,-43270.155,-31501.98,-29298.42,-23949.81,-12186.315,-11489.805
1764433723.658431,-2083.185,-14541.84,-43268.985,-31497.885,-29294.37,-23940.045,-12186.81,-11489.94
1764433723.658431,-2085.705,-14547.87,-43277.04,-31502.07,-29297.97,-23936.94,-12195.0,-11499.525
1764433723.658431,-2081.07,-14546.565,-43277.22,-31498.2,-29294.37,-23926.005,-12197.295,-11501.64
1764433723.658431,-2081.7,-14548.455,-43278.255,-31498.695,-29294.955,-23924.925,-12198.735,-11503.62
1764433723.658431,-2078.865,-14545.44,-43273.215,-31495.815,-29292.705,-23925.555,-12194.82,-11498.175
1764433723.658431,-2081.79,-14545.845,-43272.495,-31497.84,-29294.415,-23932.755,-12192.57,-11496.015
1764433723.658431,-2088.72,-14549.355,-43274.61,-31503.69,-29299.59,-23945.4,-12192.03,-11496.195
1764433723.658431,-2093.265,-14550.48,-43273.44,-31506.885,-29302.74,-23955.39,-12190.32,-11492.91
1764433723.658431,-2093.85,-14550.345,-43272.765,-31507.65,-29303.28,-23957.73,-12189.375,-11492.37
1764433723.658431,-2088.09,-14545.305,-43269.84,-31502.25,-29298.78,-23949.45,-12187.395,-11489.625
1764433723.6983416,-2088.225,-14547.915,-43273.35,-31503.465,-29299.995,-23944.5,-12192.48,-11495.115
1764433723.6983416,-2091.015,-14554.395,-43281.675,-31508.19,-29303.865,-23942.745,-12201.39,-11505.105
1764433723.6983416,-2088.855,-14556.015,-43284.51,-31506.795,-29303.28,-23935.05,-12205.98,-11509.335
1764433723.6983416,-2087.28,-14554.395,-43283.88,-31504.185,-29300.805,-23931.18,-12205.62,-11508.165
1764433723.6983416,-2088.135,-14553.945,-43281.99,-31504.905,-29300.715,-23933.97,-12203.865,-11505.465
1764433723.6983416,-2091.015,-14554.665,-43280.82,-31507.74,-29303.28,-23941.845,-12201.48,-11503.665
1764433723.6983416,-2094.39,-14554.62,-43278.705,-31509.855,-29305.08,-23950.305,-12198.24,-11500.155
1764433723.6983416,-2099.745,-14556.015,-43279.065,-31513.905,-29308.5,-23960.52,-12196.98,-11497.815
1764433723.6983416,-2101.185,-14556.195,-43280.19,-31516.38,-29309.985,-23963.985,-12195.99,-11497.59
1764433723.6983416,-2100.42,-14556.195,-43281.54,-31515.705,-29310.165,-23960.385,-12197.835,-11499.435
1764433723.6983416,-2097.315,-14556.465,-43282.71,-31513.68,-29309.13,-23953.5,-12202.245,-11502.27
1764433723.6983416,-2096.685,-14559.345,-43286.94,-31513.635,-29308.635,-23946.93,-12207.87,-11509.11
1764433723.6983416,-2088.405,-14554.215,-43283.385,-31506.12,-29302.245,-23933.34,-12206.745,-11507.58
1764433723.6993594,-2087.55,-14554.305,-43283.115,-31504.815,-29301.75,-23931.315,-12206.97,-11507.355
1764433723.6993594,-2091.195,-14555.835,-43284.105,-31506.93,-29303.55,-23936.625,-12206.565,-11507.85
1764433723.6993594,-2095.695,-14557.455,-43284.285,-31510.53,-29306.79,-23945.13,-12204.945,-11506.32
1764433723.6993594,-2094.48,-14552.82,-43277.895,-31509.0,-29305.215,-23949.63,-12198.915,-11498.085
1764433723.6993594,-2097.72,-14552.46,-43275.915,-31511.97,-29307.015,-23959.035,-12195.72,-11494.71
1764433723.6993594,-2100.645,-14554.575,-43278.345,-31515.12,-29310.3,-23963.13,-12195.27,-11496.465
1764433723.6993594,-2097.495,-14553.09,-43277.985,-31512.735,-29308.59,-23957.73,-12196.215,-11496.555
1764433723.6993594,-2096.415,-14554.89,-43281.63,-31512.78,-29308.59,-23952.825,-12200.895,-11501.46
1764433723.6993594,-2098.08,-14559.795,-43288.74,-31515.615,-29311.425,-23948.595,-12208.815,-11510.865
1764433723.745942,-2090.925,-14556.78,-43287.03,-31509.765,-29305.575,-23936.355,-12209.22,-11510.91
1764433723.757161,-2091.285,-14558.49,-43288.02,-31509.585,-29305.71,-23935.77,-12210.165,-11512.53
1764433723.757161,-2088.36,-14554.17,-43283.025,-31505.805,-29301.525,-23935.77,-12205.44,-11505.735
1764433723.757161,-2090.475,-14553.855,-43281.0,-31507.425,-29302.2,-23942.565,-12202.155,-11502.27
1764433723.7581606,-2097.045,-14556.24,-43281.63,-31512.375,-29307.465,-23954.805,-12201.705,-11501.955
1764433723.7581606,-2097.63,-14553.36,-43277.445,-31511.925,-29307.78,-23960.88,-12197.115,-11496.15
1764433723.7581606,-2102.535,-14557.23,-43281.9,-31516.965,-29312.955,-23966.505,-12198.87,-11499.615
1764433723.7581606,-2098.44,-14554.89,-43280.55,-31513.5,-29309.445,-23959.485,-12198.195,-11498.805
1764433723.7591584,-2096.955,-14556.51,-43284.15,-31513.545,-29309.31,-23954.31,-12202.83,-11503.89
1764433723.7591584,-2098.395,-14561.55,-43290.54,-31515.93,-29311.92,-23949.855,-12209.445,-11512.665
1764433723.7591584,-2092.5,-14558.265,-43289.82,-31510.44,-29306.745,-23938.065,-12210.705,-11512.89
1764433723.7591584,-2093.265,-14560.515,-43290.315,-31510.845,-29308.005,-23937.255,-12212.73,-11515.095
1764433723.760164,-2091.78,-14557.815,-43286.04,-31509.0,-29305.305,-23937.93,-12209.04,-11510.325
1764433723.760164,-2098.575,-14561.19,-43287.39,-31514.04,-29310.03,-23948.055,-12209.085,-11510.955
1764433723.760164,-2102.265,-14560.65,-43285.59,-31515.705,-29312.145,-23956.92,-12206.475,-11507.895
1764433723.7611578,-2104.245,-14558.67,-43282.89,-31517.46,-29313.72,-23965.245,-12202.38,-11503.845
1764433723.7611578,-2104.29,-14558.04,-43282.665,-31518.045,-29313.135,-23965.875,-12200.67,-11503.215
1764433723.7611578,-2100.465,-14556.645,-43282.125,-31515.93,-29309.67,-23959.665,-12199.995,-11504.205
1764433723.7611578,-2098.035,-14555.79,-43282.845,-31513.815,-29307.33,-23951.655,-12202.83,-11506.05
1764433723.7611578,-2099.88,-14561.37,-43289.595,-31516.245,-29310.03,-23947.425,-12210.93,-11514.69
1764433723.7611578,-2092.05,-14556.33,-43286.265,-31508.955,-29303.145,-23934.465,-12210.84,-11513.07
1764433723.7611578,-2090.25,-14555.61,-43285.995,-31506.84,-29301.525,-23930.955,-12210.435,-11512.215
1764433723.7611578,-2094.12,-14558.04,-43286.4,-31509.09,-29304.315,-23937.12,-12210.525,-11511.945
1764433723.7611578,-2100.555,-14562.045,-43288.065,-31515.03,-29309.445,-23947.65,-12210.615,-11512.665
1764433723.794661,-2103.75,-14562.045,-43285.725,-31517.64,-29311.65,-23956.29,-12206.97,-11508.93
1764433723.794661,-2105.865,-14561.37,-43283.835,-31518.72,-29313.045,-23964.12,-12203.955,-11504.52
1764433723.794661,-2104.425,-14558.715,-43282.35,-31517.415,-29311.155,-23963.805,-12201.525,-11501.145
1764433723.794661,-2102.67,-14558.715,-43283.475,-31516.965,-29310.12,-23958.9,-12202.785,-11502.945
1764433723.794661,-2100.825,-14559.525,-43286.13,-31516.38,-29309.805,-23953.14,-12205.935,-11507.175
1764433723.794661,-2102.535,-14564.52,-43292.79,-31518.765,-29311.695,-23949.045,-12212.235,-11514.87
1764433723.794661,-2097.765,-14562.99,-43292.52,-31514.58,-29307.33,-23938.47,-12214.215,-11515.95
1764433723.794661,-2093.04,-14559.615,-43287.885,-31509.585,-29302.47,-23932.485,-12212.37,-11512.26
1764433723.794661,-2092.77,-14557.455,-43283.97,-31507.695,-29301.57,-23934.555,-12207.87,-11508.48
1764433723.794661,-2094.3,-14555.745,-43281.585,-31509.18,-29301.93,-23940.585,-12205.035,-11504.88
1764433723.794661,-2097.81,-14555.745,-43279.695,-31511.655,-29304.27,-23950.53,-12202.02,-11501.19
1764433723.794661,-2101.905,-14556.105,-43278.795,-31514.175,-29306.7,-23958.855,-12199.365,-11498.67
1764433723.794661,-2101.68,-14555.835,-43278.615,-31514.715,-29307.555,-23959.215,-12197.43,-11498.445
1764433723.794661,-2098.755,-14554.665,-43279.065,-31513.14,-29306.07,-23953.77,-12197.745,-11499.705
1764433723.7956753,-2097.18,-14555.025,-43281.99,-31512.735,-29305.44,-23947.965,-12201.21,-11503.98
1764433723.7956753,-2097.72,-14559.48,-43288.2,-31514.67,-29307.69,-23943.78,-12208.005,-11512.17
1764433723.7956753,-2090.745,-14556.69,-43286.49,-31509.495,-29302.47,-23932.305,-12208.635,-11511.18
1764433723.7956753,-2088.315,-14554.935,-43284.645,-31507.02,-29300.265,-23929.2,-12208.365,-11509.83
1764433723.7956753,-2089.89,-14555.205,-43283.205,-31507.785,-29300.535,-23933.115,-12207.15,-11507.985
1764433723.7956753,-2095.515,-14558.175,-43283.655,-31512.6,-29303.955,-23942.295,-12206.43,-11507.535
1764433723.7956753,-2101.68,-14561.505,-43284.78,-31517.955,-29309.67,-23954.175,-12204.765,-11506.77
1764433723.7956753,-2103.48,-14559.705,-43281.315,-31517.82,-29310.39,-23960.835,-12200.805,-11501.595
1764433723.7956753,-2101.725,-14555.835,-43278.57,-31515.39,-29307.42,-23959.98,-12198.105,-11497.77
1764433723.7956753,-2099.79,-14555.475,-43279.74,-31513.95,-29306.835,-23955.75,-12198.42,-11499.795
1764433723.8394594,-2092.59,-14551.605,-43277.805,-31508.145,-29300.58,-23945.13,-12197.475,-11498.265
1764433723.8394594,-2093.4,-14556.375,-43284.195,-31510.845,-29303.055,-23940.27,-12204.27,-11506.455
1764433723.8394594,-2091.285,-14556.06,-43285.365,-31508.775,-29300.94,-23931.54,-12207.06,-11509.785
1764433723.8394594,-2090.025,-14554.98,-43284.915,-31506.48,-29298.735,-23928.84,-12207.69,-11509.155
1764433723.8394594,-2088.63,-14552.28,-43279.695,-31504.455,-29296.305,-23930.055,-12203.055,-11503.98
1764433723.8394594,-2091.195,-14552.325,-43277.715,-31505.895,-29298.24,-23936.715,-12200.085,-11500.605
1764433723.8394594,-2091.33,-14548.68,-43272.315,-31504.14,-29296.845,-23942.79,-12194.325,-11493.765
1764433723.8394594,-2097.855,-14551.56,-43274.655,-31509.495,-29302.065,-23954.535,-12193.605,-11494.125
1764433723.8394594,-2099.475,-14552.685,-43275.96,-31511.655,-29303.595,-23957.055,-12193.965,-11494.755
1764433723.8394594,-2097.405,-14552.955,-43277.13,-31510.98,-29302.605,-23952.69,-12195.765,-11496.915
1764433723.8394594,-2090.745,-14549.715,-43275.465,-31505.49,-29297.205,-23941.395,-12196.035,-11496.33
1764433723.8394594,-2090.565,-14553.27,-43281.495,-31506.795,-29298.285,-23935.77,-12202.065,-11504.475
1764433723.8394594,-2085.39,-14551.38,-43280.64,-31502.115,-29293.695,-23925.645,-12203.82,-11505.195
1764433723.8394594,-2086.83,-14552.55,-43281.63,-31502.97,-29294.82,-23925.825,-12205.26,-11507.13
1764433723.8394594,-2086.515,-14551.2,-43277.985,-31502.295,-29294.37,-23927.94,-12201.435,-11502.765
1764433723.8394594,-2084.94,-14546.565,-43271.865,-31499.91,-29292.255,-23931.09,-12194.28,-11495.52
1764433723.8409944,-2090.115,-14548.095,-43271.91,-31504.185,-29295.81,-23942.43,-12192.345,-11493.315
1764433723.8409944,-2091.555,-14546.745,-43268.445,-31504.68,-29295.945,-23948.73,-12187.665,-11488.005
1764433723.8409944,-2096.145,-14550.84,-43272.405,-31510.035,-29300.625,-23953.995,-12190.14,-11492.19
1764433723.8409944,-2092.59,-14549.625,-43272.18,-31508.19,-29298.42,-23948.055,-12190.995,-11492.73
1764433723.8409944,-2085.75,-14545.395,-43269.795,-31502.115,-29292.795,-23937.435,-12191.085,-11491.29
1764433723.8409944,-2083.32,-14546.295,-43273.035,-31500.585,-29291.4,-23929.29,-12195.045,-11495.52
1764433723.8841152,-2080.935,-14547.24,-43274.79,-31498.2,-29289.735,-23921.055,-12198.24,-11498.445
1764433723.8841152,-2080.485,-14547.735,-43274.34,-31496.31,-29288.61,-23919.48,-12198.24,-11498.175
1764433723.8841152,-2084.715,-14550.3,-43276.905,-31500.945,-29292.75,-23926.995,-12199.095,-11499.975
1764433723.8841152,-2086.83,-14549.13,-43274.385,-31502.025,-29293.74,-23932.665,-12195.675,-11495.835
1764433723.8841152,-2089.845,-14548.32,-43271.505,-31503.33,-29295.72,-23941.08,-12191.22,-11491.425
1764433723.8841152,-2090.925,-14546.52,-43268.355,-31503.87,-29296.08,-23948.1,-12186.18,-11487.51
1764433723.8841152,-2090.925,-14545.575,-43267.905,-31503.51,-29296.395,-23948.955,-12185.19,-11486.655
1764433723.8841152,-2084.715,-14541.03,-43264.845,-31498.245,-29291.625,-23940.405,-12183.3,-11483.37
1764433723.8841152,-2081.565,-14540.355,-43266.645,-31496.94,-29289.375,-23932.35,-12185.1,-11485.98
1764433723.8841152,-2079.765,-14541.345,-43270.38,-31496.085,-29288.43,-23924.61,-12189.69,-11491.245
1764433723.8841152,-2077.65,-14542.29,-43272.18,-31494.42,-29286.63,-23917.14,-12193.02,-11494.98
1764433723.8841152,-2079.945,-14546.34,-43275.555,-31496.715,-29288.97,-23918.805,-12196.035,-11498.67
1764433723.8841152,-2078.685,-14543.91,-43271.28,-31495.005,-29287.17,-23920.605,-12192.57,-11493.72
1764433723.8841152,-2081.16,-14543.415,-43269.12,-31495.68,-29287.62,-23926.95,-12189.6,-11490.075
1764433723.8841152,-2085.345,-14543.865,-43267.185,-31498.65,-29291.04,-23936.76,-12187.035,-11485.845
1764433723.8841152,-2093.265,-14549.445,-43271.775,-31506.795,-29298.465,-23950.305,-12188.025,-11488.86
1764433723.8841152,-2094.075,-14549.58,-43272.495,-31508.37,-29299.77,-23951.475,-12188.34,-11488.815
1764433723.885136,-2088.18,-14544.855,-43269.615,-31502.835,-29294.145,-23942.88,-12186.315,-11486.115
1764433723.885136,-2085.975,-14545.44,-43272.81,-31501.395,-29293.065,-23936.355,-12188.97,-11490.255
1764433723.885136,-2087.235,-14549.715,-43279.29,-31503.465,-29295.765,-23931.135,-12195.9,-11498.805
1764433723.885136,-2084.49,-14551.065,-43281.09,-31501.305,-29294.37,-23923.665,-12200.04,-11502.225
1764433723.885136,-2083.005,-14550.435,-43279.335,-31499.325,-29293.29,-23921.64,-12200.175,-11501.64
1764433723.933375,-2083.23,-14549.265,-43276.32,-31499.28,-29293.155,-23925.24,-12197.16,-11498.625
1764433723.933375,-2082.33,-14545.665,-43271.37,-31498.155,-29291.445,-23928.93,-12191.445,-11491.74
1764433723.933375,-2087.775,-14547.24,-43271.1,-31501.935,-29295.09,-23940.18,-12189.24,-11489.13
1764433723.933375,-2086.47,-14543.28,-43265.655,-31501.08,-29293.515,-23943.87,-12183.12,-11482.47
1764433723.933375,-2086.83,-14543.325,-43266.645,-31501.53,-29294.775,-23946.075,-12182.58,-11483.37
1764433723.933375,-2085.525,-14543.505,-43268.895,-31501.08,-29294.685,-23942.7,-12184.74,-11486.115
1764433723.933375,-2083.815,-14543.73,-43271.055,-31499.505,-29293.695,-23935.275,-12187.26,-11489.13
1764433723.933375,-2084.85,-14548.185,-43277.76,-31501.53,-29295.855,-23930.37,-12194.505,-11497.815
1764433723.933375,-2079.09,-14546.34,-43276.995,-31497.075,-29290.995,-23920.11,-12196.17,-11498.49
1764433723.933375,-2080.26,-14548.005,-43277.85,-31498.02,-29291.985,-23920.29,-12198.195,-11499.975
1764433723.933375,-2079.855,-14545.665,-43273.755,-31496.355,-29289.915,-23922.27,-12194.595,-11495.61
1764433723.933375,-2084.58,-14547.465,-43274.07,-31499.865,-29293.83,-23931.27,-12193.515,-11494.035
1764433723.933375,-2086.38,-14545.215,-43270.47,-31500.72,-29294.325,-23939.145,-12188.97,-11487.69
1764433723.933375,-2091.69,-14547.69,-43271.235,-31504.86,-29298.69,-23949.63,-12188.115,-11488.095
1764433723.933375,-2091.195,-14547.015,-43269.885,-31504.23,-29298.96,-23950.035,-12187.575,-11487.555
1764433723.934369,-2092.365,-14550.03,-43274.295,-31507.245,-29300.265,-23947.875,-12191.535,-11493.045
1764433723.934369,-2087.28,-14547.33,-43274.475,-31503.06,-29295.9,-23938.425,-12192.615,-11493.54
1764433723.934369,-2086.02,-14549.94,-43278.705,-31503.24,-29295.855,-23931.45,-12197.43,-11499.39
1764433723.934369,-2079.63,-14546.565,-43276.815,-31497.705,-29289.87,-23920.02,-12198.015,-11499.03
1764433723.934369,-2076.84,-14544.0,-43274.655,-31494.42,-29287.17,-23916.24,-12194.955,-11496.15
1764433723.934369,-2078.55,-14543.775,-43272.495,-31494.375,-29287.44,-23920.29,-12193.02,-11492.865
1764433723.934369,-2082.78,-14545.08,-43271.64,-31498.335,-29290.77,-23928.93,-12191.67,-11490.795
1764433723.934369,-2089.755,-14548.5,-43273.305,-31504.365,-29296.485,-23941.62,-12190.77,-11490.3
1764433723.934369,-2091.015,-14545.44,-43270.02,-31503.555,-29295.9,-23946.39,-12185.595,-11484.54
1764433723.9780736,-2088.9,-14542.47,-43268.175,-31501.8,-29294.37,-23944.725,-12183.48,-11481.93
1764433723.9780736,-2086.605,-14542.83,-43268.715,-31500.855,-29293.515,-23939.865,-12184.695,-11484.27
1764433723.9780736,-2083.455,-14543.685,-43270.29,-31499.19,-29291.85,-23932.755,-12187.89,-11487.24
1764433723.9780736,-2082.465,-14545.665,-43274.925,-31499.505,-29292.165,-23926.725,-12193.56,-11493.945
1764433723.9780736,-2081.115,-14547.015,-43277.265,-31499.325,-29291.49,-23920.515,-12197.025,-11498.4
1764433723.9780736,-2081.655,-14549.04,-43277.445,-31500.09,-29292.3,-23920.92,-12197.97,-11499.165
1764433723.9780736,-2080.305,-14545.98,-43272.945,-31496.805,-29290.23,-23922.945,-12193.74,-11493.63
1764433723.9780736,-2085.165,-14547.51,-43273.215,-31500.0,-29293.02,-23932.62,-12192.345,-11491.515
1764433723.9780736,-2086.425,-14544.495,-43268.76,-31499.865,-29292.75,-23939.415,-12187.53,-11485.215
1764433723.9780736,-2090.07,-14545.89,-43268.805,-31503.42,-29296.215,-23948.46,-12185.28,-11484.045
1764433723.9780736,-2092.23,-14547.78,-43270.425,-31505.535,-29297.745,-23950.53,-12186.495,-11486.07
1764433723.9780736,-2088.36,-14544.99,-43269.84,-31502.655,-29294.37,-23943.24,-12186.09,-11485.305
1764433723.9780736,-2080.935,-14540.04,-43267.185,-31497.48,-29289.105,-23932.215,-12184.92,-11483.955
1764433723.9780736,-2081.025,-14544.63,-43272.0,-31499.055,-29290.5,-23926.365,-12191.265,-11492.37
1764433723.9780736,-2077.92,-14544.9,-43273.395,-31496.58,-29288.16,-23917.995,-12194.64,-11495.655
1764433723.9780736,-2074.365,-14541.39,-43269.48,-31491.945,-29283.525,-23913.27,-12191.445,-11491.65
1764433723.9780736,-2077.605,-14543.19,-43268.94,-31493.925,-29286.225,-23919.165,-12191.355,-11490.75
1764433723.9780736,-2077.335,-14540.67,-43264.26,-31492.89,-29284.785,-23923.8,-12186.405,-11484.27
1764433723.9780736,-2080.395,-14540.04,-43262.325,-31495.545,-29286.765,-23934.195,-12183.48,-11480.94
1764433723.9790874,-2083.14,-14539.95,-43260.75,-31498.02,-29289.015,-23942.52,-12181.095,-11478.735
1764433723.9790874,-2086.74,-14542.515,-43264.215,-31501.305,-29293.065,-23945.58,-12183.705,-11481.975
1764433723.9790874,-2088.09,-14545.755,-43268.94,-31503.195,-29295.09,-23943.15,-12187.485,-11487.105
1764433723.9790874,-2082.195,-14542.155,-43266.6,-31498.11,-29290.23,-23933.34,-12186.855,-11486.295
1764433723.9790874,-2082.87,-14546.52,-43272.99,-31500.09,-29292.795,-23927.85,-12193.83,-11495.205
1764433724.0245693,-2079.405,-14546.07,-43274.745,-31497.21,-29290.95,-23920.11,-12197.295,-11497.68
1764433724.025565,-2077.245,-14544.675,-43272.045,-31494.87,-29288.43,-23917.41,-12195.27,-11494.89
1764433724.025565,-2075.625,-14541.255,-43267.05,-31492.575,-29285.595,-23918.22,-12190.995,-11489.13
1764433724.025565,-2078.82,-14540.76,-43265.025,-31494.33,-29286.675,-23925.105,-12187.845,-11485.62
1764433724.025565,-2082.105,-14541.705,-43263.045,-31496.985,-29289.42,-23935.41,-12184.65,-11481.525
1764433724.025565,-2086.47,-14543.415,-43263.63,-31500.585,-29293.83,-23945.715,-12183.66,-11480.76
1764433724.025565,-2090.655,-14546.835,-43267.86,-31504.68,-29297.7,-23949.72,-12186.72,-11484.27
1764433724.025565,-2084.67,-14542.695,-43265.205,-31499.91,-29293.38,-23941.215,-12185.145,-11482.74
1764433724.025565,-2081.97,-14543.055,-43267.14,-31499.055,-29291.265,-23933.79,-12188.025,-11486.43
1764433724.025565,-2080.575,-14545.53,-43271.73,-31499.505,-29291.175,-23926.095,-12193.38,-11493.315
1764433724.025565,-2077.965,-14544.9,-43272.99,-31496.67,-29288.61,-23918.175,-12194.955,-11495.52
1764433724.025565,-2077.29,-14545.17,-43272.855,-31495.455,-29288.655,-23917.68,-12194.28,-11494.89
1764433724.025565,-2075.31,-14541.345,-43267.77,-31492.665,-29285.955,-23918.895,-12189.78,-11488.86
1764433724.025565,-2076.57,-14540.355,-43264.26,-31492.44,-29285.595,-23924.205,-12185.19,-11483.955
1764433724.025565,-2081.16,-14542.065,-43263.495,-31496.76,-29289.51,-23934.825,-12182.67,-11481.48
1764433724.025565,-2086.965,-14544.99,-43265.655,-31502.925,-29294.28,-23945.625,-12182.67,-11482.245
1764433724.025565,-2086.605,-14543.28,-43264.395,-31502.115,-29293.245,-23944.905,-12181.905,-11480.265
1764433724.025565,-2087.73,-14545.98,-43267.995,-31503.51,-29295.225,-23942.475,-12185.82,-11485.26
1764433724.025565,-2081.565,-14542.47,-43266.105,-31499.145,-29290.095,-23931.72,-12186.27,-11485.53
1764433724.025565,-2078.505,-14542.38,-43268.625,-31497.21,-29288.115,-23923.17,-12189.87,-11489.85
1764433724.025565,-2075.67,-14542.29,-43270.245,-31495.005,-29286.405,-23916.15,-12192.615,-11492.865
1764433724.025565,-2075.805,-14543.82,-43270.74,-31494.6,-29286.405,-23916.015,-12193.515,-11493.54
1764433724.0689583,-2080.665,-14546.205,-43271.46,-31497.435,-29289.465,-23922.54,-12193.2,-11492.955
1764433724.0689583,-2080.395,-14543.415,-43267.545,-31497.255,-29289.105,-23927.715,-12188.79,-11486.97
1764433724.0689583,-2085.93,-14545.395,-43267.77,-31502.52,-29294.37,-23939.55,-12187.17,-11485.62
1764433724.0689583,-2087.325,-14543.415,-43264.305,-31502.475,-29293.92,-23944.14,-12183.12,-11480.895
1764433724.0689583,-2088.855,-14544.63,-43265.835,-31504.185,-29295.72,-23946.165,-12183.84,-11482.2
1764433724.0689583,-2088.225,-14547.195,-43268.67,-31504.77,-29295.765,-23944.14,-12186.36,-11486.61
1764433724.0689583,-2081.205,-14542.92,-43266.015,-31498.785,-29290.365,-23932.665,-12185.865,-11485.98
1764433724.0689583,-2078.595,-14544.27,-43269.885,-31498.02,-29289.69,-23924.88,-12191.85,-11490.615
1764433724.0689583,-2077.83,-14547.105,-43273.89,-31498.29,-29289.6,-23920.2,-12196.755,-11495.565
1764433724.0689583,-2080.395,-14550.48,-43276.275,-31500.63,-29292.03,-23921.91,-12198.645,-11498.58
1764433724.0689583,-2080.98,-14548.635,-43272.675,-31500.315,-29291.22,-23925.195,-12195.045,-11494.44
1764433724.0689583,-2080.305,-14544.855,-43266.555,-31498.245,-29288.745,-23928.21,-12188.79,-11487.645
1764433724.0699806,-2085.165,-14545.89,-43265.565,-31501.215,-29292.3,-23937.93,-12186.225,-11484.585
1764433724.0699806,-2090.295,-14548.815,-43267.32,-31505.445,-29297.34,-23947.74,-12185.46,-11484.315
1764433724.0699806,-2090.88,-14548.365,-43268.31,-31506.03,-29299.095,-23949.495,-12186.27,-11485.08
1764433724.0699806,-2087.64,-14546.88,-43268.67,-31504.005,-29296.35,-23943.735,-12187.845,-11486.34
1764433724.0699806,-2080.845,-14543.415,-43267.275,-31498.965,-29290.905,-23933.745,-12187.89,-11485.485
1764433724.0699806,-2078.775,-14545.8,-43271.235,-31498.92,-29290.455,-23925.645,-12192.3,-11491.155
1764433724.0709765,-2079.945,-14550.03,-43274.97,-31499.46,-29290.86,-23921.325,-12197.385,-11497.005
1764433724.0709765,-2080.125,-14549.22,-43274.295,-31498.92,-29290.77,-23921.415,-12197.925,-11496.69
1764433724.0709765,-2081.52,-14547.78,-43271.955,-31498.605,-29290.95,-23925.42,-12194.595,-11494.215
1764433724.0709765,-2079.99,-14543.37,-43265.655,-31495.77,-29287.845,-23927.805,-12188.025,-11485.755
1764433724.0720775,-2087.19,-14546.88,-43267.455,-31501.53,-29293.065,-23940.63,-12186.72,-11484.675
1764433724.0720775,-2090.385,-14547.87,-43267.32,-31505.49,-29295.63,-23949.405,-12184.83,-11483.1
1764433724.1167283,-2090.97,-14547.465,-43267.905,-31506.12,-29296.305,-23949.405,-12185.865,-11484.0
1764433724.1167283,-2085.03,-14543.28,-43265.34,-31501.305,-29291.67,-23940.405,-12184.335,-11482.245
1764433724.1167283,-2082.645,-14545.17,-43268.13,-31500.135,-29290.23,-23934.285,-12187.575,-11486.025
1764433724.1167283,-2085.075,-14550.84,-43275.6,-31502.61,-29293.38,-23929.515,-12195.54,-11494.89
1764433724.1167283,-2082.105,-14550.03,-43275.96,-31499.955,-29291.13,-23921.91,-12197.7,-11496.825
1764433724.1167283,-2078.37,-14545.485,-43272.045,-31496.625,-29287.17,-23918.04,-12194.82,-11492.955
1764433724.1167283,-2082.24,-14547.555,-43272.135,-31498.92,-29289.6,-23924.79,-12193.695,-11492.46
1764433724.1167283,-2083.23,-14545.71,-43267.995,-31498.695,-29289.105,-23929.56,-12189.015,-11487.465
1764433724.1167283,-2084.985,-14543.91,-43263.45,-31498.02,-29287.89,-23935.77,-12184.02,-11481.39
1764433724.1167283,-2091.015,-14546.565,-43265.925,-31502.97,-29292.12,-23944.77,-12183.525,-11482.155
1764433724.1167283,-2088.99,-14543.73,-43264.44,-31501.08,-29288.97,-23942.52,-12182.4,-11480.58
1764433724.1167283,-2088.18,-14545.395,-43267.41,-31501.305,-29289.06,-23938.29,-12185.595,-11484.72
1764433724.117741,-2084.04,-14544.855,-43267.725,-31498.56,-29285.865,-23929.38,-12188.565,-11487.645
1764433724.117741,-2082.015,-14545.89,-43270.92,-31497.39,-29284.65,-23921.775,-12194.145,-11493.045
1764433724.117741,-2082.69,-14549.94,-43274.97,-31498.605,-29286.0,-23917.59,-12199.23,-11498.76
1764433724.117741,-2080.08,-14548.14,-43271.73,-31495.095,-29283.705,-23915.295,-12197.16,-11496.375
1764433724.117741,-2078.37,-14544.405,-43265.88,-31492.845,-29282.265,-23917.365,-12192.84,-11490.255
1764433724.117741,-2083.185,-14546.565,-43267.275,-31497.84,-29287.125,-23928.255,-12191.22,-11489.715
1764433724.117741,-2086.605,-14546.97,-43265.565,-31501.305,-29290.23,-23939.19,-12188.34,-11485.62
1764433724.117741,-2087.145,-14544.405,-43262.37,-31501.62,-29291.58,-23945.76,-12185.28,-11480.805
1764433724.117741,-2086.245,-14542.875,-43261.92,-31501.215,-29291.445,-23945.895,-12183.93,-11479.725
1764433724.117741,-2086.155,-14544.9,-43266.195,-31502.52,-29293.155,-23943.24,-12187.44,-11484.315
1764433724.162258,-2080.395,-14542.965,-43265.745,-31498.29,-29289.6,-23934.465,-12189.465,-11485.575
1764433724.162258,-2081.295,-14547.915,-43272.27,-31501.62,-29293.02,-23931.36,-12196.98,-11494.125
1764433724.162258,-2079.405,-14548.365,-43274.43,-31500.855,-29292.57,-23926.59,-12199.995,-11497.14
1764433724.162258,-2077.56,-14546.79,-43272.945,-31498.83,-29291.94,-23926.05,-12198.87,-11495.07
1764433724.162258,-2075.58,-14543.28,-43268.085,-31496.265,-29290.455,-23928.435,-12194.19,-11488.905
1764433724.162258,-2080.44,-14544.855,-43267.905,-31500.09,-29295.135,-23938.29,-12193.02,-11487.42
1764433724.162258,-2088.54,-14549.13,-43270.695,-31507.785,-29303.145,-23953.365,-12193.785,-11488.14
1764433724.162258,-2090.34,-14547.69,-43268.895,-31508.865,-29302.83,-23958.99,-12191.265,-11485.125
1764433724.162258,-2091.6,-14549.265,-43271.055,-31510.755,-29303.82,-23959.665,-12191.895,-11486.925
1764433724.162258,-2091.735,-14551.515,-43274.655,-31511.295,-29304.045,-23955.525,-12195.315,-11491.92
1764433724.1632757,-2084.67,-14546.34,-43271.505,-31504.545,-29295.945,-23942.295,-12194.055,-11490.39
1764433724.1632757,-2080.8,-14546.88,-43272.72,-31500.765,-29292.03,-23931.135,-12196.845,-11493.72
1764433724.1632757,-2078.055,-14547.6,-43273.935,-31498.83,-29289.555,-23922.945,-12198.465,-11496.195
1764433724.1632757,-2079.045,-14548.05,-43273.8,-31498.335,-29288.565,-23922.675,-12197.745,-11496.06
1764433724.1632757,-2083.32,-14551.38,-43274.88,-31502.34,-29291.49,-23929.605,-12198.105,-11496.78
1764433724.1632757,-2083.455,-14548.365,-43270.74,-31500.63,-29290.095,-23933.07,-12193.245,-11491.155
1764433724.1632757,-2086.695,-14547.465,-43267.32,-31501.395,-29290.995,-23940.54,-12188.025,-11485.98
1764433724.1632757,-2090.61,-14548.41,-43267.77,-31504.32,-29293.065,-23947.2,-12185.64,-11484.765
1764433724.1632757,-2088.99,-14546.835,-43266.105,-31502.34,-29290.5,-23945.4,-12184.47,-11483.91
1764433724.1632757,-2086.965,-14546.88,-43267.59,-31502.205,-29289.78,-23941.08,-12185.19,-11486.565
1764433724.1632757,-2080.755,-14543.91,-43267.41,-31498.425,-29286.54,-23930.865,-12186.36,-11487.33
1764433724.1632757,-2081.25,-14547.69,-43272.81,-31499.55,-29287.845,-23924.205,-12192.3,-11494.53
1764433724.1632757,-2074.23,-14544.225,-43269.48,-31494.06,-29281.635,-23913.945,-12192.03,-11492.28
1764433724.1632757,-2073.33,-14543.28,-43268.265,-31492.125,-29280.375,-23913.45,-12191.22,-11490.795
1764433724.2073584,-2077.2,-14544.63,-43268.625,-31494.195,-29283.165,-23920.155,-12190.59,-11489.13
1764433724.2073584,-2082.15,-14546.79,-43269.795,-31499.37,-29288.25,-23930.91,-12189.915,-11488.725
1764433724.2073584,-2083.77,-14545.44,-43266.015,-31500.495,-29289.645,-23940.27,-12185.64,-11483.055
1764433724.2073584,-2089.98,-14548.905,-43268.175,-31506.12,-29295.27,-23949.99,-12185.235,-11483.73
1764433724.2073584,-2089.26,-14547.375,-43268.175,-31506.12,-29294.64,-23949.495,-12184.875,-11483.775
1764433724.2073584,-2082.33,-14542.515,-43264.395,-31500.315,-29288.7,-23938.875,-12183.165,-11480.895
1764433724.2073584,-2079.9,-14543.73,-43266.78,-31499.055,-29287.485,-23932.26,-12186.225,-11484.495
1764433724.2073584,-2081.43,-14549.04,-43274.07,-31501.845,-29290.41,-23928.75,-12193.245,-11493.27
1764433724.2073584,-2077.92,-14547.465,-43274.79,-31499.145,-29287.665,-23920.38,-12195.0,-11494.8
1764433724.2073584,-2074.5,-14543.64,-43270.065,-31494.6,-29284.2,-23916.555,-12192.39,-11490.345
1764433724.2073584,-2077.11,-14544.765,-43268.715,-31496.175,-29285.91,-23922.765,-12190.635,-11488.185
1764433724.2073584,-2084.355,-14549.355,-43271.28,-31501.845,-29291.715,-23934.015,-12191.13,-11489.49
1764433724.2073584,-2087.505,-14548.005,-43268.04,-31504.14,-29293.65,-23942.205,-12188.205,-11485.44
1764433724.2073584,-2085.075,-14542.65,-43261.2,-31500.855,-29289.33,-23943.06,-12181.14,-11477.025
1764433724.2073584,-2085.525,-14543.01,-43262.82,-31501.665,-29289.69,-23943.78,-12180.645,-11478.375
1764433724.2073584,-2085.03,-14544.135,-43266.42,-31502.115,-29290.68,-23940.0,-12182.805,-11483.055
1764433724.2073584,-2081.295,-14542.83,-43267.185,-31499.28,-29287.755,-23931.45,-12185.055,-11485.125
1764433724.2073584,-2084.49,-14549.85,-43275.33,-31503.825,-29291.94,-23927.715,-12194.145,-11495.07
1764433724.2073584,-2081.655,-14550.255,-43275.915,-31501.17,-29289.555,-23920.875,-12196.98,-11497.23
1764433724.2073584,-2078.865,-14546.79,-43271.505,-31496.715,-29285.01,-23918.4,-12195.405,-11493.855
1764433724.2073584,-2081.25,-14547.24,-43270.695,-31498.065,-29286.99,-23924.745,-12193.47,-11491.56
1764433724.2073584,-2086.155,-14549.355,-43271.595,-31503.105,-29291.67,-23935.005,-12192.12,-11490.48
1764433724.2565868,-2086.065,-14545.35,-43266.015,-31501.62,-29289.915,-23940.765,-12186.09,-11483.28
1764433724.2565868,-2086.155,-14543.055,-43263.09,-31501.665,-29290.59,-23945.13,-12181.365,-11478.78
1764433724.2575932,-2086.83,-14544.09,-43264.665,-31503.24,-29292.345,-23945.715,-12181.815,-11480.175
1764433724.2575932,-2084.985,-14544.765,-43266.735,-31503.69,-29291.445,-23941.395,-12185.055,-11483.685
1764433724.2575932,-2083.68,-14547.285,-43270.38,-31503.33,-29291.22,-23935.275,-12189.96,-11488.68
1764433724.2585878,-2084.94,-14552.19,-43277.445,-31505.22,-29293.38,-23930.595,-12197.88,-11497.545
1764433724.2585878,-2079.855,-14549.355,-43275.24,-31500.63,-29288.835,-23920.965,-12198.06,-11497.05
1764433724.2585878,-2081.655,-14551.245,-43276.59,-31501.89,-29290.005,-23923.215,-12198.78,-11497.545
1764433724.2585878,-2081.25,-14548.545,-43272.585,-31500.315,-29288.7,-23925.69,-12195.27,-11493.135
1764433724.2585878,-2084.58,-14549.355,-43271.055,-31502.43,-29290.86,-23934.015,-12192.075,-11489.985
1764433724.2585878,-2089.215,-14550.075,-43270.605,-31505.265,-29293.425,-23944.905,-12189.24,-11487.06
1764433724.2585878,-2091.195,-14549.895,-43269.705,-31507.155,-29294.64,-23951.07,-12186.9,-11484.18
1764433724.2585878,-2087.595,-14546.475,-43267.86,-31505.13,-29291.895,-23947.965,-12185.865,-11481.21
1764433724.2585878,-2085.03,-14545.125,-43268.4,-31503.465,-29289.42,-23941.395,-12186.72,-11483.37
1764433724.2595878,-2082.42,-14546.115,-43270.83,-31501.62,-29288.745,-23934.06,-12189.96,-11487.24
1764433724.2595878,-2079.135,-14547.015,-43273.62,-31499.64,-29286.63,-23924.97,-12193.695,-11492.19
1764433724.2595878,-2077.56,-14547.87,-43274.205,-31498.29,-29285.595,-23918.985,-12196.35,-11495.16
1764433724.2595878,-2077.695,-14548.32,-43272.855,-31498.245,-29285.91,-23919.84,-12196.89,-11494.755
1764433724.2595878,-2080.215,-14548.275,-43271.865,-31499.19,-29286.765,-23924.925,-12194.775,-11492.82
1764433724.2595878,-2085.615,-14551.245,-43272.63,-31503.105,-29290.41,-23934.825,-12192.885,-11491.74
1764433724.2595878,-2085.66,-14548.05,-43266.825,-31503.15,-29289.78,-23942.07,-12186.765,-11485.035
1764433724.2595878,-2088.315,-14546.88,-43265.115,-31504.545,-29291.445,-23947.605,-12183.345,-11482.83
1764433724.2595878,-2092.095,-14549.49,-43269.03,-31508.37,-29295.27,-23950.035,-12185.91,-11486.295
1764433724.2595878,-2086.65,-14546.43,-43268.04,-31504.32,-29291.49,-23942.115,-12186.225,-11485.53
1764433724.303727,-2082.645,-14544.945,-43268.355,-31500.945,-29288.205,-23933.07,-12187.395,-11487.285
1764433724.303727,-2081.16,-14546.835,-43272.54,-31500.63,-29288.16,-23925.555,-12192.345,-11493.09
1764433724.303727,-2080.71,-14549.67,-43275.87,-31501.035,-29288.025,-23921.955,-12196.305,-11497.41
1764433724.303727,-2077.11,-14545.98,-43271.37,-31497.525,-29284.425,-23919.165,-12194.64,-11492.955
1764433724.303727,-2079.315,-14546.385,-43270.29,-31498.695,-29285.28,-23924.07,-12192.165,-11489.895
1764433724.303727,-2082.555,-14547.465,-43269.12,-31501.89,-29288.565,-23932.89,-12189.195,-11486.835
1764433724.303727,-2085.66,-14547.015,-43266.555,-31503.915,-29291.49,-23942.52,-12185.505,-11482.245
1764433724.303727,-2087.37,-14546.295,-43265.52,-31505.22,-29293.695,-23948.775,-12183.075,-11480.22
1764433724.303727,-2086.605,-14545.17,-43265.115,-31504.455,-29293.29,-23947.605,-12182.58,-11479.905
1764433724.303727,-2079.9,-14540.805,-43262.775,-31499.28,-29287.8,-23937.435,-12180.825,-11477.88
1764433724.303727,-2076.12,-14540.04,-43264.44,-31496.895,-29285.415,-23928.705,-12183.12,-11481.165
1764433724.3047414,-2076.84,-14543.64,-43269.345,-31497.795,-29286.81,-23922.27,-12189.78,-11488.635
1764433724.3047414,-2078.595,-14547.24,-43273.44,-31500.09,-29288.655,-23919.66,-12195.09,-11493.765
1764433724.3047414,-2078.145,-14547.555,-43272.54,-31500.18,-29288.745,-23919.885,-12195.495,-11493.36
1764433724.3047414,-2078.82,-14546.475,-43269.705,-31499.505,-29288.295,-23924.565,-12192.03,-11489.22
1764433724.3047414,-2078.775,-14543.055,-43264.935,-31497.885,-29286.405,-23929.11,-12187.17,-11482.92
1764433724.3047414,-2082.465,-14543.19,-43262.73,-31500.945,-29288.79,-23938.38,-12184.245,-11479.545
1764433724.3047414,-2087.055,-14544.855,-43263.45,-31505.49,-29292.39,-23946.615,-12183.48,-11479.275
1764433724.3047414,-2089.98,-14548.905,-43268.13,-31509.81,-29296.935,-23949.855,-12186.315,-11484.315
1764433724.3047414,-2084.085,-14545.62,-43267.545,-31505.265,-29293.335,-23942.205,-12185.82,-11483.505
1764433724.3047414,-2077.92,-14542.245,-43265.88,-31499.595,-29287.89,-23930.82,-12185.595,-11483.505
1764433724.3047414,-2080.44,-14547.735,-43272.315,-31502.205,-29290.905,-23926.32,-12193.11,-11492.64
1764433724.3047414,-2077.56,-14547.015,-43271.955,-31499.19,-29288.88,-23919.615,-12194.595,-11493.63
1764433724.3047414,-2073.015,-14542.38,-43267.14,-31493.925,-29283.93,-23916.24,-12190.86,-11487.375
1764433724.348482,-2076.255,-14543.91,-43266.645,-31495.59,-29285.505,-23923.17,-12189.24,-11486.07
1764433724.348482,-2079.855,-14545.62,-43265.655,-31499.055,-29288.7,-23932.8,-12186.63,-11484.315
1764433724.348482,-2081.745,-14542.965,-43261.155,-31499.82,-29288.565,-23940.27,-12181.905,-11478.015
1764433724.348482,-2087.415,-14546.295,-43263.765,-31505.4,-29294.73,-23950.125,-12182.535,-11479.995
1764433724.348482,-2088.63,-14547.06,-43266.015,-31506.795,-29296.395,-23950.395,-12184.38,-11482.425
1764433724.348482,-2086.605,-14546.835,-43267.14,-31505.355,-29294.235,-23944.32,-12187.08,-11485.17
1764433724.348482,-2079.765,-14543.82,-43265.115,-31499.955,-29289.645,-23933.925,-12187.485,-11485.395
1764433724.348482,-2079.405,-14546.7,-43269.75,-31500.315,-29289.555,-23926.23,-12193.38,-11492.1
1764433724.348482,-2079.18,-14549.4,-43273.485,-31500.315,-29289.87,-23922.045,-12197.205,-11496.195
1764433724.348482,-2074.23,-14544.495,-43268.49,-31495.68,-29285.64,-23919.03,-12192.57,-11491.065
1764433724.348482,-2078.37,-14547.195,-43268.985,-31499.415,-29289.24,-23927.355,-12191.94,-11490.795
1764433724.348482,-2080.44,-14546.295,-43266.42,-31500.72,-29290.05,-23934.915,-12188.205,-11486.79
1764433724.348482,-2082.195,-14544.27,-43262.64,-31501.035,-29290.77,-23943.195,-12183.21,-11481.03
1764433724.348482,-2081.205,-14541.525,-43259.04,-31500.27,-29289.915,-23946.255,-12179.07,-11475.99
1764433724.348482,-2082.42,-14542.02,-43261.38,-31500.855,-29291.265,-23945.94,-12179.925,-11477.79
1764433724.348482,-2078.055,-14540.22,-43260.705,-31497.57,-29288.79,-23938.155,-12180.15,-11477.88
1764433724.348482,-2075.22,-14540.94,-43262.1,-31496.22,-29286.405,-23930.37,-12183.255,-11481.03
1764433724.348482,-2073.555,-14543.685,-43265.97,-31496.58,-29286.18,-23923.305,-12188.79,-11487.78
1764433724.348482,-2070.855,-14543.64,-43266.87,-31494.33,-29284.965,-23917.005,-12191.13,-11489.67
1764433724.348482,-2070.9,-14543.73,-43265.79,-31493.79,-29284.47,-23918.085,-12191.04,-11488.545
1764433724.348482,-2074.5,-14544.495,-43265.43,-31496.58,-29286.36,-23924.925,-12189.825,-11487.375
1764433724.348482,-2079.09,-14546.34,-43265.43,-31500.54,-29290.005,-23934.375,-12188.34,-11486.43
1764433724.394446,-2081.97,-14545.035,-43262.775,-31501.215,-29291.49,-23943.285,-12183.615,-11481.57
1764433724.394446,-2080.665,-14540.445,-43258.185,-31499.1,-29288.7,-23943.96,-12178.44,-11475.225
1764433724.394446,-2081.745,-14541.345,-43259.85,-31500.765,-29289.78,-23944.365,-12179.88,-11477.07
1764433724.394446,-2081.79,-14544.585,-43264.89,-31502.025,-29291.13,-23941.845,-12183.48,-11482.605
1764433724.394446,-2076.66,-14541.885,-43264.305,-31498.155,-29286.945,-23931.18,-12184.29,-11483.19
1764433724.394446,-2075.895,-14544.54,-43268.94,-31498.515,-29287.305,-23923.485,-12189.42,-11489.355
1764433724.394446,-2071.215,-14542.83,-43267.95,-31494.06,-29283.3,-23915.655,-12190.095,-11489.4
1764433724.394446,-2071.8,-14543.505,-43267.05,-31494.51,-29282.895,-23916.96,-12189.78,-11488.545
1764433724.394446,-2071.62,-14541.345,-43262.505,-31492.485,-29281.545,-23919.525,-12185.505,-11483.28
1764433724.394446,-2077.38,-14544.36,-43263.18,-31496.445,-29286.27,-23930.145,-12184.38,-11483.145
1764433724.394446,-2080.17,-14542.695,-43259.94,-31497.255,-29287.17,-23938.335,-12180.285,-11477.925
1764433724.394446,-2085.615,-14545.305,-43262.64,-31502.475,-29291.67,-23946.705,-12180.24,-11478.78
1764433724.394446,-2084.805,-14545.485,-43263.63,-31502.745,-29290.905,-23945.04,-12180.645,-11480.085
1764433724.394446,-2079.405,-14541.66,-43262.1,-31498.155,-29286.18,-23936.31,-12181.005,-11479.68
1764433724.394446,-2074.815,-14540.4,-43262.055,-31495.005,-29283.255,-23927.355,-12182.715,-11481.57
1764433724.3954551,-2072.655,-14541.795,-43264.44,-31494.015,-29282.67,-23919.12,-12187.395,-11487.555
1764433724.3954551,-2071.485,-14542.83,-43265.97,-31492.98,-29281.905,-23913.81,-12190.32,-11490.255
1764433724.3954551,-2072.97,-14544.27,-43266.69,-31494.24,-29283.255,-23915.79,-12189.735,-11490.48
1764433724.3954551,-2074.05,-14542.785,-43262.91,-31493.61,-29281.68,-23919.435,-12186.045,-11485.575
1764433724.3954551,-2075.67,-14540.76,-43259.13,-31493.7,-29281.77,-23924.88,-12181.905,-11479.725
1764433724.3954551,-2082.78,-14544.585,-43261.56,-31500.315,-29287.8,-23938.92,-12181.5,-11479.77
1764433724.3954551,-2084.355,-14544.675,-43260.435,-31501.935,-29288.835,-23944.365,-12179.115,-11477.97
1764433724.3954551,-2081.52,-14542.29,-43259.13,-31499.415,-29286.495,-23940.18,-12177.9,-11477.025
1764433724.3954551,-2078.235,-14541.93,-43260.12,-31496.58,-29285.19,-23934.105,-12179.88,-11479.005
1764433724.4429998,-2076.705,-14542.74,-43263.09,-31495.95,-29284.11,-23928.21,-12183.66,-11483.01
1764433724.4429998,-2077.38,-14546.88,-43269.12,-31497.57,-29285.325,-23922.405,-12190.455,-11491.38
1764433724.4429998,-2070.945,-14543.19,-43265.655,-31492.08,-29279.34,-23912.73,-12189.105,-11489.04
1764433724.4429998,-2068.965,-14541.3,-43261.695,-31489.065,-29276.685,-23911.065,-12186.315,-11485.395
1764433724.4429998,-2070.18,-14540.895,-43259.625,-31490.1,-29276.82,-23915.52,-12182.67,-11481.345
1764433724.4429998,-2075.58,-14543.505,-43260.615,-31494.42,-29281.545,-23925.555,-12181.05,-11480.04
1764433724.4429998,-2078.37,-14542.47,-43257.87,-31496.04,-29283.705,-23934.69,-12177.855,-11475.81
1764433724.4429998,-2077.2,-14539.14,-43253.055,-31494.51,-29282.085,-23936.67,-12173.04,-11469.69
1764433724.4429998,-2077.965,-14539.275,-43255.44,-31495.77,-29282.895,-23936.625,-12174.435,-11472.255
1764433724.4429998,-2076.885,-14540.13,-43257.51,-31494.69,-29281.86,-23930.82,-12177.045,-11476.44
1764433724.4429998,-2074.41,-14541.12,-43260.3,-31493.52,-29280.735,-23924.34,-12180.555,-11480.76
1764433724.4429998,-2072.52,-14543.235,-43263.855,-31493.16,-29280.51,-23916.735,-12186.135,-11487.105
1764433724.4429998,-2071.98,-14545.08,-43265.745,-31492.665,-29280.195,-23912.505,-12190.23,-11490.12
1764433724.4429998,-2072.7,-14546.115,-43265.43,-31493.115,-29281.14,-23914.305,-12189.915,-11489.625
1764433724.443992,-2072.205,-14542.38,-43260.93,-31491.495,-29279.295,-23916.915,-12185.145,-11483.415
1764433724.443992,-2076.93,-14543.73,-43260.84,-31494.555,-29282.76,-23926.725,-12182.355,-11481.66
1764433724.443992,-2080.62,-14543.37,-43258.59,-31497.21,-29284.785,-23935.95,-12179.835,-11477.52
1764433724.443992,-2079.99,-14541.39,-43255.98,-31496.895,-29284.245,-23939.055,-12176.505,-11472.615
1764433724.443992,-2081.34,-14542.92,-43258.14,-31497.705,-29285.28,-23939.595,-12177.945,-11474.37
1764433724.443992,-2080.17,-14543.325,-43260.39,-31497.345,-29284.02,-23934.24,-12179.655,-11478.015
1764433724.443992,-2072.745,-14538.645,-43258.5,-31491.765,-29278.35,-23922.135,-12178.665,-11478.555
1764433724.443992,-2074.095,-14543.955,-43265.34,-31494.69,-29281.77,-23918.085,-12186.765,-11487.555
1764433724.443992,-2071.8,-14544.45,-43265.97,-31493.52,-29279.79,-23912.64,-12189.375,-11488.59
1764433724.443992,-2069.28,-14542.335,-43261.74,-31489.92,-29276.775,-23911.38,-12186.63,-11484.09
1764433724.4884384,-2068.02,-14538.735,-43255.62,-31487.04,-29274.255,-23913.63,-12181.995,-11477.295
1764433724.489456,-2071.665,-14539.815,-43254.63,-31489.74,-29277.135,-23922.405,-12178.89,-11474.955
1764433724.489456,-2078.64,-14543.37,-43255.485,-31495.59,-29283.03,-23935.905,-12177.585,-11474.28
1764433724.489456,-2080.44,-14542.155,-43254.315,-31497.075,-29284.02,-23940.27,-12175.065,-11471.94
1764433724.489456,-2078.055,-14539.635,-43254.0,-31494.51,-29282.265,-23936.49,-12174.705,-11471.04
1764433724.489456,-2077.155,-14540.985,-43256.43,-31493.79,-29282.13,-23931.855,-12178.53,-11475.315
1764433724.489456,-2074.995,-14542.29,-43259.13,-31493.97,-29281.05,-23923.98,-12182.085,-11479.59
1764433724.489456,-2075.535,-14546.205,-43264.845,-31495.275,-29281.995,-23918.265,-12188.295,-11486.88
1764433724.489456,-2070.0,-14542.965,-43261.56,-31489.11,-29277.09,-23908.905,-12187.71,-11485.305
1764433724.489456,-2069.19,-14541.795,-43259.85,-31487.355,-29276.01,-23908.545,-12184.74,-11482.47
1764433724.489456,-2073.96,-14544.0,-43261.11,-31491.36,-29280.24,-23916.825,-12184.065,-11481.615
1764433724.489456,-2073.96,-14541.03,-43256.115,-31491.045,-29278.98,-23922.855,-12179.205,-11475.765
1764433724.489456,-2080.305,-14544.315,-43256.97,-31496.175,-29283.39,-23935.455,-12178.17,-11474.595
1764433724.489456,-2081.97,-14544.495,-43256.07,-31497.39,-29284.605,-23940.945,-12175.83,-11472.255
1764433724.489456,-2081.655,-14544.63,-43257.915,-31497.075,-29285.37,-23940.27,-12176.73,-11473.65
1764433724.489456,-2077.38,-14542.2,-43257.465,-31494.015,-29282.625,-23932.305,-12176.865,-11474.73
1764433724.489456,-2071.62,-14538.735,-43256.07,-31488.66,-29277.315,-23920.965,-12177.495,-11475.27
1764433724.489456,-2070.0,-14541.57,-43259.805,-31488.885,-29276.775,-23913.27,-12182.355,-11481.39
1764433724.489456,-2068.2,-14542.74,-43261.38,-31488.165,-29276.01,-23908.455,-12184.74,-11484.18
1764433724.489456,-2068.74,-14542.695,-43260.21,-31487.445,-29276.01,-23910.435,-12184.38,-11482.47
1764433724.489456,-2071.98,-14543.1,-43258.59,-31489.245,-29277.99,-23916.825,-12182.445,-11479.635
1764433724.4909914,-2076.345,-14544.675,-43258.005,-31492.8,-29280.87,-23925.78,-12180.465,-11477.565
1764433724.5340106,-2083.905,-14548.23,-43260.075,-31498.965,-29286.81,-23939.055,-12180.105,-11477.79
1764433724.5340106,-2084.445,-14546.295,-43257.915,-31499.145,-29286.72,-23942.97,-12177.315,-11474.46
1764433724.5340106,-2080.71,-14542.74,-43255.755,-31495.995,-29283.57,-23937.705,-12176.055,-11473.425
1764433724.5340106,-2077.515,-14541.795,-43256.34,-31493.52,-29282.04,-23930.64,-12177.135,-11475.495
1764433724.5340106,-2074.77,-14542.47,-43259.4,-31492.62,-29280.33,-23923.17,-12180.465,-11479.545
1764433724.5340106,-2074.815,-14546.115,-43265.52,-31493.475,-29282.13,-23916.645,-12187.215,-11487.465
1764433724.5340106,-2071.44,-14544.765,-43264.665,-31489.74,-29279.205,-23910.075,-12187.62,-11487.555
1764433724.5340106,-2069.1,-14542.515,-43260.705,-31487.265,-29276.775,-23909.22,-12184.245,-11483.595
1764433724.5340106,-2070.36,-14542.29,-43258.86,-31488.03,-29276.955,-23914.575,-12181.14,-11480.67
1764433724.5340106,-2072.655,-14540.625,-43256.115,-31488.84,-29277.315,-23921.775,-12176.955,-11476.08
1764433724.5340106,-2073.15,-14538.33,-43251.885,-31489.155,-29277.09,-23928.795,-12171.645,-11470.365
1764433724.5340106,-2077.695,-14540.13,-43253.055,-31492.98,-29280.69,-23936.04,-12171.42,-11470.68
1764433724.5345385,-2081.745,-14543.73,-43257.915,-31497.615,-29284.65,-23938.695,-12175.515,-11475.72
1764433724.5345385,-2077.515,-14543.055,-43258.59,-31494.78,-29281.455,-23931.0,-12177.18,-11476.35
1764433724.5345385,-2074.32,-14543.28,-43260.795,-31492.53,-29280.105,-23922.99,-12180.87,-11479.815
1764433724.5345385,-2072.655,-14545.17,-43264.305,-31491.315,-29279.79,-23915.25,-12185.595,-11485.62
1764433724.5345385,-2072.565,-14547.465,-43266.555,-31491.54,-29280.195,-23912.19,-12188.745,-11488.86
1764433724.5345385,-2070.09,-14544.72,-43262.55,-31489.02,-29277.54,-23911.56,-12186.315,-11485.08
1764433724.5345385,-2072.16,-14545.53,-43260.84,-31490.415,-29279.025,-23918.13,-12183.975,-11481.93
1764433724.5355551,-2074.185,-14544.405,-43258.545,-31492.08,-29280.015,-23925.105,-12180.555,-11477.79
1764433724.5355551,-2077.92,-14544.225,-43257.015,-31495.365,-29282.805,-23935.095,-12177.54,-11474.46
1764433724.5355551,-2080.08,-14543.64,-43256.07,-31496.625,-29284.155,-23939.37,-12175.155,-11472.705
1764433724.5355551,-2080.89,-14545.35,-43258.545,-31497.975,-29285.64,-23939.73,-12176.73,-11475.315
1764433724.5355551,-2082.06,-14548.5,-43263.765,-31500.225,-29287.395,-23936.895,-12181.59,-11481.795
1764433724.582602,-2077.065,-14546.34,-43263.135,-31495.905,-29282.94,-23926.905,-12183.48,-11482.965
1764433724.582602,-2077.56,-14550.12,-43269.255,-31496.625,-29284.92,-23921.64,-12190.365,-11491.02
1764433724.582602,-2075.085,-14549.625,-43268.535,-31494.645,-29283.255,-23915.79,-12191.715,-11491.47
1764433724.582602,-2070.495,-14545.035,-43261.83,-31489.83,-29278.215,-23912.1,-12187.08,-11485.17
1764433724.582602,-2072.205,-14544.675,-43259.94,-31490.19,-29279.25,-23918.085,-12184.245,-11482.02
1764433724.583605,-2074.5,-14543.19,-43257.6,-31490.595,-29279.52,-23925.555,-12179.475,-11476.8
1764433724.583605,-2077.965,-14543.19,-43255.89,-31494.015,-29281.815,-23935.05,-12175.515,-11473.155
1764433724.583605,-2080.485,-14543.55,-43255.62,-31496.04,-29283.84,-23940.63,-12173.67,-11471.715
1764433724.583605,-2084.4,-14548.185,-43260.795,-31500.405,-29288.115,-23943.87,-12178.44,-11477.07
1764433724.583605,-2081.61,-14547.465,-43261.245,-31498.83,-29286.27,-23936.175,-12180.87,-11478.645
1764433724.5845978,-2075.94,-14545.17,-43260.84,-31493.52,-29281.635,-23925.555,-12182.94,-11479.995
1764433724.5845978,-2077.065,-14549.625,-43267.365,-31495.725,-29283.84,-23920.875,-12190.05,-11489.58
1764433724.5845978,-2075.04,-14549.49,-43266.825,-31493.97,-29281.86,-23915.79,-12191.625,-11490.435
1764433724.5845978,-2074.275,-14547.915,-43263.99,-31492.485,-29280.465,-23915.745,-12190.275,-11486.925
1764433724.5855987,-2079.09,-14550.57,-43264.8,-31496.355,-29284.425,-23924.385,-12189.735,-11487.33
1764433724.5855987,-2080.62,-14549.355,-43261.875,-31497.345,-29284.335,-23931.225,-12185.955,-11482.335
1764433724.5855987,-2081.34,-14546.385,-43257.78,-31496.985,-29283.795,-23938.065,-12180.24,-11475.81
1764433724.5855987,-2085.03,-14547.465,-43259.67,-31499.82,-29286.81,-23945.04,-12178.98,-11476.44
1764433724.5855987,-2079.225,-14542.785,-43256.25,-31495.23,-29282.4,-23938.65,-12175.965,-11473.515
1764433724.5865989,-2075.4,-14540.58,-43256.745,-31492.935,-29280.105,-23931.135,-12176.865,-11474.055
1764433724.5865989,-2075.265,-14543.01,-43261.425,-31493.565,-29280.78,-23925.915,-12182.58,-11480.49
1764433724.5865989,-2076.39,-14548.185,-43268.04,-31495.23,-29283.39,-23920.695,-12189.735,-11488.905
1764433724.6269517,-2072.565,-14547.33,-43267.05,-31492.305,-29280.915,-23914.17,-12191.085,-11488.995
1764433724.6279516,-2075.445,-14549.445,-43267.635,-31494.15,-29282.085,-23918.13,-12191.67,-11489.94
1764433724.6279516,-2077.155,-14548.41,-43263.855,-31493.7,-29282.31,-23923.125,-12188.7,-11485.89
1764433724.6279516,-2075.265,-14544.495,-43257.69,-31491.63,-29280.24,-23926.365,-12181.5,-11477.97
1764433724.6279516,-2077.875,-14544.495,-43254.855,-31494.24,-29281.86,-23935.545,-12176.82,-11473.47
1764433724.6279516,-2081.25,-14544.81,-43255.62,-31496.715,-29284.74,-23940.945,-12176.055,-11473.47
1764433724.628949,-2083.86,-14547.465,-43259.76,-31498.83,-29286.81,-23941.665,-12179.88,-11477.34
1764433724.628949,-2080.8,-14547.285,-43261.29,-31496.985,-29285.145,-23935.095,-12182.31,-11480.49
1764433724.628949,-2079.27,-14549.985,-43264.395,-31497.39,-29285.595,-23929.155,-12187.17,-11485.62
1764433724.628949,-2077.515,-14551.875,-43267.32,-31497.03,-29284.83,-23921.82,-12192.705,-11490.795
1764433724.6299455,-2075.67,-14551.785,-43266.825,-31495.545,-29283.03,-23916.645,-12194.055,-11491.605
1764433724.6299455,-2078.64,-14554.62,-43268.22,-31497.795,-29285.64,-23920.875,-12195.54,-11492.865
1764433724.6299455,-2081.655,-14554.8,-43266.195,-31499.73,-29287.395,-23927.175,-12193.155,-11490.48
1764433724.6299455,-2083.995,-14554.08,-43263.495,-31500.99,-29287.98,-23934.78,-12189.24,-11485.98
1764433724.6299455,-2084.76,-14549.895,-43258.59,-31500.135,-29287.305,-23941.755,-12184.605,-11479.545
1764433724.6299455,-2087.955,-14550.255,-43258.59,-31501.845,-29289.42,-23946.345,-12183.3,-11480.04
1764433724.6309457,-2089.26,-14552.595,-43262.505,-31502.79,-29291.13,-23946.48,-12185.055,-11483.325
1764433724.6309457,-2083.05,-14548.77,-43259.67,-31498.515,-29285.55,-23935.68,-12184.56,-11481.345
1764433724.6309457,-2081.88,-14549.805,-43262.685,-31497.93,-29285.37,-23929.605,-12188.43,-11486.25
1764433724.6309457,-2081.43,-14553.855,-43269.3,-31499.01,-29287.08,-23923.89,-12195.18,-11494.35
1764433724.6309457,-2075.67,-14550.435,-43266.24,-31494.06,-29281.59,-23915.07,-12193.56,-11491.38
1764433724.6309457,-2076.12,-14549.13,-43263.495,-31493.475,-29281.14,-23916.285,-12191.22,-11488.545
1764433724.6309457,-2078.415,-14549.355,-43262.505,-31494.915,-29283.12,-23923.26,-12188.97,-11486.25
1764433724.6309457,-2083.095,-14550.615,-43263.0,-31499.055,-29286.675,-23933.07,-12187.125,-11484.765
1764433724.6741707,-2085.57,-14549.94,-43259.805,-31501.035,-29288.565,-23941.755,-12184.425,-11480.13
1764433724.6741707,-2090.7,-14553.135,-43262.325,-31506.03,-29293.2,-23949.945,-12185.37,-11482.2
1764433724.6741707,-2087.505,-14550.165,-43261.2,-31503.69,-29290.365,-23945.175,-12183.885,-11481.165
1764433724.6741707,-2084.94,-14550.3,-43263.045,-31502.79,-29288.43,-23938.425,-12186.36,-11484.045
1764433724.6741707,-2083.59,-14553.225,-43267.05,-31502.745,-29288.61,-23932.62,-12192.39,-11489.58
1764433724.6741707,-2085.03,-14558.49,-43272.945,-31504.005,-29290.14,-23927.355,-12200.175,-11497.905
1764433724.6741707,-2083.005,-14557.32,-43271.28,-31501.08,-29287.71,-23921.1,-12201.03,-11498.355
1764433724.6751783,-2086.83,-14561.145,-43273.125,-31504.32,-29291.94,-23926.995,-12203.235,-11500.785
1764433724.6751783,-2088.855,-14560.92,-43271.19,-31505.445,-29293.065,-23932.665,-12200.715,-11497.545
1764433724.6751783,-2090.295,-14559.12,-43267.365,-31505.265,-29292.795,-23939.55,-12196.53,-11492.505
1764433724.6751783,-2092.725,-14557.005,-43264.62,-31506.435,-29293.92,-23947.785,-12191.22,-11486.835
1764433724.6751783,-2095.11,-14557.5,-43264.8,-31508.145,-29295.405,-23952.375,-12189.465,-11485.845
1764433724.6751783,-2094.3,-14556.87,-43265.79,-31508.28,-29295.315,-23949.675,-12190.14,-11487.375
1764433724.6751783,-2092.005,-14557.005,-43267.905,-31507.38,-29294.235,-23943.6,-12193.2,-11490.39
1764433724.6751783,-2087.055,-14555.52,-43267.815,-31503.465,-29289.78,-23933.52,-12195.18,-11491.695
1764433724.6751783,-2085.255,-14557.59,-43271.415,-31502.79,-29289.24,-23926.005,-12199.86,-11496.915
1764433724.6751783,-2086.83,-14560.65,-43275.105,-31504.68,-29291.13,-23924.7,-12203.865,-11501.235
1764433724.6751783,-2086.695,-14559.345,-43273.305,-31504.32,-29291.265,-23925.78,-12202.515,-11499.66
1764433724.6751783,-2087.37,-14559.255,-43270.605,-31504.635,-29292.21,-23931.225,-12199.095,-11496.465
1764433724.6751783,-2088.405,-14557.545,-43266.465,-31504.545,-29291.22,-23936.67,-12194.82,-11490.615
1764433724.6751783,-2093.49,-14559.255,-43266.33,-31508.64,-29295.045,-23947.92,-12192.705,-11488.68
1764433724.6751783,-2092.725,-14557.14,-43264.665,-31508.145,-29294.145,-23950.665,-12188.745,-11485.035
1764433724.7195263,-2090.475,-14554.53,-43263.54,-31505.445,-29292.39,-23946.12,-12187.89,-11484.855
1764433724.7195263,-2089.755,-14555.205,-43266.24,-31505.355,-29292.84,-23941.35,-12190.815,-11489.445
1764433724.7195263,-2084.58,-14552.415,-43265.745,-31501.44,-29288.79,-23930.595,-12192.03,-11490.615
1764433724.7195263,-2086.245,-14557.86,-43272.675,-31504.59,-29292.165,-23926.23,-12199.815,-11499.66
1764433724.7195263,-2083.68,-14558.265,-43272.585,-31503.33,-29290.905,-23922.045,-12201.255,-11500.515
1764433724.7195263,-2083.095,-14557.365,-43270.065,-31501.98,-29288.745,-23923.215,-12199.77,-11497.095
1764433724.7195263,-2087.505,-14560.065,-43271.145,-31506.03,-29292.75,-23931.54,-12198.33,-11496.42
1764433724.7195263,-2087.595,-14557.455,-43266.87,-31505.715,-29292.75,-23937.615,-12193.155,-11490.48
1764433724.7195263,-2088.27,-14553.63,-43261.155,-31504.815,-29291.58,-23943.69,-12187.755,-11483.775
1764433724.7195263,-2090.7,-14554.395,-43261.38,-31507.155,-29293.695,-23948.505,-12186.99,-11483.19
1764433724.7195263,-2093.265,-14558.13,-43266.015,-31510.26,-29297.565,-23950.125,-12190.635,-11488.545
1764433724.7195263,-2086.155,-14552.82,-43263.495,-31504.14,-29291.715,-23939.55,-12190.095,-11486.34
1764433724.7195263,-2082.42,-14551.47,-43264.215,-31501.845,-29288.79,-23929.965,-12190.905,-11488.5
1764433724.7195263,-2079.72,-14553.675,-43267.005,-31501.35,-29287.71,-23922.09,-12195.0,-11493.585
1764433724.7195263,-2080.35,-14556.78,-43270.245,-31502.205,-29288.79,-23920.74,-12200.04,-11497.185
1764433724.7195263,-2084.535,-14559.57,-43271.865,-31505.265,-29292.075,-23925.33,-12200.85,-11498.49
1764433724.7195263,-2086.74,-14558.49,-43269.255,-31505.355,-29292.075,-23930.82,-12197.7,-11494.71
1764433724.7205403,-2087.145,-14555.745,-43264.62,-31504.455,-29291.13,-23936.445,-12193.245,-11489.13
1764433724.7205403,-2090.52,-14555.97,-43262.19,-31506.57,-29293.335,-23945.355,-12189.6,-11484.855
1764433724.7205403,-2094.12,-14556.78,-43264.17,-31509.675,-29296.125,-23950.665,-12189.33,-11485.485
1764433724.7205403,-2097.045,-14560.065,-43269.12,-31512.915,-29299.005,-23951.52,-12193.065,-11490.255
1764433724.7205403,-2093.13,-14558.58,-43268.94,-31509.405,-29295.315,-23943.42,-12194.325,-11491.695
1764433724.7205403,-2088.045,-14557.185,-43268.985,-31505.805,-29291.94,-23933.43,-12197.115,-11493.81
1764433724.7210522,-2089.8,-14561.91,-43275.69,-31508.145,-29294.91,-23928.885,-12204.315,-11502.765
1764433724.7661688,-2085.165,-14559.165,-43272.855,-31503.285,-29289.915,-23921.145,-12203.73,-11500.605
1764433724.7661688,-2088.63,-14562.0,-43275.195,-31505.625,-29292.525,-23926.185,-12204.315,-11501.64
1764433724.7661688,-2090.745,-14561.64,-43272.72,-31506.525,-29293.515,-23931.945,-12201.48,-11499.03
1764433724.7661688,-2089.44,-14557.68,-43265.7,-31503.465,-29290.68,-23934.645,-12194.82,-11491.065
1764433724.7661688,-2093.445,-14558.13,-43263.9,-31506.39,-29292.615,-23943.33,-12191.58,-11488.095
1764433724.7661688,-2098.845,-14560.74,-43266.465,-31510.53,-29296.215,-23949.855,-12191.715,-11490.39
1764433724.7661688,-2096.37,-14559.84,-43266.42,-31509.09,-29294.505,-23946.03,-12191.895,-11491.2
1764433724.7661688,-2088.72,-14554.935,-43263.405,-31502.25,-29287.755,-23934.825,-12190.545,-11489.535
1764433724.7676811,-2085.84,-14555.745,-43266.195,-31500.405,-29286.09,-23926.635,-12193.695,-11493.945
1764433724.7676811,-2087.685,-14560.83,-43272.18,-31502.655,-29288.295,-23921.46,-12200.895,-11501.865
1764433724.7676811,-2087.505,-14561.775,-43273.305,-31501.71,-29287.125,-23917.455,-12204.09,-11503.665
1764433724.7676811,-2087.325,-14561.325,-43270.965,-31501.35,-29287.17,-23918.67,-12202.92,-11501.55
1764433724.7676811,-2088.99,-14560.38,-43268.67,-31502.205,-29288.745,-23925.42,-12200.22,-11497.77
1764433724.7686949,-2085.795,-14554.17,-43261.11,-31498.245,-29285.37,-23929.515,-12191.94,-11487.87
1764433724.7686949,-2087.82,-14552.73,-43258.41,-31500.09,-29287.17,-23938.695,-12187.305,-11482.605
1764433724.7686949,-2090.745,-14554.215,-43259.895,-31504.545,-29291.715,-23945.94,-12187.755,-11484.36
1764433724.7686949,-2094.39,-14559.435,-43266.465,-31509.855,-29296.485,-23949.27,-12193.38,-11490.615
1764433724.7686949,-2088.135,-14556.105,-43264.08,-31505.445,-29291.4,-23940.27,-12193.515,-11489.445
1764433724.7686949,-2085.48,-14555.97,-43266.51,-31504.32,-29290.635,-23933.43,-12197.34,-11493.495
1764433724.7686949,-2087.055,-14560.02,-43273.215,-31507.245,-29294.37,-23929.92,-12204.45,-11502.495
1764433724.7686949,-2086.245,-14561.28,-43274.25,-31507.02,-29294.73,-23928.255,-12207.375,-11504.43
1764433724.7686949,-2087.415,-14561.28,-43272.945,-31507.38,-29296.08,-23932.08,-12207.33,-11502.675
1764433724.8126693,-2087.28,-14559.075,-43269.03,-31507.605,-29296.71,-23937.57,-12204.27,-11498.265
1764433724.8126693,-2094.255,-14563.395,-43271.955,-31514.58,-29304.315,-23951.655,-12204.855,-11498.94
1764433724.8126693,-2095.695,-14561.415,-43268.76,-31516.29,-29305.395,-23959.485,-12199.68,-11493.09
1764433724.8126693,-2092.365,-14556.42,-43263.72,-31512.465,-29302.02,-23958.315,-12194.01,-11487.15
1764433724.813686,-2091.87,-14556.15,-43264.98,-31511.97,-29300.67,-23955.615,-12195.855,-11489.535
1764433724.813686,-2090.34,-14557.005,-43267.365,-31510.44,-29298.465,-23948.145,-12197.655,-11493.18
1764433724.813686,-2089.98,-14559.795,-43270.785,-31509.72,-29296.98,-23939.73,-12201.525,-11498.625
1764433724.813686,-2088.54,-14561.685,-43274.475,-31508.145,-29295.855,-23930.73,-12206.565,-11504.565
1764433724.813686,-2088.315,-14562.99,-43275.915,-31507.11,-29294.865,-23927.625,-12207.465,-11506.815
1764433724.813686,-2088.495,-14562.315,-43273.305,-31506.165,-29293.2,-23928.93,-12204.99,-11503.485
1764433724.813686,-2088.855,-14560.605,-43269.705,-31505.175,-29292.48,-23932.53,-12201.165,-11498.22
1764433724.813686,-2090.205,-14559.3,-43266.42,-31505.04,-29291.805,-23938.74,-12196.125,-11492.865
1764433724.813686,-2090.115,-14556.015,-43261.155,-31503.69,-29289.465,-23943.87,-12189.195,-11486.07
1764433724.813686,-2093.49,-14557.995,-43263.0,-31507.38,-29292.39,-23948.1,-12188.295,-11487.015
1764433724.813686,-2090.52,-14555.52,-43262.145,-31504.365,-29289.69,-23941.98,-12187.125,-11485.575
1764433724.813686,-2088.945,-14556.24,-43265.115,-31503.87,-29288.79,-23937.255,-12189.78,-11489.85
1764433724.813686,-2082.24,-14552.46,-43263.99,-31499.415,-29283.705,-23926.455,-12190.77,-11489.22
1764433724.813686,-2079.945,-14554.44,-43267.14,-31498.56,-29283.615,-23918.76,-12195.945,-11494.53
1764433724.813686,-2077.515,-14554.89,-43267.05,-31496.625,-29282.04,-23914.395,-12196.935,-11494.575
1764433724.813686,-2078.28,-14554.89,-43265.745,-31497.345,-29281.41,-23916.78,-12195.945,-11492.64
1764433724.813686,-2083.635,-14557.05,-43266.465,-31501.035,-29285.19,-23925.645,-12195.405,-11492.505
1764433724.815195,-2085.66,-14555.88,-43263.63,-31502.115,-29287.08,-23934.555,-12192.435,-11488.32
1764433724.815195,-2092.095,-14558.715,-43264.44,-31507.695,-29292.165,-23947.155,-12192.12,-11487.42
1764433724.815195,-2090.88,-14555.115,-43261.155,-31506.03,-29290.32,-23947.2,-12188.07,-11483.505
1764433724.8565247,-2090.745,-14555.655,-43263.405,-31506.39,-29291.22,-23944.86,-12188.7,-11485.845
1764433724.8565247,-2090.115,-14558.04,-43267.05,-31506.885,-29292.57,-23939.955,-12193.11,-11490.345
1764433724.858119,-2085.975,-14557.185,-43268.22,-31504.005,-29290.05,-23930.82,-12196.89,-11493.54
1764433724.858119,-2086.11,-14560.29,-43273.17,-31504.995,-29290.68,-23925.015,-12202.605,-11501.28
1764433724.858119,-2080.485,-14556.24,-43269.39,-31498.92,-29284.92,-23917.455,-12200.805,-11498.265
1764433724.858119,-2081.565,-14556.375,-43268.85,-31499.055,-29285.73,-23920.11,-12199.59,-11496.87
1764433724.858119,-2086.38,-14557.995,-43269.345,-31502.52,-29288.475,-23928.39,-12198.195,-11495.925
1764433724.858119,-2086.695,-14555.07,-43263.675,-31501.44,-29287.305,-23934.96,-12192.93,-11489.22
1764433724.858119,-2091.645,-14556.015,-43263.045,-31505.625,-29291.355,-23945.58,-12189.915,-11486.88
1764433724.858119,-2090.475,-14553.765,-43260.75,-31505.13,-29290.365,-23946.615,-12187.53,-11483.28
1764433724.858119,-2089.53,-14554.395,-43261.605,-31504.635,-29289.33,-23943.555,-12188.07,-11484.945
1764433724.858119,-2087.37,-14555.205,-43263.27,-31503.33,-29288.07,-23937.615,-12190.905,-11488.05
1764433724.8591335,-2084.805,-14555.43,-43266.015,-31501.35,-29286.945,-23929.47,-12194.595,-11492.055
1764433724.8591335,-2082.96,-14556.555,-43268.805,-31499.865,-29286.18,-23921.775,-12199.32,-11496.87
1764433724.861137,-2082.33,-14556.69,-43269.345,-31498.155,-29284.515,-23918.76,-12200.895,-11497.815
1764433724.861137,-2079.675,-14552.91,-43263.99,-31494.69,-29281.5,-23918.04,-12196.17,-11492.73
1764433724.861137,-2083.14,-14554.53,-43264.395,-31498.38,-29284.605,-23926.095,-12193.74,-11491.83
1764433724.861137,-2083.095,-14550.84,-43259.085,-31497.165,-29282.67,-23931.18,-12187.98,-11484.315
1764433724.861137,-2088.09,-14552.415,-43258.59,-31500.72,-29286.09,-23941.17,-12185.82,-11482.02
1764433724.861137,-2091.915,-14555.565,-43261.335,-31504.365,-29290.995,-23947.335,-12186.72,-11483.55
1764433724.861137,-2088.0,-14552.505,-43260.345,-31501.44,-29287.98,-23941.98,-12186.135,-11482.92
1764433724.861137,-2085.255,-14552.64,-43262.325,-31499.955,-29286.405,-23934.87,-12188.745,-11485.665
1764433724.861137,-2083.14,-14553.315,-43265.07,-31498.065,-29285.19,-23927.445,-12191.985,-11490.03
1764433724.861137,-2083.455,-14556.42,-43269.615,-31498.515,-29286.45,-23922.0,-12197.43,-11497.365
1764433724.9067636,-2080.44,-14554.62,-43267.275,-31495.14,-29283.84,-23917.005,-12198.06,-11496.105
1764433724.9067636,-2082.555,-14555.745,-43267.005,-31497.21,-29284.83,-23920.965,-12197.205,-11496.015
1764433724.9067636,-2084.58,-14556.33,-43264.89,-31498.47,-29285.865,-23926.815,-12194.82,-11492.19
1764433724.9067636,-2086.74,-14554.8,-43262.1,-31499.19,-29286.315,-23933.925,-12191.4,-11487.015
1764433724.9067636,-2086.83,-14551.425,-43257.24,-31498.92,-29285.505,-23940.72,-12185.955,-11481.03
1764433724.9067636,-2089.89,-14553.54,-43259.445,-31502.07,-29288.79,-23946.93,-12185.415,-11482.065
1764433724.9067636,-2088.18,-14552.595,-43259.445,-31500.81,-29287.485,-23942.52,-12186.045,-11482.965
1764433724.9067636,-2087.325,-14553.855,-43262.64,-31501.53,-29287.395,-23936.805,-12189.645,-11488.005
1764433724.9067636,-2080.98,-14550.75,-43261.335,-31496.94,-29282.13,-23925.825,-12190.725,-11489.04
1764433724.9067636,-2079.135,-14552.955,-43265.385,-31495.14,-29281.86,-23918.265,-12194.64,-11494.215
1764433724.9067636,-2075.13,-14550.57,-43262.865,-31491.09,-29278.26,-23911.965,-12193.65,-11490.93
1764433724.9067636,-2078.37,-14552.19,-43263.765,-31493.295,-29280.42,-23917.86,-12193.965,-11490.975
1764433724.9067636,-2078.865,-14550.39,-43259.805,-31492.665,-29279.43,-23922.585,-12190.14,-11486.07
1764433724.9067636,-2084.715,-14552.19,-43260.255,-31496.76,-29283.615,-23933.43,-12188.79,-11484.63
1764433724.9067636,-2084.625,-14548.095,-43254.63,-31495.59,-29283.39,-23939.235,-12182.535,-11478.24
1764433724.9075048,-2085.795,-14547.87,-43254.225,-31496.13,-29284.38,-23941.935,-12180.645,-11477.745
1764433724.9075048,-2085.03,-14549.175,-43256.925,-31497.615,-29285.055,-23939.865,-12182.805,-11480.985
1764433724.9075048,-2083.455,-14550.705,-43259.13,-31497.705,-29284.56,-23933.925,-12185.55,-11484.81
1764433724.9075048,-2076.705,-14547.51,-43257.69,-31492.575,-29279.205,-23922.36,-12186.765,-11484.495
1764433724.9075048,-2075.58,-14549.895,-43261.785,-31492.89,-29279.835,-23915.88,-12191.895,-11490.39
1764433724.9075048,-2076.705,-14552.46,-43264.305,-31493.205,-29281.095,-23914.665,-12194.055,-11492.775
1764433724.9075048,-2074.815,-14549.805,-43260.435,-31491.135,-29278.71,-23915.385,-12190.905,-11487.42
1764433724.9501734,-2079.36,-14551.695,-43260.48,-31494.645,-29281.455,-23924.205,-12189.645,-11486.115
1764433724.9501734,-2079.54,-14548.005,-43255.08,-31493.07,-29280.735,-23930.145,-12184.11,-11479.545
1764433724.9501734,-2086.245,-14551.425,-43256.52,-31499.145,-29286.045,-23942.97,-12182.805,-11478.87
1764433724.9511895,-2086.695,-14550.165,-43255.8,-31499.73,-29286.99,-23944.905,-12180.555,-11476.845
1764433724.9511895,-2083.86,-14547.87,-43254.99,-31498.245,-29284.74,-23939.055,-12180.96,-11476.98
1764433724.9511895,-2083.68,-14550.48,-43258.77,-31499.145,-29285.235,-23934.285,-12184.965,-11482.56
1764433724.9511895,-2077.065,-14547.555,-43257.42,-31493.7,-29280.195,-23922.18,-12186.405,-11483.595
1764433724.9511895,-2075.355,-14548.995,-43260.705,-31493.34,-29279.88,-23914.89,-12190.455,-11488.815
1764433724.9511895,-2077.47,-14552.37,-43263.495,-31495.365,-29282.355,-23915.295,-12194.145,-11492.235
1764433724.9511895,-2077.965,-14551.83,-43261.47,-31494.6,-29282.355,-23918.355,-12193.47,-11490.525
1764433724.9511895,-2079.54,-14551.065,-43259.445,-31495.365,-29282.895,-23924.88,-12190.32,-11486.565
1764433724.9511895,-2082.555,-14551.155,-43257.285,-31496.805,-29284.38,-23933.34,-12187.035,-11483.37
1764433724.951697,-2085.345,-14550.795,-43255.575,-31498.92,-29286.315,-23942.565,-12183.3,-11478.915
1764433724.951697,-2083.59,-14547.42,-43252.695,-31497.885,-29285.28,-23943.42,-12179.79,-11474.73
1764433724.951697,-2084.94,-14550.435,-43257.105,-31500.63,-29288.43,-23943.42,-12182.985,-11479.86
1764433724.951697,-2077.245,-14546.115,-43254.495,-31494.465,-29282.22,-23932.395,-12181.905,-11478.015
1764433724.951697,-2074.23,-14546.43,-43257.42,-31493.295,-29280.465,-23924.61,-12185.505,-11482.74
1764433724.951697,-2075.355,-14550.3,-43263.27,-31494.87,-29282.22,-23919.255,-12192.39,-11490.615
1764433724.951697,-2071.215,-14547.645,-43260.255,-31491.135,-29278.44,-23913.135,-12191.67,-11488.365
1764433724.951697,-2074.77,-14550.66,-43261.47,-31494.42,-29281.005,-23918.94,-12191.715,-11488.68
1764433724.951697,-2076.93,-14550.795,-43258.545,-31494.915,-29281.815,-23925.42,-12189.015,-11485.395
1764433724.951697,-2077.47,-14548.59,-43253.415,-31494.105,-29281.95,-23931.405,-12183.48,-11479.32
1764433724.951697,-2082.735,-14549.805,-43253.55,-31498.605,-29285.955,-23941.755,-12180.51,-11477.61
1764433724.951697,-2081.295,-14546.79,-43249.905,-31497.12,-29284.02,-23942.115,-12177.45,-11474.235
1764433724.999855,-2082.6,-14548.59,-43254.18,-31498.965,-29285.505,-23940.765,-12180.87,-11478.915
1764433724.999855,-2083.14,-14551.02,-43259.31,-31499.91,-29286.765,-23936.805,-12186.09,-11485.215
1764433724.999855,-2076.615,-14548.32,-43257.87,-31494.69,-29283.03,-23925.645,-12187.665,-11485.125
1764433724.999855,-2076.435,-14552.37,-43262.91,-31495.32,-29283.39,-23919.57,-12193.335,-11491.695
1764433724.999855,-2075.85,-14552.19,-43262.865,-31494.42,-29281.86,-23916.195,-12194.865,-11492.64
1764433724.999855,-2075.13,-14550.165,-43259.895,-31493.16,-29280.42,-23917.86,-12191.895,-11488.23
1764433724.999855,-2074.455,-14547.33,-43256.205,-31492.035,-29279.07,-23921.46,-12186.72,-11481.66
1764433724.999855,-2078.415,-14547.105,-43254.63,-31494.915,-29281.86,-23930.595,-12183.345,-11478.42
1764433724.999855,-2083.005,-14547.69,-43253.64,-31498.38,-29285.01,-23940.27,-12180.735,-11475.63
1764433724.999855,-2083.59,-14547.51,-43253.325,-31498.92,-29286.135,-23942.7,-12179.52,-11475.54
1764433724.999855,-2082.78,-14546.925,-43254.9,-31498.83,-29285.595,-23939.145,-12180.15,-11477.43
1764433724.999855,-2079.99,-14546.43,-43256.115,-31496.58,-29283.57,-23932.935,-12182.265,-11479.14
1764433724.999855,-2076.84,-14546.925,-43258.23,-31495.14,-29281.095,-23924.97,-12185.955,-11483.325
1764433724.999855,-2076.795,-14550.345,-43263.045,-31496.265,-29281.32,-23919.705,-12192.57,-11490.615
1764433724.999855,-2078.325,-14553.18,-43265.115,-31497.075,-29283.66,-23919.66,-12196.53,-11494.305
1764433724.999855,-2079.765,-14553.315,-43263.18,-31497.615,-29284.29,-23922.63,-12195.18,-11491.695
1764433724.999855,-2081.79,-14553.27,-43261.515,-31498.785,-29285.505,-23929.695,-12191.805,-11487.69
1764433724.999855,-2084.4,-14552.595,-43258.635,-31500.045,-29286.99,-23937.525,-12188.835,-11482.605
1764433724.999855,-2085.345,-14549.58,-43254.0,-31499.145,-29286.765,-23942.835,-12183.03,-11477.295
1764433724.999855,-2089.935,-14552.37,-43257.015,-31503.195,-29290.32,-23948.64,-12183.795,-11480.805
1764433724.999855,-2090.07,-14554.125,-43260.345,-31503.825,-29291.265,-23946.615,-12186.945,-11483.73
1764433724.999855,-2086.11,-14553.0,-43260.975,-31501.395,-29288.655,-23938.83,-12189.33,-11485.755
1764433724.999855,-2080.08,-14550.57,-43260.39,-31497.255,-29284.11,-23927.67,-12190.68,-11486.7
1764433724.999855,-2079.765,-14553.675,-43264.17,-31497.84,-29284.335,-23921.64,-12195.945,-11492.73
1764433725.046777,-2076.3,-14550.705,-43261.29,-31493.565,-29279.79,-23916.015,-12195.135,-11490.345
1764433725.046777,-2078.505,-14551.56,-43261.065,-31494.24,-29281.635,-23920.515,-12194.19,-11489.31
1764433725.046777,-2083.905,-14554.755,-43261.965,-31498.515,-29285.64,-23929.92,-12193.065,-11489.265
1764433725.046777,-2084.76,-14551.605,-43256.25,-31497.255,-29284.065,-23935.32,-12186.9,-11481.93
1764433725.046777,-2090.7,-14553.99,-43257.465,-31501.89,-29288.385,-23946.165,-12185.955,-11481.03
1764433725.046777,-2087.73,-14549.76,-43254.045,-31499.01,-29284.56,-23944.59,-12182.715,-11476.395
1764433725.046777,-2085.48,-14549.76,-43255.035,-31498.155,-29283.39,-23941.17,-12183.435,-11478.33
1764433725.046777,-2083.995,-14551.065,-43258.05,-31497.975,-29283.03,-23935.905,-12186.225,-11483.145
1764433725.046777,-2079.09,-14549.49,-43258.5,-31494.555,-29280.33,-23925.285,-12188.835,-11485.17
1764433725.046777,-2080.395,-14554.26,-43264.53,-31496.715,-29282.49,-23920.605,-12196.08,-11493.495
1764433725.046777,-2076.84,-14552.01,-43261.38,-31492.305,-29278.89,-23915.205,-12195.18,-11491.29
1764433725.046777,-2079.54,-14552.91,-43261.065,-31493.79,-29280.24,-23919.795,-12194.19,-11490.39
1764433725.046777,-2078.235,-14548.545,-43256.295,-31491.855,-29277.765,-23923.35,-12188.565,-11483.415
1764433725.046777,-2081.16,-14548.455,-43254.09,-31493.88,-29279.655,-23931.945,-12185.145,-11479.905
1764433725.046777,-2087.595,-14552.055,-43255.98,-31499.64,-29284.92,-23943.645,-12184.065,-11479.59
1764433725.046777,-2086.47,-14550.615,-43253.82,-31499.145,-29283.48,-23944.41,-12181.005,-11476.44
1764433725.046777,-2082.24,-14547.015,-43252.38,-31495.365,-29279.7,-23936.94,-12180.15,-11475.675
1764433725.046777,-2077.155,-14544.9,-43251.345,-31491.27,-29277.045,-23928.12,-12180.105,-11476.08
1764433725.046777,-2072.97,-14544.765,-43253.235,-31488.075,-29273.805,-23918.94,-12182.85,-11479.905
1764433725.047791,-2070.99,-14546.88,-43255.89,-31486.68,-29272.59,-23912.145,-12188.385,-11484.72
1764433725.047791,-2072.52,-14549.13,-43258.545,-31489.02,-29274.21,-23912.37,-12190.545,-11487.33
1764433725.047791,-2069.505,-14544.63,-43253.28,-31485.645,-29270.79,-23911.605,-12185.325,-11480.94
1764433725.0912805,-2071.665,-14544.135,-43251.255,-31486.545,-29271.465,-23917.095,-12181.68,-11477.16
1764433725.0912805,-2076.795,-14546.115,-43250.94,-31490.55,-29274.84,-23927.985,-12179.88,-11475.315
1764433725.0912805,-2082.015,-14547.69,-43252.11,-31495.545,-29279.115,-23938.515,-12179.025,-11474.46
1764433725.0912805,-2085.075,-14549.76,-43254.045,-31498.695,-29283.345,-23943.015,-12179.61,-11476.8
1764433725.0912805,-2080.44,-14546.295,-43251.84,-31494.78,-29279.745,-23936.175,-12179.115,-11475.54
1764433725.0912805,-2076.345,-14545.17,-43252.155,-31491.225,-29276.505,-23928.12,-12181.095,-11477.79
1764433725.0912805,-2073.555,-14545.08,-43253.91,-31489.38,-29274.075,-23919.165,-12183.39,-11480.94
1764433725.0912805,-2071.44,-14546.43,-43256.61,-31489.11,-29273.04,-23911.47,-12188.025,-11484.99
1764433725.0918016,-2070.945,-14547.465,-43257.78,-31488.84,-29273.49,-23909.94,-12189.87,-11486.43
1764433725.0918016,-2071.17,-14546.475,-43255.575,-31488.03,-29272.545,-23912.595,-12186.855,-11482.83
1764433725.0918016,-2073.78,-14545.845,-43252.65,-31488.66,-29273.49,-23918.85,-12183.48,-11479.095
1764433725.0918016,-2076.525,-14544.495,-43249.635,-31489.335,-29274.885,-23927.355,-12178.71,-11473.74
1764433725.0918016,-2081.385,-14546.385,-43249.455,-31494.105,-29279.025,-23938.02,-12177.54,-11472.705
1764433725.0918016,-2080.98,-14545.395,-43248.6,-31493.295,-29279.295,-23938.74,-12176.505,-11471.4
1764433725.0918016,-2083.68,-14549.445,-43253.955,-31496.985,-29282.445,-23939.505,-12181.23,-11477.295
1764433725.0918016,-2078.145,-14546.34,-43252.29,-31492.665,-29277.855,-23929.965,-12181.59,-11477.655
1764433725.0918016,-2074.545,-14546.52,-43255.08,-31490.325,-29275.65,-23920.74,-12184.695,-11481.615
1764433725.0918016,-2074.905,-14549.58,-43259.445,-31490.865,-29277.045,-23914.845,-12190.365,-11488.275
1764433725.0918016,-2074.32,-14550.03,-43259.355,-31489.38,-29275.92,-23912.505,-12190.68,-11488.365
1764433725.0918016,-2074.545,-14549.715,-43257.825,-31488.93,-29274.84,-23915.7,-12188.07,-11485.08
1764433725.0918016,-2075.22,-14548.365,-43255.35,-31488.705,-29274.84,-23921.055,-12183.885,-11480.49
1764433725.0918016,-2075.715,-14545.08,-43249.59,-31488.93,-29273.67,-23927.13,-12178.44,-11473.335
1764433725.0918016,-2080.53,-14545.89,-43249.32,-31492.665,-29277.27,-23936.715,-12176.28,-11471.355
1764433725.0918016,-2083.905,-14548.41,-43252.92,-31495.68,-29280.645,-23941.845,-12177.63,-11475.045
1764433725.1399257,-2083.005,-14549.445,-43254.675,-31496.22,-29281.005,-23938.965,-12180.15,-11477.88
1764433725.1399257,-2078.82,-14548.365,-43255.035,-31493.295,-29277.855,-23930.37,-12182.04,-11478.645
1764433725.1399257,-2073.105,-14545.845,-43254.315,-31488.39,-29273.13,-23918.535,-12183.39,-11480.22
1764433725.1399257,-2073.195,-14549.13,-43258.095,-31489.065,-29273.715,-23913.0,-12188.7,-11486.52
1764433725.1399257,-2069.055,-14545.44,-43254.045,-31484.475,-29269.215,-23907.195,-12186.99,-11483.055
1764433725.1399257,-2070.585,-14545.44,-43253.055,-31485.51,-29269.665,-23911.38,-12185.685,-11481.39
1764433725.1399257,-2075.985,-14548.59,-43253.55,-31489.2,-29273.67,-23920.47,-12184.605,-11481.345
1764433725.1399257,-2075.715,-14545.575,-43247.7,-31488.165,-29272.23,-23926.32,-12178.71,-11473.605
1764433725.1399257,-2081.25,-14548.23,-43249.32,-31493.835,-29276.865,-23937.84,-12177.9,-11472.66
1764433725.1399257,-2084.13,-14550.03,-43251.255,-31495.5,-29279.7,-23940.27,-12179.52,-11474.28
1764433725.1399257,-2080.53,-14547.15,-43250.355,-31492.62,-29276.82,-23934.33,-12179.25,-11474.145
1764433725.1399257,-2076.48,-14546.34,-43251.48,-31490.325,-29274.705,-23927.265,-12180.51,-11476.935
1764433725.1399257,-2076.84,-14550.345,-43257.6,-31492.215,-29276.28,-23921.595,-12187.845,-11485.17
1764433725.1399257,-2076.615,-14552.82,-43261.335,-31492.35,-29276.19,-23915.16,-12192.435,-11490.615
1764433725.1399257,-2072.97,-14549.445,-43257.645,-31488.39,-29272.005,-23909.58,-12190.95,-11487.42
1764433725.1399257,-2075.805,-14549.805,-43256.52,-31489.335,-29272.815,-23914.575,-12188.115,-11485.665
1764433725.1399257,-2075.31,-14547.015,-43252.515,-31488.075,-29272.14,-23918.805,-12183.615,-11479.905
1764433725.1399257,-2081.43,-14549.985,-43253.505,-31493.25,-29277.45,-23930.64,-12182.715,-11478.33
1764433725.1399257,-2084.715,-14549.31,-43251.975,-31495.905,-29279.79,-23939.37,-12179.88,-11474.505
1764433725.1399257,-2083.14,-14546.475,-43249.32,-31493.835,-29278.125,-23938.29,-12176.55,-11471.67
1764433725.1399257,-2083.995,-14549.85,-43253.415,-31496.355,-29279.97,-23937.48,-12179.925,-11477.25
1764433725.1399257,-2076.57,-14545.71,-43251.165,-31490.64,-29274.21,-23926.68,-12178.845,-11475.945
1764433725.1841438,-2073.915,-14546.52,-43254.18,-31488.705,-29272.5,-23918.445,-12182.4,-11480.715
1764433725.1841438,-2074.905,-14551.155,-43259.22,-31491.45,-29273.265,-23913.945,-12189.195,-11487.24
1764433725.1841438,-2073.015,-14550.39,-43257.645,-31489.155,-29271.06,-23911.29,-12189.33,-11486.295
1764433725.1841438,-2070.63,-14546.52,-43252.245,-31485.105,-29267.865,-23911.515,-12184.65,-11480.445
1764433725.1841438,-2076.39,-14549.265,-43253.505,-31489.605,-29272.32,-23921.19,-12183.21,-11480.175
1764433725.1841438,-2077.83,-14547.24,-43250.4,-31490.415,-29273.22,-23928.255,-12178.08,-11475.27
1764433725.185138,-2078.82,-14544.99,-43246.665,-31491.045,-29273.31,-23935.41,-12173.13,-11469.87
1764433725.185138,-2076.705,-14541.93,-43244.415,-31489.65,-29271.555,-23934.735,-12171.015,-11466.27
1764433725.185138,-2076.3,-14542.92,-43247.115,-31490.28,-29272.455,-23932.215,-12173.895,-11469.96
1764433725.185138,-2074.005,-14543.28,-43248.78,-31488.48,-29270.475,-23925.24,-12176.415,-11472.705
1764433725.185138,-2072.07,-14545.845,-43251.84,-31487.49,-29269.44,-23917.095,-12181.005,-11477.745
1764433725.185138,-2072.745,-14549.715,-43257.555,-31489.47,-29271.6,-23912.415,-12187.44,-11484.9
1764433725.185138,-2070.225,-14547.375,-43255.935,-31486.905,-29269.53,-23909.13,-12186.315,-11483.505
1764433725.185138,-2068.245,-14543.19,-43250.355,-31482.63,-29266.065,-23909.625,-12181.23,-11477.16
1764433725.185138,-2073.42,-14545.89,-43251.12,-31487.175,-29270.34,-23918.49,-12180.69,-11476.845
1764433725.185138,-2074.77,-14544.18,-43247.025,-31486.68,-29270.295,-23925.87,-12176.37,-11470.77
1764433725.185138,-2080.665,-14546.52,-43247.655,-31491.72,-29274.885,-23936.67,-12175.47,-11469.825
1764433725.185138,-2080.08,-14544.63,-43246.215,-31491.27,-29274.075,-23936.76,-12174.345,-11468.34
1764433725.185138,-2081.655,-14546.835,-43250.4,-31493.07,-29275.83,-23935.23,-12177.72,-11472.705
1764433725.185138,-2075.4,-14543.505,-43249.23,-31487.22,-29271.015,-23924.835,-12177.63,-11472.165
1764433725.185138,-2071.485,-14543.37,-43251.525,-31485.33,-29268.99,-23915.34,-12180.87,-11476.08
1764433725.185138,-2071.17,-14545.665,-43255.44,-31485.42,-29268.765,-23910.615,-12186.675,-11482.605
1764433725.185138,-2068.02,-14542.965,-43251.705,-31481.37,-29264.49,-23906.025,-12184.2,-11479.32
