Timestamp,Channel1,Channel2,Channel3,Channel4,Channel5,Channel6,Channel7,Channel8
1764433956.887498,-1599.615,-12859.605,-41566.995,-29513.88,-26681.895,-21925.08,-12888.18,-9643.14
1764433956.887498,-1603.1699999999998,-12862.26,-41567.22,-29516.715,-26685.36,-21934.125,-12886.875,-9642.105
1764433956.887498,-1605.105,-12861.315,-41564.43,-29517.48,-26685.945,-21941.415,-12882.825,-9636.3
1764433956.8880038,-1610.145,-12863.07,-41564.61,-29521.98,-26689.59,-21952.44,-12881.295,-9634.545
1764433956.8880038,-1606.59,-12859.02,-41560.155,-29520.18,-26687.34,-21951.315,-12876.75,-9629.775
1764433956.8880038,-1606.095,-12858.795,-41561.82,-29520.495,-26687.115,-21947.805,-12877.695,-9631.62
1764433956.8880038,-1608.075,-12861.765,-41566.635,-29522.385,-26689.5,-21944.565,-12883.32,-9638.64
1764433956.8880038,-1602.765,-12859.02,-41566.5,-29517.39,-26686.035,-21934.035,-12885.12,-9640.53
1764433956.8880038,-1599.12,-12858.48,-41567.49,-29513.52,-26683.47,-21924.225,-12888.405,-9644.04
1764433956.8880038,-1596.915,-12857.985,-41566.5,-29511.765,-26681.58,-21920.985,-12889.17,-9644.175
1764433956.8880038,-1599.12,-12859.56,-41565.915,-29512.89,-26682.525,-21925.395,-12887.235,-9643.005
1764433956.8880038,-1605.78,-12864.33,-41568.975,-29518.875,-26688.015,-21936.915,-12888.27,-9644.49
1764433956.8880038,-1606.95,-12862.8,-41565.78,-29519.235,-26688.42,-21943.755,-12883.995,-9639.495
1764433956.8880038,-1606.8149999999998,-12858.705,-41561.37,-29519.055,-26687.34,-21949.515,-12878.145,-9631.575
1764433956.8880038,-1609.515,-12860.415,-41562.135,-29522.025,-26689.23,-21954.015,-12877.695,-9632.115
1764433956.8880038,-1604.07,-12856.905,-41559.57,-29517.705,-26685.045,-21946.95,-12876.345,-9631.305
1764433956.8880038,-1605.645,-12860.415,-41564.835,-29519.73,-26687.34,-21943.62,-12882.285,-9638.19
1764433956.8880038,-1600.11,-12857.895,-41564.205,-29515.455,-26682.795,-21933.09,-12883.32,-9639.54
1764433956.8880038,-1592.235,-12853.44,-41560.785,-29507.715,-26676.27,-21920.22,-12882.87,-9638.55
1764433956.8880038,-1591.29,-12854.16,-41561.325,-29505.96,-26675.145,-21918.015,-12883.815,-9639.09
1764433956.8880038,-1593.0,-12854.205,-41561.505,-29507.085,-26676.36,-21921.705,-12882.645,-9638.37
1764433956.8880038,-1597.14,-12855.87,-41561.415,-29510.055,-26679.87,-21929.805,-12880.98,-9637.38
1764433956.8880038,-1601.01,-12856.725,-41560.38,-29513.565,-26682.03,-21938.895,-12877.875,-9634.005
1764433956.9352798,-1605.465,-12858.93,-41560.92,-29518.335,-26686.035,-21950.145,-12876.435,-9631.71
1764433956.9352798,-1609.0649999999998,-12860.865,-41563.755,-29521.845,-26689.455,-21955.185,-12877.605,-9633.69
1764433956.9352798,-1604.34,-12857.355,-41561.505,-29517.84,-26685.9,-21949.155,-12876.615,-9632.52
1764433956.9362812,-1603.62,-12858.21,-41563.35,-29516.49,-26685.045,-21942.99,-12880.17,-9636.615
1764433956.9362812,-1602.72,-12859.785,-41567.31,-29516.22,-26684.505,-21935.52,-12885.795,-9642.51
1764433956.9362812,-1599.66,-12860.1,-41568.165,-29513.61,-26682.615,-21926.79,-12888.27,-9646.515
1764433956.9362812,-1592.325,-12853.98,-41562.315,-29505.78,-26675.865,-21918.15,-12883.05,-9640.575
1764433956.9362812,-1595.205,-12856.545,-41563.53,-29508.03,-26678.385,-21923.505,-12883.095,-9640.62
1764433956.937278,-1597.41,-12856.815,-41561.955,-29509.245,-26678.7,-21929.67,-12880.17,-9636.48
1764433956.937278,-1597.23,-12853.44,-41556.78,-29508.39,-26677.035,-21935.25,-12874.275,-9629.46
1764433956.937278,-1601.46,-12854.745,-41555.745,-29512.53,-26679.87,-21945.195,-12871.71,-9627.84
1764433956.937278,-1602.99,-12855.96,-41557.095,-29514.78,-26681.895,-21948.795,-12871.845,-9627.84
1764433956.937278,-1602.72,-12856.23,-41558.94,-29514.915,-26682.03,-21946.275,-12873.87,-9630.36
1764433956.937278,-1602.1799999999998,-12856.815,-41561.28,-29514.645,-26681.13,-21940.92,-12878.055,-9635.13
1764433956.9382775,-1597.95,-12856.005,-41561.865,-29510.91,-26678.925,-21930.435,-12881.25,-9638.37
1764433956.9382775,-1594.035,-12854.34,-41561.82,-29506.545,-26676.315,-21919.995,-12882.735,-9640.89
1764433956.9382775,-1590.7949999999998,-12852.45,-41560.29,-29503.665,-26673.345,-21916.125,-12882.015,-9639.315
1764433956.9382775,-1591.02,-12852.54,-41557.905,-29504.385,-26672.715,-21919.68,-12880.08,-9636.795
1764433956.9382775,-1595.79,-12854.07,-41557.995,-29508.795,-26676.315,-21928.05,-12878.28,-9635.13
1764433956.9382775,-1598.355,-12852.225,-41555.115,-29510.19,-26677.125,-21935.385,-12873.375,-9630.585
1764433956.939279,-1598.085,-12849.57,-41551.74,-29510.235,-26676.36,-21941.865,-12867.84,-9624.24
1764433956.939279,-1601.505,-12852.135,-41554.845,-29513.745,-26679.87,-21946.77,-12868.29,-9625.77
1764433956.939279,-1598.9399999999998,-12851.055,-41554.665,-29511.585,-26677.89,-21940.74,-12869.955,-9626.715
1764433956.939279,-1598.58,-12853.755,-41558.67,-29512.125,-26679.195,-21936.51,-12874.815,-9632.34
1764433956.9806082,-1596.96,-12855.195,-41561.73,-29511.225,-26679.105,-21929.49,-12878.865,-9637.47
1764433956.9806082,-1589.625,-12850.515,-41558.895,-29505.15,-26672.58,-21916.035,-12878.64,-9636.435
1764433956.9806082,-1589.04,-12850.335,-41558.76,-29504.34,-26671.545,-21913.92,-12880.215,-9637.245
1764433956.9806082,-1593.135,-12853.845,-41561.145,-29508.435,-26675.28,-21921.165,-12881.25,-9638.73
1764433956.9806082,-1594.3049999999998,-12852.54,-41558.265,-29509.2,-26675.595,-21927.195,-12877.11,-9634.815
1764433956.981622,-1594.755,-12850.065,-41553.99,-29508.75,-26675.055,-21933.675,-12871.53,-9627.93
1764433956.981622,-1600.605,-12852.945,-41555.295,-29514.015,-26680.005,-21944.7,-12870.405,-9625.5
1764433956.981622,-1600.515,-12851.64,-41554.125,-29513.52,-26679.465,-21945.555,-12868.515,-9623.565
1764433956.981622,-1601.865,-12853.845,-41557.455,-29514.015,-26680.59,-21943.395,-12871.53,-9628.47
1764433956.981622,-1602.81,-12857.085,-41562.63,-29515.77,-26682.795,-21940.245,-12877.83,-9635.85
1764433956.981622,-1595.655,-12852.405,-41559.93,-29509.875,-26676.63,-21926.925,-12877.425,-9635.175
1764433956.981622,-1591.2,-12850.425,-41559.615,-29505.33,-26672.805,-21916.665,-12879.225,-9636.75
1764433956.981622,-1590.705,-12852.315,-41561.055,-29505.195,-26673.03,-21915.495,-12880.08,-9638.505
1764433956.981622,-1588.77,-12849.57,-41557.32,-29502.315,-26670.555,-21916.44,-12875.985,-9633.24
1764433956.981622,-1592.82,-12850.83,-41556.87,-29505.42,-26673.345,-21924.54,-12874.14,-9631.26
1764433956.981622,-1591.785,-12846.24,-41550.615,-29503.845,-26671.23,-21928.68,-12867.57,-9622.665
1764433956.981622,-1594.8,-12846.645,-41549.805,-29506.365,-26672.94,-21937.59,-12864.33,-9619.065
1764433956.981622,-1598.445,-12849.885,-41553.09,-29510.46,-26676.99,-21943.53,-12865.14,-9622.035
1764433956.981622,-1595.07,-12847.32,-41552.01,-29507.805,-26675.055,-21937.725,-12864.51,-9622.62
1764433956.981622,-1597.5449999999998,-12851.37,-41557.545,-29509.92,-26678.385,-21935.295,-12871.53,-9630.135
1764433956.981622,-1590.9299999999998,-12847.32,-41555.655,-29504.7,-26673.165,-21923.775,-12871.62,-9631.53
1764433956.981622,-1591.335,-12851.73,-41559.975,-29504.835,-26674.245,-21918.195,-12878.235,-9638.865
1764433956.981622,-1589.355,-12851.325,-41559.39,-29503.125,-26672.4,-21915.27,-12879.09,-9637.92
1764433956.981622,-1591.965,-12852.855,-41559.075,-29505.24,-26674.425,-21919.995,-12878.685,-9637.245
1764433957.0217032,-1593.27,-12851.865,-41556.735,-29506.32,-26674.29,-21925.44,-12875.85,-9633.42
1764433957.0217032,-1601.37,-12856.77,-41559.84,-29512.89,-26680.365,-21938.76,-12876.795,-9633.825
1764433957.0217032,-1602.495,-12855.24,-41556.465,-29513.7,-26680.545,-21944.79,-12872.205,-9627.93
1764433957.0217032,-1605.015,-12856.68,-41558.805,-29516.58,-26682.84,-21949.425,-12872.43,-9629.28
1764433957.0217032,-1599.435,-12852.135,-41556.465,-29512.35,-26678.88,-21942.27,-12870.495,-9627.84
1764433957.0217032,-1598.58,-12853.755,-41559.39,-29511.945,-26678.79,-21936.51,-12874.995,-9633.15
1764433957.0217032,-1596.015,-12853.98,-41561.055,-29509.065,-26677.395,-21927.33,-12878.685,-9637.29
1764433957.0217032,-1592.775,-12853.44,-41561.955,-29505.915,-26674.83,-21918.69,-12881.655,-9640.845
1764433957.0217032,-1592.415,-12854.205,-41562.495,-29506.005,-26674.965,-21917.475,-12882.6,-9641.88
1764433957.0217032,-1597.095,-12858.39,-41564.07,-29510.415,-26679.015,-21924.45,-12884.58,-9643.23
1764433957.0217032,-1596.87,-12855.42,-41559.12,-29509.02,-26677.08,-21928.185,-12879.315,-9636.165
1764433957.0217032,-1602.765,-12857.22,-41559.03,-29512.755,-26680.455,-21938.4,-12877.785,-9634.05
1764433957.0217032,-1610.01,-12862.08,-41562.045,-29520.405,-26686.125,-21951.315,-12878.1,-9634.815
1764433957.0217032,-1607.76,-12859.155,-41560.065,-29518.02,-26683.65,-21950.64,-12875.13,-9631.665
1764433957.0217032,-1604.835,-12857.445,-41559.345,-29515.86,-26682.345,-21945.375,-12874.905,-9632.295
1764433957.0217032,-1607.22,-12861.99,-41564.79,-29518.38,-26685.36,-21943.08,-12880.98,-9640.125
1764433957.0217032,-1603.935,-12861.18,-41566.095,-29515.86,-26683.605,-21933.99,-12884.445,-9643.68
1764433957.0217032,-1599.12,-12858.57,-41565.42,-29511.18,-26679.915,-21923.865,-12886.065,-9644.94
1764433957.0217032,-1594.08,-12854.655,-41561.145,-29506.005,-26674.56,-21917.745,-12883.815,-9640.665
1764433957.0217032,-1596.24,-12855.915,-41561.01,-29507.85,-26676.495,-21922.335,-12882.87,-9639.315
1764433957.0690148,-1601.415,-12858.93,-41562.09,-29513.295,-26680.86,-21932.64,-12881.565,-9639.27
1764433957.0690148,-1604.2949999999998,-12859.065,-41560.11,-29515.995,-26682.345,-21941.415,-12878.64,-9635.31
1764433957.0690148,-1604.88,-12856.77,-41556.375,-29514.735,-26681.355,-21946.815,-12873.24,-9628.11
1764433957.0690148,-1606.455,-12856.68,-41557.815,-29515.77,-26683.155,-21949.245,-12873.42,-9628.47
1764433957.0690148,-1604.475,-12855.915,-41558.085,-29514.78,-26682.12,-21944.295,-12874.005,-9630.27
1764433957.0690148,-1604.4299999999998,-12858.75,-41560.785,-29514.555,-26682.3,-21940.515,-12878.685,-9635.625
1764433957.0690148,-1602.63,-12860.505,-41565.24,-29514.375,-26682.12,-21933.09,-12882.915,-9641.385
1764433957.0690148,-1602.54,-12863.52,-41569.245,-29515.23,-26682.93,-21926.565,-12889.08,-9648.09
1764433957.0690148,-1600.47,-12861.855,-41567.22,-29512.44,-26680.05,-21922.38,-12889.665,-9646.515
1764433957.0690148,-1597.995,-12858.57,-41562.45,-29508.795,-26676.81,-21921.93,-12884.265,-9640.665
1764433957.0690148,-1603.08,-12861.045,-41564.25,-29512.71,-26680.905,-21931.38,-12883.41,-9640.395
1764433957.0690148,-1607.49,-12862.62,-41564.025,-29516.085,-26683.425,-21941.28,-12881.655,-9638.415
1764433957.0690148,-1611.45,-12862.89,-41562.765,-29518.335,-26684.505,-21949.155,-12878.685,-9635.76
1764433957.0690148,-1611.99,-12861.99,-41561.595,-29518.02,-26683.245,-21949.47,-12877.92,-9634.5
1764433957.0690148,-1606.6799999999998,-12857.94,-41558.715,-29513.385,-26678.97,-21941.505,-12876.795,-9632.385
1764433957.0690148,-1606.455,-12860.235,-41563.53,-29514.555,-26680.77,-21937.725,-12882.24,-9638.82
1764433957.0690148,-1605.195,-12861.27,-41567.355,-29514.645,-26682.345,-21931.56,-12886.695,-9645.705
1764433957.0690148,-1600.38,-12859.605,-41566.995,-29510.685,-26679.555,-21921.75,-12889.62,-9646.875
1764433957.0690148,-1602.36,-12862.71,-41570.01,-29513.025,-26682.39,-21923.37,-12892.32,-9649.98
1764433957.0690148,-1604.34,-12863.34,-41568.93,-29514.285,-26684.235,-21929.94,-12892.05,-9648.675
1764433957.0690148,-1602.63,-12859.605,-41563.215,-29512.845,-26682.255,-21934.26,-12885.84,-9641.565
1764433957.0690148,-1609.02,-12862.98,-41564.7,-29518.605,-26686.845,-21946.905,-12885.03,-9640.935
1764433957.0690148,-1612.215,-12863.97,-41564.205,-29522.115,-26689.725,-21956.805,-12883.455,-9638.01
1764433957.0690148,-1611.63,-12861.945,-41562.765,-29521.98,-26690.265,-21958.515,-12881.745,-9636.12
1764433957.1164334,-1607.49,-12857.895,-41561.235,-29518.74,-26687.565,-21952.215,-12880.215,-9635.04
1764433957.1164334,-1607.715,-12859.965,-41565.285,-29520.045,-26688.69,-21948.525,-12886.155,-9641.295
1764433957.1164334,-1605.285,-12859.605,-41567.4,-29518.29,-26688.15,-21940.65,-12889.755,-9645.345
1764433957.1164334,-1605.195,-12863.835,-41572.44,-29520.45,-26690.805,-21936.69,-12896.28,-9652.995
1764433957.1164334,-1604.475,-12865.725,-41573.205,-29520.495,-26691.345,-21936.015,-12897.63,-9653.58
1764433957.1164334,-1604.61,-12864.375,-41570.235,-29519.595,-26690.265,-21937.68,-12894.345,-9649.17
1764433957.1164334,-1602.495,-12860.64,-41564.16,-29516.49,-26685.495,-21939.705,-12888.18,-9641.115
1764433957.1164334,-1606.14,-12861.045,-41563.035,-29517.57,-26685.945,-21947.715,-12883.68,-9636.705
1764433957.1164334,-1612.665,-12864.24,-41564.385,-29522.61,-26690.94,-21958.29,-12882.375,-9636.75
1764433957.1164334,-1613.655,-12863.97,-41564.295,-29524.23,-26691.165,-21959.055,-12881.16,-9636.795
1764433957.1164334,-1609.11,-12861.18,-41561.955,-29520.315,-26686.62,-21950.865,-12880.17,-9635.13
1764433957.1164334,-1610.325,-12863.655,-41567.085,-29521.17,-26687.835,-21946.455,-12885.03,-9641.79
1764433957.1164334,-1603.1699999999998,-12859.74,-41565.915,-29515.23,-26682.615,-21932.865,-12885.3,-9643.275
1764433957.1164334,-1600.875,-12861.135,-41567.715,-29512.845,-26680.995,-21924.54,-12888.72,-9647.19
1764433957.1164334,-1602.495,-12863.655,-41569.065,-29513.205,-26681.67,-21924.405,-12890.205,-9649.305
1764433957.1174412,-1602.405,-12862.125,-41565.645,-29512.08,-26680.095,-21926.115,-12887.055,-9645.3
1764433957.1174412,-1607.22,-12864.645,-41565.42,-29515.41,-26683.065,-21934.485,-12885.93,-9643.365
1764433957.1174412,-1610.235,-12864.24,-41562.99,-29517.21,-26684.505,-21943.62,-12882.87,-9638.82
1764433957.1174412,-1615.8149999999998,-12866.4,-41565.645,-29522.43,-26688.915,-21955.14,-12881.52,-9639.045
1764433957.1174412,-1613.88,-12864.015,-41564.07,-29520.81,-26687.25,-21954.825,-12879.045,-9636.03
1764433957.1174412,-1610.955,-12863.34,-41563.35,-29518.515,-26685.36,-21949.56,-12879.54,-9637.605
1764433957.1174412,-1611.675,-12865.455,-41567.535,-29519.595,-26686.305,-21945.375,-12885.165,-9644.535
1764433957.1174412,-1610.82,-12867.39,-41571.855,-29519.505,-26686.53,-21938.355,-12889.89,-9650.835
1764433957.1174412,-1607.9399999999998,-12867.255,-41573.385,-29517.21,-26685.495,-21930.84,-12893.805,-9654.03
1764433957.1646483,-1604.2949999999998,-12864.825,-41570.415,-29513.52,-26682.12,-21927.69,-12892.365,-9650.655
1764433957.1646483,-1601.775,-12861.54,-41565.555,-29510.28,-26678.7,-21928.32,-12887.19,-9644.4
1764433957.1646483,-1605.78,-12863.43,-41565.195,-29513.97,-26681.04,-21936.33,-12885.21,-9642.555
1764433957.1651597,-1607.4,-12861.495,-41562.27,-29514.735,-26681.13,-21943.98,-12880.71,-9636.57
1764433957.1651597,-1612.8,-12863.79,-41563.305,-29519.46,-26685.09,-21953.88,-12878.91,-9635.94
1764433957.1651597,-1609.515,-12860.145,-41560.02,-29516.895,-26683.47,-21952.62,-12876.3,-9632.565
1764433957.1651597,-1608.615,-12860.73,-41562.09,-29516.67,-26683.65,-21948.885,-12879.36,-9635.715
1764433957.1651597,-1611.9,-12865.005,-41567.85,-29519.82,-26686.755,-21946.68,-12886.38,-9644.265
1764433957.1651597,-1606.725,-12864.285,-41568.615,-29516.355,-26683.65,-21936.24,-12887.685,-9646.83
1764433957.1651597,-1601.415,-12861.855,-41568.12,-29510.955,-26680.23,-21925.62,-12888.9,-9647.865
1764433957.1651597,-1597.5449999999998,-12858.39,-41563.89,-29506.365,-26676.27,-21919.995,-12886.83,-9643.905
1764433957.1651597,-1602.495,-12861.855,-41565.6,-29511.135,-26680.23,-21926.88,-12888.315,-9644.355
1764433957.1651597,-1604.88,-12861.9,-41563.755,-29513.7,-26682.03,-21934.53,-12886.155,-9640.62
1764433957.1651597,-1607.04,-12861.495,-41560.92,-29514.33,-26682.75,-21942.675,-12881.34,-9635.49
1764433957.1651597,-1606.59,-12857.22,-41556.645,-29512.98,-26680.95,-21947.22,-12875.535,-9628.695
1764433957.1651597,-1608.525,-12858.255,-41557.545,-29514.96,-26682.48,-21949.92,-12876.165,-9630.0
1764433957.1651597,-1606.8149999999998,-12858.12,-41558.625,-29514.735,-26682.345,-21945.06,-12877.38,-9633.285
1764433957.1651597,-1607.265,-12861.405,-41563.71,-29516.04,-26684.415,-21941.64,-12883.32,-9640.98
1764433957.1651597,-1606.05,-12863.295,-41566.815,-29515.68,-26683.965,-21934.575,-12888.27,-9647.145
1764433957.1651597,-1600.335,-12859.74,-41565.285,-29510.865,-26678.97,-21923.82,-12889.44,-9646.74
1764433957.1651597,-1600.605,-12861.225,-41566.32,-29511.405,-26679.33,-21923.01,-12890.115,-9648.585
1764433957.1651597,-1601.0549999999998,-12861.135,-41564.295,-29511.27,-26678.745,-21926.16,-12888.405,-9645.165
1764433957.2090318,-1608.345,-12864.465,-41566.365,-29517.255,-26683.38,-21937.14,-12887.82,-9645.21
1764433957.2090318,-1612.62,-12864.24,-41565.915,-29520.585,-26685.945,-21947.085,-12884.85,-9641.16
1764433957.2090318,-1611.99,-12862.215,-41561.46,-29519.82,-26684.865,-21951.72,-12879.765,-9635.13
1764433957.2090318,-1612.4399999999998,-12861.63,-41562.27,-29520.855,-26685.72,-21952.89,-12879.99,-9636.165
1764433957.2090318,-1611.135,-12861.18,-41563.89,-29520.315,-26685.315,-21949.38,-12881.655,-9638.865
1764433957.2090318,-1613.25,-12865.32,-41569.695,-29523.105,-26688.015,-21946.995,-12887.73,-9646.245
1764433957.2090318,-1608.66,-12863.97,-41570.055,-29519.325,-26685.09,-21936.87,-12890.115,-9649.305
1764433957.2090318,-1604.25,-12862.17,-41569.515,-29515.14,-26681.895,-21927.33,-12891.555,-9651.825
1764433957.2090318,-1603.4399999999998,-12861.585,-41567.94,-29512.53,-26680.32,-21924.675,-12890.925,-9650.295
1764433957.2090318,-1605.24,-12862.845,-41567.22,-29514.195,-26681.535,-21930.165,-12890.07,-9648.81
1764433957.2090318,-1606.8149999999998,-12862.035,-41564.655,-29515.23,-26681.805,-21936.51,-12885.66,-9644.175
1764433957.2090318,-1608.66,-12860.64,-41560.695,-29515.95,-26681.4,-21943.845,-12880.53,-9638.595
1764433957.2090318,-1615.32,-12864.915,-41563.665,-29522.115,-26686.98,-21955.68,-12880.98,-9639.315
1764433957.2090318,-1616.445,-12865.23,-41564.43,-29522.97,-26688.24,-21957.705,-12881.43,-9640.17
1764433957.2090318,-1610.64,-12861.0,-41562.0,-29518.02,-26683.515,-21949.065,-12879.99,-9638.46
1764433957.2100382,-1608.9299999999998,-12861.675,-41563.89,-29517.39,-26683.965,-21942.765,-12883.815,-9642.15
1764433957.2100382,-1605.78,-12861.765,-41565.645,-29515.59,-26683.29,-21933.18,-12887.325,-9645.345
1764433957.2100382,-1603.3049999999998,-12861.945,-41566.77,-29512.98,-26680.68,-21925.395,-12889.845,-9648.81
1764433957.210577,-1603.8,-12862.575,-41567.4,-29512.44,-26680.545,-21925.395,-12890.25,-9650.205
1764433957.210577,-1603.665,-12861.18,-41564.115,-29511.855,-26679.555,-21928.59,-12887.415,-9646.065
1764433957.210577,-1609.875,-12865.05,-41566.365,-29517.3,-26683.695,-21938.67,-12887.595,-9646.065
1764433957.210577,-1613.2949999999998,-12865.5,-41565.24,-29520.045,-26686.08,-21948.975,-12884.355,-9642.915
1764433957.255104,-1615.635,-12865.635,-41563.89,-29522.295,-26688.06,-21956.805,-12881.61,-9639.855
1764433957.255104,-1615.5449999999998,-12864.6,-41563.17,-29522.115,-26688.015,-21956.76,-12880.485,-9638.46
1764433957.255104,-1610.145,-12860.235,-41560.515,-29517.39,-26683.29,-21948.12,-12879.09,-9637.11
1764433957.255104,-1609.56,-12862.125,-41563.98,-29517.48,-26683.74,-21943.26,-12884.535,-9642.69
1764433957.255104,-1605.915,-12861.09,-41565.825,-29514.645,-26681.535,-21933.765,-12888.045,-9646.65
1764433957.255104,-1603.215,-12861.405,-41566.905,-29512.17,-26679.465,-21925.8,-12890.88,-9649.665
1764433957.255104,-1602.225,-12860.82,-41566.185,-29511.045,-26679.24,-21924.72,-12890.655,-9648.945
1764433957.255104,-1607.9399999999998,-12865.545,-41568.885,-29516.265,-26684.055,-21933.765,-12892.05,-9650.655
1764433957.255104,-1610.415,-12865.365,-41566.185,-29517.39,-26684.055,-21940.56,-12888.315,-9646.38
1764433957.255104,-1613.475,-12864.915,-41563.98,-29519.055,-26685.54,-21949.74,-12884.625,-9641.97
1764433957.2571254,-1612.62,-12861.945,-41560.155,-29518.92,-26684.37,-21954.465,-12878.865,-9635.85
1764433957.2576869,-1612.755,-12861.495,-41560.02,-29519.415,-26685.225,-21954.735,-12878.505,-9635.895
1764433957.2576869,-1611.1799999999998,-12861.315,-41560.965,-29518.38,-26685.18,-21950.19,-12880.53,-9638.82
1764433957.2576869,-1613.16,-12865.23,-41566.32,-29520.9,-26688.24,-21947.49,-12886.83,-9646.155
1764433957.2576869,-1607.04,-12861.495,-41565.24,-29515.905,-26683.695,-21935.205,-12888.0,-9647.19
1764433957.2576869,-1607.58,-12865.005,-41569.965,-29516.58,-26685.405,-21931.155,-12893.49,-9654.3
1764433957.2587025,-1602.72,-12860.865,-41565.375,-29511.45,-26680.725,-21926.79,-12891.06,-9649.44
1764433957.2587025,-1604.475,-12860.505,-41563.485,-29511.585,-26681.04,-21930.75,-12889.035,-9646.74
1764433957.3041978,-1606.14,-12860.91,-41561.595,-29512.8,-26681.715,-21937.455,-12885.12,-9643.005
1764433957.3041978,-1609.515,-12862.17,-41560.605,-29515.995,-26684.235,-21947.22,-12880.845,-9639.09
1764433957.3041978,-1613.97,-12863.7,-41561.865,-29520.99,-26688.285,-21955.995,-12879.36,-9638.325
1764433957.3041978,-1611.405,-12860.505,-41559.21,-29518.65,-26686.215,-21953.97,-12877.38,-9635.94
1764433957.3041978,-1609.02,-12859.74,-41559.885,-29516.13,-26684.91,-21948.48,-12878.28,-9637.785
1764433957.3041978,-1610.37,-12863.565,-41565.735,-29517.57,-26687.79,-21945.825,-12885.255,-9645.885
1764433957.3041978,-1609.65,-12866.22,-41570.055,-29518.47,-26688.285,-21939.165,-12890.565,-9652.185
1764433957.3041978,-1606.8149999999998,-12864.735,-41570.55,-29516.175,-26686.665,-21931.02,-12893.49,-9655.38
1764433957.3041978,-1604.34,-12863.025,-41567.715,-29513.52,-26683.65,-21928.365,-12891.87,-9652.905
1764433957.3041978,-1604.88,-12863.79,-41566.05,-29513.52,-26683.605,-21932.325,-12889.89,-9648.72
1764433957.3041978,-1608.84,-12865.68,-41565.87,-29517.255,-26686.8,-21940.965,-12887.685,-9646.695
1764433957.3041978,-1610.415,-12863.205,-41561.235,-29517.12,-26686.755,-21947.715,-12881.925,-9639.945
1764433957.3041978,-1616.31,-12865.815,-41563.395,-29522.34,-26691.84,-21958.515,-12880.665,-9640.17
1764433957.3041978,-1615.5,-12864.6,-41563.485,-29522.88,-26691.57,-21959.19,-12881.07,-9639.945
1764433957.3041978,-1610.0549999999998,-12860.73,-41561.55,-29518.245,-26686.53,-21951.18,-12880.44,-9638.505
1764433957.3041978,-1610.64,-12863.88,-41566.14,-29519.865,-26688.24,-21947.49,-12885.84,-9645.3
1764433957.3041978,-1605.465,-12861.765,-41565.24,-29514.96,-26684.37,-21935.925,-12887.775,-9646.515
1764433957.3041978,-1599.435,-12857.94,-41563.755,-29509.29,-26679.465,-21925.62,-12888.225,-9646.785
1764433957.3041978,-1601.01,-12860.28,-41565.69,-29510.82,-26681.49,-21928.005,-12889.575,-9648.315
1764433957.3041978,-1604.205,-12862.17,-41565.285,-29513.475,-26682.975,-21933.09,-12888.99,-9646.74
1764433957.3041978,-1605.6,-12861.855,-41562.495,-29515.05,-26683.56,-21939.165,-12885.66,-9642.87
1764433957.3041978,-1606.365,-12859.38,-41557.815,-29514.915,-26682.39,-21946.23,-12880.035,-9636.57
1764433957.3041978,-1609.155,-12860.685,-41558.04,-29517.93,-26684.91,-21955.185,-12878.1,-9635.04
1764433957.3041978,-1609.29,-12860.82,-41558.13,-29518.695,-26685.855,-21956.805,-12877.47,-9635.175
1764433957.3041978,-1609.245,-12860.595,-41559.975,-29518.74,-26685.81,-21952.665,-12880.17,-9638.415
1764433957.3041978,-1611.63,-12864.42,-41565.51,-29521.395,-26689.005,-21950.055,-12887.37,-9646.56
1764433957.3041978,-1606.725,-12862.71,-41565.96,-29517.39,-26685.495,-21938.445,-12888.99,-9648.72
1764433957.3041978,-1600.11,-12858.93,-41563.305,-29510.64,-26679.87,-21927.15,-12888.63,-9648.27
1764433957.3041978,-1599.165,-12859.38,-41562.27,-29509.74,-26679.015,-21926.205,-12888.315,-9647.64
1764433957.3057098,-1603.665,-12862.62,-41563.665,-29514.33,-26682.165,-21933.855,-12889.8,-9647.865
1764433957.3480318,-1607.9399999999998,-12863.745,-41564.205,-29516.985,-26685.18,-21942.54,-12888.045,-9646.065
1764433957.3480318,-1614.195,-12866.22,-41565.015,-29521.755,-26690.085,-21954.69,-12886.155,-9644.94
1764433957.3480318,-1613.745,-12864.915,-41561.955,-29522.43,-26690.04,-21960.585,-12881.655,-9640.035
1764433957.3485663,-1608.345,-12859.695,-41557.365,-29518.02,-26684.955,-21956.355,-12876.75,-9635.445
1764433957.3485663,-1607.04,-12859.155,-41558.265,-29516.67,-26684.415,-21951.315,-12878.28,-9637.56
1764433957.3485663,-1610.325,-12864.51,-41564.79,-29520.495,-26688.06,-21948.705,-12886.74,-9645.57
1764433957.3485663,-1603.845,-12860.91,-41563.395,-29514.42,-26682.705,-21935.79,-12887.865,-9646.065
1764433957.3485663,-1602.405,-12862.755,-41566.005,-29512.71,-26682.57,-21929.625,-12891.465,-9649.935
1764433957.3485663,-1604.2949999999998,-12865.185,-41567.625,-29513.34,-26684.055,-21931.47,-12892.725,-9651.24
1764433957.3485663,-1605.015,-12864.06,-41565.465,-29513.79,-26683.47,-21935.16,-12890.43,-9646.47
1764433957.3485663,-1604.34,-12861.135,-41560.425,-29512.71,-26681.445,-21939.075,-12885.48,-9640.755
1764433957.3485663,-1609.515,-12863.25,-41560.065,-29517.12,-26685.045,-21949.965,-12883.815,-9639.495
1764433957.3485663,-1615.995,-12867.12,-41563.08,-29522.745,-26690.805,-21961.215,-12883.5,-9640.125
1764433957.3485663,-1615.59,-12866.58,-41563.17,-29522.385,-26690.355,-21961.17,-12883.275,-9640.665
1764433957.3485663,-1609.875,-12862.845,-41560.29,-29516.67,-26685.225,-21952.08,-12882.105,-9639.54
1764433957.3485663,-1611.765,-12865.59,-41564.34,-29517.255,-26687.205,-21947.445,-12887.145,-9646.29
1764433957.3485663,-1605.4199999999998,-12861.36,-41562.945,-29511.855,-26682.075,-21934.755,-12888.36,-9646.65
1764433957.3485663,-1602.3149999999998,-12860.415,-41563.62,-29508.84,-26679.42,-21926.565,-12890.52,-9649.215
1764433957.3485663,-1601.685,-12860.28,-41562.54,-29507.895,-26677.53,-21925.305,-12889.665,-9647.955
1764433957.3485663,-1606.095,-12863.925,-41564.745,-29511.495,-26681.625,-21933.09,-12889.665,-9647.955
1764433957.3485663,-1609.83,-12865.005,-41564.34,-29513.79,-26684.37,-21940.695,-12887.73,-9645.795
1764433957.3485663,-1614.5549999999998,-12866.94,-41564.7,-29518.02,-26688.015,-21951.945,-12885.84,-9643.815
1764433957.3962636,-1617.12,-12867.03,-41564.025,-29521.125,-26689.95,-21960.0,-12883.905,-9641.745
1764433957.3962636,-1616.355,-12865.995,-41563.485,-29520.945,-26689.185,-21958.335,-12882.69,-9640.53
1764433957.3962636,-1610.64,-12861.495,-41560.335,-29516.355,-26684.595,-21948.93,-12881.52,-9639.135
1764433957.3962636,-1610.37,-12863.655,-41563.485,-29516.49,-26685.225,-21943.485,-12886.605,-9644.67
1764433957.3962636,-1610.46,-12866.175,-41568.84,-29516.355,-26686.44,-21936.915,-12892.545,-9652.005
1764433957.3962636,-1606.005,-12864.375,-41567.94,-29511.495,-26682.615,-21927.87,-12893.22,-9653.355
1764433957.3962636,-1607.85,-12866.58,-41568.975,-29512.305,-26683.56,-21929.4,-12893.58,-9654.615
1764433957.3962636,-1607.715,-12865.32,-41565.735,-29512.44,-26683.245,-21932.955,-12890.385,-9651.015
1764433957.3962636,-1609.65,-12864.69,-41563.395,-29514.15,-26684.19,-21939.12,-12887.1,-9646.515
1764433957.3962636,-1612.665,-12865.05,-41561.595,-29516.4,-26685.54,-21949.155,-12883.05,-9641.79
1764433957.3962636,-1613.79,-12864.285,-41560.065,-29517.705,-26686.485,-21955.14,-12879.27,-9638.145
1764433957.3962636,-1610.73,-12860.82,-41556.645,-29514.69,-26683.515,-21952.26,-12876.075,-9634.545
1764433957.3962636,-1608.705,-12860.37,-41558.265,-29513.745,-26682.705,-21947.22,-12877.695,-9637.065
1764433957.3962636,-1612.665,-12866.04,-41565.87,-29516.94,-26687.745,-21946.005,-12886.695,-9646.92
1764433957.3962636,-1607.895,-12864.42,-41565.78,-29513.34,-26683.965,-21935.295,-12889.17,-9649.71
1764433957.3962636,-1601.73,-12860.64,-41562.54,-29507.85,-26677.665,-21924.36,-12888.81,-9648.315
1764433957.3962636,-1602.1799999999998,-12861.045,-41562.9,-29507.76,-26677.71,-21924.855,-12889.53,-9648.765
1764433957.3962636,-1606.5449999999998,-12864.465,-41565.33,-29511.855,-26681.58,-21932.91,-12889.395,-9648.945
1764433957.3962636,-1608.48,-12864.375,-41563.08,-29513.16,-26682.75,-21939.57,-12886.38,-9644.94
1764433957.3962636,-1610.955,-12863.34,-41559.795,-29514.015,-26683.515,-21948.39,-12881.97,-9639.27
1764433957.3962636,-1611.495,-12861.315,-41557.5,-29514.78,-26683.56,-21953.61,-12878.595,-9634.815
1764433957.397279,-1611.1799999999998,-12860.955,-41557.5,-29515.545,-26684.37,-21953.475,-12877.47,-9634.815
1764433957.439248,-1609.515,-12860.64,-41559.48,-29514.24,-26683.695,-21948.93,-12879.18,-9637.74
1764433957.439248,-1609.335,-12862.845,-41564.385,-29515.545,-26685.54,-21944.745,-12884.625,-9644.175
1764433957.439248,-1603.1699999999998,-12859.695,-41562.63,-29509.875,-26680.185,-21931.245,-12885.255,-9645.255
1764433957.439248,-1605.015,-12864.195,-41567.355,-29511.225,-26681.355,-21927.42,-12891.195,-9651.645
1764433957.439248,-1605.465,-12864.915,-41567.355,-29510.415,-26681.355,-21927.105,-12891.42,-9651.645
1764433957.439248,-1606.905,-12865.095,-41565.105,-29510.595,-26681.715,-21931.785,-12888.36,-9648.27
1764433957.439248,-1608.39,-12864.78,-41563.35,-29512.665,-26683.245,-21938.67,-12885.255,-9644.265
1764433957.439248,-1610.955,-12864.15,-41560.38,-29514.24,-26684.145,-21947.13,-12882.105,-9639.855
1764433957.439248,-1616.76,-12866.445,-41561.82,-29519.775,-26688.33,-21957.93,-12881.745,-9640.305
1764433957.439248,-1618.11,-12866.445,-41563.44,-29520.765,-26689.68,-21958.605,-12882.42,-9641.295
1764433957.439248,-1616.22,-12866.22,-41564.34,-29518.785,-26688.465,-21952.89,-12885.435,-9642.87
1764433957.439248,-1617.345,-12870.855,-41570.685,-29520.495,-26690.49,-21949.695,-12891.465,-9651.15
1764433957.439248,-1609.83,-12866.535,-41568.075,-29513.745,-26683.695,-21935.745,-12891.555,-9650.565
1764433957.4405203,-1607.265,-12865.41,-41568.705,-29511.135,-26681.355,-21928.23,-12893.895,-9652.185
1764433957.4405203,-1609.29,-12866.85,-41569.29,-29512.35,-26683.02,-21930.075,-12894.255,-9653.04
1764433957.4405203,-1609.02,-12865.455,-41565.915,-29511.945,-26682.615,-21934.08,-12890.835,-9648.63
1764433957.4405203,-1607.625,-12862.755,-41559.93,-29510.46,-26680.725,-21937.23,-12884.31,-9641.52
1764433957.4405203,-1611.72,-12862.755,-41558.985,-29513.43,-26682.525,-21946.005,-12879.9,-9637.515
1764433957.4415348,-1615.455,-12863.655,-41559.345,-29516.445,-26685.0,-21954.285,-12877.65,-9635.445
1764433957.4415348,-1617.03,-12865.41,-41561.775,-29518.245,-26687.115,-21957.345,-12879.135,-9637.515
1764433957.4415348,-1613.205,-12861.855,-41560.785,-29513.88,-26683.65,-21949.605,-12880.44,-9638.19
1764433957.4415348,-1615.995,-12866.85,-41567.715,-29517.03,-26686.665,-21946.5,-12888.585,-9646.965
1764433957.4415348,-1609.515,-12864.33,-41567.265,-29512.395,-26682.66,-21934.395,-12889.845,-9648.855
1764433957.4415348,-1609.74,-12867.21,-41571.18,-29512.98,-26684.01,-21929.535,-12894.705,-9654.615
1764433957.485291,-1607.895,-12866.67,-41569.785,-29511.63,-26682.165,-21928.68,-12893.49,-9652.995
1764433957.485291,-1608.9299999999998,-12866.58,-41568.255,-29512.71,-26682.3,-21933.855,-12891.42,-9649.215
1764433957.485291,-1611.99,-12867.255,-41567.265,-29514.42,-26684.55,-21942.045,-12888.765,-9647.055
1764433957.485291,-1616.985,-12869.19,-41566.545,-29518.245,-26688.195,-21952.845,-12886.29,-9644.355
1764433957.485291,-1619.415,-12869.145,-41565.735,-29520.54,-26690.13,-21959.415,-12884.355,-9641.79
1764433957.485291,-1619.415,-12868.56,-41566.5,-29521.215,-26690.67,-21959.19,-12884.355,-9642.195
1764433957.485291,-1615.095,-12865.635,-41565.42,-29518.02,-26686.53,-21951.09,-12884.94,-9642.69
1764433957.485291,-1616.6699999999998,-12869.865,-41571.18,-29520.54,-26689.365,-21948.03,-12891.555,-9649.98
1764433957.485291,-1609.605,-12865.77,-41568.57,-29514.285,-26684.505,-21934.98,-12892.23,-9650.205
1764433957.485291,-1605.375,-12864.87,-41568.57,-29511.09,-26681.265,-21927.33,-12892.86,-9651.825
1764433957.485291,-1607.4,-12867.165,-41570.325,-29512.89,-26683.245,-21929.67,-12894.345,-9653.175
1764433957.485291,-1608.12,-12865.635,-41566.815,-29512.575,-26683.245,-21933.45,-12890.475,-9648.855
1764433957.485291,-1610.73,-12866.13,-41565.105,-29514.42,-26683.65,-21940.83,-12886.875,-9645.345
1764433957.485291,-1614.015,-12867.03,-41564.88,-29517.345,-26686.44,-21950.37,-12883.41,-9641.925
1764433957.485291,-1616.22,-12866.985,-41563.935,-29519.19,-26689.095,-21957.255,-12882.015,-9639.72
1764433957.485291,-1615.455,-12865.545,-41564.07,-29519.19,-26688.78,-21955.635,-12881.565,-9639.225
1764433957.485291,-1610.775,-12862.755,-41562.72,-29515.59,-26684.865,-21947.895,-12881.115,-9639.135
1764433957.485291,-1614.24,-12869.1,-41570.64,-29519.595,-26689.05,-21946.5,-12889.305,-9649.17
1764433957.485291,-1609.245,-12867.255,-41570.55,-29515.32,-26685.36,-21934.935,-12891.645,-9651.78
1764433957.485291,-1604.61,-12863.52,-41567.22,-29509.65,-26679.33,-21925.305,-12892.14,-9651.33
1764433957.485291,-1603.35,-12863.025,-41564.88,-29509.065,-26677.62,-21924.72,-12890.7,-9649.215
1764433957.485291,-1605.4199999999998,-12863.115,-41563.89,-29510.865,-26679.105,-21930.57,-12887.64,-9646.605
1764433957.485291,-1611.45,-12866.715,-41566.545,-29516.625,-26684.64,-21942.405,-12887.775,-9647.28
1764433957.485291,-1615.05,-12868.83,-41565.195,-29519.37,-26686.89,-21952.17,-12884.715,-9644.04
1764433957.5339608,-1615.095,-12866.355,-41561.415,-29518.65,-26685.27,-21955.77,-12880.125,-9638.19
1764433957.5339608,-1615.41,-12866.175,-41562.63,-29518.56,-26686.62,-21955.68,-12881.34,-9639.225
1764433957.5349567,-1613.97,-12866.265,-41564.925,-29517.525,-26686.8,-21951.495,-12884.04,-9642.87
1764433957.5349567,-1615.8149999999998,-12871.575,-41571.27,-29520.495,-26690.31,-21949.335,-12891.645,-9651.96
1764433957.5349567,-1607.895,-12867.615,-41568.12,-29513.7,-26684.145,-21935.745,-12892.05,-9651.69
1764433957.5355563,-1606.725,-12867.66,-41569.65,-29511.855,-26682.345,-21929.535,-12894.48,-9655.245
1764433957.5355563,-1606.275,-12866.67,-41567.85,-29510.73,-26681.49,-21929.085,-12892.77,-9653.355
1764433957.5355563,-1608.84,-12867.615,-41566.905,-29512.215,-26683.02,-21935.16,-12890.205,-9650.745
1764433957.5355563,-1611.54,-12867.39,-41565.375,-29513.79,-26684.46,-21942.18,-12887.1,-9646.605
1764433957.536571,-1616.31,-12868.83,-41564.655,-29517.93,-26687.115,-21952.71,-12884.445,-9643.365
1764433957.536571,-1619.325,-12870.72,-41565.105,-29521.395,-26690.31,-21960.405,-12883.005,-9641.925
1764433957.536571,-1618.47,-12869.37,-41565.24,-29520.54,-26689.545,-21959.01,-12883.14,-9641.565
1764433957.536571,-1612.935,-12865.68,-41563.575,-29515.455,-26684.955,-21950.19,-12882.825,-9641.745
1764433957.536571,-1614.915,-12869.685,-41569.155,-29517.93,-26687.88,-21947.13,-12888.855,-9649.44
1764433957.536571,-1610.73,-12868.965,-41570.28,-29514.825,-26684.865,-21936.825,-12892.095,-9652.68
1764433957.536571,-1604.475,-12864.78,-41565.78,-29507.625,-26678.88,-21926.745,-12891.24,-9650.16
1764433957.536571,-1602.99,-12863.79,-41563.665,-29505.87,-26677.395,-21926.205,-12888.945,-9647.865
1764433957.536571,-1607.085,-12865.77,-41563.98,-29509.11,-26679.42,-21933.27,-12888.63,-9648.09
1764433957.536571,-1612.3049999999998,-12867.795,-41564.385,-29512.98,-26683.11,-21942.54,-12886.83,-9646.065
1764433957.536571,-1613.4299999999998,-12866.355,-41560.29,-29513.34,-26683.83,-21950.325,-12881.025,-9639.72
1764433957.536571,-1617.9299999999998,-12868.785,-41561.19,-29517.615,-26686.935,-21958.47,-12880.89,-9639.405
1764433957.5375648,-1615.095,-12865.86,-41559.84,-29515.815,-26684.73,-21955.14,-12879.27,-9637.605
1764433957.5375648,-1613.34,-12866.085,-41561.37,-29514.96,-26684.19,-21949.92,-12881.79,-9641.295
1764433957.5375648,-1616.22,-12871.08,-41568.21,-29518.29,-26688.24,-21947.715,-12888.99,-9651.195
1764433957.5804636,-1611.09,-12868.515,-41568.03,-29513.79,-26684.235,-21936.51,-12891.33,-9653.67
1764433957.581933,-1608.9299999999998,-12868.065,-41568.165,-29511.405,-26682.03,-21929.67,-12893.985,-9655.335
1764433957.581933,-1606.8149999999998,-12865.905,-41564.655,-29508.66,-26679.69,-21927.645,-12891.6,-9651.24
1764433957.581933,-1611.225,-12869.415,-41566.095,-29512.125,-26684.46,-21935.7,-12891.555,-9651.555
1764433957.581933,-1612.53,-12869.28,-41563.755,-29513.43,-26684.73,-21942.045,-12888.405,-9647.46
1764433957.581933,-1619.46,-12873.33,-41565.69,-29518.965,-26689.365,-21955.455,-12888.495,-9646.065
1764433957.581933,-1620.27,-12871.44,-41563.26,-29519.64,-26690.04,-21960.855,-12885.48,-9641.835
1764433957.581933,-1621.98,-12872.745,-41565.6,-29522.025,-26692.155,-21961.89,-12886.425,-9644.715
1764433957.581933,-1616.6699999999998,-12868.605,-41563.53,-29516.805,-26686.98,-21953.115,-12884.895,-9643.32
1764433957.581933,-1617.075,-12870.855,-41568.345,-29517.345,-26687.745,-21948.075,-12890.43,-9649.755
1764433957.581933,-1611.855,-12867.975,-41567.76,-29512.665,-26683.425,-21936.42,-12892.77,-9652.68
1764433957.581933,-1612.35,-12870.675,-41570.415,-29513.07,-26684.505,-21932.145,-12896.145,-9656.955
1764433957.581933,-1608.975,-12868.11,-41566.275,-29509.92,-26681.265,-21928.95,-12893.355,-9652.32
1764433957.581933,-1613.025,-12870.225,-41566.905,-29512.755,-26684.19,-21936.195,-12892.77,-9651.915
1764433957.581933,-1612.98,-12868.245,-41562.72,-29511.945,-26682.525,-21941.235,-12886.515,-9645.03
1764433957.581933,-1618.695,-12871.215,-41564.025,-29517.075,-26686.62,-21953.88,-12885.255,-9643.32
1764433957.581933,-1618.65,-12868.965,-41561.46,-29517.39,-26685.72,-21958.245,-12882.195,-9639.225
1764433957.581933,-1618.875,-12869.775,-41562.765,-29519.37,-26687.115,-21959.415,-12884.175,-9641.34
1764433957.581933,-1617.165,-12869.46,-41564.205,-29517.795,-26686.395,-21953.835,-12886.335,-9644.58
1764433957.581933,-1616.49,-12870.765,-41567.535,-29517.48,-26686.26,-21947.85,-12891.645,-9649.485
1764433957.581933,-1611.72,-12868.695,-41567.58,-29513.025,-26682.21,-21936.645,-12893.265,-9651.285
1764433957.581933,-1613.07,-12871.935,-41571.54,-29514.06,-26683.83,-21932.865,-12896.73,-9656.28
1764433957.6271737,-1611.99,-12871.8,-41570.235,-29513.16,-26682.48,-21932.64,-12895.965,-9654.795
1764433957.6271737,-1610.595,-12869.415,-41565.87,-29511.945,-26680.455,-21934.62,-12890.79,-9648.99
1764433957.6271737,-1613.475,-12870.63,-41564.745,-29514.51,-26682.93,-21943.665,-12887.64,-9646.92
1764433957.6271737,-1613.34,-12866.58,-41559.39,-29513.925,-26681.58,-21949.695,-12880.98,-9638.82
1764433957.6271737,-1615.14,-12866.22,-41559.12,-29515.68,-26682.57,-21955.14,-12878.415,-9636.84
1764433957.6271737,-1615.77,-12866.265,-41560.74,-29516.445,-26683.38,-21955.455,-12880.125,-9638.415
1764433957.6271737,-1613.475,-12865.86,-41561.865,-29515.185,-26682.48,-21950.19,-12881.7,-9641.295
1764433957.6271737,-1613.52,-12869.055,-41566.185,-29516.31,-26683.695,-21945.735,-12886.11,-9648.09
1764433957.6271737,-1607.9399999999998,-12866.04,-41564.565,-29511.09,-26679.6,-21932.73,-12887.37,-9649.575
1764433957.6271737,-1602.54,-12863.16,-41561.64,-29505.465,-26675.235,-21923.82,-12887.28,-9648.45
1764433957.6271737,-1604.79,-12865.545,-41563.44,-29506.77,-26676.81,-21926.61,-12888.9,-9650.205
1764433957.6271737,-1605.195,-12863.97,-41560.065,-29505.735,-26675.415,-21930.39,-12884.805,-9644.58
1764433957.6271737,-1610.415,-12866.13,-41560.695,-29510.28,-26678.655,-21940.155,-12883.23,-9643.275
1764433957.6271737,-1613.115,-12864.24,-41557.995,-29512.305,-26679.24,-21948.12,-12879.18,-9637.29
1764433957.6271737,-1617.57,-12866.445,-41559.975,-29516.49,-26683.47,-21956.175,-12878.64,-9636.84
1764433957.6271737,-1614.465,-12864.24,-41558.04,-29514.465,-26681.04,-21953.07,-12877.335,-9635.085
1764433957.6271737,-1613.745,-12864.555,-41559.48,-29514.735,-26681.04,-21947.67,-12880.53,-9639.27
1764433957.6271737,-1616.355,-12869.37,-41566.32,-29517.255,-26685.315,-21944.835,-12887.82,-9647.91
1764433957.6271737,-1609.0649999999998,-12864.645,-41564.34,-29510.37,-26680.14,-21931.875,-12888.405,-9647.73
1764433957.6271737,-1607.9399999999998,-12865.545,-41565.69,-29509.155,-26679.06,-21926.97,-12891.465,-9650.475
1764433957.6271737,-1607.9399999999998,-12865.905,-41565.555,-29509.47,-26679.15,-21927.69,-12891.33,-9650.115
1764433957.6281714,-1612.3049999999998,-12868.02,-41567.13,-29512.89,-26682.57,-21936.33,-12890.52,-9649.53
1764433957.6724975,-1613.25,-12867.48,-41563.395,-29513.07,-26682.48,-21942.36,-12885.93,-9644.49
1764433957.673519,-1614.4199999999998,-12865.365,-41558.49,-29512.98,-26681.715,-21949.245,-12880.575,-9637.92
1764433957.673519,-1615.8149999999998,-12864.645,-41557.23,-29514.915,-26682.84,-21955.185,-12877.785,-9635.355
1764433957.673519,-1613.97,-12863.205,-41557.815,-29513.745,-26682.03,-21953.43,-12877.29,-9635.67
1764433957.673519,-1610.145,-12861.09,-41557.59,-29509.965,-26679.645,-21945.555,-12877.965,-9636.435
1764433957.673519,-1611.405,-12865.68,-41562.9,-29512.665,-26682.255,-21941.64,-12885.075,-9644.58
1764433957.673519,-1611.09,-12868.515,-41567.535,-29513.835,-26683.29,-21934.53,-12890.7,-9651.465
1764433957.673519,-1606.995,-12866.76,-41566.095,-29509.11,-26679.465,-21926.79,-12892.14,-9651.105
1764433957.673519,-1608.9299999999998,-12868.83,-41567.94,-29509.83,-26680.86,-21929.04,-12892.815,-9652.995
1764433957.673519,-1610.955,-12869.01,-41565.915,-29510.19,-26681.895,-21935.025,-12890.97,-9649.8
1764433957.673519,-1612.665,-12868.65,-41563.53,-29512.305,-26683.245,-21942.81,-12887.28,-9644.895
1764433957.673519,-1613.88,-12866.805,-41559.615,-29513.25,-26682.93,-21950.37,-12881.97,-9638.73
1764433957.673519,-1618.38,-12869.46,-41560.785,-29517.48,-26686.305,-21957.795,-12881.115,-9639.405
1764433957.673519,-1616.8049999999998,-12867.795,-41560.785,-29517.435,-26685.09,-21955.545,-12881.25,-9638.955
1764433957.673519,-1615.8149999999998,-12868.695,-41563.485,-29516.4,-26685.54,-21950.235,-12884.445,-9642.24
1764433957.673519,-1617.12,-12871.89,-41568.57,-29518.65,-26688.015,-21946.905,-12890.655,-9650.79
1764433957.673519,-1609.02,-12867.03,-41565.87,-29511.09,-26681.4,-21932.505,-12890.7,-9650.745
1764433957.673519,-1605.24,-12865.365,-41565.195,-29507.85,-26678.295,-21924.99,-12891.06,-9651.33
1764433957.673519,-1607.76,-12867.345,-41566.32,-29510.055,-26679.645,-21928.005,-12892.365,-9652.41
1764433957.673519,-1609.515,-12867.255,-41564.475,-29510.73,-26679.69,-21934.35,-12890.88,-9649.665
1764433957.673519,-1612.1699999999998,-12867.705,-41562.585,-29512.62,-26680.23,-21942.18,-12886.83,-9645.705
1764433957.673519,-1618.11,-12870.0,-41562.495,-29517.57,-26684.64,-21953.115,-12883.905,-9643.14
1764433957.673519,-1620.27,-12870.0,-41561.955,-29519.595,-26685.9,-21958.245,-12882.195,-9640.53
1764433957.673519,-1616.445,-12867.345,-41559.885,-29516.94,-26683.335,-21954.42,-12880.17,-9638.46
1764433957.71735,-1614.6899999999998,-12866.49,-41561.145,-29515.455,-26682.255,-21948.39,-12882.015,-9640.845
1764433957.71735,-1615.635,-12869.235,-41565.015,-29515.59,-26683.245,-21943.08,-12888.18,-9647.325
1764433957.71735,-1614.4199999999998,-12871.395,-41569.965,-29515.545,-26683.965,-21936.465,-12893.355,-9653.895
1764433957.71735,-1611.63,-12870.63,-41569.92,-29513.52,-26681.895,-21930.48,-12894.255,-9655.245
1764433957.71735,-1612.08,-12870.855,-41569.38,-29513.43,-26681.22,-21931.335,-12893.94,-9654.435
1764433957.71735,-1613.52,-12871.53,-41568.075,-29514.69,-26681.49,-21937.095,-12892.095,-9652.095
1764433957.71735,-1615.995,-12870.9,-41565.87,-29515.995,-26682.48,-21944.34,-12889.17,-9647.82
1764433957.71735,-1619.1899999999998,-12869.865,-41563.53,-29518.11,-26683.965,-21953.43,-12884.895,-9643.05
1764433957.71735,-1617.975,-12867.615,-41560.38,-29517.705,-26683.02,-21956.445,-12880.935,-9638.595
1764433957.71735,-1615.6799999999998,-12866.175,-41559.39,-29516.13,-26681.265,-21953.79,-12879.27,-9638.235
1764433957.71735,-1613.79,-12865.95,-41561.46,-29515.365,-26681.355,-21949.02,-12881.25,-9641.745
1764433957.71735,-1615.05,-12870.27,-41567.175,-29516.715,-26683.965,-21945.015,-12887.325,-9648.9
1764433957.71735,-1609.83,-12868.785,-41567.67,-29513.115,-26680.815,-21933.99,-12889.98,-9651.735
1764433957.71735,-1606.275,-12866.58,-41566.545,-29509.83,-26676.81,-21927.06,-12891.51,-9652.095
1764433957.71735,-1609.0649999999998,-12869.235,-41568.03,-29511.63,-26678.655,-21929.94,-12891.825,-9652.635
1764433957.71735,-1609.785,-12868.2,-41564.79,-29511.72,-26678.475,-21934.44,-12888.0,-9648.45
1764433957.71735,-1612.485,-12868.47,-41561.955,-29513.295,-26679.555,-21941.505,-12885.39,-9644.49
1764433957.71735,-1613.07,-12865.815,-41557.005,-29512.845,-26678.88,-21948.21,-12879.18,-9637.785
1764433957.71735,-1615.32,-12865.905,-41557.14,-29515.32,-26680.995,-21954.87,-12877.11,-9635.895
1764433957.7188835,-1616.13,-12866.715,-41559.525,-29516.76,-26682.615,-21955.59,-12878.28,-9638.1
1764433957.7188835,-1610.91,-12863.88,-41558.85,-29512.89,-26678.79,-21947.265,-12879.36,-9638.685
1764433957.7188835,-1609.965,-12865.41,-41562.9,-29512.44,-26679.15,-21941.01,-12884.445,-9644.085
1764433957.7188835,-1609.74,-12867.57,-41566.59,-29512.08,-26679.42,-21933.72,-12889.665,-9651.33
1764433957.7188835,-1605.645,-12865.23,-41564.115,-29508.615,-26674.965,-21925.665,-12889.08,-9650.88
1764433957.7622397,-1602.1799999999998,-12860.685,-41558.76,-29503.665,-26670.015,-21922.695,-12884.535,-9645.165
1764433957.7622397,-1604.97,-12860.955,-41557.005,-29504.79,-26670.96,-21928.14,-12882.015,-9642.78
1764433957.762773,-1608.615,-12862.395,-41556.375,-29507.49,-26673.03,-21935.88,-12879.54,-9640.17
1764433957.762773,-1609.605,-12861.09,-41552.415,-29507.49,-26672.49,-21942.855,-12874.59,-9633.735
1764433957.762773,-1611.405,-12861.81,-41552.19,-29509.38,-26674.11,-21948.165,-12872.52,-9632.655
1764433957.762773,-1613.61,-12863.34,-41555.295,-29511.045,-26676.045,-21948.12,-12874.905,-9636.48
1764433957.762773,-1609.11,-12859.92,-41552.955,-29506.005,-26671.32,-21938.76,-12875.355,-9636.48
1764433957.762773,-1607.355,-12860.865,-41554.8,-29504.205,-26670.735,-21931.965,-12879.45,-9640.845
1764433957.762773,-1603.98,-12861.045,-41556.78,-29501.955,-26669.385,-21923.235,-12883.455,-9644.805
1764433957.762773,-1603.755,-12862.62,-41560.38,-29502.36,-26671.095,-21921.525,-12887.145,-9648.765
1764433957.762773,-1602.675,-12860.73,-41559.03,-29501.505,-26670.465,-21922.74,-12885.345,-9646.56
1764433957.762773,-1601.82,-12857.58,-41554.755,-29500.605,-26669.7,-21926.97,-12880.17,-9640.44
1764433957.762773,-1602.495,-12854.655,-41550.39,-29501.28,-26669.565,-21934.215,-12875.895,-9633.465
1764433957.762773,-1606.77,-12856.41,-41549.715,-29505.645,-26673.705,-21945.96,-12873.42,-9630.945
1764433957.762773,-1612.035,-12860.46,-41553.045,-29511.315,-26678.79,-21955.68,-12874.32,-9633.375
1764433957.762773,-1611.36,-12859.38,-41553.36,-29510.865,-26679.33,-21954.06,-12875.265,-9634.23
1764433957.762773,-1606.095,-12855.465,-41551.83,-29506.185,-26676.135,-21945.78,-12875.22,-9633.825
1764433957.762773,-1603.395,-12856.14,-41554.17,-29505.465,-26675.415,-21939.3,-12877.92,-9637.92
1764433957.762773,-1601.1899999999998,-12856.95,-41556.69,-29504.79,-26675.505,-21932.19,-12882.195,-9643.095
1764433957.762773,-1597.5449999999998,-12854.835,-41554.755,-29500.92,-26672.58,-21925.755,-12883.59,-9642.555
1764433957.8091805,-1600.515,-12858.21,-41557.455,-29504.565,-26676.495,-21931.695,-12885.615,-9644.265
1764433957.8091805,-1603.08,-12859.155,-41557.095,-29506.365,-26678.565,-21938.4,-12883.815,-9641.565
1764433957.8091805,-1606.635,-12859.875,-41555.115,-29508.57,-26679.96,-21946.05,-12880.89,-9639.045
1764433957.8091805,-1609.47,-12859.515,-41552.595,-29510.595,-26680.815,-21954.195,-12876.525,-9634.68
1764433957.8091805,-1610.28,-12858.66,-41551.065,-29510.595,-26680.05,-21957.165,-12872.79,-9631.755
1764433957.8091805,-1608.84,-12857.49,-41550.345,-29507.94,-26676.99,-21952.17,-12872.205,-9631.755
1764433957.8091805,-1607.895,-12858.12,-41552.82,-29506.32,-26675.82,-21946.32,-12874.68,-9635.625
1764433957.8091805,-1609.875,-12863.79,-41559.39,-29510.145,-26679.285,-21943.17,-12882.105,-9644.535
1764433957.8091805,-1607.58,-12864.555,-41561.955,-29508.84,-26677.89,-21933.585,-12886.47,-9648.765
1764433957.8106992,-1606.6799999999998,-12864.69,-41563.17,-29506.995,-26676.63,-21928.545,-12888.675,-9650.565
1764433957.8106992,-1605.78,-12862.935,-41561.055,-29504.88,-26674.515,-21928.185,-12885.705,-9647.73
1764433957.8106992,-1607.8049999999998,-12862.98,-41559.075,-29505.015,-26674.02,-21932.46,-12882.78,-9644.445
1764433957.8106992,-1605.87,-12859.38,-41552.64,-29501.865,-26670.195,-21935.205,-12874.95,-9636.21
1764433957.8106992,-1612.26,-12862.845,-41553.945,-29507.175,-26674.515,-21947.715,-12873.015,-9635.625
1764433957.8106992,-1613.88,-12863.07,-41553.945,-29509.605,-26676.045,-21952.44,-12871.53,-9633.465
1764433957.8106992,-1614.33,-12864.195,-41555.745,-29511.495,-26678.115,-21952.575,-12873.6,-9636.12
1764433957.8106992,-1607.22,-12859.02,-41552.415,-29505.33,-26672.94,-21942.135,-12872.7,-9633.33
1764433957.8106992,-1604.88,-12858.66,-41554.17,-29503.035,-26671.59,-21934.935,-12875.625,-9637.245
1764433957.8106992,-1602.99,-12859.695,-41556.645,-29501.1,-26671.005,-21926.205,-12880.485,-9642.465
1764433957.8106992,-1603.755,-12862.395,-41559.57,-29502.81,-26672.535,-21923.955,-12883.995,-9646.47
1764433957.8106992,-1601.64,-12860.37,-41556.87,-29501.19,-26671.05,-21923.955,-12881.61,-9642.96
1764433957.8106992,-1599.12,-12856.545,-41550.84,-29498.265,-26667.72,-21926.25,-12874.545,-9635.085
1764433957.8106992,-1602.945,-12858.57,-41550.39,-29501.955,-26671.05,-21935.97,-12873.33,-9633.33
1764433957.8106992,-1608.705,-12861.0,-41551.02,-29506.455,-26675.145,-21947.76,-12870.99,-9631.125
1764433957.8548837,-1608.705,-12858.75,-41549.265,-29506.455,-26675.055,-21950.82,-12868.245,-9627.57
1764433957.856171,-1610.595,-12860.46,-41552.37,-29508.57,-26677.305,-21950.505,-12871.305,-9630.99
1764433957.856171,-1604.025,-12855.96,-41549.715,-29502.675,-26671.77,-21940.245,-12869.775,-9629.685
1764433957.856171,-1600.47,-12855.555,-41551.245,-29500.155,-26670.6,-21932.055,-12872.295,-9633.375
1764433957.856171,-1599.12,-12857.94,-41555.475,-29500.92,-26671.455,-21924.855,-12877.29,-9640.08
1764433957.856171,-1596.24,-12855.735,-41554.035,-29497.725,-26668.215,-21919.095,-12877.695,-9640.485
1764433957.856171,-1592.82,-12852.495,-41549.22,-29493.27,-26663.58,-21917.7,-12872.655,-9635.13
1764433957.856171,-1597.005,-12854.88,-41549.085,-29496.33,-26666.325,-21925.395,-12871.305,-9633.555
1764433957.856171,-1598.355,-12853.35,-41545.845,-29496.645,-26665.965,-21931.605,-12867.705,-9627.93
1764433957.856171,-1603.53,-12855.24,-41545.845,-29501.82,-26670.24,-21943.215,-12865.23,-9625.32
1764433957.8571858,-1603.08,-12852.585,-41543.01,-29500.875,-26668.665,-21945.96,-12861.495,-9620.145
1764433957.8571858,-1602.585,-12851.325,-41543.73,-29500.56,-26668.215,-21942.765,-12861.405,-9621.405
1764433957.8571858,-1599.255,-12849.615,-41544.495,-29497.455,-26665.515,-21935.16,-12861.54,-9623.16
1764433957.8571858,-1599.48,-12852.27,-41549.265,-29497.59,-26667.045,-21929.67,-12866.85,-9629.595
1764433957.8571858,-1593.27,-12850.47,-41548.59,-29493.09,-26662.545,-21918.78,-12868.605,-9631.305
1764433957.8571858,-1593.135,-12851.82,-41549.67,-29492.505,-26662.275,-21914.91,-12870.495,-9634.32
1764433957.8571858,-1595.25,-12852.9,-41549.13,-29493.63,-26663.31,-21917.745,-12870.99,-9634.995
1764433957.8571858,-1597.995,-12853.845,-41547.96,-29495.25,-26663.94,-21923.685,-12870.495,-9632.34
1764433957.8571858,-1602.405,-12855.645,-41548.365,-29499.03,-26667.045,-21934.305,-12868.155,-9629.955
1764433957.8571858,-1602.0449999999998,-12851.64,-41543.415,-29498.22,-26665.74,-21940.65,-12861.315,-9621.945
1764433957.8571858,-1606.995,-12855.645,-41546.97,-29503.89,-26670.33,-21948.48,-12862.08,-9624.06
1764433957.8571858,-1603.4399999999998,-12852.81,-41546.565,-29501.235,-26668.35,-21944.385,-12861.72,-9622.665
1764433957.8571858,-1596.645,-12848.85,-41543.37,-29495.565,-26663.265,-21934.17,-12860.91,-9620.91
1764433957.8571858,-1597.41,-12852.18,-41548.365,-29497.05,-26665.425,-21930.39,-12866.445,-9628.65
1764433957.900804,-1589.6699999999998,-12847.23,-41545.62,-29489.49,-26658.27,-21916.08,-12865.995,-9628.11
1764433957.900804,-1586.52,-12845.655,-41544.135,-29486.7,-26655.39,-21910.32,-12866.94,-9628.92
1764433957.900804,-1587.24,-12845.79,-41543.505,-29487.105,-26655.615,-21912.03,-12866.085,-9627.3
1764433957.900804,-1590.075,-12846.51,-41542.74,-29488.455,-26657.415,-21919.095,-12863.565,-9624.51
1764433957.900804,-1593.675,-12848.22,-41542.605,-29491.74,-26659.665,-21928.32,-12861.495,-9621.9
1764433957.900804,-1598.9399999999998,-12849.705,-41542.965,-29496.24,-26663.49,-21938.715,-12859.92,-9619.74
1764433957.900804,-1602.225,-12851.37,-41543.73,-29498.94,-26665.695,-21944.295,-12859.245,-9619.155
1764433957.900804,-1601.145,-12850.74,-41544.09,-29498.805,-26665.515,-21942.225,-12859.695,-9620.28
1764433957.900804,-1598.985,-12850.38,-41545.215,-29497.365,-26664.75,-21935.655,-12862.17,-9623.88
1764433957.900804,-1597.905,-12852.27,-41548.23,-29497.005,-26665.74,-21930.165,-12867.48,-9629.73
1764433957.900804,-1593.855,-12850.83,-41548.86,-29493.63,-26663.625,-21920.265,-12870.315,-9632.565
1764433957.900804,-1591.875,-12850.515,-41548.77,-29491.245,-26661.69,-21915.495,-12871.62,-9633.42
1764433957.900804,-1593.81,-12852.27,-41550.03,-29494.215,-26663.805,-21919.77,-12872.025,-9634.005
1764433957.900804,-1594.755,-12851.46,-41547.015,-29494.44,-26663.805,-21924.495,-12868.515,-9630.18
1764433957.9018192,-1599.57,-12853.575,-41547.24,-29497.545,-26667.225,-21933.675,-12866.805,-9628.785
1764433957.9018192,-1601.82,-12852.99,-41544.855,-29498.895,-26667.765,-21942.405,-12862.98,-9623.25
1764433957.9018192,-1605.96,-12855.33,-41546.7,-29502.9,-26671.275,-21948.615,-12862.89,-9623.52
1764433957.9018192,-1601.73,-12851.82,-41543.595,-29499.255,-26667.045,-21942.72,-12860.82,-9620.595
1764433957.9018192,-1599.48,-12851.325,-41544.945,-29497.545,-26665.965,-21936.465,-12863.025,-9623.97
1764433957.9018192,-1600.56,-12855.105,-41551.155,-29499.48,-26669.115,-21933.0,-12869.955,-9632.43
1764433957.902819,-1593.72,-12851.865,-41548.77,-29492.73,-26663.175,-21919.905,-12870.675,-9632.925
1764433957.902819,-1592.28,-12852.765,-41549.58,-29491.92,-26662.365,-21915.09,-12873.555,-9634.77
1764433957.9469657,-1595.205,-12855.555,-41550.66,-29494.575,-26665.065,-21920.085,-12874.41,-9635.13
1764433957.9469657,-1594.845,-12853.035,-41546.565,-29493.54,-26664.84,-21924.315,-12869.955,-9629.82
1764433957.9469657,-1597.86,-12853.44,-41545.845,-29496.15,-26666.145,-21933.27,-12867.12,-9626.94
1764433957.9469657,-1602.9,-12855.465,-41545.53,-29500.56,-26668.89,-21945.06,-12865.23,-9623.295
1764433957.9469657,-1606.5449999999998,-12857.67,-41546.34,-29503.89,-26672.22,-21950.235,-12864.87,-9623.34
1764433957.9469657,-1609.155,-12860.865,-41551.965,-29506.815,-26675.955,-21950.865,-12868.38,-9628.56
1764433957.9469657,-1602.855,-12857.085,-41550.12,-29502.09,-26670.6,-21942.765,-12868.785,-9628.065
1764433957.9469657,-1602.0449999999998,-12858.03,-41552.82,-29501.64,-26670.105,-21935.88,-12873.015,-9633.42
1764433957.9469657,-1600.0649999999998,-12859.02,-41555.745,-29500.155,-26669.475,-21927.24,-12876.975,-9638.415
1764433957.9469657,-1596.87,-12856.455,-41554.215,-29496.24,-26666.37,-21921.255,-12877.65,-9637.92
1764433957.9469657,-1599.705,-12859.02,-41555.25,-29498.04,-26668.485,-21925.62,-12878.37,-9638.37
1764433957.9469657,-1599.615,-12857.625,-41551.785,-29497.365,-26667.225,-21929.895,-12874.5,-9633.105
1764433957.9469657,-1601.82,-12857.805,-41550.345,-29500.02,-26668.755,-21938.13,-12870.99,-9629.145
1764433957.9469657,-1608.75,-12861.54,-41552.19,-29506.815,-26674.83,-21951.72,-12871.215,-9628.92
1764433957.9469657,-1609.605,-12861.225,-41550.48,-29507.715,-26676.045,-21955.23,-12869.19,-9626.895
1764433957.9479744,-1606.275,-12857.76,-41548.815,-29505.015,-26672.94,-21949.155,-12868.515,-9626.22
1764433957.9479744,-1603.125,-12857.715,-41550.84,-29503.485,-26671.59,-21942.495,-12870.81,-9629.37
1764433957.9479744,-1603.3049999999998,-12859.47,-41554.215,-29503.35,-26671.5,-21936.69,-12876.12,-9636.12
1764433957.9479744,-1599.165,-12858.345,-41554.62,-29499.435,-26669.115,-21926.115,-12878.55,-9639.0
1764433957.9479744,-1596.285,-12857.355,-41554.665,-29497.68,-26667.63,-21920.895,-12879.18,-9639.9
1764433957.9479744,-1596.6,-12857.76,-41553.27,-29497.095,-26667.315,-21922.965,-12877.47,-9637.02
1764433957.9479744,-1600.695,-12859.695,-41552.865,-29500.155,-26669.655,-21930.57,-12876.57,-9635.085
1764433957.9479744,-1604.7,-12860.595,-41552.46,-29503.44,-26672.355,-21940.065,-12873.6,-9631.08
1764433957.9479744,-1612.125,-12864.375,-41554.395,-29510.55,-26678.565,-21953.745,-12873.42,-9630.225
1764433957.9952097,-1611.99,-12861.63,-41552.73,-29509.92,-26677.62,-21955.995,-12871.17,-9627.48
1764433957.9952097,-1612.89,-12863.34,-41556.33,-29511.855,-26679.33,-21955.23,-12873.51,-9631.89
1764433957.9952097,-1606.5,-12859.155,-41553.54,-29506.14,-26674.155,-21945.015,-12873.645,-9631.08
1764433957.9952097,-1604.5649999999998,-12860.505,-41556.105,-29504.43,-26673.12,-21937.725,-12877.335,-9635.895
1764433957.9952097,-1602.09,-12861.18,-41558.355,-29503.035,-26671.185,-21929.265,-12880.98,-9640.98
1764433957.9952097,-1603.71,-12863.7,-41561.145,-29504.34,-26672.805,-21928.14,-12884.805,-9644.265
1764433957.9952097,-1601.235,-12861.315,-41557.68,-29500.695,-26670.555,-21927.51,-12881.295,-9639.63
1764433957.9952097,-1606.41,-12864.24,-41558.625,-29504.79,-26674.965,-21937.095,-12880.08,-9639.315
1764433957.9952097,-1607.76,-12863.07,-41555.115,-29505.375,-26674.83,-21943.845,-12876.165,-9634.365
1764433957.9952097,-1615.095,-12867.165,-41557.68,-29511.72,-26680.23,-21956.58,-12876.3,-9634.545
1764433957.9952097,-1616.895,-12867.165,-41557.725,-29513.79,-26682.48,-21961.44,-12875.085,-9633.195
1764433957.9952097,-1614.285,-12865.365,-41557.185,-29512.125,-26681.13,-21957.03,-12874.68,-9633.915
1764433957.9952097,-1609.29,-12862.125,-41556.06,-29508.165,-26676.765,-21948.84,-12875.67,-9634.005
1764433957.9952097,-1612.53,-12867.48,-41562.27,-29510.865,-26679.87,-21946.005,-12883.77,-9643.095
1764433957.9952097,-1609.02,-12867.75,-41564.205,-29508.39,-26677.8,-21936.42,-12886.74,-9647.505
1764433957.9952097,-1605.5549999999998,-12865.995,-41562.72,-29505.285,-26675.82,-21931.56,-12886.605,-9647.1
1764433957.9952097,-1604.205,-12863.205,-41559.795,-29503.53,-26673.57,-21931.92,-12884.04,-9642.915
1764433957.9962,-1604.115,-12861.765,-41556.78,-29502.81,-26672.445,-21936.24,-12880.395,-9637.965
1764433957.9962,-1609.335,-12864.78,-41557.635,-29506.905,-26676.9,-21946.68,-12878.19,-9636.255
1764433957.9962,-1613.2949999999998,-12865.95,-41556.24,-29510.055,-26679.015,-21957.255,-12874.95,-9632.79
1764433957.9962,-1614.465,-12865.05,-41555.34,-29510.415,-26679.78,-21959.685,-12873.015,-9630.855
1764433957.9962,-1610.325,-12861.765,-41553.315,-29507.04,-26676.36,-21953.88,-12872.07,-9629.145
1764433958.0406337,-1607.49,-12860.505,-41553.945,-29505.015,-26674.515,-21947.67,-12873.24,-9632.07
1764433958.0406337,-1610.37,-12865.095,-41560.38,-29507.175,-26677.935,-21944.115,-12880.89,-9640.98
1764433958.0406337,-1604.5649999999998,-12862.89,-41559.66,-29502.18,-26673.93,-21932.145,-12883.32,-9642.465
1764433958.0406337,-1603.215,-12864.06,-41560.155,-29500.92,-26673.345,-21928.005,-12885.03,-9643.77
1764433958.0406337,-1605.4199999999998,-12864.915,-41560.785,-29501.505,-26673.93,-21931.605,-12884.22,-9643.455
1764433958.0406337,-1605.33,-12862.665,-41556.375,-29499.84,-26672.4,-21935.43,-12879.63,-9637.515
1764433958.0406337,-1612.395,-12866.13,-41558.04,-29505.78,-26677.845,-21946.815,-12879.18,-9637.65
1764433958.0406337,-1615.905,-12866.13,-41556.42,-29509.02,-26679.195,-21955.905,-12875.805,-9634.455
1764433958.0406337,-1613.115,-12862.845,-41553.135,-29506.5,-26676.585,-21955.905,-12871.62,-9630.045
1764433958.0406337,-1614.24,-12865.005,-41556.24,-29508.48,-26678.205,-21955.905,-12874.005,-9633.42
1764433958.0406337,-1607.175,-12860.19,-41553.045,-29503.215,-26672.76,-21945.33,-12873.105,-9631.71
1764433958.0406337,-1606.32,-12861.855,-41556.51,-29502.675,-26672.76,-21938.04,-12877.695,-9637.245
1764433958.0406337,-1603.62,-12861.72,-41558.085,-29499.75,-26671.32,-21929.13,-12880.755,-9641.205
1764433958.0416474,-1605.06,-12864.465,-41561.505,-29500.92,-26672.67,-21928.185,-12884.355,-9645.21
1764433958.0416474,-1605.06,-12864.42,-41559.795,-29500.155,-26672.13,-21930.075,-12882.78,-9643.05
1764433958.0416474,-1605.195,-12862.17,-41555.97,-29499.345,-26671.23,-21933.99,-12879.135,-9638.415
1764433958.0416474,-1609.29,-12863.115,-41555.025,-29502.945,-26673.615,-21943.485,-12877.02,-9634.995
1764433958.0416474,-1617.48,-12868.245,-41558.535,-29511.0,-26680.32,-21957.705,-12877.29,-9635.94
1764433958.0416474,-1618.965,-12868.56,-41558.895,-29512.395,-26681.805,-21961.35,-12876.66,-9635.445
1764433958.0416474,-1613.205,-12864.465,-41555.385,-29507.67,-26677.395,-21953.565,-12874.05,-9633.69
1764433958.0416474,-1608.9299999999998,-12861.54,-41554.575,-29503.98,-26674.155,-21944.385,-12874.23,-9634.32
1764433958.0427997,-1606.8149999999998,-12862.215,-41557.5,-29502.765,-26674.47,-21936.915,-12878.415,-9639.09
1764433958.0427997,-1603.215,-12861.675,-41558.94,-29498.94,-26671.545,-21927.465,-12881.565,-9642.51
1764433958.0427997,-1602.45,-12862.305,-41558.76,-29497.905,-26670.15,-21924.09,-12883.68,-9644.355
1764433958.0875812,-1604.2949999999998,-12862.665,-41557.455,-29498.535,-26670.375,-21926.565,-12882.24,-9642.42
1764433958.0875812,-1610.1,-12866.715,-41559.255,-29503.08,-26675.28,-21936.51,-12882.645,-9643.32
1764433958.0875812,-1609.29,-12864.24,-41554.755,-29502.27,-26673.39,-21941.73,-12877.245,-9636.12
1764433958.0875812,-1613.475,-12864.825,-41553.9,-29505.96,-26675.82,-21951.54,-12874.59,-9632.835
1764433958.0875812,-1616.6699999999998,-12866.58,-41555.52,-29508.345,-26678.97,-21957.39,-12874.41,-9633.69
1764433958.0875812,-1618.11,-12868.875,-41559.345,-29511.18,-26681.805,-21957.3,-12878.145,-9639.045
1764433958.0885828,-1612.935,-12866.355,-41558.715,-29506.905,-26677.89,-21948.12,-12878.91,-9639.765
1764433958.0885828,-1616.355,-12871.845,-41566.23,-29510.37,-26681.535,-21945.015,-12886.74,-9649.08
1764433958.0885828,-1610.82,-12869.595,-41565.555,-29505.69,-26676.72,-21932.775,-12887.685,-9650.43
1764433958.0885828,-1605.285,-12865.365,-41562.045,-29500.02,-26672.355,-21925.08,-12885.795,-9646.29
1764433958.0885828,-1605.15,-12864.555,-41559.84,-29499.48,-26672.67,-21927.735,-12884.13,-9643.725
1764433958.0895824,-1610.595,-12868.155,-41560.83,-29503.8,-26675.91,-21937.14,-12883.725,-9643.77
1764433958.0895824,-1615.995,-12871.35,-41562.045,-29508.795,-26680.095,-21947.94,-12882.6,-9642.555
1764433958.0895824,-1617.525,-12869.775,-41557.995,-29509.335,-26680.77,-21956.13,-12878.28,-9636.705
1764433958.0895824,-1622.115,-12872.205,-41561.055,-29513.61,-26685.045,-21962.43,-12878.955,-9638.775
1764433958.0905826,-1621.53,-12872.025,-41562.18,-29512.845,-26685.405,-21960.18,-12881.07,-9640.575
1764433958.0905826,-1615.905,-12868.515,-41559.84,-29508.48,-26680.365,-21950.685,-12881.43,-9640.305
1764433958.0905826,-1616.4,-12871.89,-41566.14,-29510.505,-26682.435,-21946.275,-12887.37,-9647.91
1764433958.0905826,-1611.72,-12870.045,-41567.13,-29507.13,-26679.015,-21935.565,-12889.755,-9650.7
1764433958.0905826,-1605.96,-12865.77,-41562.045,-29500.83,-26672.4,-21927.015,-12887.595,-9646.92
1764433958.0905826,-1605.285,-12864.555,-41558.355,-29498.805,-26671.275,-21928.005,-12883.905,-9642.915
1764433958.0905826,-1608.57,-12865.905,-41558.625,-29501.28,-26674.245,-21935.025,-12881.43,-9640.44
1764433958.0905826,-1614.87,-12869.73,-41560.785,-29506.995,-26678.34,-21946.41,-12880.845,-9639.99
1764433958.0905826,-1616.985,-12868.47,-41558.04,-29508.615,-26679.06,-21954.78,-12877.515,-9634.545
1764433958.131183,-1618.74,-12868.965,-41558.58,-29511.18,-26681.67,-21959.055,-12876.48,-9634.59
1764433958.131183,-1619.595,-12870.315,-41561.775,-29512.62,-26683.065,-21957.93,-12878.91,-9638.64
1764433958.131183,-1614.33,-12866.715,-41559.39,-29506.68,-26678.475,-21948.12,-12879.495,-9638.595
1764433958.1322012,-1612.35,-12867.57,-41561.865,-29506.05,-26677.755,-21941.1,-12883.455,-9644.04
1764433958.1322012,-1610.0549999999998,-12868.515,-41564.52,-29504.61,-26676.99,-21933.18,-12887.28,-9649.305
1764433958.1322012,-1606.6799999999998,-12866.805,-41562.72,-29501.37,-26674.155,-21927.555,-12886.83,-9648.045
1764433958.1322012,-1611.0,-12870.09,-41564.835,-29503.89,-26677.08,-21933.63,-12887.64,-9649.215
1764433958.1327157,-1615.32,-12871.53,-41565.015,-29506.275,-26679.555,-21941.055,-12886.74,-9646.92
1764433958.1327157,-1617.705,-12870.99,-41562.405,-29507.895,-26679.465,-21948.705,-12883.095,-9641.25
1764433958.1327157,-1618.47,-12869.37,-41558.13,-29508.705,-26679.645,-21955.95,-12877.965,-9635.715
1764433958.1332266,-1619.865,-12869.055,-41558.67,-29510.64,-26681.445,-21959.055,-12876.795,-9635.445
1764433958.1332266,-1621.845,-12870.405,-41562.045,-29511.81,-26683.74,-21957.48,-12880.17,-9639.54
1764433958.1332266,-1615.365,-12866.13,-41559.345,-29506.455,-26678.79,-21947.94,-12879.855,-9639.18
1764433958.1332266,-1612.755,-12866.67,-41561.37,-29505.15,-26677.845,-21940.92,-12884.31,-9643.23
1764433958.1332266,-1608.7949999999998,-12865.77,-41561.64,-29501.055,-26674.605,-21930.03,-12885.795,-9645.435
1764433958.1332266,-1607.625,-12865.545,-41561.055,-29499.165,-26673.255,-21926.52,-12886.92,-9645.705
1764433958.1332266,-1610.325,-12868.2,-41562.405,-29502.09,-26675.73,-21931.38,-12886.83,-9646.2
1764433958.1332266,-1612.35,-12868.47,-41560.335,-29503.305,-26676.585,-21937.59,-12884.67,-9642.33
1764433958.1332266,-1613.07,-12866.4,-41556.42,-29503.71,-26675.55,-21944.115,-12879.18,-9635.805
1764433958.1332266,-1617.39,-12866.22,-41555.925,-29507.265,-26678.43,-21954.78,-12875.805,-9633.42
1764433958.1347642,-1621.1699999999998,-12868.155,-41558.445,-29511.09,-26682.48,-21960.27,-12877.155,-9635.265
1764433958.1347642,-1616.13,-12864.285,-41556.555,-29506.905,-26678.925,-21953.655,-12875.715,-9633.825
1764433958.17832,-1613.205,-12864.24,-41557.455,-29504.88,-26677.53,-21946.41,-12877.065,-9636.165
1764433958.17832,-1614.24,-12868.245,-41563.44,-29507.04,-26680.32,-21942.225,-12883.14,-9644.22
1764433958.17832,-1608.9299999999998,-12866.22,-41563.665,-29502.81,-26676.945,-21932.28,-12885.345,-9646.02
1764433958.17832,-1604.115,-12862.845,-41559.57,-29497.905,-26672.13,-21926.655,-12884.715,-9643.41
1764433958.17832,-1605.105,-12862.125,-41557.86,-29497.815,-26671.905,-21929.445,-12882.24,-9641.34
1764433958.17832,-1609.38,-12864.105,-41557.995,-29500.92,-26674.02,-21936.195,-12880.98,-9639.765
1764433958.1793382,-1612.98,-12865.275,-41556.96,-29504.295,-26676.315,-21945.33,-12878.73,-9636.255
1764433958.1793382,-1618.605,-12867.705,-41557.77,-29509.02,-26680.77,-21956.355,-12876.93,-9634.545
1764433958.1793382,-1620.675,-12867.795,-41557.95,-29510.73,-26681.805,-21959.955,-12875.805,-9634.41
1764433958.1793382,-1619.0549999999998,-12866.94,-41558.76,-29509.29,-26681.13,-21956.265,-12876.795,-9636.345
1764433958.1793382,-1612.935,-12864.24,-41556.645,-29504.205,-26676.585,-21945.915,-12877.83,-9636.255
1764433958.1793382,-1613.7,-12868.065,-41562.27,-29506.545,-26679.33,-21941.955,-12884.22,-9644.805
1764433958.1793382,-1610.865,-12867.75,-41563.935,-29503.98,-26678.205,-21933.63,-12887.73,-9649.755
1764433958.1793382,-1609.605,-12867.525,-41562.72,-29502.225,-26676.135,-21929.895,-12889.26,-9649.44
1764433958.1793382,-1608.57,-12865.95,-41559.93,-29499.795,-26674.65,-21931.29,-12886.29,-9645.3
1764433958.1803267,-1607.9399999999998,-12863.295,-41555.385,-29498.76,-26673.435,-21935.205,-12881.115,-9638.865
1764433958.1803267,-1611.3149999999998,-12864.24,-41553.765,-29501.865,-26675.91,-21944.655,-12878.73,-9636.165
1764433958.1808376,-1618.245,-12868.02,-41556.555,-29508.975,-26681.805,-21957.345,-12877.515,-9636.075
1764433958.1818478,-1620.585,-12868.83,-41557.32,-29510.235,-26683.245,-21960.99,-12876.84,-9636.12
1764433958.1818478,-1618.245,-12867.165,-41557.095,-29507.985,-26681.265,-21956.67,-12877.155,-9636.525
1764433958.1818478,-1611.945,-12863.43,-41554.665,-29502.585,-26677.17,-21946.905,-12877.38,-9636.57
1764433958.1818478,-1612.71,-12866.625,-41559.84,-29504.295,-26678.97,-21942.315,-12883.59,-9644.4
1764433958.2249887,-1605.5549999999998,-12862.53,-41557.68,-29498.085,-26673.21,-21930.075,-12883.59,-9643.77
1764433958.2249887,-1605.015,-12864.87,-41558.265,-29497.455,-26673.705,-21927.87,-12885.435,-9645.255
1764433958.2249887,-1607.4,-12865.32,-41558.04,-29498.22,-26674.2,-21931.515,-12884.13,-9643.68
1764433958.2249887,-1613.79,-12869.145,-41560.425,-29504.115,-26679.015,-21942.045,-12884.715,-9644.49
1764433958.2249887,-1614.33,-12866.31,-41556.375,-29503.575,-26677.485,-21948.345,-12879.72,-9637.92
1764433958.2249887,-1618.515,-12868.245,-41556.69,-29507.85,-26680.77,-21958.29,-12877.155,-9635.4
1764433958.2249887,-1620.45,-12868.785,-41557.32,-29509.515,-26682.57,-21961.08,-12876.48,-9635.22
1764433958.2249887,-1618.335,-12868.02,-41558.04,-29508.03,-26681.4,-21957.345,-12877.47,-9636.705
1764433958.2249887,-1615.86,-12867.795,-41558.94,-29506.365,-26679.915,-21950.595,-12879.99,-9640.08
1764433958.2249887,-1617.21,-12872.16,-41565.69,-29508.345,-26683.065,-21946.005,-12887.955,-9648.585
1764433958.2249887,-1611.3149999999998,-12868.47,-41563.71,-29501.775,-26678.205,-21933.585,-12889.215,-9648.63
1764433958.2249887,-1612.4399999999998,-12870.72,-41565.195,-29502.225,-26678.655,-21932.955,-12890.88,-9651.015
1764433958.2249887,-1610.28,-12867.39,-41560.605,-29498.985,-26675.685,-21933.09,-12886.605,-9646.11
1764433958.226006,-1613.97,-12868.695,-41560.38,-29502.495,-26678.43,-21941.235,-12884.715,-9643.545
1764433958.226006,-1614.735,-12866.4,-41556.24,-29501.865,-26678.205,-21948.255,-12879.27,-9637.2
1764433958.226006,-1621.62,-12870.45,-41559.255,-29508.03,-26683.785,-21961.62,-12878.865,-9637.965
1764433958.226006,-1621.395,-12869.415,-41558.265,-29508.66,-26683.74,-21963.645,-12877.695,-9636.21
1764433958.226006,-1621.755,-12871.08,-41561.28,-29509.965,-26684.91,-21962.52,-12880.395,-9640.35
1764433958.226006,-1615.41,-12867.165,-41559.345,-29504.07,-26679.735,-21951.405,-12879.72,-9640.44
1764433958.226006,-1614.645,-12869.19,-41563.035,-29504.34,-26680.86,-21945.06,-12885.525,-9646.74
1764433958.226006,-1612.4399999999998,-12869.82,-41564.745,-29502.045,-26679.015,-21936.915,-12889.665,-9650.115
1764433958.226006,-1612.26,-12870.09,-41564.565,-29501.46,-26678.07,-21934.17,-12890.88,-9650.7
1764433958.226006,-1615.23,-12872.79,-41565.195,-29503.98,-26681.13,-21939.255,-12891.78,-9650.97
1764433958.226006,-1615.23,-12870.405,-41561.19,-29502.54,-26679.735,-21943.53,-12887.19,-9644.985
1764433958.2741077,-1618.155,-12870.855,-41559.885,-29505.33,-26680.95,-21951.9,-12883.5,-9640.8
1764433958.2741077,-1622.7,-12873.195,-41560.29,-29509.38,-26684.505,-21962.88,-12881.115,-9639.585
1764433958.2741077,-1621.575,-12871.035,-41558.085,-29508.345,-26682.93,-21962.79,-12878.505,-9636.885
1764433958.2741077,-1623.5549999999998,-12873.42,-41562.09,-29510.415,-26685.09,-21961.89,-12882.015,-9641.745
1764433958.2741077,-1617.885,-12869.865,-41560.065,-29505.555,-26680.41,-21952.395,-12882.735,-9641.475
1764433958.2741077,-1618.74,-12873.915,-41565.825,-29507.4,-26683.38,-21947.625,-12889.665,-9649.845
1764433958.2751243,-1615.5,-12873.645,-41566.23,-29503.89,-26680.41,-21938.04,-12891.51,-9651.96
1764433958.2751243,-1614.78,-12872.565,-41566.32,-29501.775,-26679.24,-21934.89,-12892.77,-9651.6
1764433958.2751243,-1611.945,-12868.02,-41560.965,-29497.59,-26675.325,-21934.035,-12887.91,-9644.895
1764433958.2751243,-1616.085,-12870.495,-41561.595,-29501.19,-26678.385,-21942.81,-12887.1,-9643.455
1764433958.2751243,-1622.2949999999998,-12874.77,-41563.665,-29507.175,-26683.605,-21955.455,-12885.795,-9643.14
1764433958.2751243,-1626.48,-12875.355,-41562.81,-29510.73,-26685.72,-21965.085,-12883.32,-9640.17
1764433958.2751243,-1623.375,-12871.53,-41559.165,-29508.12,-26683.02,-21963.69,-12879.72,-9636.12
1764433958.2751243,-1622.115,-12871.305,-41560.245,-29507.805,-26682.345,-21959.415,-12881.205,-9638.505
1764433958.2751243,-1620.495,-12871.215,-41561.595,-29506.905,-26682.12,-21954.015,-12884.67,-9641.79
1764433958.2751243,-1622.25,-12875.85,-41567.805,-29508.435,-26684.955,-21949.965,-12892.14,-9650.385
1764433958.2751243,-1616.6699999999998,-12873.15,-41566.68,-29503.08,-26679.06,-21937.905,-12893.355,-9650.52
1764433958.2751243,-1615.6799999999998,-12874.14,-41566.995,-29502.09,-26678.205,-21935.07,-12894.345,-9651.33
1764433958.2751243,-1612.575,-12870.315,-41562.09,-29498.805,-26675.19,-21935.115,-12889.35,-9645.615
1764433958.2751243,-1616.895,-12872.565,-41562.18,-29502.495,-26678.52,-21944.07,-12888.18,-9645.12
1764433958.2751243,-1622.34,-12874.815,-41562.27,-29507.13,-26682.84,-21955.455,-12886.02,-9643.545
1764433958.2751243,-1622.97,-12872.34,-41558.175,-29507.49,-26682.345,-21961.395,-12880.845,-9637.065
1764433958.2751243,-1625.445,-12874.005,-41560.74,-29510.235,-26685.045,-21965.04,-12881.07,-9638.055
1764433958.2751243,-1623.105,-12873.105,-41560.605,-29508.48,-26683.74,-21960.765,-12881.25,-9638.775
1764433958.3184867,-1616.04,-12869.235,-41557.23,-29503.035,-26678.655,-21949.875,-12880.89,-9638.19
1764433958.3184867,-1616.58,-12871.485,-41563.17,-29503.575,-26679.33,-21943.98,-12886.38,-9645.3
1764433958.3184867,-1609.785,-12866.85,-41560.29,-29497.005,-26672.985,-21931.38,-12886.965,-9645.165
1764433958.3184867,-1610.145,-12867.66,-41560.965,-29497.455,-26673.57,-21930.3,-12888.99,-9646.605
1764433958.3195615,-1613.4299999999998,-12870.99,-41562.495,-29501.055,-26676.855,-21937.77,-12889.125,-9647.865
1764433958.3195615,-1616.265,-12872.205,-41562.405,-29503.305,-26679.015,-21945.555,-12887.055,-9645.705
1764433958.3195615,-1619.73,-12872.295,-41560.515,-29505.915,-26680.545,-21954.015,-12884.13,-9641.97
1764433958.3195615,-1623.105,-12872.25,-41558.94,-29507.58,-26682.66,-21961.89,-12881.205,-9637.965
1764433958.3195615,-1621.62,-12870.09,-41557.005,-29506.05,-26681.085,-21961.575,-12878.505,-9636.255
1764433958.3195615,-1623.285,-12872.43,-41560.695,-29507.94,-26682.795,-21960.27,-12881.52,-9641.205
1764433958.3195615,-1618.605,-12869.595,-41559.39,-29502.945,-26678.7,-21950.505,-12882.42,-9642.15
1764433958.3195615,-1619.1,-12872.88,-41564.52,-29503.98,-26679.645,-21945.015,-12889.035,-9649.305
1764433958.3195615,-1612.215,-12869.415,-41562.135,-29498.13,-26674.425,-21933.225,-12889.62,-9648.765
1764433958.3195615,-1611.405,-12870.045,-41561.865,-29497.14,-26674.065,-21931.245,-12889.62,-9649.89
1764433958.3195615,-1611.135,-12868.335,-41559.03,-29496.555,-26673.57,-21934.305,-12886.605,-9646.47
1764433958.3195615,-1611.45,-12866.445,-41555.385,-29496.06,-26672.895,-21939.255,-12883.365,-9641.43
1764433958.3195615,-1614.78,-12867.39,-41554.53,-29498.805,-26676.09,-21948.795,-12880.62,-9637.92
1764433958.3195615,-1619.55,-12869.325,-41555.115,-29502.99,-26680.14,-21959.82,-12879.09,-9635.94
1764433958.3205564,-1620.3149999999998,-12868.47,-41554.575,-29503.89,-26680.095,-21961.665,-12877.245,-9634.41
1764433958.3205564,-1619.145,-12867.795,-41554.8,-29503.08,-26678.7,-21957.615,-12878.28,-9635.805
1764433958.3210683,-1617.84,-12868.065,-41556.69,-29501.91,-26678.745,-21950.955,-12881.205,-9639.585
1764433958.3210683,-1619.865,-12873.555,-41564.07,-29504.07,-26682.12,-21946.815,-12888.99,-9649.08
1764433958.3220787,-1614.4199999999998,-12871.665,-41563.44,-29499.705,-26678.295,-21936.69,-12890.34,-9650.43
1764433958.3220787,-1610.955,-12868.92,-41559.525,-29496.015,-26675.46,-21931.92,-12889.755,-9646.92
1764433958.3649185,-1611.765,-12868.56,-41557.545,-29496.015,-26675.73,-21934.71,-12887.73,-9643.86
1764433958.3649185,-1615.095,-12869.955,-41556.915,-29498.13,-26677.665,-21943.08,-12885.48,-9642.285
1764433958.3649185,-1618.29,-12870.765,-41555.925,-29500.38,-26679.06,-21951.945,-12881.565,-9639.135
1764433958.3649185,-1623.78,-12873.51,-41556.645,-29504.52,-26683.29,-21962.475,-12879.36,-9638.055
1764433958.3649185,-1624.32,-12873.24,-41556.78,-29505.87,-26683.335,-21964.005,-12878.415,-9637.965
1764433958.3649185,-1622.88,-12872.205,-41557.815,-29505.105,-26681.535,-21958.92,-12880.035,-9639.54
1764433958.3649185,-1617.48,-12867.165,-41555.88,-29499.165,-26676.09,-21948.345,-12880.395,-9638.775
1764433958.3649185,-1618.335,-12870.675,-41561.64,-29500.065,-26678.385,-21943.485,-12887.415,-9646.695
1764433958.3649185,-1619.505,-12875.13,-41567.13,-29501.595,-26680.455,-21938.76,-12893.625,-9654.48
1764433958.3649185,-1616.265,-12874.23,-41564.52,-29498.895,-26677.62,-21935.205,-12892.725,-9652.725
1764433958.3649185,-1613.2949999999998,-12870.495,-41558.715,-29495.655,-26673.885,-21934.845,-12887.595,-9645.57
1764433958.3649185,-1617.345,-12872.25,-41558.445,-29498.715,-26675.865,-21943.845,-12885.255,-9644.895
1764433958.3649185,-1617.7949999999998,-12869.415,-41554.935,-29498.535,-26675.955,-21950.37,-12879.585,-9638.19
1764433958.3649185,-1624.5,-12873.195,-41557.005,-29504.61,-26681.4,-21962.475,-12879.72,-9638.64
1764433958.3649185,-1623.375,-12871.44,-41556.06,-29504.16,-26680.77,-21963.285,-12878.415,-9636.21
1764433958.3649185,-1621.3049999999998,-12870.63,-41556.555,-29502.315,-26679.015,-21958.65,-12879.315,-9637.155
1764433958.3649185,-1618.695,-12870.09,-41557.815,-29500.29,-26677.44,-21950.775,-12881.25,-9641.115
1764433958.3649185,-1620.585,-12874.32,-41563.755,-29502.765,-26680.365,-21946.545,-12888.09,-9650.43
1764433958.3649185,-1616.085,-12872.07,-41562.495,-29497.815,-26675.82,-21936.42,-12889.305,-9651.285
1764433958.3649185,-1611.09,-12868.47,-41558.58,-29492.73,-26671.14,-21930.57,-12886.965,-9647.55
1764433958.365939,-1613.4299999999998,-12870.315,-41559.66,-29494.305,-26673.48,-21935.52,-12886.065,-9646.155
1764433958.365939,-1612.665,-12867.345,-41555.205,-29493.27,-26671.815,-21939.39,-12880.71,-9639.18
1764433958.415064,-1618.155,-12868.875,-41555.34,-29498.04,-26675.46,-21950.46,-12878.415,-9637.47
1764433958.415064,-1619.82,-12867.795,-41551.965,-29498.535,-26675.91,-21957.165,-12874.14,-9632.61
1764433958.415064,-1619.73,-12866.85,-41551.245,-29498.49,-26676.045,-21958.875,-12871.755,-9631.125
1764433958.415064,-1617.21,-12865.545,-41550.615,-29495.88,-26673.345,-21953.16,-12871.53,-9631.575
1764433958.415064,-1613.52,-12865.185,-41551.47,-29493.81,-26672.265,-21945.915,-12874.23,-9635.085
1764433958.415064,-1616.13,-12870.675,-41559.12,-29497.41,-26676.765,-21942.765,-12882.87,-9645.615
1764433958.415064,-1613.07,-12870.135,-41560.065,-29494.305,-26674.38,-21933.72,-12885.21,-9648.495
1764433958.415064,-1611.855,-12870.045,-41559.525,-29492.775,-26672.76,-21931.425,-12885.705,-9647.37
1764433958.415064,-1611.81,-12869.37,-41557.725,-29492.28,-26672.805,-21934.845,-12883.59,-9644.58
1764433958.415064,-1611.54,-12866.535,-41553.045,-29491.425,-26671.185,-21938.58,-12879.36,-9638.415
1764433958.415064,-1615.185,-12867.03,-41551.695,-29493.72,-26672.67,-21947.67,-12875.58,-9634.095
1764433958.415064,-1623.195,-12871.575,-41555.07,-29500.695,-26679.645,-21960.18,-12875.715,-9635.31
1764433958.4154885,-1624.455,-12871.755,-41555.655,-29502.18,-26680.635,-21962.61,-12876.66,-9636.03
1764433958.4154885,-1620.09,-12869.37,-41555.025,-29498.535,-26676.855,-21956.31,-12876.84,-9635.355
1764433958.4154885,-1616.355,-12868.29,-41556.015,-29495.7,-26674.965,-21947.94,-12877.83,-9638.055
1764433958.4154885,-1616.8049999999998,-12871.08,-41560.245,-29496.915,-26676.99,-21942.405,-12884.13,-9645.165
1764433958.4154885,-1612.3049999999998,-12868.965,-41559.66,-29492.37,-26673.525,-21932.955,-12885.165,-9647.64
1764433958.4154885,-1611.495,-12869.01,-41559.3,-29491.065,-26672.22,-21931.11,-12886.02,-9647.82
1764433958.4154885,-1609.83,-12866.355,-41554.53,-29488.32,-26669.61,-21931.785,-12881.925,-9641.79
1764433958.4154885,-1612.755,-12867.21,-41553.945,-29490.57,-26671.725,-21938.715,-12879.855,-9638.865
1764433958.4154885,-1616.355,-12868.56,-41552.91,-29493.45,-26674.2,-21948.345,-12876.93,-9635.31
1764433958.4154885,-1622.61,-12872.385,-41555.34,-29498.85,-26679.465,-21960.36,-12877.29,-9635.49
1764433958.4154885,-1621.3049999999998,-12870.585,-41553.72,-29497.14,-26677.53,-21959.235,-12873.825,-9632.655
1764433958.4154885,-1619.1899999999998,-12869.865,-41554.62,-29496.645,-26676.9,-21954.42,-12875.22,-9634.815
1764433958.4590044,-1615.365,-12868.02,-41555.16,-29494.17,-26673.345,-21945.87,-12876.615,-9637.065
1764433958.4590044,-1616.355,-12872.025,-41560.155,-29494.89,-26674.965,-21940.155,-12883.14,-9645.345
1764433958.4590044,-1613.07,-12871.89,-41560.92,-29491.2,-26673.165,-21931.335,-12886.02,-9648.855
1764433958.4590044,-1613.07,-12872.43,-41561.19,-29490.165,-26672.4,-21930.03,-12887.595,-9649.935
1764433958.4590044,-1613.34,-12871.08,-41558.22,-29490.03,-26671.545,-21932.64,-12884.49,-9646.02
1764433958.4590044,-1614.825,-12869.775,-41555.835,-29490.615,-26670.87,-21937.455,-12880.575,-9641.07
1764433958.4590044,-1614.6899999999998,-12866.85,-41550.165,-29489.985,-26668.62,-21942.63,-12874.545,-9633.15
1764433958.4590044,-1619.0549999999998,-12867.48,-41549.85,-29493.36,-26671.995,-21952.215,-12872.745,-9630.63
1764433958.4590044,-1618.785,-12866.31,-41549.13,-29492.955,-26672.175,-21952.845,-12871.215,-9629.595
1764433958.4590044,-1616.31,-12865.59,-41550.075,-29492.28,-26671.995,-21948.705,-12872.61,-9631.89
1764433958.4590044,-1612.575,-12864.06,-41550.795,-29490.21,-26670.555,-21941.55,-12874.455,-9634.05
1764433958.4590044,-1610.325,-12864.69,-41553.495,-29489.265,-26670.465,-21934.98,-12878.91,-9638.91
1764433958.4590044,-1606.59,-12864.555,-41554.575,-29487.24,-26669.295,-21927.96,-12882.015,-9642.69
1764433958.4590044,-1605.15,-12864.24,-41553.855,-29486.16,-26668.845,-21927.195,-12881.88,-9642.33
1764433958.4590044,-1605.78,-12864.015,-41551.965,-29485.935,-26669.115,-21931.875,-12879.54,-9639.09
1764433958.4590044,-1610.0549999999998,-12865.455,-41551.875,-29489.04,-26672.04,-21941.19,-12879.045,-9636.795
1764433958.4590044,-1614.15,-12866.715,-41550.885,-29493.09,-26675.415,-21951.72,-12876.03,-9633.645
1764433958.4590044,-1619.865,-12869.01,-41552.955,-29499.255,-26681.67,-21963.96,-12875.67,-9633.69
1764433958.4605153,-1619.28,-12868.38,-41552.28,-29499.12,-26681.895,-21965.355,-12874.86,-9632.7
1764433958.4605153,-1613.97,-12864.6,-41549.535,-29494.53,-26678.07,-21957.885,-12874.14,-9631.62
1764433958.4605153,-1612.08,-12863.475,-41551.335,-29493.225,-26677.53,-21952.305,-12877.335,-9634.995
1764433958.4605153,-1613.655,-12867.975,-41558.31,-29495.88,-26681.04,-21947.535,-12885.255,-9643.455
1764433958.5038488,-1611.945,-12870.855,-41561.64,-29495.295,-26680.635,-21940.74,-12890.52,-9649.575
1764433958.5038488,-1612.4399999999998,-12871.53,-41561.415,-29494.8,-26680.275,-21938.49,-12891.645,-9649.575
1764433958.5038488,-1613.2949999999998,-12871.305,-41559.03,-29493.54,-26678.61,-21940.785,-12888.315,-9645.885
1764433958.5038488,-1616.4,-12871.665,-41557.14,-29494.755,-26678.835,-21945.69,-12884.22,-9642.825
1764433958.5038488,-1619.955,-12872.115,-41555.43,-29496.87,-26680.815,-21954.015,-12881.16,-9638.91
1764433958.5038488,-1621.89,-12871.305,-41552.955,-29498.445,-26681.49,-21960.99,-12877.2,-9634.68
1764433958.5038488,-1618.29,-12867.255,-41549.76,-29495.475,-26678.16,-21958.245,-12873.33,-9630.765
1764433958.5038488,-1615.5449999999998,-12865.32,-41549.58,-29493.0,-26676.18,-21951.45,-12872.745,-9631.395
1764433958.5038488,-1613.205,-12865.545,-41550.345,-29491.425,-26673.84,-21943.71,-12874.59,-9635.085
1764433958.5038488,-1616.04,-12871.98,-41558.58,-29494.845,-26676.63,-21939.93,-12883.185,-9645.165
1764433958.5038488,-1612.98,-12870.135,-41559.705,-29490.48,-26673.03,-21930.165,-12884.94,-9647.055
1764433958.5038488,-1610.595,-12869.01,-41556.825,-29487.69,-26670.78,-21926.88,-12884.085,-9645.48
1764433958.5038488,-1610.415,-12868.245,-41553.765,-29487.33,-26670.015,-21929.49,-12880.755,-9641.52
1764433958.5048764,-1609.83,-12865.455,-41549.58,-29486.205,-26667.99,-21933.99,-12875.175,-9635.715
1764433958.5048764,-1613.2949999999998,-12865.14,-41548.41,-29489.31,-26670.555,-21943.845,-12872.07,-9631.845
1764433958.5048764,-1620.1799999999998,-12870.135,-41551.83,-29496.915,-26677.305,-21956.04,-12873.15,-9632.97
1764433958.5048764,-1620.945,-12869.28,-41551.38,-29497.32,-26677.305,-21957.12,-12872.25,-9632.565
1764433958.5048764,-1616.085,-12865.32,-41549.04,-29492.28,-26673.48,-21949.245,-12871.665,-9631.755
1764433958.5048764,-1613.025,-12864.24,-41550.12,-29490.255,-26672.04,-21941.28,-12873.78,-9634.86
1764433958.5048764,-1614.78,-12868.92,-41557.59,-29492.37,-26675.19,-21938.085,-12882.735,-9643.95
1764433958.5048764,-1608.165,-12865.86,-41555.43,-29486.79,-26670.285,-21927.96,-12884.22,-9643.545
1764433958.5048764,-1610.01,-12867.84,-41556.915,-29488.32,-26671.59,-21928.68,-12886.38,-9645.705
1764433958.5048764,-1614.33,-12870.765,-41558.355,-29491.02,-26674.92,-21935.97,-12886.56,-9645.615
1764433958.5048764,-1615.77,-12869.865,-41555.97,-29492.37,-26675.865,-21942.495,-12882.465,-9642.195
1764433958.553142,-1618.0649999999998,-12869.64,-41553.27,-29494.35,-26676.675,-21950.235,-12877.875,-9637.2
1764433958.553142,-1621.665,-12869.955,-41552.235,-29496.87,-26678.205,-21958.155,-12875.4,-9634.14
1764433958.553142,-1620.3149999999998,-12868.245,-41550.39,-29495.79,-26676.72,-21957.165,-12873.6,-9632.25
1764433958.553142,-1619.415,-12868.83,-41552.19,-29494.665,-26676.315,-21952.935,-12876.255,-9634.815
1764433958.553142,-1617.66,-12869.055,-41553.99,-29493.945,-26675.595,-21947.085,-12880.35,-9638.82
1764433958.553142,-1617.975,-12871.98,-41559.165,-29495.52,-26676.99,-21941.235,-12886.92,-9645.885
1764433958.553142,-1612.035,-12868.065,-41556.42,-29489.94,-26671.365,-21930.705,-12886.605,-9645.615
1764433958.553142,-1614.825,-12871.44,-41558.49,-29491.83,-26673.705,-21932.505,-12889.125,-9648.855
1764433958.553142,-1615.95,-12871.755,-41556.96,-29492.595,-26675.145,-21936.735,-12887.145,-9646.155
1764433958.553142,-1619.415,-12873.285,-41557.23,-29495.16,-26677.62,-21945.105,-12885.57,-9644.445
1764433958.553142,-1622.655,-12873.6,-41555.925,-29498.085,-26679.735,-21953.97,-12882.195,-9639.63
1764433958.553142,-1624.8149999999998,-12873.015,-41553.765,-29499.975,-26680.41,-21961.485,-12878.64,-9635.805
1764433958.553142,-1622.4299999999998,-12869.91,-41551.11,-29498.04,-26678.115,-21959.55,-12875.22,-9632.97
1764433958.553142,-1621.845,-12870.945,-41552.865,-29498.22,-26678.475,-21956.22,-12877.965,-9637.155
1764433958.553142,-1617.345,-12868.29,-41552.325,-29495.025,-26675.28,-21947.58,-12880.485,-9638.685
1764433958.553142,-1619.73,-12873.87,-41560.695,-29497.95,-26678.565,-21944.07,-12888.675,-9647.775
1764433958.553142,-1615.41,-12873.105,-41560.605,-29494.44,-26675.19,-21934.575,-12889.35,-9649.125
1764433958.553142,-1616.085,-12874.545,-41560.605,-29494.71,-26675.64,-21934.08,-12890.655,-9649.665
1764433958.553142,-1616.625,-12873.555,-41558.085,-29494.17,-26675.55,-21937.275,-12888.135,-9646.065
1764433958.553142,-1619.1,-12873.96,-41557.32,-29496.33,-26677.44,-21945.465,-12885.345,-9643.32
1764433958.553142,-1621.125,-12873.195,-41554.17,-29498.22,-26678.655,-21954.24,-12880.62,-9637.92
1764433958.553142,-1620.765,-12869.685,-41550.39,-29497.995,-26678.115,-21958.965,-12875.715,-9632.25
1764433958.553142,-1620.135,-12868.92,-41549.715,-29496.915,-26678.295,-21959.055,-12874.815,-9631.53
1764433958.553142,-1617.03,-12866.445,-41548.275,-29493.18,-26675.46,-21952.125,-12874.095,-9631.305
1764433958.601267,-1614.465,-12866.265,-41549.805,-29490.795,-26674.38,-21945.915,-12875.805,-9634.005
1764433958.601267,-1614.87,-12870.405,-41555.475,-29492.19,-26676.585,-21940.515,-12882.015,-9641.79
1764433958.601267,-1610.145,-12867.03,-41554.395,-29487.645,-26671.95,-21930.255,-12883.14,-9643.32
1764433958.602279,-1605.6899999999998,-12863.295,-41550.12,-29482.695,-26666.91,-21925.53,-12880.575,-9639.27
1764433958.602279,-1606.77,-12864.015,-41548.32,-29484.18,-26667.18,-21929.94,-12878.595,-9635.985
1764433958.602279,-1610.73,-12865.275,-41548.095,-29487.915,-26670.51,-21938.58,-12877.02,-9634.59
1764433958.602279,-1616.85,-12867.435,-41547.78,-29492.64,-26675.145,-21950.28,-12875.49,-9633.33
1764433958.602279,-1617.165,-12865.05,-41544.495,-29491.74,-26674.38,-21955.32,-12870.18,-9627.615
1764433958.602279,-1618.47,-12866.58,-41546.79,-29493.9,-26676.225,-21957.255,-12870.45,-9628.515
1764433958.602279,-1619.73,-12869.055,-41550.615,-29495.52,-26678.025,-21955.14,-12874.815,-9633.69
1764433958.602279,-1615.6799999999998,-12866.535,-41549.49,-29490.795,-26674.155,-21945.78,-12876.525,-9634.995
1764433958.602279,-1610.595,-12865.5,-41550.21,-29487.465,-26671.185,-21935.43,-12878.73,-9638.055
1764433958.602279,-1610.28,-12867.57,-41554.125,-29487.6,-26671.68,-21931.2,-12882.285,-9643.365
1764433958.602279,-1611.1799999999998,-12868.155,-41553.855,-29486.925,-26671.32,-21931.065,-12883.455,-9642.735
1764433958.602279,-1612.98,-12869.01,-41552.64,-29488.275,-26672.715,-21935.925,-12882.915,-9640.215
1764433958.602279,-1615.23,-12868.155,-41551.425,-29489.445,-26673.615,-21943.215,-12879.36,-9636.84
1764433958.602279,-1617.615,-12867.075,-41549.04,-29490.795,-26674.38,-21951.315,-12874.005,-9631.62
1764433958.602279,-1616.58,-12863.52,-41543.415,-29489.4,-26671.995,-21955.32,-12868.56,-9624.555
1764433958.602279,-1617.39,-12863.295,-41543.415,-29490.39,-26672.94,-21955.77,-12868.11,-9624.42
1764433958.602279,-1615.41,-12862.62,-41545.665,-29489.715,-26672.49,-21951.945,-12869.415,-9628.29
1764433958.602279,-1609.02,-12859.155,-41543.28,-29484.675,-26668.17,-21941.28,-12869.46,-9628.155
1764433958.602279,-1607.6699999999998,-12861.045,-41546.34,-29484.855,-26668.485,-21933.72,-12874.455,-9634.32
1764433958.6427393,-1606.995,-12862.755,-41549.4,-29483.865,-26668.17,-21927.555,-12878.595,-9639.18
1764433958.6432743,-1602.72,-12858.705,-41545.305,-29478.33,-26663.265,-21923.505,-12875.04,-9634.455
1764433958.6432743,-1604.5649999999998,-12859.065,-41544.855,-29479.365,-26664.48,-21928.95,-12872.745,-9632.43
1764433958.6432743,-1609.74,-12861.855,-41545.44,-29484.09,-26667.945,-21938.715,-12871.71,-9631.17
1764433958.6432743,-1609.47,-12858.975,-41540.49,-29484.18,-26667.045,-21944.79,-12866.31,-9623.295
1764433958.6432743,-1612.215,-12859.785,-41540.49,-29487.33,-26669.745,-21952.485,-12864.6,-9621.765
1764433958.6432743,-1616.265,-12863.52,-41544.405,-29491.56,-26673.93,-21957.12,-12866.175,-9625.86
1764433958.6432743,-1613.745,-12862.26,-41545.08,-29489.49,-26671.77,-21951.27,-12867.345,-9626.85
1764433958.6432743,-1606.41,-12857.49,-41542.875,-29483.28,-26666.46,-21939.345,-12867.48,-9626.445
1764433958.6432743,-1605.51,-12860.595,-41547.555,-29483.865,-26666.865,-21932.505,-12873.87,-9633.42
1764433958.6432743,-1605.15,-12862.8,-41550.705,-29484.045,-26667.495,-21927.51,-12877.875,-9637.92
1764433958.6432743,-1600.155,-12858.615,-41545.575,-29479.005,-26662.365,-21922.83,-12874.365,-9632.34
1764433958.6432743,-1601.415,-12859.065,-41543.46,-29479.815,-26662.815,-21927.375,-12871.98,-9629.01
1764433958.6432743,-1604.52,-12859.83,-41542.605,-29482.74,-26664.975,-21934.44,-12869.505,-9627.12
1764433958.6432743,-1607.8049999999998,-12859.965,-41540.805,-29485.305,-26667.36,-21944.52,-12866.58,-9623.745
1764433958.6432743,-1611.9,-12861.45,-41540.94,-29488.815,-26670.78,-21953.115,-12864.78,-9621.9
1764433958.6432743,-1615.23,-12864.15,-41544.09,-29492.235,-26674.29,-21956.625,-12867.12,-9624.78
1764433958.6432743,-1611.09,-12860.865,-41542.56,-29488.005,-26671.23,-21949.335,-12867.165,-9624.6
1764433958.6432743,-1609.605,-12861.54,-41545.35,-29486.115,-26670.24,-21943.08,-12870.495,-9629.1
1764433958.6432743,-1606.905,-12861.945,-41547.69,-29484.045,-26669.115,-21934.53,-12874.59,-9634.365
1764433958.6432743,-1604.745,-12863.025,-41549.13,-29482.695,-26667.63,-21928.815,-12878.415,-9638.28
1764433958.6432743,-1606.59,-12865.545,-41550.345,-29483.955,-26669.475,-21930.48,-12879.945,-9640.53
1764433958.6909437,-1605.6899999999998,-12863.25,-41546.43,-29482.155,-26667.81,-21932.37,-12875.49,-9635.625
1764433958.6909437,-1608.3,-12863.925,-41545.575,-29484.225,-26670.06,-21939.75,-12872.34,-9631.845
1764433958.6909437,-1614.78,-12867.12,-41547.465,-29490.525,-26675.415,-21952.08,-12871.17,-9630.765
1764433958.6909437,-1617.345,-12866.49,-41546.745,-29493.495,-26677.53,-21959.73,-12869.145,-9628.155
1764433958.6909437,-1617.84,-12866.355,-41546.7,-29494.125,-26677.98,-21960.18,-12869.01,-9628.605
1764433958.6909437,-1613.745,-12863.43,-41546.205,-29491.605,-26675.37,-21952.665,-12868.515,-9628.92
1764433958.6909437,-1606.77,-12858.57,-41543.055,-29484.72,-26669.16,-21941.1,-12867.66,-9626.94
1764433958.6925015,-1604.79,-12860.37,-41546.655,-29483.19,-26669.07,-21933.18,-12872.61,-9632.835
1764433958.6925015,-1602.675,-12861.27,-41548.14,-29481.66,-26667.135,-21926.07,-12874.905,-9634.815
1764433958.6925015,-1604.97,-12863.97,-41549.49,-29483.55,-26668.485,-21928.86,-12876.255,-9636.525
1764433958.6925015,-1607.04,-12863.79,-41548.23,-29484.81,-26669.475,-21933.315,-12874.005,-9633.87
1764433958.6925015,-1609.2,-12863.205,-41546.25,-29486.07,-26669.7,-21939.84,-12870.945,-9629.91
1764433958.6925015,-1610.145,-12861.945,-41543.37,-29487.105,-26669.7,-21947.445,-12867.255,-9624.195
1764433958.6925015,-1613.97,-12864.42,-41543.955,-29490.795,-26673.885,-21955.995,-12865.365,-9623.655
1764433958.6925015,-1617.9299999999998,-12867.21,-41548.365,-29495.16,-26677.53,-21960.18,-12868.92,-9628.02
1764433958.6925015,-1613.835,-12863.97,-41547.24,-29492.145,-26674.695,-21952.08,-12868.83,-9628.065
1764433958.6925015,-1605.51,-12858.255,-41543.235,-29484.495,-26667.855,-21939.255,-12866.85,-9625.995
1764433958.6925015,-1606.6799999999998,-12862.98,-41549.31,-29486.52,-26670.42,-21934.035,-12874.095,-9634.455
1764433958.6925015,-1605.5549999999998,-12864.375,-41551.38,-29484.675,-26669.52,-21929.58,-12878.46,-9638.73
1764433958.6925015,-1604.34,-12863.475,-41549.94,-29482.515,-26666.955,-21928.32,-12877.155,-9637.425
1764433958.6925015,-1604.07,-12861.72,-41546.25,-29482.2,-26666.865,-21930.93,-12873.69,-9632.52
1764433958.6925015,-1608.03,-12863.88,-41545.62,-29484.99,-26669.79,-21940.425,-12871.98,-9630.9
1764433958.6925015,-1606.59,-12860.01,-41539.455,-29482.92,-26666.73,-21945.96,-12864.42,-9622.44
1764433958.6925015,-1608.12,-12858.615,-41537.295,-29485.17,-26668.53,-21951.54,-12860.82,-9619.11
1764433958.7355638,-1607.6699999999998,-12858.525,-41537.79,-29485.89,-26669.34,-21951.945,-12860.1,-9618.615
1764433958.7355638,-1606.14,-12859.02,-41540.22,-29485.305,-26668.89,-21946.95,-12862.755,-9621.855
1764433958.7355638,-1605.375,-12860.01,-41543.19,-29484.54,-26668.755,-21940.245,-12866.625,-9626.67
1764433958.7355638,-1605.105,-12862.71,-41548.185,-29484.405,-26670.15,-21933.855,-12872.655,-9634.05
1764433958.7355638,-1597.86,-12858.165,-41544.18,-29477.745,-26663.715,-21922.47,-12871.17,-9632.34
1764433958.7355638,-1597.455,-12858.03,-41543.37,-29476.305,-26662.545,-21921.615,-12871.575,-9631.755
1764433958.7355638,-1600.515,-12859.695,-41543.19,-29478.33,-26664.795,-21928.365,-12870.675,-9630.18
1764433958.7355638,-1605.15,-12861.99,-41543.415,-29481.84,-26667.495,-21937.005,-12868.74,-9628.47
1764433958.7355638,-1604.16,-12857.445,-41537.565,-29480.04,-26665.02,-21941.595,-12861.495,-9619.56
1764433958.7355638,-1606.635,-12857.49,-41537.115,-29481.345,-26666.055,-21948.255,-12858.075,-9616.77
1764433958.7355638,-1607.715,-12858.345,-41538.375,-29482.965,-26666.955,-21949.245,-12858.66,-9618.075
1764433958.7355638,-1604.475,-12857.535,-41538.69,-29481.66,-26666.19,-21943.44,-12860.19,-9619.965
1764433958.7355638,-1600.245,-12855.87,-41539.095,-29478.42,-26663.355,-21935.115,-12861.585,-9622.125
1764433958.7355638,-1602.135,-12859.74,-41544.855,-29479.995,-26665.605,-21929.535,-12868.65,-9630.495
1764433958.7371118,-1599.39,-12859.92,-41545.215,-29477.205,-26663.535,-21922.2,-12871.26,-9633.33
1764433958.7371118,-1597.005,-12858.255,-41542.11,-29474.73,-26660.745,-21919.95,-12869.415,-9630.045
1764433958.7371118,-1596.51,-12855.915,-41538.375,-29473.2,-26659.575,-21922.515,-12864.78,-9624.375
1764433958.7371118,-1602.0449999999998,-12858.795,-41539.815,-29477.88,-26664.03,-21932.64,-12862.755,-9623.79
1764433958.7371118,-1604.52,-12857.85,-41536.665,-29479.5,-26664.75,-21941.82,-12858.3,-9618.21
1764433958.7371118,-1602.495,-12853.35,-41530.815,-29477.16,-26662.185,-21943.8,-12852.495,-9610.515
1764433958.7371118,-1604.25,-12854.745,-41532.345,-29479.005,-26662.995,-21944.565,-12852.99,-9612.72
1764433958.7371118,-1605.6899999999998,-12857.265,-41536.755,-29481.03,-26664.165,-21943.305,-12857.445,-9618.84
1764433958.7371118,-1599.39,-12853.845,-41536.17,-29476.305,-26660.295,-21932.595,-12859.065,-9620.055
1764433958.7371118,-1596.4199999999998,-12853.89,-41538.69,-29473.29,-26658.765,-21923.64,-12863.115,-9624.645
1764433958.7840502,-1595.205,-12855.015,-41540.58,-29472.12,-26658.09,-21918.96,-12865.545,-9629.055
1764433958.7840502,-1594.08,-12854.565,-41539.275,-29470.455,-26656.515,-21917.655,-12863.43,-9626.805
1764433958.7845757,-1595.475,-12854.34,-41538.06,-29471.355,-26657.1,-21922.02,-12861.405,-9623.115
1764433958.7845757,-1597.8149999999998,-12853.62,-41535.72,-29472.3,-26658.36,-21928.59,-12858.255,-9619.425
1764433958.7845757,-1598.85,-12851.865,-41531.715,-29472.615,-26659.08,-21936.42,-12852.63,-9613.44
1764433958.7845757,-1601.82,-12851.865,-41531.31,-29474.64,-26661.24,-21942.945,-12850.47,-9610.695
1764433958.7845757,-1600.56,-12849.885,-41530.815,-29475.09,-26660.295,-21942.045,-12849.795,-9610.245
1764433958.7845757,-1599.84,-12851.145,-41532.615,-29475.405,-26659.755,-21938.445,-12852.135,-9613.215
1764433958.7845757,-1591.02,-12845.34,-41528.16,-29466.405,-26652.69,-21924.81,-12849.12,-9610.74
1764433958.7845757,-1589.13,-12847.275,-41531.805,-29464.38,-26652.465,-21916.845,-12853.44,-9616.32
1764433958.7845757,-1584.405,-12844.395,-41530.095,-29460.015,-26648.235,-21907.755,-12855.105,-9616.455
1764433958.7845757,-1587.06,-12847.14,-41532.39,-29463.3,-26649.99,-21910.77,-12857.49,-9619.02
1764433958.7845757,-1592.28,-12850.38,-41533.47,-29467.035,-26653.77,-21918.78,-12857.895,-9619.605
1764433958.7845757,-1592.1,-12848.355,-41529.645,-29466.99,-26652.69,-21923.865,-12852.99,-9613.98
1764433958.7845757,-1596.87,-12850.56,-41530.005,-29472.165,-26656.155,-21936.15,-12851.415,-9612.27
1764433958.7845757,-1598.31,-12849.03,-41527.845,-29472.705,-26656.38,-21942.18,-12848.13,-9608.31
1764433958.7845757,-1598.9399999999998,-12849.165,-41529.105,-29473.245,-26657.145,-21942.315,-12848.715,-9609.615
1764433958.7845757,-1597.905,-12850.785,-41531.13,-29472.93,-26657.64,-21938.04,-12852.09,-9613.845
1764433958.7845757,-1596.645,-12851.19,-41533.56,-29472.075,-26656.515,-21931.695,-12856.095,-9617.49
1764433958.7845757,-1597.455,-12855.285,-41539.59,-29473.29,-26658.855,-21926.475,-12863.655,-9625.995
1764433958.7845757,-1593.27,-12852.81,-41537.655,-29468.655,-26654.58,-21917.16,-12863.745,-9625.725
1764433958.7845757,-1596.69,-12856.32,-41540.13,-29471.85,-26657.64,-21920.13,-12865.815,-9628.56
1764433958.8306394,-1596.78,-12854.925,-41537.97,-29471.895,-26657.73,-21924.315,-12863.16,-9623.925
1764433958.8306394,-1597.5,-12853.44,-41534.55,-29471.31,-26657.19,-21929.85,-12858.93,-9618.435
1764433958.8306394,-1604.115,-12856.455,-41535.495,-29477.295,-26662.095,-21942.585,-12857.67,-9617.94
1764433958.8306394,-1607.445,-12857.4,-41536.17,-29481.12,-26665.2,-21950.19,-12856.455,-9616.275
1764433958.8306394,-1604.4299999999998,-12854.655,-41534.64,-29478.96,-26663.175,-21946.815,-12855.42,-9613.62
1764433958.8306394,-1603.3049999999998,-12855.915,-41537.205,-29479.41,-26662.905,-21942.315,-12858.66,-9617.76
1764433958.8306394,-1597.14,-12852.315,-41535.405,-29473.83,-26658.315,-21931.065,-12858.435,-9618.48
1764433958.8306394,-1596.6,-12854.565,-41539.95,-29473.515,-26658.495,-21924.27,-12865.095,-9625.32
1764433958.8306394,-1594.125,-12854.43,-41540.355,-29470.545,-26656.11,-21917.7,-12867.03,-9627.615
1764433958.8306394,-1595.07,-12855.87,-41540.535,-29471.4,-26656.74,-21919.14,-12868.56,-9628.515
1764433958.8306394,-1599.615,-12857.805,-41541.93,-29474.865,-26660.295,-21927.33,-12867.84,-9628.065
1764433958.8306394,-1603.575,-12859.92,-41541.66,-29478.78,-26663.67,-21935.655,-12866.13,-9626.22
1764433958.8306394,-1606.725,-12859.155,-41538.78,-29480.58,-26666.01,-21944.745,-12861.945,-9621.855
1764433958.8306394,-1607.445,-12856.995,-41536.89,-29480.31,-26666.01,-21949.02,-12857.985,-9617.49
1764433958.8316586,-1609.515,-12859.065,-41539.995,-29482.92,-26668.44,-21951.045,-12859.515,-9620.415
1764433958.8316586,-1603.935,-12855.69,-41538.06,-29478.375,-26663.49,-21942.0,-12859.695,-9619.515
1764433958.8316586,-1601.415,-12855.33,-41539.095,-29476.665,-26661.15,-21934.08,-12862.17,-9622.845
1764433958.8316586,-1603.845,-12860.955,-41546.655,-29480.535,-26665.38,-21930.66,-12870.36,-9632.385
1764433958.8316586,-1600.02,-12859.695,-41546.115,-29476.8,-26662.995,-21922.83,-12871.62,-9633.33
1764433958.8316586,-1598.6699999999998,-12858.705,-41543.64,-29474.865,-26660.79,-21921.525,-12870.945,-9631.125
1764433958.8316586,-1597.725,-12856.32,-41539.77,-29473.695,-26658.45,-21924.765,-12866.58,-9625.275
1764433958.8316586,-1604.205,-12859.65,-41541.255,-29479.455,-26663.985,-21936.24,-12866.625,-9625.005
1764433958.8316586,-1606.995,-12859.02,-41539.275,-29481.345,-26665.65,-21946.005,-12863.52,-9621.0
1764433958.8316586,-1609.2,-12858.975,-41538.69,-29483.055,-26667.27,-21951.945,-12860.505,-9619.425
1764433958.8316586,-1607.445,-12856.725,-41538.24,-29482.02,-26666.055,-21949.605,-12859.47,-9618.165
1764433958.8316586,-1608.75,-12859.38,-41541.75,-29482.74,-26667.63,-21946.77,-12863.655,-9623.295
1764433958.8799102,-1602.675,-12856.23,-41540.715,-29477.7,-26663.4,-21936.15,-12864.42,-9623.565
1764433958.8799102,-1602.9,-12859.65,-41546.205,-29478.915,-26664.705,-21929.895,-12870.18,-9631.71
1764433958.8799102,-1598.535,-12857.49,-41544.63,-29474.595,-26660.97,-21921.345,-12870.63,-9631.62
1764433958.8804157,-1594.89,-12853.53,-41540.22,-29470.68,-26657.145,-21918.24,-12867.615,-9627.39
1764433958.8804157,-1597.05,-12853.89,-41538.915,-29471.805,-26657.64,-21923.685,-12864.87,-9624.06
1764433958.8804157,-1601.0549999999998,-12855.735,-41538.87,-29474.73,-26660.61,-21932.955,-12862.62,-9621.63
1764433958.8804157,-1604.79,-12857.085,-41537.79,-29478.645,-26663.445,-21943.26,-12860.595,-9617.895
1764433958.8804157,-1609.74,-12859.56,-41539.05,-29482.83,-26667.18,-21951.72,-12860.28,-9618.345
1764433958.8804157,-1612.53,-12862.395,-41543.055,-29486.34,-26670.6,-21954.555,-12862.575,-9622.62
1764433958.8804157,-1608.66,-12859.965,-41542.74,-29483.01,-26667.765,-21947.31,-12863.07,-9624.015
1764433958.8804157,-1602.585,-12857.265,-41540.625,-29477.475,-26663.445,-21936.825,-12863.745,-9623.79
1764433958.8804157,-1604.2949999999998,-12862.575,-41546.295,-29478.96,-26666.1,-21932.415,-12871.26,-9632.385
1764433958.8804157,-1599.84,-12859.83,-41544.63,-29474.37,-26661.42,-21923.685,-12871.845,-9631.845
1764433958.8819454,-1602.72,-12863.835,-41546.925,-29477.565,-26663.445,-21926.97,-12873.915,-9634.545
1764433958.8819454,-1605.15,-12864.105,-41546.205,-29479.23,-26664.93,-21933.63,-12871.845,-9632.34
1764433958.8819454,-1607.625,-12864.105,-41544.72,-29481.12,-26666.37,-21940.74,-12868.965,-9628.38
1764433958.8819454,-1607.445,-12860.55,-41539.455,-29479.815,-26664.39,-21947.355,-12863.43,-9619.965
1764433958.8819454,-1610.1899999999998,-12860.415,-41538.465,-29482.02,-26666.37,-21954.42,-12860.91,-9618.48
1764433958.8819454,-1612.395,-12862.665,-41542.56,-29485.215,-26670.015,-21956.355,-12864.15,-9622.62
1764433958.8819454,-1607.265,-12859.785,-41540.985,-29481.12,-26666.19,-21947.715,-12863.925,-9622.215
1764433958.8819454,-1604.52,-12859.245,-41542.065,-29478.915,-26664.525,-21939.03,-12865.995,-9625.14
1764433958.8819454,-1605.465,-12863.205,-41547.465,-29480.31,-26666.955,-21933.765,-12872.835,-9632.925
1764433958.8819454,-1599.21,-12860.19,-41544.855,-29474.19,-26661.33,-21923.955,-12872.25,-9631.8
1764433958.8819454,-1600.9199999999998,-12862.17,-41545.665,-29475.99,-26662.86,-21926.79,-12872.88,-9632.61
1764433958.9259298,-1599.3,-12858.255,-41540.58,-29473.065,-26659.575,-21928.995,-12868.425,-9625.815
1764433958.9259298,-1603.755,-12860.145,-41540.265,-29476.53,-26663.355,-21937.41,-12866.85,-9624.375
1764433958.9269412,-1610.73,-12863.475,-41541.93,-29482.965,-26669.475,-21950.19,-12865.14,-9623.745
1764433958.9269412,-1614.33,-12865.32,-41542.965,-29486.79,-26672.04,-21957.615,-12864.645,-9622.89
1764433958.9269412,-1613.07,-12864.465,-41543.415,-29485.62,-26671.815,-21956.265,-12864.33,-9623.43
1764433958.9269412,-1607.76,-12861.54,-41542.515,-29481.57,-26668.26,-21948.615,-12865.005,-9623.25
1764433958.9269412,-1605.24,-12860.955,-41543.91,-29479.725,-26666.145,-21940.785,-12868.11,-9626.535
1764433958.9269412,-1605.825,-12864.555,-41548.815,-29480.22,-26667.99,-21934.395,-12875.535,-9634.905
1764433958.927941,-1606.365,-12867.03,-41551.29,-29480.58,-26668.53,-21931.065,-12878.865,-9638.91
1764433958.927941,-1606.23,-12867.075,-41550.255,-29480.445,-26668.17,-21931.425,-12878.01,-9637.515
1764433958.927941,-1605.195,-12864.375,-41546.295,-29478.6,-26665.74,-21934.125,-12874.14,-9632.07
1764433958.928464,-1610.505,-12866.985,-41547.015,-29483.325,-26669.295,-21944.115,-12872.61,-9631.08
1764433958.928464,-1611.1799999999998,-12864.78,-41542.38,-29482.785,-26668.665,-21950.865,-12866.67,-9623.655
1764433958.928464,-1613.655,-12864.825,-41541.48,-29483.64,-26671.635,-21957.345,-12865.23,-9622.53
1764433958.928464,-1615.77,-12866.58,-41544.72,-29486.295,-26674.515,-21959.415,-12867.255,-9626.58
1764433958.928464,-1610.91,-12863.52,-41543.145,-29482.29,-26670.555,-21951.09,-12867.705,-9627.03
1764433958.928464,-1608.03,-12862.935,-41543.595,-29479.635,-26667.945,-21942.585,-12870.0,-9629.775
1764433958.928464,-1608.03,-12866.49,-41549.445,-29480.445,-26669.565,-21936.015,-12877.245,-9637.47
1764433958.928464,-1607.445,-12868.38,-41552.145,-29480.04,-26669.16,-21931.65,-12880.89,-9641.43
1764433958.928464,-1604.52,-12865.185,-41548.95,-29477.07,-26665.38,-21929.535,-12878.37,-9637.29
1764433958.928464,-1606.32,-12865.095,-41546.745,-29477.655,-26666.01,-21934.53,-12874.995,-9633.33
1764433958.928464,-1609.65,-12866.13,-41545.395,-29480.49,-26668.215,-21942.72,-12872.745,-9630.225
1764433958.9756737,-1613.475,-12867.03,-41544.81,-29484.09,-26671.32,-21953.16,-12869.37,-9627.03
1764433958.9756737,-1618.695,-12869.91,-41547.195,-29488.86,-26675.775,-21962.34,-12869.91,-9627.795
1764433958.9756737,-1616.535,-12867.03,-41545.53,-29487.6,-26673.84,-21958.92,-12868.695,-9626.805
1764433958.9756737,-1615.5,-12867.975,-41547.87,-29487.195,-26673.39,-21953.925,-12871.215,-9631.305
1764433958.9756737,-1608.3,-12864.6,-41546.25,-29481.435,-26668.17,-21942.63,-12871.44,-9630.945
1764433958.9756737,-1607.265,-12867.165,-41550.795,-29481.48,-26669.295,-21936.69,-12877.695,-9637.38
1764433958.9756737,-1603.3049999999998,-12865.005,-41549.04,-29477.43,-26665.65,-21928.95,-12877.2,-9637.155
1764433958.9756737,-1600.56,-12862.215,-41545.08,-29474.28,-26662.365,-21926.88,-12874.68,-9632.97
1764433958.9756737,-1604.88,-12863.925,-41545.44,-29477.52,-26665.47,-21933.945,-12874.23,-9632.43
1764433958.9756737,-1606.5449999999998,-12862.89,-41542.02,-29477.655,-26666.01,-21940.695,-12869.55,-9627.57
1764433958.9756737,-1608.615,-12863.34,-41539.455,-29480.13,-26667.45,-21950.145,-12865.185,-9622.98
1764433958.9766846,-1611.855,-12864.105,-41540.355,-29483.28,-26669.97,-21956.67,-12864.825,-9622.125
1764433958.9766846,-1612.71,-12865.59,-41541.84,-29484.63,-26671.365,-21956.985,-12866.805,-9624.015
1764433958.9766846,-1612.98,-12867.21,-41544.9,-29485.125,-26671.95,-21952.665,-12870.09,-9628.65
1764433958.9766846,-1606.59,-12862.08,-41543.19,-29479.095,-26666.82,-21940.47,-12869.505,-9628.74
1764433958.9766846,-1604.115,-12861.9,-41544.9,-29476.35,-26665.29,-21931.065,-12873.015,-9633.915
1764433958.9766846,-1602.63,-12862.485,-41545.845,-29475.27,-26664.345,-21925.89,-12875.715,-9636.165
1764433958.9766846,-1605.645,-12866.49,-41548.095,-29478.96,-26667.675,-21930.345,-12877.92,-9638.19
1764433958.9766846,-1605.5549999999998,-12865.545,-41545.485,-29478.465,-26665.92,-21934.17,-12873.465,-9633.195
1764433958.9766846,-1606.635,-12863.475,-41543.01,-29478.06,-26665.695,-21939.345,-12868.83,-9627.165
1764433958.9766846,-1613.385,-12866.805,-41544.405,-29483.64,-26671.77,-21952.26,-12867.795,-9626.085
1764433958.9766846,-1615.23,-12866.67,-41542.425,-29484.81,-26672.49,-21958.965,-12866.13,-9624.465
1764433958.9766846,-1614.915,-12866.85,-41544.135,-29484.63,-26672.445,-21958.11,-12867.12,-9626.31
1764433958.9766846,-1612.3049999999998,-12865.545,-41545.17,-29482.515,-26670.6,-21951.585,-12868.875,-9628.38
1764433959.019665,-1604.745,-12860.37,-41542.02,-29476.71,-26664.975,-21938.76,-12868.74,-9628.29
1764433959.019665,-1603.26,-12862.035,-41545.125,-29475.495,-26665.56,-21931.515,-12873.915,-9633.96
1764433959.019665,-1601.775,-12862.17,-41545.89,-29472.885,-26664.03,-21925.215,-12875.04,-9635.13
1764433959.019665,-1601.55,-12861.945,-41544.495,-29472.255,-26663.445,-21925.89,-12874.095,-9633.33
1764433959.019665,-1603.1699999999998,-12862.305,-41542.785,-29474.235,-26665.155,-21931.92,-12872.34,-9630.63
1764433959.019665,-1606.5,-12862.98,-41541.435,-29476.53,-26667.36,-21940.11,-12869.64,-9627.795
1764433959.020685,-1610.505,-12864.645,-41541.075,-29480.715,-26670.78,-21951.315,-12867.165,-9625.32
1764433959.020685,-1616.85,-12868.47,-41544.81,-29487.06,-26676.09,-21960.315,-12867.93,-9627.3
1764433959.020685,-1614.4199999999998,-12865.5,-41543.55,-29484.09,-26673.75,-21956.805,-12867.3,-9625.59
1764433959.020685,-1611.945,-12865.77,-41545.53,-29482.83,-26673.345,-21951.315,-12869.865,-9628.92
1764433959.020685,-1610.64,-12867.21,-41548.275,-29482.245,-26673.48,-21944.655,-12874.725,-9634.185
1764433959.0211926,-1608.57,-12867.57,-41551.38,-29480.895,-26671.815,-21936.465,-12879.135,-9639.18
1764433959.0211926,-1606.905,-12868.245,-41552.19,-29480.49,-26671.455,-21931.92,-12880.8,-9641.655
1764433959.0211926,-1605.78,-12866.49,-41549.13,-29477.43,-26669.07,-21931.38,-12879.72,-9639.135
1764433959.0211926,-1610.28,-12868.695,-41549.895,-29480.085,-26671.365,-21939.03,-12878.55,-9637.875
1764433959.0211926,-1613.88,-12870.315,-41548.68,-29483.1,-26673.66,-21947.895,-12875.85,-9634.995
1764433959.0211926,-1616.13,-12869.505,-41545.305,-29484.63,-26675.055,-21956.445,-12871.035,-9629.46
1764433959.0211926,-1616.895,-12868.47,-41544.18,-29485.845,-26675.865,-21960.315,-12868.965,-9626.58
1764433959.0211926,-1612.89,-12864.42,-41541.3,-29482.92,-26671.725,-21955.59,-12866.76,-9624.195
1764433959.0211926,-1609.83,-12862.845,-41541.75,-29480.715,-26670.015,-21949.425,-12867.66,-9626.355
1764433959.0211926,-1608.345,-12864.06,-41544.63,-29479.95,-26670.15,-21942.495,-12872.115,-9630.855
1764433959.0211926,-1610.955,-12870.495,-41552.595,-29482.56,-26674.245,-21938.355,-12880.845,-9641.565
1764433959.0211926,-1607.985,-12870.045,-41551.965,-29479.41,-26672.265,-21932.505,-12882.42,-9642.6
1764433959.0211926,-1607.8049999999998,-12868.965,-41549.355,-29478.645,-26671.455,-21933.315,-12881.115,-9639.765
1764433959.068915,-1606.6799999999998,-12866.895,-41545.755,-29478.105,-26669.07,-21936.465,-12876.885,-9633.915
1764433959.068915,-1613.61,-12871.845,-41548.23,-29483.955,-26674.065,-21946.545,-12876.39,-9634.365
1764433959.068915,-1616.9399999999998,-12871.755,-41545.98,-29486.205,-26676.315,-21955.365,-12871.665,-9629.775
1764433959.068915,-1619.1,-12870.72,-41545.53,-29487.915,-26677.62,-21960.72,-12869.91,-9627.705
1764433959.068915,-1617.9299999999998,-12870.405,-41546.43,-29487.33,-26676.855,-21958.425,-12870.315,-9627.885
1764433959.068915,-1613.97,-12867.93,-41544.63,-29483.19,-26673.075,-21949.83,-12869.865,-9628.74
1764433959.068915,-1605.645,-12862.665,-41541.795,-29476.305,-26666.775,-21937.725,-12868.83,-9627.66
1764433959.068915,-1603.485,-12863.295,-41544.675,-29474.955,-26665.38,-21929.175,-12873.33,-9632.79
1764433959.068915,-1602.3149999999998,-12863.205,-41545.935,-29473.47,-26664.165,-21924.135,-12875.13,-9634.59
1764433959.068915,-1602.72,-12864.42,-41545.395,-29474.055,-26664.21,-21925.98,-12874.32,-9634.32
1764433959.068915,-1603.395,-12863.385,-41542.335,-29474.415,-26664.57,-21931.605,-12870.72,-9630.135
1764433959.068915,-1605.285,-12863.115,-41540.175,-29475.63,-26665.515,-21938.49,-12867.615,-9625.77
1764433959.068915,-1611.99,-12866.895,-41541.39,-29481.21,-26670.915,-21951.0,-12866.715,-9624.42
1764433959.068915,-1612.4399999999998,-12866.4,-41540.265,-29481.39,-26671.5,-21955.59,-12865.32,-9621.27
1764433959.068915,-1611.63,-12865.725,-41541.255,-29481.39,-26671.545,-21954.78,-12865.905,-9621.99
1764433959.068915,-1610.28,-12865.905,-41543.82,-29480.67,-26671.095,-21949.245,-12869.685,-9626.31
1764433959.0699215,-1607.985,-12865.68,-41544.945,-29478.33,-26669.07,-21941.73,-12871.845,-9629.595
1764433959.0699215,-1605.465,-12866.94,-41548.32,-29477.925,-26669.25,-21933.855,-12876.435,-9635.13
1764433959.0699215,-1604.4299999999998,-12867.21,-41549.67,-29476.62,-26668.98,-21929.31,-12878.55,-9638.055
1764433959.0699215,-1602.765,-12864.69,-41546.025,-29473.515,-26665.515,-21928.815,-12876.705,-9634.05
1764433959.0699215,-1605.6899999999998,-12865.905,-41546.115,-29475.315,-26667.99,-21935.565,-12874.005,-9632.34
1764433959.0699215,-1605.6,-12862.53,-41541.255,-29474.955,-26666.1,-21940.11,-12867.795,-9625.635
1764433959.1181326,-1609.38,-12862.71,-41540.4,-29478.195,-26668.845,-21950.415,-12865.23,-9622.26
1764433959.1181326,-1614.33,-12866.985,-41543.37,-29483.505,-26673.84,-21958.785,-12867.12,-9624.15
1764433959.1181326,-1611.855,-12864.015,-41541.21,-29480.355,-26671.095,-21955.23,-12865.365,-9622.665
1764433959.1181326,-1609.56,-12863.115,-41542.425,-29478.6,-26669.475,-21948.975,-12867.075,-9625.32
1764433959.1181326,-1605.4199999999998,-12861.495,-41542.92,-29476.035,-26666.37,-21939.39,-12869.37,-9627.39
1764433959.1181326,-1603.395,-12863.115,-41545.98,-29475.18,-26666.055,-21931.245,-12874.41,-9633.42
1764433959.1181326,-1601.01,-12862.395,-41545.98,-29472.75,-26664.075,-21924.9,-12875.58,-9634.455
1764433959.1181326,-1601.73,-12862.845,-41544.405,-29472.57,-26664.84,-21926.34,-12874.68,-9634.23
1764433959.1181326,-1605.96,-12865.32,-41544.63,-29476.62,-26667.81,-21934.35,-12874.05,-9632.97
1764433959.1181326,-1606.59,-12864.105,-41541.255,-29477.205,-26667.405,-21941.1,-12870.135,-9627.12
1764433959.1181326,-1610.415,-12864.51,-41540.715,-29479.59,-26669.43,-21950.595,-12867.165,-9622.755
1764433959.1181326,-1614.5549999999998,-12865.995,-41542.47,-29483.28,-26672.445,-21956.895,-12865.995,-9622.755
1764433959.1181326,-1616.9399999999998,-12869.415,-41546.745,-29485.62,-26674.605,-21957.075,-12869.19,-9627.255
1764433959.1181326,-1612.665,-12867.615,-41546.34,-29482.155,-26671.365,-21948.03,-12871.305,-9629.19
1764433959.1181326,-1605.195,-12862.08,-41542.29,-29474.955,-26664.255,-21934.44,-12870.045,-9627.39
1764433959.1181326,-1601.28,-12861.765,-41543.73,-29471.715,-26661.6,-21924.945,-12873.195,-9632.205
1764433959.1181326,-1600.155,-12861.63,-41543.865,-29469.6,-26659.575,-21920.13,-12874.905,-9634.23
1764433959.1181326,-1603.395,-12864.195,-41545.305,-29472.3,-26661.465,-21923.64,-12875.715,-9635.22
1764433959.1181326,-1600.74,-12859.335,-41539.005,-29468.79,-26657.415,-21925.8,-12869.505,-9627.795
1764433959.1181326,-1603.98,-12859.83,-41537.34,-29471.31,-26659.755,-21933.9,-12866.04,-9624.42
1764433959.1181326,-1610.46,-12862.755,-41538.87,-29478.105,-26665.65,-21947.175,-12865.05,-9623.61
1764433959.1191316,-1610.235,-12860.955,-41536.845,-29477.52,-26666.325,-21951.405,-12862.395,-9619.38
1764433959.1191316,-1609.47,-12860.955,-41538.015,-29478.375,-26667.63,-21950.28,-12863.07,-9620.865
1764433959.1191316,-1606.86,-12860.46,-41538.78,-29477.565,-26666.91,-21944.925,-12865.5,-9623.61
1764433959.1631892,-1603.35,-12859.56,-41539.725,-29475.135,-26665.245,-21937.32,-12869.19,-9626.04
1764433959.1631892,-1601.73,-12861.63,-41543.37,-29475.045,-26666.1,-21931.605,-12875.49,-9632.79
1764433959.164206,-1598.715,-12860.91,-41543.235,-29472.435,-26664.84,-21927.15,-12876.57,-9633.78
1764433959.164206,-1599.57,-12861.045,-41542.92,-29472.885,-26665.65,-21929.805,-12875.355,-9632.52
1764433959.164206,-1602.1799999999998,-12860.865,-41541.705,-29475.09,-26668.26,-21936.735,-12872.88,-9629.415
1764433959.164206,-1606.635,-12862.935,-41542.425,-29479.095,-26672.22,-21947.085,-12871.89,-9627.93
1764433959.164206,-1612.08,-12865.23,-41542.695,-29484.09,-26676.405,-21959.19,-12870.54,-9624.69
1764433959.164206,-1611.945,-12862.98,-41540.445,-29484.9,-26676.765,-21962.61,-12868.065,-9620.415
1764433959.164206,-1611.405,-12863.43,-41541.705,-29485.665,-26677.665,-21961.755,-12868.29,-9622.08
1764433959.164206,-1611.63,-12865.275,-41545.17,-29486.34,-26679.465,-21958.245,-12872.34,-9627.84
1764433959.164206,-1604.34,-12860.73,-41542.47,-29479.32,-26672.985,-21945.87,-12872.295,-9627.075
1764433959.164206,-1602.1799999999998,-12862.62,-41545.53,-29477.34,-26671.095,-21936.87,-12877.02,-9632.655
1764433959.164206,-1603.26,-12865.365,-41548.635,-29477.07,-26671.23,-21933.495,-12880.08,-9637.065
1764433959.164206,-1604.745,-12866.445,-41547.96,-29476.395,-26670.6,-21934.08,-12879.63,-9636.12
1764433959.164206,-1606.095,-12865.815,-41545.395,-29477.34,-26669.88,-21938.265,-12876.345,-9632.295
1764433959.164206,-1607.355,-12864.24,-41542.47,-29477.295,-26669.97,-21944.205,-12870.99,-9627.255
1764433959.164206,-1613.97,-12867.84,-41543.82,-29483.595,-26675.91,-21956.445,-12869.415,-9626.355
1764433959.164206,-1614.78,-12867.975,-41543.55,-29485.44,-26677.215,-21960.18,-12867.3,-9623.655
1764433959.164206,-1615.32,-12868.29,-41545.17,-29485.845,-26676.405,-21957.795,-12869.325,-9625.095
1764433959.164206,-1613.61,-12868.29,-41545.98,-29483.865,-26674.065,-21951.135,-12871.08,-9628.065
1764433959.164206,-1606.77,-12864.285,-41544.495,-29477.79,-26667.855,-21938.805,-12870.27,-9627.795
1764433959.164206,-1608.075,-12868.83,-41550.57,-29479.455,-26669.925,-21933.765,-12877.38,-9636.57
1764433959.164206,-1605.24,-12867.255,-41549.13,-29475.405,-26667.54,-21927.735,-12878.505,-9636.48
1764433959.164206,-1603.89,-12865.545,-41546.7,-29473.38,-26665.695,-21927.735,-12877.02,-9633.33
1764433959.207416,-1605.87,-12866.22,-41545.395,-29475.81,-26666.82,-21934.44,-12874.095,-9630.54
1764433959.207416,-1609.02,-12866.535,-41544.18,-29479.095,-26669.205,-21942.765,-12871.755,-9627.525
1764433959.207416,-1612.845,-12866.535,-41543.55,-29482.38,-26671.815,-21952.53,-12867.93,-9623.385
1764433959.207416,-1619.0549999999998,-12870.045,-41547.555,-29487.96,-26677.08,-21961.755,-12868.74,-9626.4
1764433959.207416,-1618.0649999999998,-12869.01,-41547.645,-29486.745,-26676.315,-21958.965,-12869.595,-9627.165
1764433959.207416,-1611.09,-12864.555,-41544.675,-29480.31,-26670.69,-21948.75,-12869.1,-9625.815
1764433959.207416,-1607.085,-12863.475,-41544.72,-29478.015,-26668.53,-21940.155,-12870.945,-9628.785
1764433959.207416,-1608.615,-12868.785,-41552.055,-29480.67,-26672.265,-21935.52,-12880.17,-9637.605
1764433959.207416,-1606.455,-12868.155,-41552.19,-29478.51,-26670.6,-21929.58,-12881.745,-9638.685
1764433959.207416,-1606.14,-12867.48,-41549.58,-29477.43,-26670.465,-21930.93,-12879.99,-9636.255
1764433959.207416,-1608.84,-12868.38,-41547.96,-29478.915,-26671.455,-21936.87,-12877.29,-9633.465
1764433959.207416,-1613.07,-12869.235,-41547.24,-29482.245,-26673.165,-21946.32,-12875.175,-9630.675
1764433959.207416,-1614.915,-12868.38,-41545.125,-29484.63,-26675.415,-21955.455,-12871.44,-9625.77
1764433959.207416,-1615.185,-12866.94,-41543.415,-29485.17,-26675.865,-21959.145,-12868.605,-9622.98
1764433959.2092452,-1610.64,-12862.44,-41540.895,-29481.165,-26672.13,-21953.295,-12865.815,-9619.92
1764433959.2092452,-1608.255,-12861.495,-41541.885,-29479.005,-26670.51,-21946.59,-12867.93,-9622.305
