Timestamp,Channel1,Channel2,Channel3,Channel4,Channel5,Channel6,Channel7,Channel8
1764433800.865702,36169.515,23301.495,65163.6,-5120.91,-32024.88,-47596.455,-9004.14,13004.46
1764433800.865702,36168.255,23298.39,65159.685,-5124.15,-32027.985,-47598.795,-9011.07,13001.355
1764433800.865702,36170.28,23296.32,65156.58,-5126.085,-32028.21,-47597.715,-9019.35,12999.105
1764433800.865702,36172.17,23293.665,65152.845,-5127.57,-32028.48,-47596.905,-9030.87,12994.47
1764433800.865702,36178.11,23296.23,65154.735,-5122.98,-32024.025,-47591.1,-9038.295,12994.245
1764433800.865702,36184.005,23301.405,65159.55,-5117.445,-32017.77,-47585.295,-9037.215,12997.845
1764433800.865702,36179.775,23299.605,65158.245,-5119.02,-32020.155,-47587.59,-9035.73,12995.82
1764433800.865702,36176.805,23299.605,65159.505,-5119.425,-32020.92,-47589.3,-9028.62,12997.17
1764433800.866694,36176.985,23303.61,65165.22,-5116.41,-32018.49,-47587.995,-9015.3,13003.605
1764433800.866694,36172.53,23303.925,65166.75,-5118.21,-32020.695,-47591.415,-9005.175,13005.945
1764433800.866694,36170.865,23303.07,65165.31,-5121.495,-32024.205,-47595.51,-9003.24,13005.945
1764433800.866694,36164.925,23294.34,65157.345,-5128.47,-32030.1,-47601.315,-9012.195,12999.06
1764433800.866694,36168.525,23295.375,65156.715,-5127.165,-32028.435,-47599.515,-9019.44,12999.06
1764433800.866694,36177.885,23300.955,65159.73,-5121.585,-32021.595,-47591.055,-9023.13,13002.705
1764433800.866694,36182.97,23301.18,65159.01,-5119.83,-32018.445,-47586.915,-9032.4,13000.68
1764433800.866694,36182.745,23299.245,65157.21,-5119.605,-32019.03,-47586.645,-9038.07,12997.395
1764433800.866694,36183.87,23302.485,65161.305,-5116.275,-32016.24,-47583.81,-9032.175,13000.545
1764433800.866694,36177.885,23300.1,65160.36,-5119.514999999999,-32020.425,-47588.13,-9027.09,12998.745
1764433800.866694,36173.655,23300.46,65162.385,-5119.83,-32022.585,-47590.875,-9017.1,13001.31
1764433800.866694,36172.26,23302.845,65165.4,-5119.155,-32022.63,-47592.315,-9005.265,13006.89
1764433800.866694,36175.23,23306.895,65168.955,-5116.455,-32020.065,-47590.065,-8997.435,13012.785
1764433800.866694,36175.095,23304.96,65166.975,-5118.929999999999,-32020.605,-47591.055,-9002.609999999999,13010.445
1764433800.866694,36174.825,23300.37,65161.305,-5122.889999999999,-32022.63,-47592.495,-9011.88,13004.73
1764433800.866694,36167.13,23287.455,65147.49,-5132.79,-32029.74,-47595.015,-9011.565,12994.56
1764433800.9099371,36183.51,23300.82,65159.1,-5119.47,-32016.825,-47583.54,-9022.455,13002.435
1764433800.9109497,36199.08,23316.48,65173.995,-5104.53,-32004.315,-47574.045,-9033.21,13012.065
1764433800.9109497,36188.28,23307.12,65165.355,-5112.9,-32012.28,-47580.12,-9028.62,13004.1
1764433800.9109497,36185.13,23308.335,65166.705,-5112.72,-32012.955,-47581.695,-9020.43,13005.63
1764433800.9109497,36184.32,23311.71,65171.655,-5110.245,-32011.785,-47581.11,-9007.695,13010.58
1764433800.911971,36177.21,23308.74,65170.485,-5113.62,-32016.195,-47586.78,-8999.685,13010.94
1764433800.911971,36175.815,23307.57,65170.08,-5115.51,-32017.41,-47588.49,-8996.4,13011.93
1764433800.911971,36175.995,23305.23,65167.47,-5118.03,-32018.58,-47589.615,-9000.945,13010.22
1764433800.911971,36178.785,23305.005,65166.12,-5118.12,-32016.825,-47587.995,-9008.19,13009.05
1764433800.912968,36181.8,23304.555,65164.095,-5117.355,-32015.565,-47585.115,-9018.405,13005.99
1764433800.912968,36187.11,23305.185,65163.24,-5115.33,-32012.37,-47580.615,-9027.09,13003.965
1764433800.912968,36188.28,23304.33,65163.735,-5114.295,-32011.245,-47579.22,-9030.33,13002.21
1764433800.912968,36182.745,23300.955,65161.035,-5117.264999999999,-32015.205,-47583.54,-9031.23,12999.6
1764433800.912968,36180.54,23303.835,65164.275,-5115.96,-32014.98,-47583.54,-9022.455,13002.57
1764433800.9139595,36175.545,23302.845,65164.905,-5117.895,-32018.22,-47587.77,-9013.14,13003.38
1764433800.914467,36171.675,23303.025,65166.615,-5119.245,-32020.605,-47591.595,-9003.69,13005.675
1764433800.914467,36169.83,23301.81,65165.265,-5121.405,-32022.45,-47594.88,-9001.755,13005.855
1764433800.914467,36165.33,23295.015,65157.66,-5127.974999999999,-32028.165,-47600.64,-9011.43,12999.96
1764433800.914467,36168.885,23294.565,65156.085,-5127.3,-32026.275,-47597.715,-9017.55,12999.285
1764433800.914467,36177.75,23298.435,65158.56,-5121.9,-32019.84,-47589.975,-9022.905,13002.03
1764433800.914467,36181.17,23298.66,65157.435,-5120.415,-32017.23,-47586.42,-9032.31,12999.555
1764433800.914467,36185.13,23302.125,65160.45,-5116.59,-32012.595,-47581.83,-9032.175,13000.635
1764433800.9154818,36179.955,23298.48,65157.795,-5119.83,-32017.185,-47586.78,-9032.31,12997.485
1764433800.9154818,36175.725,23297.985,65158.83,-5120.865,-32018.85,-47589.03,-9025.92,12998.52
1764433800.9550967,36172.98,23298.975,65162.07,-5120.37,-32020.065,-47591.055,-9015.12,13001.22
1764433800.9550967,36172.035,23301.72,65166.3,-5119.56,-32020.695,-47591.82,-9003.195,13005.765
1764433800.9550967,36171.0,23301.495,65165.805,-5120.639999999999,-32022.495,-47593.35,-9000.18,13006.665
1764433800.9550967,36167.805,23296.41,65159.82,-5125.23,-32026.545,-47597.805,-9008.955,13001.58
1764433800.9550967,36172.485,23298.39,65160.585,-5123.34,-32022.405,-47593.71,-9013.995,13001.895
1764433800.9550967,36180.36,23302.26,65162.925,-5119.065,-32017.275,-47587.725,-9019.125,13003.785
1764433800.956643,36181.8,23299.065,65158.335,-5120.73,-32017.59,-47586.915,-9031.59,12997.8
1764433800.956643,36184.095,23300.82,65159.82,-5118.255,-32015.025,-47583.675,-9033.3,12998.16
1764433800.9576616,36187.65,23307.705,65167.245,-5112.09,-32009.94,-47578.905,-9023.985,13004.46
1764433800.9576616,36184.725,23308.11,65169.27,-5111.775,-32010.795,-47580.525,-9016.38,13005.675
1764433800.9576616,36179.595,23306.805,65169.0,-5113.665,-32014.62,-47585.16,-9008.685,13006.53
1764433800.9576616,36172.62,23303.295,65166.795,-5118.12,-32019.84,-47591.505,-9002.295,13005.855
1764433800.9576616,36173.34,23305.365,65168.235,-5117.445,-32019.165,-47591.37,-8997.705,13009.095
1764433800.9576616,36168.75,23298.57,65160.36,-5124.735,-32025.285,-47597.175,-9008.37,13001.805
1764433800.9576616,36171.27,23297.805,65158.335,-5125.05,-32024.52,-47595.6,-9015.345,12999.96
1764433800.9576616,36178.92,23301.045,65160.405,-5121.045,-32018.94,-47588.22,-9021.195,13002.075
1764433800.9576616,36186.3,23304.42,65163.15,-5115.735,-32013.18,-47581.065,-9027.495,13003.335
1764433800.9576616,36184.635,23302.8,65161.395,-5116.905,-32014.08,-47581.92,-9032.76,12999.015
1764433800.9576616,36182.16,23302.485,65162.61,-5116.32,-32014.17,-47582.595,-9029.52,12999.105
1764433800.9576616,36179.1,23302.485,65164.185,-5116.095,-32015.565,-47584.305,-9021.825,13000.635
1764433801.0037813,36174.645,23302.305,65164.995,-5117.355,-32018.715,-47587.77,-9012.78,13002.75
1764433801.0037813,36170.055,23302.845,65166.12,-5118.12,-32019.66,-47590.38,-9003.555,13005.81
1764433801.0037813,36172.44,23305.995,65169.495,-5115.735,-32017.005,-47589.075,-8996.94,13010.355
1764433801.0037813,36172.575,23303.925,65165.67,-5118.48,-32018.94,-47590.29,-9002.52,13008.105
1764433801.0037813,36172.305,23299.605,65159.82,-5122.215,-32022.045,-47592.0,-9013.59,13002.48
1764433801.0037813,36176.535,23298.795,65158.11,-5121.405,-32020.83,-47588.805,-9022.77,13000.86
1764433801.0037813,36184.455,23303.205,65161.44,-5115.15,-32014.305,-47581.83,-9028.215,13002.345
1764433801.0037813,36185.445,23303.52,65161.125,-5113.665,-32013.585,-47580.075,-9031.14,13001.13
1764433801.0037813,36179.46,23300.685,65158.29,-5117.22,-32017.68,-47584.26,-9031.41,12997.08
1764433801.0037813,36178.92,23304.87,65163.285,-5114.52,-32014.485,-47582.82,-9020.97,13002.705
1764433801.0037813,36172.98,23303.7,65163.96,-5116.545,-32017.95,-47587.635,-9011.97,13004.01
1764433801.0037813,36165.015,23300.19,65161.125,-5121.764999999999,-32024.025,-47594.475,-9006.705,13002.93
1764433801.0037813,36164.835,23299.695,65160.36,-5123.79,-32026.545,-47596.77,-9004.14,13003.425
1764433801.0037813,36162.81,23296.05,65155.86,-5127.84,-32029.56,-47599.92,-9012.465,12999.555
1764433801.0037813,36162.225,23292.9,65151.36,-5130.764999999999,-32030.64,-47600.955,-9022.635,12995.01
1764433801.0037813,36169.695,23295.915,65152.53,-5126.58,-32025.735,-47594.565,-9029.115,12995.82
1764433801.0037813,36180.36,23301.855,65157.84,-5118.974999999999,-32017.41,-47584.8,-9032.49,12999.645
1764433801.0037813,36180.9,23301.63,65157.885,-5117.175,-32015.43,-47582.595,-9035.1,12998.835
1764433801.0037813,36174.33,23297.94,65155.005,-5121.27,-32020.02,-47588.175,-9035.235,12995.055
1764433801.0037813,36171.18,23298.75,65157.435,-5120.865,-32021.37,-47589.39,-9028.215,12996.495
1764433801.0037813,36168.12,23299.83,65159.55,-5121.315,-32023.215,-47592.27,-9018.495,12999.465
1764433801.0037813,36164.34,23299.92,65160.135,-5122.215,-32025.195,-47595.735,-9009.45,13001.94
1764433801.0037813,36165.645,23301.495,65162.43,-5121.405,-32024.295,-47595.42,-9004.14,13004.955
1764433801.0037813,36165.735,23299.875,65159.01,-5124.465,-32026.545,-47597.355,-9010.395,13002.03
1764433801.0037813,36166.86,23296.905,65155.23,-5126.31,-32027.445,-47597.58,-9019.395,12998.745
1764433801.0037813,36173.835,23299.47,65156.76,-5121.36,-32021.37,-47590.29,-9025.92,12999.645
1764433801.0512156,36176.085,23297.67,65153.97,-5121.764999999999,-32020.92,-47587.905,-9036.63,12995.37
1764433801.0512156,36180.0,23300.595,65157.345,-5117.535,-32016.69,-47582.82,-9035.505,12998.25
1764433801.0512156,36184.185,23307.705,65165.445,-5110.65,-32011.065,-47577.78,-9024.435,13005.225
1764433801.0512156,36180.18,23307.255,65166.615,-5111.28,-32013.72,-47580.615,-9017.82,13005.585
1764433801.0512156,36170.055,23301.9,65163.285,-5117.58,-32020.92,-47589.255,-9013.005,13003.245
1764433801.0512156,36167.625,23302.53,65165.445,-5118.57,-32021.955,-47591.73,-9002.654999999999,13006.395
1764433801.0512156,36170.325,23305.77,65167.83,-5117.22,-32019.39,-47589.615,-8996.76,13010.445
1764433801.0512156,36167.04,23299.83,65160.72,-5123.655,-32024.52,-47593.62,-9006.48,13004.145
1764433801.0512156,36168.615,23298.03,65158.11,-5124.825,-32025.06,-47593.8,-9015.03,13000.905
1764433801.0512156,36172.89,23298.48,65157.12,-5123.295,-32022.855,-47590.245,-9023.895,12999.015
1764433801.0512156,36176.895,23298.705,65155.905,-5121.09,-32020.02,-47586.195,-9033.165,12996.945
1764433801.0512156,36179.55,23299.83,65157.12,-5119.29,-32017.68,-47583.36,-9034.65,12997.71
1764433801.0512156,36179.505,23302.395,65160.855,-5117.13,-32016.555,-47582.505,-9028.845,12999.825
1764433801.0512156,36177.255,23304.96,65164.635,-5115.375,-32015.7,-47582.415,-9019.53,13003.335
1764433801.0512156,36167.58,23299.29,65160.315,-5121.495,-32022.54,-47589.75,-9014.85,13000.545
1764433801.0512156,36163.89,23300.01,65161.44,-5122.889999999999,-32024.205,-47592.045,-9005.76,13003.515
1764433801.05223,36166.905,23302.62,65163.735,-5121.36,-32022.855,-47591.325,-9000.18,13007.61
1764433801.05223,36165.42,23298.435,65158.92,-5125.139999999999,-32026.995,-47594.565,-9008.19,13003.245
1764433801.05223,36171.72,23301.045,65159.595,-5122.62,-32023.17,-47590.335,-9013.23,13004.415
1764433801.05223,36173.25,23298.48,65154.645,-5124.42,-32023.62,-47589.795,-9025.38,12999.78
1764433801.05223,36177.93,23299.02,65154.42,-5121.495,-32020.83,-47585.115,-9033.57,12998.16
1764433801.05223,36184.005,23304.51,65160.99,-5114.34,-32014.53,-47577.825,-9030.195,13002.93
1764433801.05223,36184.275,23306.76,65164.635,-5111.685,-32012.19,-47576.295,-9023.895,13005.495
1764433801.05223,36180.405,23306.985,65165.625,-5112.495,-32013.9,-47580.03,-9016.83,13006.35
1764433801.095757,36171.765,23302.395,65162.565,-5119.02,-32020.515,-47587.995,-9011.43,13003.785
1764433801.095757,36170.505,23304.105,65166.165,-5118.12,-32021.19,-47589.39,-8999.91,13008.645
1764433801.0962942,36169.11,23302.935,65164.455,-5119.695,-32023.485,-47591.46,-8998.335,13008.735
1764433801.0962942,36164.925,23296.14,65157.435,-5125.905,-32028.345,-47596.59,-9008.865,13001.805
1764433801.0962942,36168.345,23295.69,65155.95,-5125.139999999999,-32026.905,-47593.935,-9016.065,13001.085
1764433801.0962942,36172.935,23296.86,65155.365,-5123.07,-32024.25,-47589.93,-9025.02,12999.51
1764433801.0962942,36180.225,23300.01,65157.93,-5118.84,-32018.805,-47583.495,-9030.69,13000.32
1764433801.0962942,36184.95,23304.195,65161.71,-5112.945,-32013.54,-47577.465,-9029.07,13002.48
1764433801.0962942,36182.475,23304.195,65162.34,-5112.675,-32015.52,-47579.49,-9024.57,13002.48
1764433801.0962942,36178.605,23303.88,65164.185,-5113.575,-32016.78,-47582.64,-9017.055,13003.47
1764433801.0962942,36174.105,23303.52,65164.95,-5116.05,-32020.065,-47586.645,-9008.19,13004.55
1764433801.0962942,36169.155,23302.35,65164.41,-5117.895,-32022.72,-47589.57,-9000.585,13006.665
1764433801.0962942,36166.05,23299.83,65161.485,-5121.09,-32025.96,-47592.765,-9000.63,13005.36
1764433801.0962942,36163.62,23295.195,65155.995,-5125.679999999999,-32029.92,-47597.445,-9009.405,12999.825
1764433801.0962942,36169.335,23297.265,65156.535,-5123.565,-32026.77,-47593.35,-9014.22,13000.68
1764433801.0968254,36171.9,23295.285,65152.98,-5125.275,-32027.04,-47591.91,-9025.74,12996.495
1764433801.0968254,36180.27,23300.37,65156.985,-5119.65,-32019.795,-47584.305,-9030.105,12999.105
1764433801.0968254,36179.1,23298.705,65156.13,-5119.514999999999,-32019.75,-47583.72,-9034.29,12996.405
1764433801.0968254,36178.2,23299.83,65158.425,-5117.895,-32019.525,-47583.765,-9028.08,12997.98
1764433801.097842,36176.355,23301.315,65161.035,-5116.275,-32018.94,-47584.575,-9020.07,13000.77
1764433801.097842,36174.735,23304.87,65165.22,-5114.25,-32017.815,-47585.07,-9007.29,13005.36
1764433801.097842,36169.425,23303.745,65165.535,-5117.264999999999,-32021.91,-47589.66,-8998.785,13006.08
1764433801.1415884,36167.625,23301.405,65163.42,-5120.145,-32024.61,-47592.765,-8998.425,13005.765
1764433801.1415884,36166.005,23297.13,65158.29,-5124.195,-32027.31,-47595.105,-9006.435,13002.03
1764433801.1415884,36166.815,23294.16,65153.97,-5126.625,-32028.75,-47596.275,-9016.515,12996.945
1764433801.1415884,36174.96,23298.03,65155.86,-5121.945,-32022.855,-47588.715,-9023.58,12998.745
1764433801.1415884,36176.535,23295.645,65152.08,-5122.395,-32022.81,-47586.78,-9034.2,12995.235
1764433801.1415884,36178.335,23298.12,65154.78,-5119.335,-32019.705,-47583.9,-9034.11,12996.18
1764433801.1415884,36179.64,23302.305,65159.28,-5115.78,-32017.005,-47581.02,-9027.18,13000.005
1764433801.1415884,36179.82,23305.635,65163.465,-5113.349999999999,-32015.88,-47580.12,-9016.74,13003.695
1764433801.1415884,36171.72,23302.53,65161.62,-5117.535,-32021.19,-47586.735,-9010.26,13002.435
1764433801.1415884,36167.355,23301.405,65162.07,-5120.145,-32024.295,-47591.01,-9001.664999999999,13004.91
1764433801.1415884,36170.775,23305.815,65166.93,-5116.455,-32020.74,-47588.04,-8995.77,13010.94
1764433801.1415884,36171.63,23305.545,65164.59,-5117.895,-32021.19,-47588.22,-9001.619999999999,13009.725
1764433801.1415884,36174.195,23303.655,65161.035,-5119.605,-32020.695,-47587.545,-9010.035,13006.62
1764433801.1415884,36175.545,23300.595,65156.76,-5120.82,-32021.955,-47586.285,-9021.78,13001.58
1764433801.1415884,36183.195,23305.005,65160.135,-5114.88,-32015.79,-47578.95,-9026.82,13003.92
1764433801.1415884,36186.435,23306.85,65162.25,-5111.955,-32012.64,-47576.25,-9025.92,13005.0
1764433801.1415884,36184.455,23307.165,65164.095,-5110.965,-32012.73,-47576.565,-9021.33,13005.675
1764433801.1426055,36179.055,23305.365,65164.005,-5112.495,-32015.295,-47579.67,-9016.47,13005.0
1764433801.1426055,36170.505,23301.0,65161.665,-5117.804999999999,-32021.505,-47586.69,-9010.035,13003.02
1764433801.1426055,36170.28,23303.61,65165.445,-5117.085,-32021.685,-47588.355,-8998.335,13008.15
1764433801.1426055,36170.64,23304.825,65165.805,-5117.67,-32021.46,-47589.39,-8996.13,13009.86
1764433801.1426055,36169.47,23301.9,65161.62,-5120.595,-32023.035,-47591.055,-9002.835,13006.755
1764433801.1426055,36170.82,23299.785,65158.47,-5122.08,-32023.71,-47590.695,-9012.24,13003.605
1764433801.1426055,36173.565,23298.03,65154.96,-5122.17,-32023.44,-47587.905,-9024.03,13000.05
1764433801.1903453,36181.53,23302.305,65158.47,-5116.59,-32016.69,-47580.255,-9027.405,13001.805
1764433801.1903453,36186.345,23307.12,65163.78,-5111.55,-32011.695,-47574.585,-9025.245,13005.18
1764433801.1903453,36180.135,23303.25,65161.035,-5115.915,-32016.915,-47579.535,-9025.155,13001.895
1764433801.1903453,36179.37,23305.23,65165.085,-5114.295,-32016.825,-47580.12,-9015.615,13005.27
1764433801.1903453,36171.495,23301.135,65163.465,-5119.11,-32022.63,-47587.095,-9008.64,13003.56
1764433801.1903453,36171.0,23304.285,65167.425,-5117.49,-32021.28,-47587.365,-8997.119999999999,13007.925
1764433801.1903453,36169.335,23303.97,65165.85,-5119.514999999999,-32022.81,-47589.48,-8995.904999999999,13008.42
1764433801.1903453,36166.41,23298.615,65159.01,-5124.195,-32027.22,-47593.35,-9005.355,13003.11
1764433801.1903453,36172.935,23300.91,65160.495,-5120.505,-32023.395,-47588.535,-9009.855,13004.145
1764433801.1903453,36177.48,23300.505,65158.83,-5119.514999999999,-32020.695,-47585.295,-9019.62,13001.67
1764433801.1903453,36179.685,23298.885,65156.085,-5119.245,-32020.11,-47582.505,-9030.195,12998.295
1764433801.1903453,36185.31,23304.51,65161.35,-5112.224999999999,-32013.99,-47575.215,-9026.595,13002.66
1764433801.1903453,36180.36,23302.305,65160.36,-5115.51,-32017.995,-47579.895,-9024.705,12999.915
1764433801.1903453,36178.065,23303.79,65163.645,-5114.925,-32017.14,-47581.065,-9015.345,13003.2
1764433801.1903453,36169.92,23299.785,65161.26,-5120.46,-32022.495,-47587.86,-9008.865,13001.58
1764433801.1903453,36168.795,23302.935,65165.4,-5119.38,-32021.775,-47587.095,-8997.93,13006.17
1764433801.1903453,36169.38,23304.195,65166.885,-5118.3,-32020.92,-47586.285,-8995.32,13008.645
1764433801.1903453,36168.93,23300.82,65161.575,-5122.08,-32023.53,-47589.84,-9002.43,13004.73
1764433801.1903453,36168.255,23296.995,65155.86,-5125.679999999999,-32026.32,-47592.045,-9014.085,12999.285
1764433801.1903453,36175.86,23299.605,65157.255,-5120.82,-32020.605,-47584.125,-9021.33,13000.05
1764433801.1903453,36178.785,23298.705,65156.805,-5120.01,-32019.345,-47581.335,-9028.98,12997.665
1764433801.1903453,36183.105,23302.53,65160.99,-5115.105,-32014.62,-47576.475,-9026.145,13001.535
1764433801.2339592,36178.83,23301.18,65160.09,-5116.635,-32017.5,-47579.355,-9024.12,12999.96
1764433801.2339592,36175.23,23301.765,65161.845,-5115.645,-32018.13,-47579.715,-9016.83,13001.355
1764433801.2339592,36170.865,23302.665,65163.87,-5116.635,-32020.02,-47583.54,-9005.4,13003.695
1764433801.2339592,36162.0,23297.265,65159.37,-5123.565,-32027.355,-47591.955,-9002.205,13000.86
1764433801.2339592,36164.385,23300.55,65161.935,-5122.125,-32026.23,-47591.055,-8997.57,13004.73
1764433801.2339592,36165.96,23300.73,65159.685,-5122.62,-32025.33,-47590.245,-9002.43,13004.055
1764433801.2339592,36170.055,23300.235,65157.705,-5122.755,-32024.565,-47588.49,-9009.9,13001.985
1764433801.2355258,36170.28,23295.915,65152.845,-5126.13,-32025.96,-47590.02,-9024.255,12996.18
1764433801.2355258,36175.005,23296.86,65153.025,-5123.34,-32022.63,-47585.295,-9031.455,12995.505
1764433801.2355258,36179.595,23301.855,65158.245,-5117.31,-32017.545,-47578.905,-9028.35,12998.97
1764433801.2355258,36175.905,23300.37,65158.155,-5118.03,-32019.39,-47581.245,-9025.245,12998.52
1764433801.2355258,36174.645,23302.89,65161.8,-5116.545,-32018.445,-47581.2,-9015.75,13002.435
1764433801.2355258,36167.985,23301.495,65161.035,-5119.29,-32022.18,-47586.78,-9007.74,13002.57
1764433801.2355258,36161.595,23298.57,65158.38,-5125.139999999999,-32027.625,-47593.17,-9003.105,13001.895
1764433801.2355258,36163.44,23301.045,65160.135,-5123.745,-32026.275,-47591.73,-8999.369999999999,13005.0
1764433801.2355258,36159.885,23294.385,65153.205,-5129.28,-32030.145,-47595.645,-9009.99,12998.79
1764433801.2355258,36166.455,23296.995,65155.095,-5125.32,-32025.465,-47590.92,-9014.13,13000.455
1764433801.2355258,36172.98,23298.975,65155.32,-5121.945,-32021.415,-47584.44,-9022.41,13000.86
1764433801.2355258,36173.43,23295.825,65151.72,-5123.34,-32022.27,-47584.17,-9033.525,12995.82
1764433801.2355258,36177.345,23300.145,65157.165,-5117.94,-32017.59,-47578.86,-9030.33,12998.52
1764433801.237071,36175.725,23301.54,65158.245,-5118.21,-32017.995,-47579.895,-9024.705,12999.735
1764433801.237071,36170.73,23299.11,65158.425,-5121.045,-32021.415,-47583.945,-9019.53,12999.15
1764433801.237071,36160.965,23293.71,65155.005,-5126.895,-32028.57,-47592.63,-9015.075,12996.27
1764433801.237071,36160.155,23296.32,65158.11,-5126.04,-32028.255,-47593.89,-9004.904999999999,13000.545
1764433801.2851863,36160.245,23296.635,65158.605,-5126.31,-32028.66,-47594.52,-9003.375,13002.615
1764433801.2851863,36157.77,23291.235,65151.99,-5131.304999999999,-32033.115,-47599.11,-9012.825,12997.485
1764433801.2851863,36161.955,23291.505,65150.955,-5130.179999999999,-32030.595,-47596.815,-9019.575,12995.955
1764433801.2851863,36167.85,23292.855,65150.865,-5128.02,-32027.175,-47591.82,-9028.485,12995.055
1764433801.2851863,36174.195,23296.905,65153.52,-5122.53,-32021.55,-47584.08,-9034.02,12997.17
1764433801.2851863,36177.075,23298.75,65156.445,-5119.695,-32017.905,-47580.975,-9032.67,12998.565
1764433801.2851863,36178.2,23302.08,65160.72,-5116.635,-32015.52,-47579.355,-9024.39,13003.02
1764433801.2851863,36172.26,23300.73,65160.18,-5119.38,-32018.715,-47583.54,-9018.585,13001.985
1764433801.2851863,36169.56,23302.305,65164.455,-5117.67,-32018.895,-47585.115,-9006.39,13006.305
1764433801.2851863,36162.45,23298.255,65161.71,-5123.295,-32024.745,-47592.36,-9001.755,13004.415
1764433801.2851863,36163.845,23299.11,65162.43,-5123.97,-32024.43,-47592.315,-8999.685,13006.035
1764433801.2851863,36161.19,23294.16,65156.445,-5129.595,-32029.29,-47596.275,-9009.18,13000.185
1764433801.2851863,36165.465,23294.07,65155.185,-5128.74,-32027.22,-47593.8,-9015.615,12999.42
1764433801.2851863,36172.71,23297.085,65156.715,-5123.88,-32021.37,-47587.005,-9023.445,13000.32
1764433801.2851863,36181.935,23303.52,65161.575,-5115.465,-32013.495,-47577.015,-9025.245,13004.685
1764433801.2851863,36180.675,23301.72,65160.585,-5116.095,-32014.395,-47576.97,-9027.495,13002.48
1764433801.2851863,36174.42,23297.94,65158.245,-5119.695,-32018.94,-47581.605,-9025.065,12999.06
1764433801.2851863,36174.735,23301.81,65162.835,-5115.87,-32015.97,-47579.715,-9014.58,13004.55
1764433801.2851863,36169.875,23302.845,65165.22,-5117.13,-32018.31,-47584.08,-9003.779999999999,13006.665
1764433801.2851863,36165.375,23302.035,65165.805,-5119.56,-32021.82,-47587.905,-8995.815,13007.43
1764433801.2851863,36163.845,23299.83,65163.915,-5121.945,-32023.44,-47589.66,-8996.535,13006.935
1764433801.2851863,36164.43,23297.535,65160.405,-5124.465,-32025.555,-47590.695,-9004.095,13004.055
1764433801.2851863,36164.25,23293.62,65154.96,-5128.02,-32028.12,-47592.27,-9015.21,12998.655
1764433801.2851863,36168.75,23293.71,65154.285,-5126.31,-32025.375,-47588.715,-9025.245,12997.35
1764433801.3302011,36175.005,23296.905,65156.265,-5121.495,-32020.245,-47582.1,-9029.565,12998.205
1764433801.3311985,36178.875,23300.37,65160.45,-5117.58,-32016.42,-47577.6,-9026.865,13001.13
1764433801.3311985,36173.25,23297.67,65158.29,-5120.505,-32019.93,-47582.19,-9025.785,12998.385
1764433801.3311985,36172.485,23300.55,65162.205,-5117.535,-32019.21,-47582.1,-9015.795,13001.805
1764433801.3311985,36163.935,23295.735,65160.135,-5122.98,-32026.005,-47589.66,-9009.765,12999.87
1764433801.3311985,36161.01,23295.51,65160.81,-5124.78,-32028.705,-47592.675,-9002.025,13002.12
1764433801.3311985,36167.355,23302.665,65167.605,-5119.245,-32022.72,-47587.455,-8994.465,13009.86
1764433801.332198,36169.605,23301.72,65164.86,-5120.19,-32023.305,-47587.14,-9000.72,13007.88
1764433801.332198,36172.44,23300.37,65161.62,-5120.955,-32022.99,-47585.7,-9009.45,13004.91
1764433801.332198,36177.03,23302.215,65161.395,-5117.849999999999,-32019.615,-47580.705,-9018.18,13004.28
1764433801.332198,36181.71,23303.205,65162.07,-5114.745,-32016.42,-47576.52,-9024.525,13003.47
1764433801.332198,36182.79,23304.51,65163.645,-5112.99,-32013.99,-47574.315,-9024.345,13004.01
1764433801.332198,36179.64,23304.78,65164.77,-5112.72,-32014.845,-47575.35,-9018.99,13004.73
1764433801.332198,36175.41,23303.295,65165.22,-5114.565,-32017.95,-47578.995,-9012.87,13004.505
1764433801.332198,36168.12,23300.325,65163.555,-5119.83,-32023.305,-47586.24,-9006.57,13003.785
1764433801.332198,36160.785,23296.77,65160.045,-5125.139999999999,-32029.245,-47593.71,-9003.15,13002.255
1764433801.332198,36162.855,23299.695,65162.835,-5122.62,-32026.725,-47591.685,-8999.279999999999,13006.26
1764433801.332198,36160.38,23295.015,65156.805,-5126.94,-32030.865,-47594.97,-9009.045,13001.445
1764433801.332198,36166.86,23297.535,65158.335,-5123.655,-32027.085,-47589.795,-9014.13,13002.66
1764433801.332198,36171.045,23296.815,65156.31,-5123.34,-32025.24,-47586.15,-9024.615,12999.915
1764433801.332198,36178.155,23300.28,65158.875,-5118.57,-32019.885,-47579.445,-9028.575,13001.445
1764433801.332198,36175.995,23298.12,65157.255,-5119.605,-32021.82,-47580.84,-9031.545,12997.98
1764433801.3771908,36175.365,23300.955,65160.405,-5117.4,-32020.065,-47579.805,-9025.02,13000.095
1764433801.3771908,36175.23,23304.915,65165.04,-5114.34,-32018.22,-47577.87,-9013.68,13005.315
1764433801.3771908,36165.69,23299.83,65161.035,-5121.315,-32025.78,-47586.69,-9008.865,13001.895
1764433801.3771908,36163.62,23300.955,65162.835,-5121.81,-32026.455,-47589.255,-9000.09,13005.27
1764433801.3771908,36169.83,23306.445,65167.92,-5116.77,-32020.56,-47584.53,-8992.845,13012.2
1764433801.3771908,36170.37,23304.78,65165.355,-5118.255,-32020.785,-47584.395,-8999.324999999999,13010.085
1764433801.3771908,36172.305,23302.395,65161.89,-5120.01,-32020.83,-47583.945,-9009.225,13006.44
1764433801.3771908,36173.61,23299.83,65157.57,-5121.45,-32022.225,-47582.82,-9022.23,13001.4
1764433801.3771908,36182.07,23305.41,65162.88,-5114.745,-32014.08,-47573.64,-9023.535,13005.72
1764433801.3771908,36184.005,23307.705,65166.165,-5112.179999999999,-32011.56,-47571.255,-9022.32,13007.115
1764433801.3771908,36180.27,23306.49,65166.165,-5113.349999999999,-32014.215,-47574.225,-9018.945,13006.575
1764433801.3771908,36170.685,23300.46,65162.115,-5119.245,-32021.19,-47582.055,-9017.01,13002.255
1764433801.3771908,36163.395,23297.265,65160.765,-5123.34,-32025.915,-47588.22,-9009.315,13002.12
1764433801.3771908,36160.47,23297.445,65161.53,-5124.465,-32027.625,-47590.965,-9001.44,13004.235
1764433801.3771908,36162.72,23299.965,65162.88,-5123.25,-32025.87,-47590.245,-8999.055,13006.98
1764433801.3771908,36160.65,23295.465,65156.805,-5127.974999999999,-32029.83,-47593.44,-9008.595,13001.805
1764433801.3781905,36167.22,23297.985,65158.425,-5125.139999999999,-32025.87,-47588.445,-9013.32,13002.93
1764433801.3781905,36170.55,23295.96,65155.545,-5124.465,-32023.98,-47586.33,-9024.48,12999.33
1764433801.3781905,36177.21,23299.29,65158.695,-5118.84,-32018.49,-47579.67,-9028.62,13001.535
1764433801.3781905,36177.255,23300.055,65159.775,-5118.03,-32017.41,-47578.5,-9028.62,13001.49
1764433801.3781905,36172.08,23297.085,65158.245,-5120.685,-32021.325,-47582.82,-9026.595,12999.285
1764433801.3781905,36169.83,23297.985,65161.035,-5119.965,-32021.955,-47584.305,-9017.64,13001.535
1764433801.3781905,36160.605,23293.215,65158.245,-5125.815,-32028.75,-47592.63,-9012.285,12999.15
1764433801.3781905,36157.635,23292.99,65158.245,-5127.84,-32030.64,-47595.285,-9005.22,13000.995
1764433801.4212525,36160.335,23295.69,65159.955,-5126.535,-32028.975,-47592.54,-9001.529999999999,13004.55
1764433801.4212525,36159.12,23291.82,65155.995,-5129.775,-32031.72,-47594.88,-9010.8,13000.32
1764433801.4212525,36165.96,23295.285,65157.885,-5126.04,-32026.905,-47589.03,-9015.39,13001.895
1764433801.4212525,36169.875,23294.97,65155.995,-5125.185,-32024.925,-47585.52,-9026.415,12999.105
1764433801.4212525,36169.11,23292.27,65152.035,-5126.535,-32026.185,-47585.655,-9037.305,12992.805
1764433801.4212525,36170.955,23294.565,65155.14,-5123.16,-32023.215,-47582.775,-9035.145,12995.01
1764433801.4212525,36170.955,23297.4,65158.74,-5121.045,-32021.505,-47581.92,-9026.865,12998.295
1764433801.4212525,36170.46,23300.325,65163.15,-5118.57,-32020.38,-47581.245,-9016.83,13002.705
1764433801.4212525,36161.46,23296.095,65159.775,-5124.51,-32027.625,-47589.39,-9011.205,13000.635
1764433801.4212525,36158.085,23295.195,65160.0,-5127.03,-32031.18,-47594.34,-9004.994999999999,13001.535
1764433801.4212525,36159.525,23296.005,65160.585,-5125.995,-32030.865,-47593.44,-9002.88,13002.525
1764433801.4212525,36157.32,23290.92,65154.735,-5130.495,-32034.24,-47595.555,-9012.69,12997.89
1764433801.4212525,36162.495,23292.0,65154.51,-5129.865,-32031.405,-47592.27,-9019.44,12997.485
1764433801.4212525,36170.91,23296.77,65158.02,-5124.105,-32024.79,-47584.935,-9025.47,12999.735
1764433801.4212525,36173.16,23296.32,65156.355,-5123.34,-32023.575,-47582.28,-9034.065,12996.765
1764433801.4212525,36173.88,23297.4,65156.985,-5121.36,-32021.505,-47580.345,-9034.065,12996.81
1764433801.4212525,36174.06,23299.83,65160.495,-5118.66,-32020.695,-47579.13,-9025.92,12999.87
1764433801.4212525,36173.655,23303.115,65166.075,-5115.915,-32018.85,-47578.23,-9014.625,13005.18
1764433801.4212525,36166.41,23301.765,65166.255,-5119.02,-32022.855,-47583.18,-9007.154999999999,13005.27
1764433801.4212525,36162.36,23300.235,65165.31,-5122.17,-32026.005,-47587.77,-9000.675,13005.585
1764433801.4212525,36159.93,23298.03,65162.115,-5125.32,-32028.525,-47590.65,-9002.52,13003.965
1764433801.4212525,36157.5,23292.81,65156.355,-5129.82,-32032.845,-47594.43,-9012.555,12997.98
1764433801.4212525,36162.54,23293.98,65156.22,-5128.29,-32029.92,-47590.83,-9018.945,12997.89
1764433801.4212525,36172.035,23298.255,65158.83,-5123.205,-32023.125,-47582.235,-9024.255,12999.33
1764433801.4678855,36177.255,23300.73,65160.135,-5119.38,-32018.535,-47577.87,-9029.835,12999.915
1764433801.4678855,36177.57,23301.585,65161.035,-5117.67,-32017.14,-47575.8,-9029.655,13000.185
1764433801.4678855,36170.73,23297.895,65158.47,-5121.36,-32021.775,-47580.795,-9028.305,12997.395
1764433801.4678855,36164.655,23296.05,65157.795,-5124.33,-32026.14,-47585.52,-9023.13,12996.36
1764433801.4678855,36160.11,23296.005,65158.83,-5125.455,-32028.66,-47589.48,-9012.24,12998.7
1764433801.4678855,36159.39,23297.985,65161.98,-5124.645,-32028.39,-47590.92,-9002.654999999999,13003.02
1764433801.4678855,36157.905,23296.14,65159.82,-5127.255,-32030.73,-47593.485,-9003.375,13002.03
1764433801.4678855,36158.13,23293.98,65156.76,-5129.28,-32031.585,-47593.485,-9010.575,12999.51
1764433801.4678855,36162.135,23294.34,65156.265,-5127.885,-32029.245,-47589.66,-9017.865,12998.52
1764433801.4678855,36167.4,23294.835,65155.545,-5125.59,-32025.915,-47584.935,-9027.045,12997.44
1764433801.4678855,36172.89,23296.815,65157.39,-5121.945,-32020.92,-47579.76,-9032.445,12998.205
1764433801.4684088,36173.025,23297.31,65158.11,-5120.415,-32020.515,-47579.13,-9031.95,12997.89
1764433801.4684088,36166.635,23293.845,65155.32,-5124.014999999999,-32025.195,-47583.54,-9029.745,12994.695
1764433801.4684088,36165.87,23296.32,65159.685,-5122.17,-32024.07,-47583.9,-9018.99,12998.25
1764433801.4684088,36157.95,23293.755,65158.47,-5126.264999999999,-32029.335,-47590.47,-9011.925,12998.16
1764433801.4684088,36159.21,23297.895,65163.375,-5123.565,-32027.76,-47590.155,-9000.99,13004.82
1764433801.4684088,36160.965,23298.48,65163.285,-5123.925,-32027.265,-47590.65,-9000.404999999999,13006.35
1764433801.4684088,36161.28,23295.645,65159.145,-5126.67,-32029.29,-47591.865,-9008.505,13003.2
1764433801.4684088,36163.215,23294.16,65156.535,-5126.895,-32029.515,-47590.83,-9018.225,13000.005
1764433801.4684088,36168.075,23294.835,65155.185,-5125.095,-32026.32,-47586.78,-9028.62,12997.89
1764433801.4684088,36169.605,23293.755,65152.89,-5125.23,-32025.645,-47585.88,-9037.17,12995.28
1764433801.4684088,36173.295,23298.75,65157.75,-5120.37,-32020.92,-47581.02,-9033.48,12998.745
1764433801.514384,36169.92,23298.435,65158.605,-5120.505,-32022.27,-47582.37,-9028.17,12998.88
1764433801.514384,36162.585,23294.88,65156.715,-5124.554999999999,-32027.085,-47588.49,-9023.265,12995.595
1764433801.514384,36159.795,23296.005,65159.685,-5124.42,-32027.715,-47590.695,-9011.655,12999.6
1764433801.514384,36153.045,23292.18,65157.3,-5128.83,-32032.71,-47596.77,-9007.785,12999.015
1764433801.514384,36154.08,23292.72,65157.57,-5129.01,-32033.205,-47596.59,-9007.38,13000.185
1764433801.5149062,36151.785,23287.86,65151.405,-5134.275,-32038.29,-47600.955,-9017.64,12993.975
1764433801.5149062,36154.98,23287.14,65148.795,-5134.095,-32037.165,-47599.065,-9025.47,12991.77
1764433801.5149062,36162.09,23289.93,65149.47,-5129.955,-32031.18,-47592.54,-9033.345,12992.22
1764433801.5149062,36169.965,23294.565,65154.33,-5123.474999999999,-32024.7,-47584.845,-9035.595,12995.55
1764433801.5149062,36170.82,23296.68,65156.715,-5120.91,-32022.27,-47582.595,-9034.02,12997.035
1764433801.5149062,36167.67,23296.635,65157.84,-5121.405,-32024.07,-47584.845,-9028.53,12997.17
1764433801.5149062,36160.155,23292.405,65154.915,-5126.49,-32029.92,-47590.92,-9024.48,12994.695
1764433801.5149062,36156.555,23293.89,65157.93,-5126.58,-32031.72,-47593.845,-9013.635,12997.62
1764433801.5149062,36150.435,23289.975,65154.645,-5132.115,-32036.985,-47600.46,-9010.08,12996.315
1764433801.5149062,36152.235,23291.55,65155.32,-5131.44,-32035.995,-47598.84,-9008.37,12998.34
1764433801.5149062,36150.21,23287.545,65148.93,-5134.59,-32038.38,-47600.64,-9017.82,12993.885
1764433801.5149062,36157.5,23290.605,65151.585,-5130.675,-32033.475,-47594.97,-9022.5,12996.63
1764433801.5149062,36163.035,23291.19,65150.82,-5128.38,-32030.145,-47589.615,-9032.625,12994.47
1764433801.5149062,36172.44,23297.58,65156.67,-5120.235,-32022.405,-47580.57,-9032.805,12998.835
1764433801.5149062,36172.53,23299.02,65158.38,-5117.849999999999,-32020.29,-47578.635,-9031.14,12999.87
1764433801.5149062,36166.905,23296.095,65157.615,-5120.505,-32024.43,-47582.955,-9027.63,12998.115
1764433801.5149062,36166.05,23298.705,65161.755,-5119.65,-32023.485,-47583.315,-9017.415,13002.21
1764433801.5149062,36158.31,23295.555,65159.685,-5124.465,-32029.65,-47590.155,-9010.44,13001.22
1764433801.5149062,36158.985,23299.29,65164.005,-5122.395,-32028.3,-47589.48,-9000.045,13006.26
1764433801.5622172,36159.795,23299.785,65164.005,-5123.07,-32028.03,-47589.795,-9000.18,13006.755
1764433801.5622172,36160.605,23297.355,65160.36,-5125.005,-32029.56,-47590.38,-9007.74,13004.235
1764433801.5622172,36160.74,23293.845,65155.23,-5127.21,-32029.74,-47590.335,-9018.72,12999.555
1764433801.5622172,36167.04,23295.78,65154.87,-5124.42,-32026.095,-47585.43,-9027.765,12998.295
1764433801.5622172,36171.45,23296.455,65155.41,-5121.99,-32023.53,-47581.695,-9034.29,12996.945
1764433801.5622172,36171.135,23296.635,65156.49,-5120.505,-32022.99,-47580.795,-9033.345,12996.54
1764433801.5622172,36169.92,23298.435,65160.27,-5119.065,-32022.09,-47580.75,-9026.415,12998.61
1764433801.5622172,36169.695,23301.99,65165.04,-5117.04,-32020.245,-47579.895,-9015.48,13003.515
1764433801.5622172,36163.845,23300.55,65165.22,-5119.155,-32023.845,-47584.935,-9006.615,13004.82
1764433801.5622172,36157.275,23297.76,65162.97,-5123.745,-32028.705,-47590.065,-9002.565,13004.505
1764433801.5622172,36161.505,23300.82,65165.31,-5121.81,-32025.915,-47587.905,-8999.64,13008.69
1764433801.5622172,36159.12,23295.465,65158.605,-5126.625,-32030.37,-47592.045,-9010.215,13002.57
1764433801.5622172,36167.085,23299.335,65161.035,-5121.585,-32024.79,-47584.935,-9013.635,13005.36
1764433801.5622172,36172.8,23301.27,65161.17,-5118.974999999999,-32020.38,-47578.815,-9022.185,13004.595
1764433801.5622172,36175.5,23302.08,65161.62,-5116.77,-32018.715,-47575.665,-9028.53,13003.335
1764433801.5622172,36171.72,23299.2,65159.235,-5119.02,-32021.955,-47578.68,-9031.905,12999.645
1764433801.5622172,36168.48,23298.75,65159.73,-5119.155,-32023.35,-47580.705,-9027.225,12999.735
1764433801.5622172,36164.565,23298.48,65161.305,-5118.57,-32024.34,-47582.64,-9019.08,13001.805
1764433801.5622172,36160.02,23298.12,65162.475,-5120.639999999999,-32027.49,-47587.545,-9008.595,13003.155
1764433801.5637312,36157.5,23298.525,65162.475,-5122.889999999999,-32029.965,-47590.65,-9002.295,13004.415
1764433801.5637312,36161.37,23301.945,65164.905,-5120.145,-32026.725,-47587.68,-8999.145,13008.555
1764433801.5637312,36159.705,23297.4,65159.28,-5123.52,-32029.74,-47589.345,-9008.82,13004.01
1764433801.564267,36164.745,23298.21,65159.28,-5122.53,-32027.985,-47586.285,-9016.38,13003.11
1764433801.564267,36172.845,23301.72,65161.215,-5118.48,-32022.315,-47579.805,-9024.12,13003.695
1764433801.608719,36175.86,23301.945,65160.405,-5116.679999999999,-32020.155,-47577.195,-9030.915,13001.76
1764433801.608719,36172.845,23300.37,65158.92,-5117.085,-32020.695,-47577.645,-9032.265,12999.51
1764433801.608719,36174.555,23304.015,65164.365,-5112.945,-32017.815,-47575.395,-9022.32,13004.01
1764433801.608719,36171.9,23304.735,65166.705,-5112.764999999999,-32019.255,-47576.88,-9013.5,13006.35
1764433801.608719,36166.23,23304.51,65166.93,-5115.915,-32022.36,-47581.47,-9004.455,13007.655
1764433801.608719,36161.37,23302.71,65165.805,-5119.335,-32025.915,-47586.24,-8998.875,13007.565
1764433801.608719,36159.3,23298.705,65160.855,-5123.745,-32030.46,-47590.695,-9002.52,13004.28
1764433801.608719,36157.86,23293.485,65155.365,-5128.02,-32033.79,-47593.08,-9012.915,12999.105
1764433801.608719,36165.105,23297.31,65157.165,-5124.014999999999,-32027.805,-47586.735,-9017.82,13001.22
1764433801.608719,36167.535,23295.15,65153.88,-5124.06,-32026.365,-47583.945,-9029.565,12997.98
1764433801.6107187,36174.825,23298.93,65157.93,-5118.615,-32020.785,-47577.33,-9031.815,13000.32
1764433801.6107187,36176.04,23301.495,65160.72,-5115.735,-32018.805,-47574.405,-9029.7,13001.355
1764433801.6107187,36172.845,23302.035,65161.935,-5116.23,-32020.47,-47576.565,-9023.895,13002.03
1764433801.6107187,36165.06,23300.055,65160.045,-5119.74,-32025.195,-47581.695,-9019.305,13000.23
1764433801.6107187,36162.63,23302.35,65163.78,-5118.615,-32025.195,-47583.54,-9006.164999999999,13005.0
1764433801.6107187,36159.255,23300.595,65163.105,-5121.99,-32028.615,-47587.905,-9000.855,13005.72
1764433801.6107187,36160.695,23300.595,65162.88,-5123.295,-32028.48,-47587.995,-9001.395,13006.71
1764433801.6107187,36161.685,23299.56,65160.135,-5124.42,-32027.895,-47587.68,-9008.775,13005.36
1764433801.6107187,36165.195,23299.11,65158.83,-5123.79,-32026.365,-47584.665,-9016.245,13003.605
1764433801.6107187,36168.345,23297.445,65156.31,-5123.115,-32025.015,-47582.28,-9028.125,12999.51
1764433801.6107187,36166.68,23293.125,65151.9,-5125.86,-32028.21,-47584.305,-9038.835,12992.445
1764433801.6107187,36170.64,23297.445,65156.76,-5121.09,-32023.89,-47580.48,-9034.155,12995.82
1764433801.6542466,36167.085,23297.13,65156.76,-5122.304999999999,-32025.24,-47583.09,-9029.385,12996.045
1764433801.65526,36165.42,23300.595,65161.755,-5119.11,-32023.98,-47581.92,-9018.045,13000.86
1764433801.65526,36157.365,23297.85,65160.405,-5123.429999999999,-32029.065,-47588.265,-9010.755,12999.96
1764433801.65526,36156.195,23299.425,65162.115,-5123.745,-32029.38,-47589.615,-9002.789999999999,13004.055
1764433801.65526,36155.835,23297.895,65160.72,-5125.005,-32030.64,-47591.37,-9004.815,13003.695
1764433801.65526,36152.865,23291.28,65152.62,-5131.575,-32035.95,-47596.05,-9016.425,12996.18
1764433801.6567826,36157.095,23291.64,65151.135,-5130.585,-32033.97,-47592.765,-9023.895,12995.37
1764433801.6567826,36166.23,23296.5,65154.645,-5123.655,-32026.095,-47583.72,-9029.655,12998.385
1764433801.6567826,36170.19,23298.435,65155.77,-5121.585,-32023.53,-47580.435,-9035.415,12997.35
1764433801.657794,36166.905,23296.14,65154.555,-5123.88,-32025.465,-47582.55,-9036.9,12994.695
1764433801.657794,36167.31,23299.245,65159.235,-5120.19,-32023.44,-47580.3,-9026.505,12998.25
1764433801.657794,36161.19,23297.355,65158.425,-5122.62,-32027.805,-47585.52,-9020.655,12997.845
1764433801.657794,36157.995,23298.795,65161.485,-5122.935,-32028.795,-47587.365,-9009.405,13000.815
1764433801.657794,36152.235,23296.185,65158.785,-5127.435,-32032.8,-47591.865,-9006.21,13000.275
1764433801.657794,36157.815,23300.595,65162.655,-5124.69,-32029.965,-47588.265,-9001.98,13005.18
1764433801.657794,36158.085,23296.635,65158.38,-5127.165,-32032.845,-47589.84,-9010.98,13000.995
1764433801.657794,36164.61,23298.525,65159.235,-5124.014999999999,-32028.255,-47584.485,-9017.01,13002.255
1764433801.657794,36165.465,23295.6,65153.52,-5126.175,-32029.245,-47584.215,-9031.41,12995.775
1764433801.657794,36167.535,23296.005,65153.16,-5124.014999999999,-32027.22,-47581.56,-9037.26,12993.795
1764433801.657794,36168.795,23297.985,65155.725,-5121.855,-32025.015,-47580.21,-9035.145,12994.74
1764433801.657794,36168.93,23300.73,65159.1,-5119.74,-32024.475,-47579.895,-9027.405,12997.845
1764433801.657794,36167.085,23303.295,65162.25,-5117.67,-32023.17,-47579.805,-9017.37,13001.58
1764433801.658809,36157.23,23297.94,65158.47,-5124.915,-32030.82,-47589.3,-9011.7,12998.025
1764433801.658809,36158.49,23301.27,65162.835,-5123.745,-32029.605,-47588.85,-9001.89,13002.75
1764433801.7024434,36161.82,23303.88,65164.86,-5121.99,-32027.355,-47586.555,-9000.585,13005.72
1764433801.7024434,36162.315,23300.595,65160.855,-5124.105,-32028.525,-47587.32,-9009.405,13002.615
1764433801.7024434,36165.555,23300.055,65158.785,-5123.97,-32027.715,-47584.53,-9018.09,13000.77
1764433801.7024434,36168.345,23298.885,65155.635,-5124.78,-32026.455,-47582.64,-9030.6,12996.81
1764433801.7024434,36173.835,23302.035,65158.605,-5119.83,-32020.83,-47577.42,-9033.48,12998.205
1764433801.7024434,36172.485,23301.36,65159.505,-5118.48,-32020.65,-47577.87,-9032.58,12997.71
1764433801.7024434,36167.67,23299.83,65159.055,-5120.82,-32023.755,-47581.47,-9028.485,12997.17
1764433801.7024434,36165.96,23302.53,65162.52,-5118.974999999999,-32022.945,-47581.605,-9017.64,13000.86
1764433801.7024434,36160.155,23300.235,65161.935,-5122.08,-32027.265,-47586.33,-9008.82,13001.67
1764433801.7024434,36156.78,23298.705,65161.62,-5124.42,-32029.92,-47590.83,-9003.69,13002.84
1764433801.7024434,36157.77,23298.705,65160.765,-5125.095,-32029.695,-47590.515,-9004.725,13003.38
1764433801.7024434,36158.985,23297.4,65158.56,-5126.94,-32030.055,-47589.84,-9011.79,13001.13
1764433801.7024434,36162.495,23297.13,65156.535,-5126.67,-32028.48,-47586.915,-9019.89,12998.97
1764433801.7024434,36168.21,23297.805,65155.455,-5124.69,-32026.095,-47582.64,-9029.925,12997.44
1764433801.7024434,36171.9,23299.515,65156.355,-5121.945,-32022.945,-47579.4,-9034.155,12996.405
1764433801.7024434,36171.855,23300.46,65157.255,-5119.605,-32021.145,-47578.185,-9032.805,12996.45
1764433801.7024434,36166.77,23297.535,65155.905,-5122.395,-32025.69,-47582.685,-9029.79,12994.65
1764433801.7024434,36164.475,23299.695,65159.82,-5120.865,-32024.52,-47582.73,-9018.945,12998.61
1764433801.7024434,36159.66,23300.145,65161.89,-5122.62,-32027.4,-47586.465,-9007.965,13000.545
1764433801.7024434,36155.835,23298.48,65159.64,-5125.905,-32030.28,-47590.605,-9003.96,13000.995
1764433801.7024434,36154.44,23296.05,65155.995,-5129.685,-32033.25,-47593.53,-9006.84,12999.645
1764433801.7024434,36151.02,23290.515,65149.695,-5135.445,-32037.84,-47597.94,-9018.495,12992.31
1764433801.7024434,36157.95,23292.72,65150.46,-5131.845,-32033.34,-47592.54,-9023.94,12993.39
1764433801.7024434,36168.525,23299.29,65155.005,-5124.195,-32024.025,-47581.2,-9028.17,12997.62
1764433801.7506626,36173.025,23301.405,65157.84,-5120.955,-32020.47,-47577.195,-9031.86,12997.98
1764433801.7506626,36172.575,23301.495,65159.28,-5119.425,-32019.03,-47576.7,-9030.87,12997.62
1764433801.7506626,36168.075,23300.37,65159.46,-5121.54,-32022.09,-47579.94,-9025.965,12996.72
1764433801.7506626,36162.495,23299.74,65158.92,-5124.33,-32025.24,-47584.395,-9018.945,12996.765
1764433801.7506626,36155.745,23298.03,65158.2,-5127.21,-32030.01,-47590.11,-9010.305,12997.26
1764433801.7506626,36150.525,23294.52,65155.185,-5130.855,-32035.275,-47595.555,-9007.425,12996.135
1764433801.7506626,36154.08,23297.13,65156.85,-5128.92,-32032.755,-47592.945,-9005.805,12999.285
1764433801.7516782,36153.405,23293.08,65152.08,-5133.15,-32035.05,-47595.375,-9015.795,12994.605
1764433801.7516782,36157.905,23293.575,65151.36,-5131.8,-32032.8,-47591.955,-9023.625,12994.2
1764433801.7516782,36164.475,23295.87,65151.81,-5128.38,-32028.12,-47586.375,-9031.185,12993.84
1764433801.7516782,36174.375,23302.8,65158.65,-5120.145,-32020.02,-47575.89,-9030.285,12998.61
1764433801.7516782,36173.745,23303.88,65160.18,-5118.974999999999,-32019.57,-47575.08,-9028.89,12998.52
1764433801.7516782,36168.66,23302.17,65159.1,-5121.0,-32021.955,-47578.635,-9024.615,12997.845
1764433801.7516782,36161.73,23298.795,65157.48,-5124.554999999999,-32026.635,-47584.35,-9019.305,12996.45
1764433801.7516782,36151.155,23292.945,65154.285,-5131.304999999999,-32034.555,-47593.89,-9015.03,12993.435
1764433801.7516782,36153.135,23297.715,65159.46,-5127.795,-32031.855,-47591.73,-9004.365,12999.645
1764433801.7516782,36156.105,23300.685,65161.26,-5126.31,-32029.83,-47590.065,-9002.835,13001.895
1764433801.7516782,36154.305,23295.105,65154.42,-5131.44,-32033.655,-47593.98,-9014.715,12995.82
1764433801.7516782,36158.31,23294.88,65152.575,-5130.495,-32032.215,-47590.74,-9023.04,12994.785
1764433801.7516782,36167.58,23299.425,65155.68,-5124.87,-32024.745,-47582.46,-9029.07,12997.26
1764433801.7516782,36168.48,23298.435,65154.285,-5124.33,-32024.34,-47580.615,-9035.73,12994.875
1764433801.7516782,36171.135,23301.54,65158.38,-5120.505,-32021.64,-47577.51,-9031.995,12997.395
1764433801.7516782,36165.51,23299.155,65156.715,-5122.98,-32024.475,-47581.83,-9027.495,12994.605
1764433801.7516782,36160.65,23299.11,65158.92,-5123.52,-32026.005,-47584.755,-9019.395,12996.585
1764433801.7986078,36155.7,23298.255,65160.045,-5124.96,-32028.93,-47588.535,-9009.09,12998.7
1764433801.7986078,36152.415,23297.895,65159.01,-5128.11,-32031.225,-47590.47,-9004.5,12999.42
1764433801.7986078,36155.61,23299.695,65160.495,-5126.355,-32029.65,-47588.85,-9003.465,13001.31
1764433801.7986078,36157.545,23298.075,65157.705,-5126.715,-32029.56,-47588.895,-9010.44,13000.095
1764433801.7986078,36159.975,23297.355,65155.365,-5126.49,-32029.56,-47587.545,-9019.755,12997.89
1764433801.7986078,36162.09,23295.06,65151.9,-5127.57,-32029.2,-47585.61,-9031.95,12992.805
1764433801.7986078,36169.47,23300.1,65156.535,-5121.405,-32022.045,-47577.825,-9032.445,12995.955
1764433801.7986078,36166.5,23297.76,65154.6,-5123.115,-32024.43,-47580.57,-9033.48,12993.345
1764433801.7986078,36162.945,23297.895,65155.68,-5123.79,-32026.275,-47582.505,-9026.955,12994.02
1764433801.7996242,36159.12,23298.57,65158.155,-5123.925,-32027.49,-47585.43,-9018.045,12996.045
1764433801.7996242,36157.005,23301.045,65162.205,-5122.845,-32028.165,-47587.05,-9006.21,13000.86
1764433801.7996242,36151.11,23297.085,65158.29,-5128.065,-32033.655,-47592.765,-9004.725,12998.61
1764433801.7996242,36155.16,23300.685,65160.855,-5125.905,-32030.28,-47589.705,-9002.43,13002.885
1764433801.7996242,36156.555,23298.57,65157.21,-5127.57,-32031.045,-47590.155,-9011.07,12999.96
1764433801.7996242,36158.31,23296.05,65153.88,-5128.514999999999,-32031.495,-47588.985,-9020.97,12996.405
1764433801.7996242,36166.77,23300.01,65156.67,-5123.07,-32024.79,-47581.245,-9027.585,12998.295
1764433801.7996242,36167.265,23298.3,65154.42,-5123.565,-32024.97,-47580.615,-9035.055,12994.74
1764433801.7996242,36167.085,23298.75,65156.175,-5122.889999999999,-32024.34,-47579.94,-9032.94,12995.055
1764433801.7996242,36168.165,23302.98,65161.845,-5118.84,-32021.595,-47578.23,-9023.13,13000.14
1764433801.7996242,36159.435,23298.615,65159.145,-5123.61,-32027.49,-47585.88,-9019.26,12997.395
1764433801.8006203,36155.025,23299.11,65160.675,-5124.42,-32030.01,-47588.895,-9009.27,13000.185
1764433801.8006203,36150.255,23296.095,65157.795,-5129.595,-32034.33,-47594.07,-9006.795,12999.195
1764433801.8006203,36154.395,23299.38,65160.855,-5127.03,-32031.36,-47590.965,-9005.22,13002.255
1764433801.8006203,36152.955,23295.15,65154.105,-5132.07,-32035.14,-47593.98,-9015.885,12996.675
1764433801.843886,36156.6,23295.645,65152.395,-5130.63,-32033.295,-47590.425,-9024.12,12996.0
1764433801.843886,36164.025,23298.435,65154.87,-5125.995,-32027.67,-47583.405,-9031.77,12996.45
1764433801.843886,36172.305,23303.97,65161.08,-5118.929999999999,-32019.615,-47574.81,-9030.6,13000.905
1764433801.843886,36170.235,23303.655,65160.945,-5119.065,-32019.705,-47575.17,-9029.52,13000.185
1764433801.843886,36161.235,23297.67,65156.76,-5124.69,-32027.58,-47583.27,-9028.08,12994.605
1764433801.843886,36154.26,23295.285,65155.32,-5127.21,-32031.99,-47588.445,-9022.32,12993.075
1764433801.843886,36149.31,23295.555,65156.49,-5129.28,-32035.14,-47592.855,-9011.925,12995.46
1764433801.843886,36149.13,23297.355,65158.065,-5129.145,-32034.915,-47593.665,-9004.23,12999.42
1764433801.843886,36155.655,23302.98,65163.06,-5123.88,-32029.605,-47588.31,-9000.18,13005.585
1764433801.843886,36156.555,23300.37,65158.92,-5126.13,-32030.955,-47588.58,-9009.315,13002.66
1764433801.843886,36157.635,23296.995,65154.33,-5128.065,-32031.675,-47588.625,-9020.97,12998.07
1764433801.843886,36166.95,23301.36,65158.11,-5121.855,-32024.43,-47580.075,-9026.775,13000.095
1764433801.843886,36171.315,23303.97,65159.955,-5118.165,-32021.505,-47575.71,-9030.15,13000.77
1764433801.843886,36167.67,23301.855,65158.245,-5119.38,-32023.62,-47577.69,-9030.69,12998.88
1764433801.843886,36168.615,23305.77,65163.285,-5116.77,-32021.64,-47576.115,-9021.195,13002.75
1764433801.843886,36163.44,23304.24,65163.555,-5119.065,-32024.925,-47580.615,-9013.95,13002.75
1764433801.843886,36155.385,23300.955,65161.8,-5123.34,-32030.73,-47587.77,-9006.39,13002.57
1764433801.843886,36151.65,23299.29,65160.18,-5126.264999999999,-32033.34,-47591.055,-9002.88,13002.66
1764433801.843886,36152.415,23299.155,65159.235,-5126.625,-32033.25,-47590.965,-9005.085,13002.255
1764433801.8454227,36153.09,23296.995,65155.05,-5129.505,-32035.005,-47592.495,-9014.22,12998.565
1764433801.8454227,36152.37,23292.27,65149.2,-5133.69,-32037.255,-47593.575,-9027.36,12992.67
1764433801.8454227,36157.86,23293.845,65149.605,-5130.045,-32032.395,-47588.22,-9035.685,12992.085
1764433801.887915,36164.295,23298.84,65153.925,-5123.88,-32026.725,-47581.56,-9036.18,12994.65
1764433801.887915,36162.045,23297.265,65153.475,-5124.87,-32027.67,-47583.18,-9036.09,12992.895
1764433801.887915,36161.82,23301.54,65158.83,-5122.215,-32025.24,-47582.145,-9026.64,12998.115
1764433801.887915,36153.81,23296.815,65156.13,-5127.255,-32031.72,-47589.84,-9022.815,12995.055
1764433801.887915,36147.69,23294.88,65155.815,-5130.135,-32035.5,-47594.565,-9013.995,12995.685
1764433801.887915,36147.915,23296.77,65158.605,-5128.695,-32034.915,-47594.655,-9006.75,12999.33
1764433801.887915,36154.71,23302.125,65162.79,-5123.295,-32029.02,-47589.165,-9002.744999999999,13005.225
1764433801.887915,36155.475,23298.795,65159.685,-5125.995,-32029.47,-47589.975,-9011.88,13001.67
1764433801.887915,36155.7,23294.835,65154.33,-5128.875,-32031.63,-47590.74,-9024.12,12996.135
1764433801.887915,36163.485,23298.57,65156.445,-5123.745,-32025.555,-47583.72,-9030.69,12997.53
1764433801.887915,36165.51,23298.885,65155.77,-5122.575,-32023.575,-47581.155,-9035.685,12995.91
1764433801.887915,36167.58,23302.845,65160.81,-5117.67,-32020.29,-47577.195,-9030.195,12999.285
1764433801.8892276,36165.96,23303.7,65163.555,-5116.86,-32020.83,-47578.14,-9022.905,13001.58
1764433801.8892276,36158.445,23300.325,65160.99,-5121.764999999999,-32026.995,-47584.935,-9017.865,12999.78
1764433801.8892276,36154.485,23300.64,65162.97,-5122.665,-32029.11,-47587.23,-9006.75,13002.21
1764433801.8892276,36152.28,23299.74,65163.015,-5124.42,-32031.315,-47590.155,-9002.88,13002.525
1764433801.8892276,36152.955,23299.56,65161.845,-5125.59,-32031.315,-47590.875,-9004.994999999999,13002.66
1764433801.8892276,36150.93,23295.015,65155.185,-5130.179999999999,-32033.97,-47593.62,-9016.29,12996.945
1764433801.8892276,36158.085,23297.805,65156.58,-5126.625,-32029.065,-47587.815,-9022.32,12998.79
1764433801.8892276,36162.81,23296.86,65155.185,-5125.679999999999,-32027.265,-47584.215,-9033.3,12996.27
1764433801.8892276,36169.83,23302.08,65160.405,-5118.57,-32020.83,-47575.98,-9032.76,12999.195
1764433801.8892276,36167.355,23301.81,65160.675,-5118.57,-32021.145,-47576.79,-9031.23,12998.115
1764433801.936227,36160.155,23296.905,65157.615,-5123.07,-32027.13,-47583.09,-9029.205,12994.605
1764433801.936227,36154.62,23295.555,65157.705,-5125.275,-32030.865,-47587.32,-9021.69,12994.785
1764433801.936227,36147.33,23293.71,65157.03,-5128.965,-32035.23,-47593.62,-9013.455,12995.415
1764433801.9367528,36145.845,23294.025,65156.85,-5130.315,-32036.805,-47595.78,-9009.18,12998.16
1764433801.9367528,36152.325,23298.705,65160.405,-5126.31,-32031.945,-47591.28,-9006.21,13002.93
1764433801.9367528,36154.035,23297.04,65157.93,-5126.76,-32032.08,-47590.29,-9013.77,13000.5
1764433801.9367528,36156.15,23295.645,65155.635,-5126.804999999999,-32031.315,-47587.995,-9023.49,12997.575
1764433801.9367528,36159.57,23295.735,65153.16,-5125.815,-32029.11,-47583.99,-9034.29,12995.145
1764433801.9367528,36158.94,23293.305,65149.74,-5126.625,-32030.1,-47585.07,-9042.12,12990.33
1764433801.9367528,36159.03,23293.44,65151.18,-5125.23,-32029.155,-47584.395,-9039.06,12991.455
1764433801.9367528,36160.425,23298.705,65157.12,-5121.315,-32026.005,-47581.695,-9027.945,12997.17
1764433801.9367528,36154.665,23297.445,65157.57,-5124.06,-32029.83,-47586.06,-9020.88,12996.72
1764433801.9367528,36153.765,23300.37,65162.52,-5122.665,-32030.145,-47586.78,-9007.47,13003.2
1764433801.9367528,36151.065,23299.335,65161.53,-5124.645,-32031.945,-47590.47,-9003.645,13003.785
1764433801.9367528,36150.795,23298.12,65159.595,-5126.49,-32033.115,-47591.73,-9007.92,13002.48
1764433801.9367528,36149.58,23293.575,65153.925,-5130.764999999999,-32036.805,-47593.755,-9018.495,12997.26
1764433801.9367528,36157.14,23296.68,65156.085,-5125.815,-32030.775,-47587.14,-9023.715,12999.42
1764433801.9367528,36164.61,23299.47,65157.615,-5121.855,-32025.87,-47580.75,-9031.815,13000.095
1764433801.9367528,36168.48,23301.585,65159.28,-5118.615,-32022.54,-47576.745,-9034.695,12999.735
1764433801.9367528,36164.565,23299.335,65157.975,-5119.965,-32024.475,-47579.355,-9034.65,12997.17
1764433801.9367528,36161.865,23300.145,65159.685,-5119.335,-32025.96,-47580.75,-9027.135,12998.835
1764433801.9367528,36160.65,23303.34,65164.365,-5117.67,-32025.015,-47580.615,-9015.84,13003.425
1764433801.9367528,36149.085,23297.22,65159.46,-5125.905,-32034.105,-47590.74,-9012.33,12999.285
1764433801.9367528,36147.285,23297.535,65159.415,-5127.345,-32035.14,-47592.765,-9007.92,13001.22
1764433801.9830017,36153.135,23301.63,65163.33,-5123.025,-32030.235,-47588.49,-9004.455,13006.125
1764433801.9830017,36153.63,23299.245,65159.055,-5124.78,-32030.64,-47587.59,-9012.915,13003.56
1764433801.9830017,36154.215,23295.78,65154.24,-5127.525,-32032.53,-47588.175,-9025.245,12998.07
1764433801.9830017,36162.9,23300.685,65157.435,-5122.485,-32025.915,-47579.895,-9031.365,12999.285
1764433801.9830017,36166.995,23302.935,65159.28,-5118.48,-32021.91,-47575.575,-9033.615,12999.825
1764433801.9830017,36161.415,23298.795,65156.67,-5121.764999999999,-32025.555,-47579.85,-9035.415,12995.685
1764433801.9830017,36157.77,23298.57,65157.66,-5122.845,-32027.76,-47581.965,-9029.385,12995.595
1764433801.9840178,36154.845,23299.56,65160.495,-5122.304999999999,-32028.885,-47583.405,-9019.215,12999.42
1764433801.9840178,36149.805,23299.56,65162.16,-5124.42,-32030.865,-47587.275,-9009.585,13001.985
1764433801.9840178,36150.57,23301.855,65164.995,-5123.115,-32029.38,-47586.87,-9001.89,13006.26
1764433801.9840178,36152.415,23302.53,65163.96,-5123.16,-32029.2,-47586.465,-9003.914999999999,13007.025
1764433801.9840178,36153.09,23299.74,65159.55,-5125.5,-32031.63,-47587.995,-9013.095,13002.165
1764433801.9840178,36152.46,23295.87,65154.465,-5128.785,-32033.43,-47589.525,-9025.74,12996.135
1764433801.9840178,36156.87,23296.905,65153.34,-5126.895,-32030.01,-47585.34,-9035.595,12994.11
1764433801.9840178,36162.18,23299.875,65156.22,-5122.62,-32025.915,-47579.895,-9036.72,12995.505
1764433801.9851696,36165.33,23303.88,65162.205,-5117.58,-32021.73,-47575.89,-9029.52,13000.05
1764433801.9851696,36159.21,23301.27,65160.945,-5119.514999999999,-32025.555,-47581.155,-9025.965,12998.295
1764433801.9851696,36154.44,23301.405,65161.71,-5120.01,-32026.815,-47583.585,-9017.37,12999.96
1764433801.9851696,36143.82,23295.42,65158.335,-5127.57,-32034.69,-47593.665,-9012.6,12996.315
1764433801.986189,36145.17,23297.445,65160.81,-5126.625,-32034.195,-47593.485,-9006.345,12999.915
1764433801.986189,36145.53,23295.87,65158.605,-5127.885,-32035.545,-47593.845,-9009.765,12999.195
1764433801.986189,36143.325,23290.38,65152.305,-5132.34,-32039.505,-47596.905,-9021.78,12992.985
1764433801.986189,36148.455,23291.595,65151.9,-5130.945,-32037.03,-47593.62,-9029.97,12992.175
1764433801.986189,36155.565,23294.16,65153.295,-5126.94,-32031.99,-47587.32,-9037.305,12992.58
1764433802.0306077,36160.155,23297.715,65156.31,-5123.52,-32027.22,-47582.055,-9039.06,12993.615
1764433802.0311322,36161.37,23300.91,65160.675,-5119.605,-32024.52,-47578.995,-9033.165,12996.855
1764433802.0311322,36155.61,23298.84,65159.28,-5121.99,-32029.02,-47584.215,-9029.16,12995.595
1764433802.0311322,36150.435,23297.58,65159.595,-5124.33,-32032.755,-47588.58,-9022.095,12995.055
1764433802.0311322,36144.09,23295.15,65158.92,-5127.885,-32036.715,-47593.935,-9014.31,12995.685
1764433802.0311322,36141.525,23294.25,65157.975,-5129.775,-32038.785,-47596.77,-9010.755,12996.405
1764433802.0311322,36146.34,23297.85,65160.27,-5127.165,-32035.905,-47594.43,-9009.72,12999.735
1764433802.0311322,36144.855,23291.955,65153.7,-5132.385,-32039.415,-47597.67,-9021.105,12994.02
1764433802.0311322,36148.995,23291.73,65152.44,-5130.63,-32037.705,-47593.845,-9030.24,12992.31
1764433802.0311322,36157.68,23296.14,65155.095,-5124.554999999999,-32030.37,-47584.53,-9036.18,12994.335
1764433802.0311322,36160.02,23297.175,65156.13,-5122.08,-32028.795,-47581.965,-9038.52,12993.435
1764433802.0311322,36155.07,23294.025,65154.105,-5124.33,-32031.675,-47585.205,-9039.465,12990.285
1764433802.0311322,36150.93,23292.72,65153.835,-5126.355,-32034.645,-47589.255,-9034.38,12990.42
1764433802.0311322,36146.925,23292.945,65155.275,-5127.255,-32036.355,-47592.315,-9025.11,12991.86
1764433802.0316474,36146.16,23297.715,65160.225,-5125.275,-32035.455,-47591.82,-9011.205,12998.925
1764433802.0316474,36145.26,23297.805,65161.035,-5125.815,-32036.13,-47592.9,-9006.164999999999,13001.445
1764433802.0316474,36144.405,23295.15,65157.345,-5128.83,-32038.38,-47594.565,-9011.295,12998.97
1764433802.0316474,36143.595,23289.885,65150.955,-5134.005,-32041.845,-47597.58,-9024.3,12992.805
1764433802.0316474,36150.705,23292.405,65152.98,-5129.595,-32036.265,-47591.19,-9030.285,12993.975
1764433802.0316474,36152.685,23290.695,65149.38,-5129.865,-32035.59,-47589.795,-9042.345,12989.61
1764433802.0316474,36157.005,23293.8,65152.26,-5125.815,-32031.945,-47584.935,-9043.38,12990.96
1764433802.0316474,36160.335,23299.11,65157.615,-5120.775,-32026.5,-47579.625,-9034.965,12996.09
1764433802.0316474,36157.005,23300.55,65160.27,-5119.74,-32027.355,-47580.345,-9028.17,12997.485
1764433802.0316474,36150.21,23298.255,65159.775,-5122.889999999999,-32032.26,-47586.06,-9022.815,12996.405
1764433802.0793366,36140.085,23292.45,65155.23,-5130.27,-32039.82,-47594.925,-9018.045,12992.58
1764433802.0793366,36138.195,23292.495,65154.915,-5132.07,-32041.89,-47597.625,-9013.995,12994.2
1764433802.0793366,36143.685,23296.455,65157.255,-5128.965,-32037.705,-47593.125,-9012.69,12997.935
1764433802.0793366,36145.305,23293.935,65153.34,-5130.63,-32037.615,-47592.585,-9021.33,12994.92
1764433802.0793366,36147.06,23290.695,65149.92,-5132.565,-32038.245,-47591.865,-9032.265,12991.14
1764433802.0793366,36155.925,23296.32,65153.745,-5126.22,-32031.18,-47582.955,-9037.44,12993.525
1764433802.0793366,36159.615,23298.435,65155.86,-5121.9,-32027.805,-47579.04,-9039.69,12993.93
1764433802.0793366,36154.125,23295.51,65153.79,-5124.554999999999,-32030.55,-47582.775,-9039.78,12991.005
1764433802.0793366,36152.55,23297.58,65157.21,-5123.34,-32030.1,-47582.37,-9030.42,12993.795
1764433802.0793366,36143.28,23292.27,65153.7,-5129.235,-32036.94,-47590.74,-9026.145,12990.825
1764433802.0793366,36135.09,23288.895,65151.27,-5134.23,-32042.16,-47598.705,-9019.44,12990.06
1764433802.0793366,36132.93,23288.445,65150.955,-5136.165,-32043.195,-47601.27,-9016.515,12991.365
1764433802.0793366,36138.105,23291.595,65153.07,-5133.014999999999,-32039.415,-47597.625,-9016.245,12994.335
1764433802.0793366,36137.295,23288.13,65147.85,-5136.48,-32042.07,-47599.38,-9027.18,12990.285
1764433802.0793366,36142.605,23288.76,65147.58,-5134.32,-32039.235,-47595.735,-9035.46,12989.97
1764433802.0793366,36148.455,23290.335,65147.355,-5131.845,-32035.05,-47589.39,-9043.47,12989.07
1764433802.0793366,36154.08,23295.15,65152.26,-5126.04,-32029.245,-47583.36,-9041.895,12991.455
1764433802.0793366,36153.18,23295.645,65154.195,-5124.915,-32028.48,-47583.45,-9038.925,12991.68
1764433802.0793366,36147.465,23293.35,65152.845,-5127.974999999999,-32032.8,-47587.815,-9034.83,12989.835
1764433802.0793366,36145.305,23295.015,65156.535,-5126.175,-32032.215,-47588.04,-9024.57,12994.425
1764433802.0793366,36137.34,23291.685,65154.195,-5130.945,-32038.515,-47595.825,-9017.865,12993.795
1764433802.0793366,36136.215,23291.505,65153.655,-5132.655,-32039.46,-47597.715,-9014.13,12994.515
1764433802.1226137,36141.12,23294.205,65155.635,-5130.135,-32036.445,-47593.665,-9014.22,12997.26
1764433802.1226137,36140.22,23290.245,65150.505,-5133.33,-32039.1,-47594.925,-9024.39,12992.985
1764433802.1226137,36148.32,23294.52,65153.025,-5128.335,-32033.34,-47587.365,-9028.89,12995.505
1764433802.1226137,36151.065,23293.26,65150.775,-5128.02,-32032.08,-47584.89,-9040.14,12991.455
1764433802.1226137,36155.25,23295.915,65152.89,-5124.645,-32029.02,-47581.29,-9041.805,12992.13
1764433802.1226137,36155.475,23298.3,65155.455,-5122.665,-32027.355,-47579.985,-9037.08,12994.38
1764433802.1226137,36155.34,23301.27,65160.36,-5119.875,-32025.555,-47578.905,-9026.37,12998.88
1764433802.1226137,36149.715,23299.335,65160.27,-5121.179999999999,-32028.615,-47583.045,-9018.72,12999.195
1764433802.1226137,36142.965,23296.455,65158.2,-5125.995,-32034.51,-47590.155,-9012.51,12999.51
1764433802.124163,36137.88,23293.17,65154.42,-5130.855,-32038.965,-47595.645,-9013.185,12997.17
1764433802.124163,36143.685,23297.985,65158.2,-5127.03,-32034.33,-47591.415,-9011.475,13001.445
1764433802.124163,36144.945,23295.06,65154.33,-5128.83,-32035.68,-47591.82,-9021.24,12998.295
1764433802.124163,36143.82,23289.75,65147.895,-5132.88,-32038.785,-47593.755,-9035.19,12990.33
1764433802.124163,36149.58,23291.55,65147.76,-5129.595,-32034.915,-47587.995,-9044.145,12989.385
1764433802.124163,36155.205,23296.005,65153.295,-5124.014999999999,-32029.29,-47581.47,-9043.29,12992.94
1764433802.124163,36151.83,23294.205,65152.71,-5125.5,-32031.09,-47583.54,-9041.94,12990.69
1764433802.124163,36153.495,23300.145,65158.92,-5120.639999999999,-32027.22,-47580.255,-9029.295,12997.17
1764433802.124163,36148.635,23299.605,65159.865,-5121.315,-32029.065,-47583.54,-9020.16,12998.34
1764433802.124163,36141.93,23296.77,65158.29,-5126.13,-32034.51,-47590.83,-9013.455,12997.845
1764433802.124163,36141.03,23297.445,65158.425,-5127.03,-32035.365,-47592.135,-9009.72,12999.825
1764433802.124163,36142.47,23296.995,65157.435,-5128.65,-32036.175,-47592.585,-9012.51,12999.015
1764433802.124163,36139.815,23290.47,65150.235,-5133.42,-32039.865,-47595.735,-9025.38,12992.355
1764433802.124163,36143.145,23289.12,65147.805,-5133.375,-32038.92,-47593.755,-9035.235,12989.205
1764433802.124163,36147.42,23290.065,65147.31,-5130.855,-32035.77,-47589.48,-9044.73,12987.675
1764433802.172505,36150.525,23292.585,65149.56,-5127.345,-32032.575,-47585.52,-9046.98,12988.125
1764433802.172505,36150.255,23293.53,65152.44,-5125.679999999999,-32031.495,-47585.295,-9042.525,12989.43
1764433802.172505,36149.175,23295.825,65155.995,-5124.465,-32030.28,-47586.15,-9033.525,12992.625
1764433802.172505,36147.735,23298.48,65160.63,-5122.349999999999,-32030.1,-47585.97,-9021.24,12997.98
1764433802.172505,36139.68,23294.88,65158.38,-5127.165,-32035.86,-47593.17,-9014.895,12997.305
1764433802.172505,36140.22,23297.58,65160.0,-5125.635,-32034.645,-47592.405,-9009.72,13001.445
1764433802.172505,36140.22,23295.555,65156.805,-5127.75,-32035.995,-47593.665,-9014.265,12998.745
1764433802.172505,36138.375,23289.705,65149.515,-5134.005,-32041.17,-47597.805,-9027.36,12991.995
1764433802.172505,36143.01,23290.335,65149.02,-5132.115,-32038.92,-47594.025,-9035.64,12991.545
1764433802.172505,36148.77,23292.315,65149.785,-5127.705,-32033.88,-47586.96,-9043.335,12990.825
1764433802.172505,36151.92,23294.25,65151.54,-5124.915,-32031.09,-47583.81,-9044.955,12990.87
1764433802.172505,36150.84,23294.295,65152.62,-5124.51,-32030.73,-47584.755,-9042.12,12992.085
1764433802.172505,36149.985,23297.04,65156.895,-5122.485,-32029.83,-47583.765,-9032.445,12995.91
1764433802.172505,36143.46,23294.79,65156.265,-5126.13,-32034.195,-47589.12,-9024.57,12995.73
1764433802.216962,36142.785,23298.255,65161.17,-5124.42,-32033.835,-47589.12,-9012.015,13001.805
1764433802.217962,36140.535,23297.535,65160.09,-5126.355,-32035.05,-47591.19,-9009.9,13002.3
1764433802.217962,36140.805,23295.555,65156.535,-5129.235,-32037.165,-47592.765,-9014.67,13000.005
1764433802.217962,36141.345,23293.17,65153.295,-5131.53,-32038.425,-47593.62,-9024.12,12996.135
1764433802.217962,36142.83,23290.47,65149.56,-5132.565,-32039.1,-47592.495,-9036.135,12992.13
1764433802.217962,36148.14,23291.595,65149.92,-5129.685,-32034.78,-47587.815,-9044.415,12991.275
1764433802.217962,36153.135,23295.735,65154.42,-5124.51,-32029.155,-47582.64,-9043.695,12993.93
1764433802.217962,36149.085,23294.655,65153.205,-5125.679999999999,-32031.72,-47584.215,-9041.76,12991.995
1764433802.217962,36149.22,23298.75,65157.885,-5122.215,-32029.83,-47583.315,-9032.13,12997.17
1764433802.217962,36141.03,23295.195,65155.185,-5127.48,-32035.815,-47590.875,-9027.18,12994.38
1764433802.217962,36135.72,23294.295,65155.005,-5129.82,-32039.01,-47595.105,-9017.91,12995.955
1764433802.217962,36133.605,23293.215,65154.06,-5131.8,-32040.855,-47597.22,-9015.66,12996.63
1764433802.217962,36135.63,23292.855,65153.295,-5132.115,-32040.495,-47596.32,-9018.63,12996.81
1764433802.217962,36139.275,23292.495,65151.675,-5132.025,-32040.09,-47595.015,-9025.875,12994.92
1764433802.217962,36145.08,23293.935,65151.495,-5129.505,-32036.715,-47590.29,-9034.2,12994.065
1764433802.217962,36149.85,23293.935,65151.585,-5126.895,-32033.43,-47585.61,-9042.885,12993.12
1764433802.217962,36149.58,23293.035,65150.595,-5127.03,-32033.745,-47585.52,-9046.53,12990.375
1764433802.217962,36150.885,23296.725,65155.905,-5122.71,-32030.865,-47583.225,-9040.005,12993.885
1764433802.219016,36145.53,23294.295,65155.185,-5125.23,-32034.375,-47587.365,-9035.145,12992.355
1764433802.219016,36140.355,23292.945,65155.185,-5127.929999999999,-32037.39,-47591.325,-9027.135,12992.625
1764433802.219016,36135.495,23292.72,65155.41,-5130.135,-32040.405,-47595.915,-9017.91,12995.145
1764433802.219016,36133.56,23292.09,65153.97,-5132.34,-32042.925,-47598.165,-9015.93,12995.28
1764433802.219016,36139.815,23295.645,65157.255,-5128.38,-32038.02,-47592.72,-9015.12,12998.52
1764433802.219016,36142.47,23295.15,65155.275,-5127.974999999999,-32036.22,-47589.975,-9022.185,12997.395
1764433802.219016,36146.16,23294.16,65153.475,-5128.56,-32035.545,-47588.31,-9032.175,12994.335
1764433802.219016,36147.285,23291.055,65149.155,-5129.639999999999,-32036.04,-47587.32,-9044.865,12989.385
1764433802.219016,36149.445,23292.585,65149.83,-5127.974999999999,-32033.97,-47585.025,-9047.16,12989.295
1764433802.219016,36148.23,23293.035,65152.125,-5126.58,-32033.655,-47584.53,-9043.065,12990.96
1764433802.219016,36146.385,23294.97,65154.33,-5125.095,-32034.78,-47585.7,-9035.73,12993.165
1764433802.219016,36145.125,23297.31,65157.525,-5124.599999999999,-32034.33,-47586.735,-9024.12,12996.585
1764433802.22101,36135.27,23292.315,65153.88,-5130.45,-32042.07,-47596.095,-9019.44,12993.975
1764433802.22101,36132.615,23289.66,65151.99,-5132.52,-32044.68,-47599.065,-9018.495,12994.065
1764433802.2641225,36135.45,23290.11,65151.72,-5131.98,-32043.285,-47596.905,-9020.205,12994.74
1764433802.2641225,36135.135,23285.97,65146.545,-5135.895,-32045.94,-47599.065,-9031.23,12990.06
1764433802.2641225,36146.16,23293.035,65151.495,-5129.145,-32037.435,-47589.75,-9033.48,12994.605
1764433802.265134,36152.73,23296.23,65153.025,-5124.554999999999,-32032.395,-47583.18,-9039.825,12995.1
1764433802.265134,36151.56,23294.52,65151.405,-5125.455,-32032.53,-47583.405,-9044.595,12992.22
1764433802.265134,36154.8,23299.56,65157.435,-5120.82,-32027.715,-47579.265,-9037.215,12996.99
1764433802.265134,36152.595,23301.36,65160.45,-5119.29,-32027.76,-47580.165,-9028.71,12999.465
1764433802.265134,36145.215,23298.885,65159.955,-5121.63,-32031.765,-47584.395,-9021.555,12999.285
1764433802.265134,36136.395,23293.71,65155.275,-5128.74,-32039.64,-47593.935,-9016.83,12996.045
1764433802.2661345,36136.44,23294.205,65155.14,-5130.179999999999,-32040.72,-47595.33,-9013.95,12997.485
1764433802.2661345,36140.94,23296.455,65156.175,-5127.795,-32037.435,-47592.36,-9015.165,13000.185
1764433802.2661345,36139.365,23291.685,65150.415,-5132.25,-32041.17,-47595.555,-9026.64,12993.255
1764433802.2661345,36144.495,23292.72,65151.18,-5130.72,-32037.435,-47590.92,-9035.145,12992.67
1764433802.2661345,36150.93,23294.88,65152.305,-5126.76,-32032.935,-47584.485,-9042.57,12992.085
1764433802.2671487,36155.61,23298.57,65155.545,-5121.585,-32028.03,-47578.68,-9041.265,12994.56
1764433802.2671487,36151.47,23296.005,65154.465,-5123.07,-32030.64,-47581.83,-9040.14,12992.13
1764433802.2671487,36150.66,23298.84,65158.83,-5120.46,-32029.065,-47581.2,-9029.43,12996.63
1764433802.2671487,36146.655,23299.335,65160.945,-5120.955,-32031.045,-47584.17,-9019.935,12999.555
1764433802.2681465,36140.4,23297.76,65159.955,-5124.825,-32035.77,-47590.02,-9012.78,12999.735
1764433802.2681465,36136.485,23294.88,65156.535,-5129.325,-32039.955,-47594.745,-9013.185,12997.125
1764433802.2681465,36138.645,23295.105,65155.14,-5129.28,-32039.37,-47594.025,-9016.965,12996.945
1764433802.268926,36136.665,23290.74,65149.695,-5132.474999999999,-32042.07,-47595.69,-9028.8,12991.905
1764433802.268926,36140.58,23290.83,65148.84,-5131.304999999999,-32040.09,-47592.315,-9038.07,12989.655
1764433802.268926,36145.98,23291.28,65148.66,-5128.514999999999,-32036.445,-47587.365,-9046.395,12988.62
1764433802.3091288,36149.22,23293.755,65151.945,-5124.78,-32032.485,-47582.73,-9046.305,12990.06
1764433802.3091288,36151.695,23298.795,65157.705,-5120.054999999999,-32027.985,-47579.085,-9038.43,12994.245
1764433802.3091288,36148.05,23299.11,65158.11,-5121.045,-32029.425,-47581.605,-9032.13,12994.29
1764433802.3101315,36139.005,23294.565,65154.825,-5126.49,-32035.77,-47588.985,-9027.675,12991.905
1764433802.3101315,36135.945,23294.61,65156.805,-5128.56,-32038.245,-47592.72,-9017.145,12994.92
1764433802.3101315,36132.84,23291.28,65153.25,-5132.34,-32042.52,-47596.905,-9016.695,12993.3
1764433802.3101315,36139.14,23295.69,65156.355,-5128.514999999999,-32038.29,-47591.595,-9015.705,12997.935
1764433802.3101315,36141.21,23294.61,65153.565,-5129.235,-32037.345,-47590.515,-9023.805,12996.18
1764433802.3111255,36142.83,23292.18,65149.515,-5130.179999999999,-32038.155,-47589.885,-9036.495,12991.005
1764433802.3111255,36150.21,23295.87,65151.9,-5125.05,-32032.665,-47583.045,-9043.02,12991.635
1764433802.3111255,36148.995,23293.62,65150.775,-5125.545,-32033.07,-47582.505,-9047.655,12989.16
1764433802.3111255,36147.105,23295.15,65152.575,-5124.195,-32032.665,-47582.685,-9043.11,12990.87
1764433802.3111255,36146.16,23297.85,65155.905,-5122.304999999999,-32031.99,-47582.46,-9033.345,12994.11
1764433802.3121338,36140.535,23296.23,65156.535,-5123.79,-32034.6,-47585.835,-9025.74,12994.335
1764433802.3121338,36135.72,23294.07,65155.995,-5127.57,-32039.145,-47592.315,-9017.82,12995.595
1764433802.3121338,36130.635,23289.66,65151.27,-5132.97,-32044.725,-47598.975,-9019.44,12992.445
1764433802.3121338,36134.955,23291.955,65152.44,-5130.179999999999,-32041.665,-47594.61,-9021.015,12994.605
1764433802.3121338,36133.245,23286.105,65145.735,-5134.905,-32045.49,-47597.535,-9033.93,12988.44
1764433802.3121338,36140.13,23288.49,65146.545,-5131.935,-32041.17,-47592.405,-9041.22,12987.945
1764433802.3121338,36150.525,23295.78,65152.485,-5124.285,-32031.495,-47581.245,-9043.335,12992.4
1764433802.3131275,36150.075,23294.655,65151.27,-5124.285,-32031.855,-47581.56,-9047.07,12990.78
1764433802.3131275,36150.435,23296.32,65154.465,-5120.955,-32030.28,-47579.715,-9041.13,12993.21
1764433802.356206,36147.33,23296.185,65155.995,-5121.63,-32032.485,-47582.595,-9033.93,12994.02
1764433802.356206,36142.29,23295.465,65156.625,-5124.42,-32035.86,-47586.69,-9024.93,12994.785
1764433802.356206,36135.09,23292.27,65154.645,-5129.099999999999,-32040.495,-47592.495,-9018.405,12994.11
1764433802.356206,36129.645,23287.455,65149.47,-5134.545,-32045.22,-47599.065,-9020.52,12991.005
1764433802.356206,36133.785,23289.435,65150.64,-5132.34,-32042.835,-47596.005,-9022.5,12993.075
1764433802.356206,36132.48,23284.935,65144.97,-5135.67,-32045.895,-47598.075,-9035.145,12987.315
1764433802.356206,36137.115,23284.485,65143.53,-5134.77,-32044.005,-47595.015,-9044.19,12985.155
1764433802.356206,36142.83,23287.095,65144.79,-5130.72,-32039.28,-47588.805,-9051.345,12985.245
1764433802.356206,36144.945,23288.04,65146.41,-5128.695,-32036.85,-47586.15,-9052.335,12985.605
1764433802.356206,36142.83,23287.635,65147.355,-5128.425,-32036.355,-47586.825,-9048.78,12985.92
1764433802.356206,36140.31,23289.165,65150.19,-5128.2,-32037.255,-47587.815,-9040.23,12988.575
1764433802.356206,36138.555,23292.45,65154.51,-5126.22,-32036.04,-47587.725,-9027.54,12993.525
1764433802.356206,36129.735,23287.905,65150.145,-5132.835,-32044.14,-47597.715,-9023.67,12990.285
1764433802.356206,36129.87,23288.805,65150.73,-5133.645,-32043.825,-47598.57,-9020.115,12992.355
1764433802.356206,36135.945,23292.945,65154.06,-5130.495,-32038.605,-47593.125,-9019.98,12996.045
1764433802.356206,36134.91,23287.41,65147.76,-5134.86,-32042.205,-47595.42,-9032.445,12989.52
1764433802.356206,36139.545,23288.13,65146.41,-5133.554999999999,-32039.235,-47591.955,-9042.12,12987.9
1764433802.356206,36148.185,23293.125,65150.145,-5126.76,-32031.405,-47583.36,-9046.26,12990.15
1764433802.356206,36150.21,23294.16,65151.765,-5123.88,-32030.145,-47581.11,-9046.755,12990.195
1764433802.356206,36148.68,23294.52,65152.665,-5122.665,-32029.695,-47581.65,-9042.525,12991.185
1764433802.356206,36140.31,23290.56,65149.965,-5127.705,-32035.455,-47588.49,-9039.78,12988.485
1764433802.356206,36136.08,23290.335,65151.585,-5128.11,-32037.525,-47591.865,-9030.915,12990.78
1764433802.356206,36131.895,23289.975,65152.62,-5130.27,-32040.72,-47595.195,-9021.195,12992.895
1764433802.3572228,36135.63,23293.665,65156.67,-5127.345,-32037.345,-47592.855,-9014.49,12996.945
1764433802.3999393,36137.745,23293.98,65155.185,-5127.389999999999,-32036.13,-47591.37,-9018.135,12996.9
1764433802.3999393,36136.305,23289.255,65149.335,-5131.44,-32038.695,-47593.305,-9030.555,12991.41
1764433802.3999393,36145.53,23294.565,65152.755,-5125.139999999999,-32032.8,-47585.115,-9035.55,12993.795
1764433802.3999393,36150.345,23295.42,65152.485,-5122.889999999999,-32029.47,-47580.615,-9044.1,12993.03
1764433802.3999393,36148.32,23292.855,65150.415,-5124.87,-32031.405,-47581.92,-9048.33,12988.89
1764433802.3999393,36150.255,23296.905,65155.815,-5120.37,-32028.48,-47579.4,-9040.95,12992.76
1764433802.3999393,36147.465,23297.94,65157.705,-5119.74,-32028.975,-47581.02,-9033.57,12995.145
1764433802.3999393,36141.435,23295.87,65157.03,-5123.655,-32033.52,-47587.05,-9026.145,12994.56
1764433802.4009964,36132.705,23291.055,65153.655,-5129.955,-32040.54,-47595.42,-9021.24,12992.355
1764433802.4009964,36135.315,23293.125,65156.76,-5127.57,-32038.155,-47592.63,-9016.47,12996.585
1764433802.4009964,36136.71,23292.27,65154.195,-5128.514999999999,-32038.56,-47592.945,-9020.88,12995.37
1764433802.4009964,36134.55,23286.96,65146.635,-5133.554999999999,-32042.115,-47596.77,-9034.2,12988.62
1764433802.4009964,36142.965,23290.47,65148.795,-5129.595,-32036.175,-47589.93,-9039.915,12990.105
1764433802.4009964,36146.88,23291.415,65149.2,-5127.165,-32033.07,-47584.89,-9047.97,12989.475
1764433802.4009964,36146.295,23290.425,65148.93,-5128.2,-32033.835,-47584.935,-9051.57,12986.28
1764433802.4009964,36145.53,23291.235,65151.045,-5127.389999999999,-32033.97,-47584.485,-9045.9,12987.36
1764433802.4009964,36145.71,23295.33,65156.535,-5123.655,-32031.045,-47582.775,-9033.885,12992.85
1764433802.4009964,36140.445,23294.565,65157.21,-5125.139999999999,-32033.835,-47586.645,-9024.705,12994.335
1764433802.4009964,36134.505,23292.63,65155.995,-5129.46,-32038.425,-47592.495,-9018.54,12994.695
1764433802.4009964,36130.005,23288.805,65152.08,-5134.905,-32043.375,-47598.075,-9019.845,12991.77
1764433802.4009964,36136.17,23294.16,65155.95,-5130.27,-32038.065,-47592.225,-9019.17,12996.36
1764433802.4009964,36140.94,23294.52,65155.41,-5128.875,-32035.77,-47589.12,-9025.155,12995.91
1764433802.445552,36147.69,23296.14,65155.995,-5125.724999999999,-32031.405,-47583.945,-9033.39,12995.73
1764433802.445552,36150.885,23295.96,65154.195,-5124.15,-32029.11,-47579.895,-9042.84,12993.705
1764433802.445552,36150.75,23295.285,65154.195,-5123.565,-32028.975,-47579.355,-9044.595,12992.22
1764433802.445552,36144.99,23291.91,65152.305,-5126.715,-32032.665,-47583.18,-9043.38,12988.485
1764433802.445552,36145.17,23294.88,65156.175,-5124.465,-32031.63,-47582.865,-9033.57,12993.255
1764433802.445552,36137.745,23292.63,65154.645,-5128.514999999999,-32036.805,-47589.705,-9026.595,12992.355
1764433802.4465656,36133.29,23292.135,65155.59,-5130.54,-32039.055,-47593.755,-9018.045,12993.615
1764433802.4465656,36134.73,23294.34,65157.12,-5129.46,-32037.48,-47593.215,-9014.4,12997.035
1764433802.4494128,36141.12,23299.11,65161.035,-5125.139999999999,-32032.62,-47587.68,-9013.77,13001.4
1764433802.4494128,36141.03,23294.88,65155.545,-5128.47,-32035.41,-47589.885,-9025.29,12995.865
1764433802.4494128,36148.545,23297.445,65157.03,-5124.06,-32029.92,-47583.27,-9031.005,12996.9
1764433802.4494128,36150.525,23296.32,65154.51,-5123.565,-32028.795,-47581.47,-9041.715,12993.795
1764433802.4494128,36153.54,23298.705,65157.345,-5120.37,-32025.465,-47577.78,-9040.725,12995.1
1764433802.4494128,36148.995,23295.915,65156.22,-5122.44,-32028.795,-47580.615,-9038.88,12993.03
1764433802.4494128,36148.5,23299.335,65160.225,-5120.099999999999,-32026.905,-47580.39,-9029.565,12996.9
1764433802.4494128,36143.055,23298.345,65161.35,-5122.17,-32029.245,-47584.215,-9020.205,12997.98
1764433802.4494128,36136.35,23295.555,65159.595,-5126.175,-32033.745,-47590.47,-9014.22,12997.665
1764433802.4494128,36134.145,23295.015,65157.93,-5128.514999999999,-32035.77,-47592.72,-9014.13,12997.305
1764433802.4494128,36135.045,23293.89,65155.995,-5129.415,-32036.58,-47592.945,-9019.215,12996.135
1764433802.4494128,36133.92,23288.715,65149.47,-5133.195,-32040.405,-47595.42,-9030.6,12990.15
1764433802.4494128,36139.23,23289.84,65148.93,-5130.855,-32037.39,-47590.38,-9039.555,12989.115
1764433802.4494128,36146.205,23292.81,65151.72,-5125.59,-32031.09,-47582.865,-9044.37,12990.78
1764433802.4494128,36146.43,23292.18,65151.0,-5125.545,-32030.73,-47582.505,-9047.025,12989.52
1764433802.4494128,36148.86,23297.445,65157.21,-5119.92,-32026.59,-47578.59,-9038.07,12994.515
1764433802.492997,36145.305,23297.625,65158.47,-5120.73,-32029.245,-47581.695,-9030.465,12995.01
1764433802.492997,36136.89,23293.71,65155.905,-5126.445,-32035.275,-47588.895,-9024.705,12992.76
1764433802.492997,36134.37,23295.555,65158.38,-5125.724999999999,-32035.86,-47590.335,-9014.13,12997.215
1764433802.492997,36135.18,23296.635,65158.785,-5125.995,-32035.68,-47590.605,-9012.195,12999.375
1764433802.492997,36137.88,23295.825,65157.075,-5126.22,-32035.32,-47590.335,-9016.875,12998.565
1764433802.4935086,36135.27,23290.2,65149.47,-5131.575,-32040.135,-47594.295,-9029.835,12990.645
1764433802.4935086,36140.445,23291.685,65149.065,-5129.82,-32037.03,-47589.57,-9038.925,12989.385
1764433802.4935086,36145.575,23292.135,65148.795,-5128.11,-32033.655,-47584.305,-9046.485,12988.08
1764433802.4935086,36148.275,23294.43,65152.08,-5124.33,-32030.28,-47580.75,-9045.405,12989.655
1764433802.4935086,36148.23,23297.76,65157.03,-5120.054999999999,-32027.535,-47578.995,-9037.98,12993.435
1764433802.4956105,36140.625,23294.16,65154.51,-5123.835,-32033.16,-47585.07,-9034.29,12990.825
1764433802.4956105,36134.595,23292.675,65154.645,-5127.03,-32037.12,-47589.975,-9025.83,12991.23
1764433802.4956105,36129.915,23291.19,65154.06,-5130.179999999999,-32039.685,-47593.89,-9018.765,12992.625
1764433802.4956105,36133.245,23294.295,65157.21,-5127.389999999999,-32037.12,-47591.865,-9013.95,12996.63
1764433802.4956105,36137.07,23294.925,65157.03,-5126.49,-32035.995,-47589.975,-9017.595,12996.63
1764433802.4956105,36140.085,23294.07,65154.6,-5126.985,-32035.59,-47588.265,-9026.055,12994.155
1764433802.4956105,36144.585,23294.475,65153.52,-5125.59,-32032.485,-47584.665,-9035.73,12991.995
1764433802.4956105,36144.855,23290.785,65148.93,-5127.12,-32033.565,-47584.71,-9048.105,12986.01
1764433802.4956105,36147.375,23294.025,65152.08,-5123.385,-32030.415,-47580.795,-9047.205,12987.855
1764433802.4956105,36151.605,23301.27,65160.0,-5117.49,-32025.105,-47575.98,-9036.63,12994.74
1764433802.4956105,36146.655,23299.11,65159.415,-5121.179999999999,-32028.93,-47580.48,-9030.915,12994.875
1764433802.4956105,36142.605,23300.055,65161.845,-5121.72,-32030.145,-47583.045,-9019.845,12998.16
1764433802.4966283,36134.055,23294.61,65157.885,-5128.155,-32037.795,-47591.1,-9016.47,12995.37
1764433802.4966283,36136.35,23297.085,65159.955,-5126.13,-32035.32,-47589.39,-9013.005,12999.06
1764433802.5401342,36140.13,23297.58,65159.1,-5125.275,-32033.7,-47587.59,-9016.56,12999.285
1764433802.5401342,36140.895,23293.665,65154.33,-5128.29,-32035.41,-47589.075,-9027.27,12994.11
1764433802.5401342,36143.235,23292.225,65151.18,-5129.054999999999,-32035.59,-47587.365,-9038.97,12990.195
1764433802.5401342,36151.695,23297.175,65154.645,-5123.115,-32028.975,-47579.445,-9043.11,12991.86
1764433802.5401342,36151.2,23296.185,65154.42,-5122.44,-32029.02,-47578.545,-9045.72,12990.42
1764433802.5401342,36152.1,23300.055,65158.605,-5118.929999999999,-32025.645,-47576.295,-9038.07,12994.245
1764433802.5401342,36147.825,23299.515,65159.415,-5120.37,-32027.58,-47579.175,-9031.77,12995.235
1764433802.5401342,36137.88,23293.62,65155.05,-5127.345,-32035.95,-47588.13,-9027.45,12991.455
1764433802.5401342,36131.76,23291.775,65153.52,-5131.304999999999,-32040.9,-47593.665,-9021.42,12991.275
1764433802.5401342,36131.895,23291.955,65153.34,-5131.889999999999,-32040.27,-47594.79,-9019.935,12992.49
1764433802.5401342,36139.635,23296.635,65157.48,-5126.715,-32033.88,-47588.715,-9018.99,12997.44
1764433802.5401342,36143.28,23296.275,65155.545,-5126.264999999999,-32032.575,-47586.42,-9026.55,12996.63
1764433802.5411346,36147.465,23296.095,65154.42,-5124.915,-32029.875,-47582.73,-9035.955,12994.38
1764433802.5411346,36151.335,23296.86,65154.33,-5122.755,-32027.49,-47579.085,-9044.55,12991.995
1764433802.5411346,36152.145,23297.85,65155.635,-5121.0,-32026.185,-47577.735,-9045.36,12992.535
1764433802.5411346,36147.42,23295.51,65154.24,-5123.88,-32029.2,-47581.29,-9043.065,12989.835
1764433802.5411346,36143.235,23294.07,65155.05,-5125.545,-32031.315,-47584.215,-9036.36,12990.42
1764433802.5411346,36137.205,23293.395,65155.68,-5127.165,-32034.24,-47588.04,-9027.045,12991.455
1764433802.5411346,36136.71,23296.59,65159.595,-5126.04,-32033.835,-47588.535,-9015.525,12996.99
1764433802.5411346,36133.74,23294.655,65156.76,-5129.639999999999,-32037.12,-47591.73,-9016.2,12995.28
1764433802.5411346,36139.41,23298.03,65158.425,-5126.715,-32032.89,-47586.87,-9016.965,12998.385
1764433802.5411346,36141.48,23296.005,65155.14,-5127.929999999999,-32033.16,-47586.195,-9026.505,12994.785
1764433802.58574,36141.66,23291.685,65149.47,-5130.81,-32035.545,-47587.59,-9041.265,12987.81
1764433802.58574,36145.62,23291.955,65149.11,-5128.83,-32032.845,-47583.675,-9049.32,12986.685
1764433802.586761,36148.905,23295.24,65153.115,-5124.06,-32029.11,-47579.49,-9046.53,12989.07
1764433802.586761,36144.72,23293.17,65152.755,-5125.679999999999,-32031.27,-47582.415,-9044.055,12988.575
1764433802.586761,36144.18,23296.635,65156.805,-5123.16,-32029.515,-47581.92,-9033.885,12993.165
1764433802.586761,36134.775,23291.595,65153.925,-5128.83,-32036.58,-47590.245,-9029.34,12989.88
1764433802.586761,36131.715,23291.055,65155.095,-5130.495,-32038.875,-47594.205,-9021.33,12991.455
1764433802.586761,36134.415,23294.07,65157.93,-5128.47,-32036.49,-47591.505,-9016.92,12995.685
1764433802.586761,36137.34,23295.195,65156.76,-5128.38,-32035.365,-47589.12,-9020.34,12996.36
1764433802.586761,36136.8,23290.65,65151.36,-5131.71,-32037.39,-47591.19,-9031.815,12990.87
1764433802.586761,36144.81,23294.025,65153.34,-5126.31,-32031.63,-47583.495,-9038.07,12992.13
1764433802.586761,36150.885,23296.68,65155.185,-5121.764999999999,-32027.13,-47577.33,-9044.01,12992.625
1764433802.586761,36151.695,23297.67,65156.76,-5120.145,-32026.32,-47575.89,-9044.955,12992.805
1764433802.586761,36146.16,23294.745,65154.6,-5122.98,-32029.875,-47579.49,-9043.155,12990.285
1764433802.586761,36142.56,23295.195,65156.31,-5123.565,-32031.18,-47581.695,-9035.37,12991.545
1764433802.586761,36137.88,23294.385,65157.75,-5124.915,-32034.015,-47586.105,-9025.695,12993.705
1764433802.586761,36133.11,23293.215,65157.39,-5128.02,-32037.435,-47590.515,-9018.405,12994.695
1764433802.586761,36134.28,23293.8,65157.705,-5127.48,-32037.165,-47590.56,-9016.29,12996.36
1764433802.586761,36141.615,23299.2,65162.16,-5121.99,-32030.775,-47584.17,-9015.21,13001.22
1764433802.586761,36143.37,23297.67,65158.785,-5123.025,-32031.045,-47583.72,-9023.985,12997.53
1764433802.586761,36147.735,23297.715,65156.4,-5122.035,-32028.885,-47580.48,-9034.38,12995.01
1764433802.586761,36153.81,23300.64,65158.605,-5118.165,-32023.53,-47574.45,-9039.69,12996.135
1764433802.6331992,36154.215,23301.405,65159.46,-5117.355,-32022.405,-47573.505,-9039.825,12996.9
1764433802.6331992,36148.59,23298.345,65156.76,-5120.46,-32027.04,-47578.275,-9038.52,12993.66
1764433802.6331992,36147.285,23300.415,65161.17,-5118.929999999999,-32025.915,-47577.645,-9027.945,12998.205
1764433802.6331992,36140.58,23297.76,65160.18,-5122.304999999999,-32029.56,-47583.27,-9020.655,12998.16
1764433802.6331992,36133.245,23293.935,65156.895,-5127.389999999999,-32034.87,-47590.155,-9016.02,12996.81
1764433802.6331992,36136.26,23298.93,65161.26,-5124.554999999999,-32031.54,-47586.87,-9011.385,13001.805
1764433802.6331992,36138.96,23299.155,65160.945,-5123.745,-32030.055,-47584.935,-9015.93,13000.995
1764433802.6331992,36137.925,23294.115,65154.555,-5127.885,-32033.25,-47587.77,-9028.44,12994.38
1764433802.6331992,36143.235,23294.88,65153.655,-5126.085,-32029.92,-47582.865,-9038.115,12993.21
1764433802.6331992,36151.605,23299.515,65157.435,-5119.65,-32023.035,-47574.63,-9041.535,12996.135
1764433802.6331992,36152.955,23300.55,65159.37,-5117.67,-32021.37,-47572.92,-9041.085,12995.955
1764433802.6331992,36146.61,23296.635,65156.445,-5121.72,-32026.365,-47577.465,-9039.915,12992.31
1764433802.6331992,36142.56,23296.635,65156.85,-5122.53,-32027.85,-47579.85,-9032.49,12993.345
1764433802.6331992,36139.545,23298.66,65160.045,-5122.26,-32029.2,-47581.74,-9021.465,12997.17
1764433802.6331992,36131.85,23294.34,65156.85,-5128.155,-32035.725,-47589.48,-9017.505,12995.955
1764433802.6331992,36134.91,23296.68,65158.875,-5125.815,-32033.52,-47587.635,-9013.365,12999.645
1764433802.6331992,36138.87,23298.345,65159.055,-5123.97,-32031.27,-47584.71,-9015.525,13001.04
1764433802.6331992,36137.52,23293.35,65152.665,-5128.83,-32034.915,-47587.59,-9028.17,12994.47
1764433802.6331992,36144.495,23295.6,65154.105,-5124.599999999999,-32029.65,-47581.29,-9035.46,12995.145
1764433802.6331992,36148.815,23296.5,65154.51,-5121.855,-32026.23,-47577.33,-9042.525,12994.47
1764433802.6331992,36146.88,23295.33,65153.07,-5123.115,-32027.31,-47578.77,-9045.18,12992.04
1764433802.6331992,36148.545,23299.335,65158.29,-5119.605,-32024.565,-47576.52,-9036.225,12995.415
1764433802.6331992,36145.98,23299.56,65160.405,-5119.38,-32026.005,-47578.545,-9028.44,12997.08
1764433802.6331992,36137.385,23295.78,65157.885,-5123.79,-32031.765,-47585.34,-9021.42,12995.91
1764433802.6780896,36135.135,23297.58,65160.135,-5123.655,-32031.855,-47587.5,-9012.375,12999.06
1764433802.6780896,36134.55,23296.77,65159.37,-5125.724999999999,-32033.34,-47589.39,-9013.095,12999.015
1764433802.6780896,36136.98,23296.635,65158.02,-5125.77,-32032.53,-47587.41,-9018.405,12998.52
1764433802.6780896,36135.81,23291.865,65152.17,-5128.695,-32035.365,-47588.67,-9029.745,12992.985
1764433802.6780896,36144.315,23295.06,65153.745,-5124.51,-32029.56,-47582.685,-9036.135,12994.29
1764433802.6780896,36146.25,23293.8,65151.495,-5124.554999999999,-32027.94,-47580.84,-9045.495,12990.735
1764433802.6780896,36150.57,23297.985,65156.445,-5119.56,-32022.945,-47575.53,-9042.03,12994.155
1764433802.6780896,36145.26,23294.52,65154.645,-5123.025,-32026.725,-47580.345,-9040.23,12991.32
1764433802.6780896,36141.435,23294.115,65156.31,-5123.655,-32028.165,-47582.865,-9032.805,12992.625
1764433802.6780896,36138.06,23295.24,65158.965,-5123.79,-32029.695,-47584.665,-9021.105,12995.55
1764433802.6780896,36131.265,23292.0,65155.815,-5129.82,-32034.87,-47591.055,-9016.92,12994.56
1764433802.6780896,36135.495,23296.455,65158.92,-5125.679999999999,-32031.0,-47587.32,-9012.285,13000.005
1764433802.6780896,36139.77,23298.12,65159.46,-5124.105,-32028.21,-47583.945,-9015.03,13001.31
1764433802.6786118,36137.97,23293.35,65153.205,-5128.74,-32031.945,-47586.555,-9027.81,12995.235
1764433802.6786118,36146.025,23296.5,65155.68,-5123.565,-32026.545,-47579.49,-9034.56,12996.045
1764433802.6786118,36146.52,23292.99,65152.08,-5124.87,-32026.5,-47579.4,-9044.91,12991.455
1764433802.6786118,36146.295,23293.08,65152.845,-5123.115,-32026.635,-47578.5,-9045.315,12990.645
1764433802.6786118,36143.955,23293.98,65154.24,-5123.429999999999,-32026.905,-47579.265,-9040.725,12991.185
1764433802.6786118,36139.455,23293.845,65154.87,-5124.915,-32029.065,-47582.415,-9033.975,12992.31
1764433802.6786118,36135.585,23293.89,65156.58,-5125.86,-32031.36,-47585.88,-9023.895,12994.785
1764433802.6786118,36135.225,23297.805,65160.495,-5124.554999999999,-32030.415,-47585.61,-9012.87,12999.87
1764433802.6786118,36132.345,23294.61,65156.895,-5128.965,-32033.97,-47589.75,-9015.39,12996.99
1764433802.725676,36138.555,23297.355,65159.01,-5125.77,-32030.37,-47585.565,-9017.055,12999.96
1764433802.725676,36141.48,23297.13,65157.345,-5125.679999999999,-32029.155,-47583.135,-9025.47,12998.43
1764433802.725676,36147.24,23297.625,65157.21,-5122.62,-32025.465,-47578.185,-9034.515,12997.935
1764433802.7266784,36151.335,23297.895,65157.03,-5120.054999999999,-32021.91,-47574.135,-9041.4,12996.045
1764433802.7266784,36148.32,23295.825,65155.005,-5122.755,-32023.755,-47576.205,-9044.055,12992.67
1764433802.7266784,36144.765,23294.97,65155.365,-5123.61,-32025.42,-47578.095,-9039.645,12992.67
1764433802.7266784,36145.62,23298.57,65160.225,-5120.145,-32023.8,-47577.33,-9028.26,12997.62
1764433802.7266784,36139.59,23297.175,65160.405,-5123.07,-32027.175,-47582.28,-9019.395,12998.97
1764433802.7276697,36134.28,23294.835,65159.595,-5126.58,-32030.91,-47586.285,-9013.23,12999.285
1764433802.7276697,36134.28,23294.52,65159.235,-5127.3,-32031.495,-47587.455,-9013.095,12999.105
1764433802.7276697,36135.72,23292.9,65156.22,-5128.29,-32032.035,-47587.905,-9019.71,12996.81
1764433802.7284496,36135.405,23288.535,65150.01,-5131.935,-32035.455,-47589.93,-9031.77,12991.05
1764433802.7284496,36144.945,23293.665,65153.475,-5125.59,-32028.165,-47580.165,-9036.99,12993.795
1764433802.7284496,36148.725,23295.24,65154.24,-5122.395,-32024.43,-47575.71,-9042.975,12992.49
1764433802.7284496,36146.52,23293.26,65152.98,-5123.745,-32025.42,-47577.06,-9045.9,12990.285
1764433802.7284496,36147.015,23297.265,65157.615,-5119.514999999999,-32021.19,-47573.55,-9037.845,12994.56
1764433802.7284496,36142.11,23295.915,65157.03,-5121.09,-32024.475,-47577.6,-9031.005,12994.74
1764433802.7284496,36139.005,23297.715,65160.405,-5120.55,-32026.14,-47579.985,-9019.08,12998.97
1764433802.7284496,36134.685,23296.365,65159.595,-5123.97,-32029.515,-47584.485,-9013.005,13000.365
1764433802.729669,36133.56,23295.195,65157.525,-5126.04,-32030.595,-47587.005,-9014.04,13000.41
1764433802.729669,36136.26,23294.61,65156.085,-5126.22,-32029.245,-47585.52,-9018.855,12998.43
1764433802.729669,36139.095,23293.98,65154.825,-5126.355,-32028.165,-47582.865,-9027.18,12996.855
1764433802.729669,36143.055,23293.485,65152.71,-5125.365,-32026.23,-47579.13,-9037.755,12994.2
1764433802.729669,36143.64,23290.56,65149.605,-5126.49,-32027.265,-47579.13,-9048.69,12989.295
1764433802.772308,36147.915,23295.42,65154.78,-5121.179999999999,-32022.54,-47574.36,-9044.685,12992.76
1764433802.772308,36142.965,23293.71,65154.06,-5122.98,-32025.285,-47576.97,-9041.04,12991.14
1764433802.772308,36141.93,23296.455,65158.11,-5120.73,-32024.88,-47576.79,-9030.69,12995.775
1764433802.772308,36135.81,23294.655,65157.885,-5123.52,-32028.75,-47581.74,-9022.545,12996.135
1764433802.772308,36127.71,23288.445,65152.305,-5131.575,-32036.85,-47590.92,-9021.555,12992.715
1764433802.772308,36128.34,23288.13,65152.035,-5132.115,-32037.165,-47591.415,-9021.465,12993.435
1764433802.772308,36136.125,23293.35,65155.68,-5126.804999999999,-32030.73,-47585.115,-9020.7,12997.89
1764433802.772308,36135.945,23289.435,65151.135,-5129.595,-32033.07,-47586.24,-9032.13,12992.76
1764433802.772308,36145.44,23294.61,65154.51,-5123.16,-32026.185,-47577.69,-9037.305,12995.28
1764433802.7733235,36151.65,23297.985,65156.895,-5118.435,-32021.055,-47571.21,-9041.76,12996.765
1764433802.7733235,36150.885,23297.445,65157.48,-5116.995,-32021.055,-47570.625,-9041.355,12995.91
1764433802.7733235,36145.665,23295.96,65157.39,-5119.245,-32023.845,-47574.27,-9038.205,12993.705
1764433802.7733235,36144.405,23299.065,65160.945,-5117.445,-32023.17,-47575.08,-9027.63,12997.89
1764433802.7733235,36135.045,23294.34,65157.885,-5122.845,-32029.965,-47583.63,-9021.465,12995.91
1764433802.7733235,36133.56,23295.33,65159.775,-5123.655,-32030.64,-47585.97,-9013.365,12999.42
1764433802.7733235,36132.75,23294.07,65158.065,-5126.13,-32032.44,-47587.32,-9014.535,12998.925
1764433802.7733235,36134.415,23292.99,65154.87,-5127.165,-32032.98,-47586.6,-9020.43,12997.215
1764433802.7733235,36132.48,23287.41,65148.435,-5131.62,-32036.31,-47589.39,-9034.155,12990.195
1764433802.7733235,36137.025,23287.005,65147.22,-5129.505,-32033.295,-47586.015,-9044.505,12988.215
1764433802.7733235,36140.535,23288.22,65148.12,-5126.94,-32029.785,-47581.47,-9050.58,12987.45
1764433802.7733235,36142.74,23291.235,65150.865,-5123.79,-32026.815,-47578.05,-9048.285,12988.755
1764433802.7733235,36144.135,23295.105,65156.265,-5119.74,-32024.025,-47575.44,-9039.195,12992.985
1764433802.8198738,36136.62,23291.325,65153.97,-5124.285,-32029.695,-47581.785,-9035.325,12991.14
1764433802.8198738,36131.085,23290.29,65154.33,-5126.94,-32032.845,-47586.33,-9026.505,12992.31
1764433802.8198738,36132.075,23294.295,65158.425,-5124.78,-32031.45,-47585.655,-9015.705,12998.43
1764433802.8198738,36132.885,23294.88,65157.75,-5125.41,-32030.955,-47585.565,-9015.48,12999.105
1764433802.8198738,36133.245,23292.63,65154.645,-5126.94,-32031.45,-47585.835,-9022.365,12996.585
1764433802.8198738,36131.895,23287.23,65147.895,-5131.62,-32034.69,-47588.13,-9035.1,12990.87
1764433802.8198738,36140.04,23290.245,65149.47,-5127.12,-32029.56,-47580.93,-9042.03,12991.5
1764433802.8198738,36148.005,23295.51,65154.555,-5120.325,-32022.315,-47572.29,-9044.82,12994.47
1764433802.8198738,36148.86,23297.31,65156.67,-5118.165,-32020.29,-47569.905,-9043.83,12995.505
1764433802.8198738,36145.845,23297.22,65157.84,-5117.895,-32020.155,-47571.345,-9037.935,12996.72
1764433802.8198738,36137.205,23292.36,65154.285,-5123.52,-32027.265,-47579.355,-9034.245,12992.805
1764433802.8198738,36132.705,23292.72,65155.365,-5124.915,-32029.605,-47582.865,-9024.03,12994.47
1764433802.8198738,36124.83,23287.95,65151.18,-5131.395,-32035.815,-47590.29,-9021.78,12991.995
1764433802.8198738,36127.62,23290.875,65153.295,-5129.639999999999,-32033.97,-47588.895,-9019.8,12995.64
1764433802.8198738,36130.725,23291.145,65152.215,-5128.29,-32031.99,-47586.915,-9025.29,12995.505
1764433802.8198738,36131.31,23287.995,65147.76,-5131.349999999999,-32033.745,-47587.545,-9036.09,12990.96
1764433802.8198738,36134.46,23286.69,65145.375,-5130.855,-32033.115,-47585.07,-9047.07,12987.72
1764433802.830585,36142.74,23292.18,65149.605,-5124.24,-32025.51,-47577.285,-9049.185,12991.32
1764433802.830585,36144.495,23294.79,65152.8,-5120.82,-32023.485,-47574.27,-9046.62,12992.985
1764433802.830585,36140.85,23293.62,65153.025,-5121.495,-32025.15,-47576.205,-9041.985,12992.4
1764433802.830585,36133.695,23290.47,65151.99,-5124.735,-32029.29,-47582.37,-9037.26,12991.23
1764433802.830585,36130.365,23291.91,65154.645,-5125.23,-32030.19,-47584.17,-9025.065,12994.155
1764433802.830585,36125.595,23289.975,65152.8,-5129.865,-32035.545,-47590.38,-9019.98,12993.84
1764433802.8315864,36121.185,23285.385,65148.525,-5134.005,-32039.64,-47594.52,-9024.075,12991.32
1764433802.8662813,36128.52,23289.21,65151.405,-5129.415,-32034.6,-47588.085,-9025.56,12995.19
1764433802.8662813,36132.48,23289.03,65149.695,-5129.054999999999,-32033.205,-47585.835,-9034.02,12993.435
1764433802.8662813,36138.555,23290.65,65149.92,-5126.264999999999,-32029.02,-47581.02,-9042.48,12992.13
1764433802.8672798,36141.21,23290.875,65149.695,-5125.139999999999,-32027.49,-47578.365,-9049.095,12989.655
1764433802.8672798,36144.225,23294.52,65153.61,-5121.36,-32023.35,-47574.18,-9045.405,12992.67
1764433802.8672798,36137.52,23290.56,65151.36,-5124.69,-32027.445,-47578.86,-9044.19,12990.06
1764433802.8672798,36135.675,23292.135,65154.87,-5123.79,-32028.165,-47580.21,-9034.2,12993.57
1764433802.8672798,36129.78,23291.28,65155.455,-5126.355,-32030.46,-47584.26,-9024.705,12994.92
1764433802.8672798,36124.875,23289.435,65153.745,-5130.495,-32034.87,-47589.885,-9019.305,12994.47
1764433802.8672798,36125.325,23289.795,65153.385,-5130.99,-32034.915,-47589.93,-9019.305,12995.595
1764433802.8672798,36128.25,23289.93,65151.63,-5131.17,-32034.285,-47588.58,-9024.885,12995.235
1764433802.8672798,36127.845,23285.52,65145.33,-5135.715,-32036.625,-47590.065,-9036.99,12989.61
1764433802.8672798,36134.685,23287.41,65146.32,-5132.88,-32031.63,-47584.485,-9044.73,12988.98
1764433802.8672798,36142.335,23292.36,65150.91,-5126.849999999999,-32024.97,-47576.43,-9047.295,12991.095
1764433802.8672798,36141.93,23292.0,65151.36,-5125.86,-32025.015,-47575.845,-9047.61,12989.655
1764433802.8672798,36134.82,23288.13,65148.12,-5129.775,-32029.515,-47581.11,-9046.035,12986.28
1764433802.8672798,36132.39,23289.705,65151.18,-5129.595,-32029.965,-47582.55,-9036.495,12988.845
1764433802.8672798,36129.825,23292.135,65155.86,-5128.695,-32030.37,-47584.17,-9023.895,12994.02
1764433802.8672798,36122.67,23289.075,65152.935,-5133.645,-32035.77,-47590.92,-9020.295,12993.12
1764433802.8672798,36127.26,23291.73,65155.23,-5130.9,-32032.62,-47587.77,-9016.605,12996.81
1764433802.8672798,36131.67,23292.63,65155.185,-5129.145,-32030.505,-47585.475,-9020.52,12996.945
1764433802.8672798,36134.415,23292.27,65152.935,-5129.595,-32029.92,-47583.54,-9030.78,12994.785
1764433802.8672798,36136.53,23289.885,65149.02,-5130.27,-32029.2,-47581.425,-9043.515,12990.465
1764433802.8672798,36140.76,23291.82,65151.315,-5126.22,-32025.195,-47575.755,-9047.97,12990.465
1764433802.9111736,36142.56,23294.52,65155.005,-5122.665,-32022.72,-47573.73,-9044.505,12992.04
1764433802.9117084,36140.535,23295.375,65156.985,-5121.405,-32022.675,-47574.495,-9038.52,12993.93
1764433802.9117084,36141.075,23298.84,65162.655,-5118.165,-32020.38,-47572.56,-9026.55,12999.645
1764433802.9117084,36133.38,23295.285,65160.18,-5122.53,-32025.375,-47579.31,-9019.845,12999.105
1764433802.9117084,36124.02,23289.435,65154.06,-5130.405,-32034.195,-47588.22,-9019.035,12994.47
1764433802.9117084,36125.235,23289.525,65154.06,-5130.99,-32033.52,-47587.725,-9018.945,12995.28
1764433802.9117084,36133.425,23294.43,65157.84,-5125.815,-32027.355,-47581.65,-9020.115,12999.42
1764433802.9117084,36136.395,23293.26,65154.51,-5125.995,-32026.77,-47580.165,-9028.62,12996.54
1764433802.9117084,36140.715,23293.62,65152.98,-5124.51,-32024.025,-47576.025,-9039.6,12994.65
1764433802.9117084,36145.26,23294.745,65153.835,-5121.675,-32021.28,-47571.57,-9044.82,12993.795
1764433802.9117084,36144.315,23294.295,65154.735,-5121.045,-32021.145,-47571.12,-9044.145,12993.03
1764433802.9117084,36136.53,23290.56,65152.17,-5124.915,-32025.24,-47576.52,-9042.21,12989.295
1764433802.9117084,36134.955,23293.26,65156.58,-5123.295,-32025.105,-47577.42,-9032.355,12992.535
1764433802.9117084,36125.955,23288.445,65153.385,-5129.595,-32032.485,-47585.385,-9026.37,12990.645
1764433802.9117084,36121.5,23286.51,65152.485,-5133.06,-32035.77,-47589.525,-9021.285,12991.545
1764433802.9117084,36122.985,23287.32,65152.53,-5132.655,-32035.32,-47589.255,-9020.115,12992.4
1764433802.9117084,36128.835,23289.75,65153.475,-5130.045,-32032.125,-47585.025,-9023.58,12994.245
1764433802.9117084,36131.31,23287.68,65150.415,-5131.44,-32031.945,-47583.855,-9033.615,12991.725
1764433802.9117084,36133.38,23284.98,65147.355,-5131.845,-32031.63,-47582.145,-9045.315,12987.99
1764433802.9117084,36138.555,23287.635,65149.605,-5127.255,-32027.625,-47576.61,-9049.545,12987.9
1764433802.9117084,36143.01,23293.125,65156.31,-5121.45,-32021.73,-47570.49,-9043.92,12992.715
1764433802.9117084,36139.545,23292.36,65156.94,-5122.17,-32023.71,-47573.505,-9038.88,12992.625
1764433802.9117084,36131.445,23288.13,65153.16,-5126.715,-32029.965,-47580.795,-9035.685,12989.565
1764433802.9117084,36123.795,23285.88,65151.99,-5130.315,-32034.69,-47587.14,-9028.215,12989.43
1764433802.9558744,36119.745,23284.845,65151.63,-5133.195,-32038.11,-47591.64,-9022.41,12990.195
1764433802.9558744,36125.415,23289.795,65155.545,-5129.28,-32033.655,-47586.735,-9019.17,12994.965
1764433802.9558744,36127.26,23288.895,65153.295,-5129.415,-32033.88,-47586.465,-9025.155,12993.84
1764433802.9558744,36126.18,23283.72,65146.905,-5133.465,-32037.165,-47589.255,-9038.34,12987.495
1764433802.9558744,36133.65,23286.78,65148.21,-5129.639999999999,-32031.54,-47582.415,-9046.125,12988.035
1764433802.9558744,36132.795,23284.395,65144.745,-5130.315,-32032.215,-47582.28,-9055.305,12983.58
1764433802.9558744,36133.695,23286.06,65146.815,-5128.695,-32030.055,-47580.84,-9053.505,12983.715
1764433802.9558744,36133.02,23288.895,65150.505,-5126.264999999999,-32027.715,-47579.04,-9045.405,12987.27
1764433802.9558744,36126.09,23285.475,65148.84,-5130.54,-32033.16,-47585.79,-9040.005,12985.695
1764433802.9558744,36122.715,23287.185,65151.585,-5129.505,-32033.52,-47586.825,-9028.665,12990.24
1764433802.9558744,36116.19,23281.875,65147.355,-5135.04,-32040.045,-47593.935,-9026.46,12986.91
1764433802.9558744,36119.025,23283.945,65149.335,-5133.24,-32037.795,-47593.17,-9024.75,12990.015
1764433802.9558744,36122.13,23284.62,65148.075,-5132.34,-32035.545,-47590.065,-9030.105,12989.79
1764433802.9558744,36121.41,23279.94,65141.91,-5136.66,-32039.055,-47591.28,-9042.165,12984.48
1764433802.9558744,36132.93,23286.33,65146.77,-5129.415,-32031.855,-47582.505,-9046.17,12988.44
1764433802.9558744,36137.16,23287.995,65148.39,-5126.445,-32027.985,-47578.455,-9051.03,12988.35
1764433802.9558744,36136.665,23288.4,65149.47,-5124.69,-32027.49,-47577.51,-9049.995,12988.08
1764433802.9558744,36135.405,23290.56,65151.81,-5123.52,-32027.22,-47577.465,-9043.47,12989.97
1764433802.9558744,36132.48,23291.235,65153.97,-5123.474999999999,-32028.84,-47579.49,-9034.605,12992.355
1764433802.9558744,36124.74,23288.76,65152.395,-5127.345,-32033.295,-47585.295,-9025.785,12991.815
1764433802.9573913,36116.055,23282.73,65146.905,-5134.815,-32041.575,-47593.17,-9024.795,12987.81
1764433802.9573913,36117.72,23283.27,65147.58,-5134.5,-32040.765,-47592.54,-9024.615,12989.475
1764433803.0011904,36124.56,23286.33,65150.145,-5131.17,-32035.815,-47588.04,-9026.595,12992.175
1764433803.0011904,36124.065,23281.83,65143.755,-5135.04,-32037.975,-47590.155,-9040.005,12986.28
1764433803.0011904,36131.355,23284.575,65145.375,-5130.45,-32032.665,-47583.0,-9047.52,12987.405
1764433803.0011904,36137.655,23288.22,65148.39,-5125.005,-32026.905,-47576.205,-9050.13,12989.61
1764433803.0011904,36135.0,23286.96,65147.67,-5125.635,-32027.895,-47577.33,-9050.805,12987.765
1764433803.0011904,36135.045,23290.02,65152.17,-5122.215,-32025.15,-47575.305,-9041.715,12991.59
1764433803.0011904,36128.07,23287.95,65151.045,-5125.995,-32029.785,-47581.29,-9035.865,12990.51
1764433803.0011904,36125.01,23289.435,65154.375,-5126.22,-32030.64,-47583.225,-9023.58,12994.335
1764433803.0011904,36120.735,23286.915,65152.935,-5130.27,-32035.005,-47588.13,-9019.53,12993.795
1764433803.0011904,36118.305,23284.17,65148.705,-5133.825,-32038.155,-47591.73,-9023.985,12990.825
1764433803.0011904,36126.045,23289.075,65152.08,-5129.28,-32033.07,-47585.7,-9025.56,12995.145
1764433803.0011904,36126.81,23286.015,65147.445,-5131.17,-32033.925,-47585.475,-9036.405,12990.465
1764433803.0011904,36131.445,23286.195,65146.77,-5129.46,-32031.945,-47581.965,-9045.765,12988.35
1764433803.0011904,36135.135,23287.59,65147.85,-5126.13,-32028.525,-47577.645,-9050.4,12988.35
1764433803.0011904,36138.915,23292.45,65153.25,-5121.54,-32024.205,-47572.29,-9044.775,12992.67
1764433803.0011904,36133.47,23290.56,65152.89,-5123.295,-32027.13,-47576.16,-9039.87,12991.32
1764433803.0011904,36129.105,23289.525,65152.98,-5124.599999999999,-32029.47,-47580.075,-9032.04,12992.22
1764433803.0011904,36123.885,23288.625,65153.61,-5126.58,-32032.395,-47584.395,-9023.265,12993.66
1764433803.0011904,36119.16,23286.87,65151.63,-5129.82,-32036.13,-47589.255,-9019.485,12994.11
1764433803.0011904,36120.78,23287.995,65151.315,-5130.045,-32035.545,-47589.03,-9019.395,12995.145
1764433803.0011904,36125.235,23289.435,65152.125,-5128.514999999999,-32033.25,-47585.79,-9023.895,12994.875
1764433803.0011904,36124.56,23284.305,65145.87,-5132.205,-32035.905,-47587.32,-9036.72,12988.845
1764433803.0461135,36130.185,23285.07,65145.105,-5129.865,-32032.89,-47583.09,-9046.35,12987.18
1764433803.0461135,36134.235,23287.635,65146.5,-5126.58,-32029.38,-47578.32,-9050.895,12987.405
1764433803.0461135,36136.125,23290.83,65150.505,-5122.889999999999,-32026.14,-47575.08,-9046.395,12990.285
1764433803.0461135,36129.015,23287.365,65147.985,-5126.715,-32030.37,-47580.66,-9043.785,12987.135
1764433803.0461135,36125.145,23286.825,65148.435,-5128.514999999999,-32032.755,-47583.54,-9036.63,12988.26
1764433803.0461135,36120.96,23287.095,65150.415,-5129.46,-32035.32,-47586.24,-9026.55,12991.005
1764433803.0461135,36120.51,23289.255,65153.43,-5129.235,-32033.835,-47586.69,-9017.82,12995.505
1764433803.0461135,36117.27,23285.61,65149.155,-5134.139999999999,-32037.705,-47590.74,-9023.04,12992.355
1764433803.0461135,36123.525,23288.535,65151.495,-5130.945,-32033.52,-47585.565,-9025.155,12994.785
1764433803.0461135,36123.57,23284.755,65145.78,-5133.465,-32035.095,-47586.465,-9037.17,12989.475
1764433803.0461135,36128.925,23285.295,65144.79,-5131.215,-32032.08,-47582.01,-9046.62,12988.035
1764433803.0461135,36133.29,23287.275,65146.68,-5127.885,-32028.39,-47577.42,-9050.805,12987.99
1764433803.0461135,36134.955,23289.705,65149.785,-5125.365,-32026.77,-47575.53,-9048.105,12989.43
1764433803.0461135,36135.72,23293.44,65155.095,-5122.395,-32024.835,-47573.685,-9038.115,12994.56
1764433803.0461135,36129.42,23291.64,65154.42,-5124.78,-32028.39,-47578.77,-9031.545,12994.425
1764433803.0471137,36121.095,23288.22,65152.665,-5128.83,-32033.43,-47585.295,-9024.975,12993.525
1764433803.0471137,36113.94,23282.73,65147.445,-5135.535,-32041.305,-47592.81,-9024.165,12989.88
1764433803.0471137,36115.155,23283.18,65147.085,-5135.715,-32040.405,-47591.64,-9025.47,12990.195
1764433803.0471137,36121.5,23286.96,65148.48,-5132.16,-32036.4,-47587.23,-9027.99,12992.355
1764433803.0471137,36122.85,23284.17,65144.205,-5133.645,-32036.4,-47586.735,-9038.745,12987.72
1764433803.0471137,36129.33,23285.745,65144.835,-5130.9,-32031.9,-47581.47,-9047.16,12987.27
1764433803.0471137,36136.215,23291.37,65149.83,-5124.599999999999,-32025.06,-47573.82,-9048.285,12990.51
1764433803.0968697,36136.71,23292.045,65151.72,-5122.62,-32024.475,-47572.92,-9046.395,12991.23
1764433803.0968697,36132.48,23290.515,65151.585,-5123.79,-32027.445,-47576.025,-9041.49,12990.24
1764433803.0968697,36126.405,23289.345,65151.63,-5125.86,-32031.045,-47580.345,-9034.065,12990.42
1764433803.097381,36120.33,23287.815,65151.81,-5127.84,-32033.655,-47584.935,-9025.02,12992.13
1764433803.097381,36116.595,23285.79,65151.0,-5131.845,-32037.165,-47589.39,-9020.745,12992.31
1764433803.097381,36117.36,23285.835,65149.605,-5132.52,-32037.255,-47589.705,-9022.59,12991.77
1764433803.097381,36121.41,23285.88,65148.255,-5131.575,-32035.68,-47587.23,-9028.62,12991.68
1764433803.0983908,36125.73,23286.78,65147.22,-5130.72,-32033.205,-47583.99,-9035.82,12990.735
1764433803.0983908,36131.85,23287.635,65147.535,-5127.66,-32029.155,-47579.58,-9044.19,12990.15
1764433803.0983908,36132.975,23285.835,65145.96,-5127.075,-32028.03,-47578.095,-9050.76,12986.91
1764433803.0983908,36136.26,23289.795,65150.505,-5121.855,-32024.205,-47574.27,-9045.27,12990.555
1764433803.0983908,36132.255,23289.795,65152.305,-5122.215,-32025.6,-47575.98,-9039.51,12991.365
1764433803.0983908,36123.075,23285.07,65149.245,-5127.705,-32031.63,-47583.045,-9036.18,12987.585
1764433803.0983908,36116.82,23283.765,65148.255,-5130.585,-32035.095,-47587.95,-9027.36,12989.295
1764433803.0983908,36114.435,23283.0,65148.57,-5133.33,-32037.345,-47591.595,-9022.14,12990.51
1764433803.099901,36117.36,23285.07,65150.1,-5131.575,-32035.815,-47589.525,-9021.645,12992.805
1764433803.099901,36125.46,23289.84,65153.52,-5126.445,-32029.83,-47583.225,-9023.31,12996.45
1764433803.099901,36126.27,23286.42,65149.02,-5128.83,-32030.865,-47583.63,-9034.92,12992.355
1764433803.099901,36133.83,23289.66,65150.325,-5124.96,-32024.97,-47577.285,-9042.075,12992.805
1764433803.1009123,36133.47,23287.32,65147.58,-5125.455,-32025.555,-47576.79,-9049.23,12988.485
1764433803.1009123,36131.715,23286.105,65147.4,-5125.32,-32026.455,-47577.42,-9047.97,12987.315
1764433803.1009123,36128.295,23286.15,65148.435,-5125.635,-32028.3,-47579.58,-9042.795,12987.765
1764433803.1009123,36124.83,23286.51,65150.055,-5126.355,-32029.92,-47582.325,-9034.245,12989.025
1764433803.1019106,36118.935,23285.745,65150.775,-5128.965,-32032.8,-47587.455,-9025.335,12990.87
1764433803.1019106,36116.955,23285.835,65151.36,-5130.179999999999,-32034.555,-47589.975,-9019.44,12992.22
1764433803.1019106,36121.545,23288.94,65154.15,-5126.58,-32030.91,-47586.465,-9018.135,12995.775
1764433803.1422749,36126.27,23289.48,65154.78,-5124.825,-32028.345,-47582.865,-9023.04,12996.81
1764433803.1422749,36127.71,23287.05,65151.45,-5126.58,-32029.335,-47582.055,-9033.84,12993.525
1764433803.1422749,36136.125,23291.055,65153.295,-5121.179999999999,-32023.08,-47573.82,-9040.59,12995.19
1764433803.1422749,36135.585,23288.805,65150.01,-5122.53,-32023.26,-47573.775,-9048.195,12990.285
1764433803.1422749,36136.305,23290.65,65152.395,-5120.82,-32022.09,-47572.74,-9045.27,12991.32
1764433803.1422749,36130.815,23288.895,65151.18,-5122.889999999999,-32025.42,-47576.925,-9040.365,12989.655
1764433803.1422749,36128.97,23291.055,65155.545,-5121.585,-32025.015,-47577.465,-9029.565,12994.47
1764433803.1422749,36120.555,23286.375,65152.98,-5127.3,-32031.63,-47584.845,-9023.715,12993.3
1764433803.1422749,36120.195,23288.625,65154.375,-5126.94,-32031.9,-47585.295,-9016.965,12996.18
1764433803.1422749,36121.545,23290.155,65154.195,-5127.03,-32031.405,-47584.305,-9017.505,12996.9
1764433803.1422749,36126.045,23291.73,65154.465,-5125.32,-32028.345,-47580.84,-9021.51,12997.845
1764433803.1422749,36127.215,23288.04,65150.37,-5127.12,-32029.425,-47580.57,-9032.85,12993.3
1764433803.1422749,36129.06,23285.655,65146.815,-5128.065,-32029.065,-47579.085,-9044.865,12988.53
1764433803.1432724,36136.53,23290.74,65151.63,-5121.495,-32022.27,-47571.975,-9045.495,12991.77
1764433803.1432724,36136.17,23292.315,65154.195,-5119.47,-32021.145,-47570.265,-9043.065,12993.345
1764433803.1432724,36130.86,23289.885,65152.575,-5121.81,-32025.15,-47574.585,-9038.295,12992.355
1764433803.1432724,36123.21,23285.88,65149.965,-5126.22,-32031.81,-47581.695,-9033.75,12989.835
1764433803.1432724,36116.55,23283.405,65149.38,-5130.495,-32036.715,-47588.355,-9026.325,12989.61
1764433803.1432724,36114.435,23284.08,65150.325,-5132.61,-32037.705,-47590.515,-9020.61,12991.77
1764433803.1432724,36119.88,23287.815,65153.52,-5127.929999999999,-32032.89,-47585.655,-9017.865,12996.855
1764433803.1432724,36125.055,23289.885,65153.88,-5126.13,-32030.415,-47582.28,-9022.59,12997.485
1764433803.1432724,36124.56,23285.565,65148.21,-5129.505,-32032.62,-47583.315,-9035.775,12991.545
1764433803.1877503,36129.78,23286.06,65147.985,-5126.04,-32029.38,-47578.725,-9045.225,12990.195
1764433803.1877503,36131.49,23286.285,65148.435,-5124.599999999999,-32027.04,-47575.845,-9050.175,12988.935
1764433803.1877503,36132.39,23287.95,65150.19,-5123.61,-32025.555,-47574.09,-9046.575,12989.88
1764433803.1877503,36130.635,23289.21,65152.62,-5122.755,-32025.375,-47575.485,-9039.24,12992.175
1764433803.1877503,36128.97,23291.685,65156.535,-5121.224999999999,-32024.655,-47576.745,-9028.575,12996.135
1764433803.1877503,36118.17,23286.06,65152.215,-5128.02,-32032.62,-47586.105,-9023.94,12992.715
1764433803.1877503,36114.885,23284.305,65150.55,-5130.9,-32035.545,-47589.975,-9020.16,12992.805
1764433803.1877503,36117.855,23285.43,65151.18,-5129.775,-32034.555,-47587.5,-9020.52,12994.38
1764433803.1877503,36125.595,23290.155,65154.645,-5125.095,-32028.255,-47579.895,-9022.635,12998.205
1764433803.1877503,36127.62,23288.4,65151.36,-5126.58,-32028.165,-47579.175,-9033.12,12994.245
1764433803.1877503,36129.87,23285.655,65147.31,-5127.615,-32028.435,-47577.96,-9045.225,12988.98
1764433803.1877503,36134.46,23288.355,65150.19,-5123.385,-32024.34,-47572.515,-9047.7,12990.6
1764433803.1877503,36139.23,23294.385,65156.31,-5116.41,-32018.4,-47567.115,-9039.555,12996.225
1764433803.1877503,36134.415,23292.585,65156.13,-5118.03,-32020.605,-47571.165,-9035.055,12995.415
1764433803.1877503,36125.145,23287.77,65152.35,-5123.52,-32027.805,-47578.725,-9031.14,12992.13
1764433803.1877503,36120.105,23287.77,65153.07,-5125.905,-32031.45,-47583.405,-9021.51,12994.29
1764433803.1877503,36121.23,23290.695,65156.805,-5124.33,-32029.74,-47582.685,-9013.32,12999.105
1764433803.1877503,36122.13,23290.875,65156.04,-5124.285,-32030.055,-47582.055,-9014.985,12999.375
1764433803.1877503,36125.1,23290.38,65154.06,-5125.05,-32029.47,-47580.345,-9021.465,12997.755
1764433803.1877503,36124.38,23285.88,65148.435,-5128.695,-32031.54,-47581.83,-9034.515,12991.635
1764433803.1877503,36130.365,23287.545,65148.21,-5126.175,-32027.58,-47577.105,-9043.83,12991.05
1764433803.1877503,36133.83,23289.885,65149.47,-5122.349999999999,-32023.665,-47572.83,-9047.52,12991.41
1764433803.2320895,36138.24,23295.78,65156.13,-5115.915,-32017.635,-47567.07,-9039.375,12996.63
1764433803.2320895,36136.845,23297.58,65159.01,-5115.375,-32017.14,-47566.98,-9031.185,12998.88
1764433803.2320895,36132.48,23297.49,65160.135,-5116.815,-32019.66,-47570.715,-9023.04,12999.825
1764433803.2320895,36124.785,23293.89,65158.65,-5120.505,-32025.69,-47578.32,-9016.47,12998.43
1764433803.2320895,36118.17,23288.76,65154.015,-5126.355,-32031.765,-47585.025,-9015.57,12995.055
1764433803.2320895,36122.49,23292.27,65155.86,-5124.195,-32028.345,-47581.65,-9014.445,12998.88
1764433803.2320895,36126.855,23293.35,65154.915,-5123.429999999999,-32026.23,-47578.59,-9020.97,12999.105
1764433803.2320895,36128.835,23290.92,65151.63,-5124.87,-32026.77,-47577.465,-9031.95,12994.83
1764433803.2320895,36132.03,23289.48,65149.56,-5123.429999999999,-32024.475,-47574.585,-9042.84,12991.545
1764433803.2320895,36139.185,23294.88,65153.025,-5117.67,-32017.77,-47567.88,-9043.065,12994.92
1764433803.2320895,36136.845,23293.71,65152.08,-5119.335,-32019.615,-47569.995,-9042.705,12992.715
1764433803.2320895,36135.27,23294.925,65155.23,-5117.94,-32019.615,-47570.31,-9034.605,12995.235
1764433803.2320895,36126.36,23290.65,65152.485,-5123.205,-32025.78,-47577.285,-9029.88,12992.85
1764433803.233111,36121.905,23290.38,65153.835,-5125.679999999999,-32028.12,-47581.2,-9020.43,12994.965
1764433803.233111,36121.32,23292.855,65155.5,-5124.825,-32027.58,-47581.605,-9014.13,12999.285
1764433803.233111,36119.07,23288.805,65150.685,-5128.605,-32030.955,-47584.89,-9020.34,12996.045
1764433803.233111,36125.955,23292.045,65153.385,-5125.32,-32026.635,-47579.625,-9023.67,12998.07
1764433803.233111,36128.385,23289.48,65149.875,-5125.77,-32027.265,-47578.995,-9033.885,12993.885
1764433803.233111,36136.71,23292.945,65152.395,-5120.82,-32020.335,-47571.075,-9039.825,12995.37
1764433803.233111,36135.27,23290.515,65149.74,-5122.17,-32020.785,-47571.03,-9047.115,12991.23
1764433803.233111,36138.33,23294.97,65155.32,-5117.49,-32017.05,-47566.98,-9040.905,12996.27
1764433803.233111,36135.405,23295.825,65157.075,-5117.355,-32017.86,-47568.555,-9034.155,12997.35
1764433803.233111,36130.005,23294.385,65157.21,-5118.795,-32021.145,-47573.01,-9026.73,12997.485
1764433803.233111,36122.22,23290.74,65155.14,-5123.52,-32026.905,-47580.525,-9019.08,12996.405
1764433803.2778685,36114.39,23284.98,65149.83,-5130.81,-32034.285,-47588.4,-9020.34,12992.175
1764433803.2778685,36116.955,23286.555,65150.46,-5130.27,-32032.665,-47586.915,-9021.555,12994.56
1764433803.2783773,36126.315,23292.27,65154.33,-5124.375,-32026.185,-47579.355,-9022.59,12999.555
1764433803.2783773,36128.16,23289.885,65151.315,-5126.49,-32026.815,-47578.455,-9032.715,12994.785
1764433803.2783773,36129.015,23286.645,65147.085,-5128.02,-32027.175,-47577.6,-9045.81,12989.07
1764433803.2783773,36132.975,23289.705,65149.155,-5124.15,-32022.855,-47572.515,-9048.195,12990.33
1764433803.2783773,36137.43,23295.285,65155.59,-5117.445,-32017.59,-47567.34,-9039.915,12995.595
1764433803.2793782,36134.37,23294.655,65157.435,-5117.4,-32018.94,-47569.05,-9033.48,12996.765
1764433803.2793782,36125.91,23290.11,65154.195,-5123.025,-32025.33,-47576.79,-9029.205,12994.335
1764433803.2793782,36120.105,23289.03,65153.925,-5125.455,-32028.885,-47581.38,-9020.835,12995.91
1764433803.2793782,36118.665,23289.48,65154.87,-5126.22,-32029.875,-47583.225,-9015.66,12997.62
1764433803.2793782,36123.66,23292.36,65156.94,-5123.52,-32026.41,-47579.625,-9014.94,13000.95
1764433803.2803795,36127.53,23292.81,65157.48,-5122.44,-32024.475,-47575.665,-9019.98,13000.905
1764433803.2803795,36128.79,23291.325,65154.195,-5123.34,-32023.98,-47574.405,-9031.005,12997.35
1764433803.2803795,36130.725,23288.355,65149.965,-5124.645,-32024.205,-47573.955,-9044.28,12991.86
1764433803.2813797,36137.565,23293.395,65155.185,-5118.795,-32019.12,-47567.43,-9044.235,12994.38
