Timestamp,Channel1,Channel2,Channel3,Channel4,Channel5,Channel6,Channel7,Channel8
1764434892.983953,-338.49,-8820.404999999999,-37350.63,-24720.165,-20579.76,-21239.19,-11792.7,-6277.365
1764434892.983953,-333.0,-8818.605,-37348.29,-24729.21,-20590.785,-21261.69,-11791.35,-6265.935
1764434892.983953,-337.77,-8817.57,-37339.02,-24726.645,-20590.875,-21276.18,-11780.415,-6258.51
1764434892.9849489,-344.385,-8825.355,-37340.955,-24736.545,-20597.04,-21296.88,-11770.02,-6249.42
1764434892.9849489,-348.435,-8827.02,-37336.86,-24734.115,-20592.27,-21303.18,-11761.965,-6243.974999999999
1764434892.9849489,-356.4,-8833.77,-37339.695,-24731.19,-20586.78,-21295.485,-11764.44,-6251.58
1764434892.9849489,-348.12,-8825.67,-37339.2,-24736.23,-20599.695,-21296.7,-11774.07,-6258.915
1764434892.9849489,-327.915,-8809.83,-37344.24,-24742.71,-20605.32,-21291.48,-11784.555,-6256.844999999999
1764434892.9849489,-329.94,-8812.17,-37357.785,-24743.295,-20591.955,-21258.945,-11792.79,-6271.965
1764434892.9849489,-350.955,-8828.505,-37359.72,-24720.075,-20569.59,-21230.55,-11798.775,-6286.32
1764434892.9849489,-320.49,-8796.33,-37318.95,-24695.325,-20576.52,-21243.96,-11795.04,-6267.69
1764434892.9849489,-324.27,-8802.63,-37333.665,-24718.185,-20585.385,-21255.57,-11783.205,-6261.75
1764434892.9849489,-349.83,-8829.675,-37348.47,-24729.255,-20585.385,-21270.555,-11775.24,-6261.255
1764434892.9849489,-361.17,-8834.715,-37337.985,-24725.52,-20586.15,-21290.265,-11775.105,-6260.715
1764434892.9849489,-351.54,-8827.11,-37334.43,-24742.305,-20609.46,-21321.18,-11772.045,-6249.69
1764434892.9849489,-344.565,-8824.994999999999,-37343.52,-24753.105,-20614.005,-21318.93,-11768.22,-6246.045
1764434892.9849489,-345.735,-8822.565,-37342.305,-24743.34,-20600.37,-21292.92,-11773.845,-6256.395
1764434892.9849489,-341.01,-8821.35,-37346.13,-24738.345,-20604.465,-21288.015,-11783.88,-6263.28
1764434892.9849489,-326.43,-8806.32,-37337.22,-24721.245,-20595.105,-21269.025,-11792.385,-6266.969999999999
1764434892.9849489,-323.775,-8804.34,-37341.18,-24715.62,-20583.54,-21244.32,-11794.23,-6270.615
1764434892.9849489,-323.325,-8804.789999999999,-37339.47,-24713.82,-20583.315,-21246.165,-11791.44,-6268.23
1764434892.9849489,-331.02,-8811.765,-37341.405,-24723.495,-20591.82,-21262.455,-11788.245,-6265.844999999999
1764434892.9849489,-336.915,-8816.895,-37340.865,-24728.355,-20592.0,-21274.83,-11777.58,-6257.52
1764434892.9849489,-344.745,-8825.625,-37342.98,-24737.265,-20597.445,-21296.61,-11768.895,-6250.32
1764434893.029384,-348.57,-8825.895,-37336.14,-24735.42,-20594.34,-21303.63,-11761.425,-6244.695
1764434893.029384,-350.055,-8822.52,-37331.46,-24734.25,-20598.615,-21306.87,-11764.89,-6250.32
1764434893.029384,-344.79,-8820.81,-37337.67,-24736.095,-20599.83,-21296.025,-11772.09,-6254.37
1764434893.029384,-337.815,-8814.195,-37336.68,-24727.77,-20590.29,-21272.94,-11779.2,-6260.31
1764434893.029384,-330.84,-8810.82,-37342.845,-24721.92,-20583.225,-21249.81,-11787.12,-6266.655
1764434893.029384,-327.51,-8811.045,-37349.865,-24720.345,-20579.445,-21236.535,-11792.475,-6271.38
1764434893.029384,-329.085,-8810.19,-37345.14,-24716.115,-20575.35,-21236.4,-11791.395,-6271.605
1764434893.029384,-337.095,-8813.925,-37337.895,-24715.665,-20577.51,-21250.485,-11790.405,-6272.054999999999
1764434893.029384,-342.855,-8814.555,-37332.855,-24723.63,-20586.285,-21272.085,-11783.34,-6268.139999999999
1764434893.029384,-361.26,-8838.18,-37349.28,-24742.665,-20598.525,-21295.98,-11771.685,-6258.69
1764434893.029384,-353.115,-8831.88,-37342.44,-24744.24,-20604.735,-21312.315,-11766.51,-6246.9
1764434893.029384,-356.175,-8821.44,-37326.015,-24727.815,-20592.045,-21301.605,-11771.28,-6258.51
1764434893.029384,-346.365,-8820.27,-37339.11,-24738.21,-20600.37,-21296.97,-11778.075,-6257.88
1764434893.029384,-332.055,-8816.13,-37350.045,-24743.88,-20603.655,-21286.26,-11781.135,-6254.505
1764434893.029384,-329.49,-8812.71,-37353.195,-24729.435,-20581.695,-21249.855,-11790.405,-6267.465
1764434893.029384,-322.875,-8807.355,-37349.37,-24714.495,-20569.995,-21234.24,-11796.975,-6272.55
1764434893.029384,-335.565,-8814.6,-37344.645,-24717.915,-20577.105,-21238.29,-11795.355,-6279.57
1764434893.029384,-321.21,-8793.404999999999,-37322.37,-24717.78,-20587.59,-21261.555,-11792.61,-6267.554999999999
1764434893.029384,-368.505,-8843.985,-37357.65,-24738.75,-20592.855,-21274.29,-11781.72,-6274.08
1764434893.029384,-346.14,-8828.369999999999,-37347.3,-24748.74,-20608.605,-21307.365,-11773.26,-6247.665
1764434893.029384,-345.33,-8817.93,-37332.945,-24740.055,-20598.57,-21306.33,-11762.505,-6244.92
1764434893.029384,-357.615,-8836.154999999999,-37355.22,-24755.94,-20609.64,-21312.72,-11770.74,-6252.885
1764434893.0329485,-353.025,-8829.404999999999,-37344.105,-24740.595,-20601.495,-21298.005,-11777.4,-6258.645
1764434893.0329485,-339.075,-8813.52,-37337.22,-24735.42,-20603.34,-21289.68,-11786.895,-6262.56
1764434893.075765,-334.44,-8812.305,-37345.41,-24731.055,-20595.825,-21265.785,-11796.795,-6271.92
1764434893.075765,-325.935,-8804.115,-37339.02,-24718.14,-20583.99,-21246.57,-11798.37,-6272.28
1764434893.075765,-324.09,-8803.664999999999,-37336.77,-24716.34,-20581.47,-21244.905,-11793.15,-6268.32
1764434893.0767848,-331.695,-8810.595,-37338.57,-24722.595,-20585.34,-21258.54,-11788.335,-6265.98
1764434893.0767848,-338.085,-8815.994999999999,-37338.795,-24729.255,-20587.68,-21273.435,-11779.2,-6259.679999999999
1764434893.0767848,-347.22,-8823.42,-37339.605,-24738.48,-20592.675,-21292.425,-11768.895,-6253.155
1764434893.0767848,-355.725,-8830.845,-37344.15,-24746.625,-20598.345,-21305.205,-11765.295,-6252.255
1764434893.0767848,-357.57,-8831.07,-37345.14,-24747.03,-20602.215,-21305.835,-11770.92,-6258.195
1764434893.0767848,-355.185,-8830.08,-37349.685,-24745.32,-20598.75,-21291.03,-11777.625,-6264.27
1764434893.0767848,-340.965,-8813.52,-37337.355,-24730.02,-20594.52,-21279.33,-11784.87,-6267.014999999999
1764434893.0767848,-333.945,-8811.404999999999,-37339.38,-24719.22,-20583.945,-21254.715,-11789.37,-6269.49
1764434893.0767848,-328.455,-8809.47,-37342.89,-24720.795,-20587.41,-21248.64,-11797.515,-6272.865
1764434893.0767848,-321.03,-8800.695,-37333.845,-24715.035,-20581.695,-21246.12,-11791.08,-6265.44
1764434893.0767848,-330.03,-8809.065,-37336.455,-24720.795,-20585.88,-21259.98,-11784.015,-6261.929999999999
1764434893.0767848,-333.63,-8811.315,-37332.855,-24723.945,-20586.78,-21273.705,-11772.765,-6252.615
1764434893.0767848,-342.36,-8818.38,-37332.54,-24732.855,-20591.775,-21294.225,-11762.415,-6245.145
1764434893.0767848,-349.83,-8824.68,-37334.925,-24739.875,-20597.265,-21307.995,-11758.365,-6243.929999999999
1764434893.0767848,-347.49,-8822.925,-37334.88,-24738.57,-20595.78,-21302.955,-11759.67,-6245.01
1764434893.0788236,-338.85,-8816.039999999999,-37333.575,-24731.28,-20589.75,-21285.54,-11764.62,-6247.844999999999
1764434893.0788236,-332.955,-8810.055,-37333.53,-24725.385,-20585.475,-21268.575,-11773.44,-6254.865
1764434893.0788236,-329.265,-8804.835,-37335.555,-24719.895,-20580.435,-21248.595,-11785.59,-6267.465
1764434893.0788236,-321.84,-8801.955,-37339.02,-24720.165,-20576.61,-21232.755,-11786.715,-6265.17
1764434893.0788236,-315.09,-8800.289999999999,-37343.07,-24724.755,-20570.895,-21226.95,-11780.055,-6258.42
1764434893.0788236,-337.5,-8816.58,-37345.725,-24719.445,-20563.47,-21235.005,-11775.15,-6266.115
1764434893.1216362,-332.01,-8814.779999999999,-37338.84,-24723.765,-20580.66,-21274.02,-11773.08,-6252.48
1764434893.1216362,-343.215,-8818.515,-37332.675,-24734.115,-20593.035,-21296.52,-11761.29,-6246.719999999999
1764434893.1216362,-365.355,-8836.785,-37335.33,-24731.64,-20588.085,-21300.615,-11756.565,-6246.945
1764434893.1216362,-337.86,-8811.585,-37320.57,-24728.355,-20591.235,-21300.84,-11759.22,-6239.205
1764434893.1216362,-343.35,-8819.279999999999,-37334.295,-24735.555,-20593.17,-21286.62,-11764.8,-6250.139999999999
1764434893.1216362,-335.115,-8817.48,-37342.215,-24735.915,-20594.61,-21276.27,-11771.055,-6250.455
1764434893.1216362,-315.405,-8793.18,-37322.73,-24710.715,-20579.355,-21253.77,-11782.125,-6253.92
1764434893.1216362,-314.595,-8790.795,-37321.47,-24705.135,-20573.865,-21239.415,-11787.03,-6260.219999999999
1764434893.1216362,-315.405,-8792.955,-37323.72,-24707.655,-20571.75,-21237.84,-11781.99,-6255.99
1764434893.1216362,-321.48,-8798.985,-37325.925,-24713.82,-20575.665,-21252.06,-11776.545,-6252.615
1764434893.1216362,-329.355,-8806.904999999999,-37328.58,-24723.405,-20581.875,-21269.655,-11768.85,-6248.79
1764434893.1216362,-350.415,-8825.265,-37336.59,-24737.58,-20590.29,-21291.12,-11759.985,-6246.63
1764434893.1216362,-345.915,-8821.98,-37334.34,-24740.82,-20590.02,-21298.815,-11753.19,-6236.55
1764434893.1216362,-348.57,-8822.115,-37331.865,-24734.025,-20584.755,-21292.515,-11759.085,-6244.605
1764434893.1216362,-336.33,-8810.055,-37326.465,-24727.905,-20585.16,-21284.19,-11765.7,-6245.145
1764434893.1216362,-332.685,-8807.039999999999,-37330.47,-24725.835,-20580.705,-21266.64,-11773.485,-6254.235
1764434893.1216362,-330.57,-8806.77,-37337.985,-24724.935,-20579.895,-21249.225,-11787.03,-6267.915
1764434893.1216362,-316.845,-8800.605,-37338.345,-24720.48,-20579.58,-21241.665,-11787.21,-6261.525
1764434893.1216362,-315.765,-8795.97,-37327.545,-24710.265,-20572.38,-21241.08,-11782.08,-6257.25
1764434893.1216362,-324.09,-8803.529999999999,-37328.58,-24716.115,-20575.035,-21254.67,-11776.95,-6254.955
1764434893.1216362,-331.155,-8810.73,-37329.03,-24721.38,-20576.205,-21265.965,-11766.015,-6247.8
1764434893.1216362,-339.795,-8818.244999999999,-37328.94,-24732.09,-20587.77,-21292.155,-11760.48,-6242.625
1764434893.1692562,-337.725,-8810.55,-37319.76,-24730.425,-20584.98,-21298.185,-11757.42,-6240.465
1764434893.1692562,-339.165,-8813.744999999999,-37329.075,-24734.655,-20579.355,-21286.44,-11755.08,-6243.705
1764434893.1692562,-359.325,-8834.039999999999,-37353.105,-24741.0,-20573.955,-21267.405,-11758.095,-6257.61
1764434893.1692562,-354.105,-8840.744999999999,-37359.765,-24739.245,-20583.0,-21265.245,-11773.845,-6258.69
1764434893.1692562,-309.375,-8790.255,-37318.23,-24712.74,-20588.49,-21261.105,-11787.12,-6250.23
1764434893.1692562,-305.415,-8783.279999999999,-37314.765,-24702.93,-20572.515,-21236.58,-11785.32,-6255.855
1764434893.1692562,-316.755,-8799.255,-37330.065,-24715.26,-20576.565,-21242.745,-11781.855,-6258.554999999999
1764434893.1692562,-324.405,-8804.744999999999,-37328.895,-24720.705,-20583.63,-21262.5,-11779.605,-6256.62
1764434893.1692562,-330.84,-8808.255,-37324.485,-24722.82,-20583.27,-21274.47,-11770.065,-6250.635
1764434893.1692562,-348.21,-8828.73,-37338.345,-24736.455,-20586.105,-21287.565,-11759.31,-6245.955
1764434893.1692562,-348.705,-8827.02,-37334.43,-24740.955,-20592.225,-21304.215,-11757.78,-6242.264999999999
1764434893.1692562,-341.145,-8820.72,-37333.08,-24741.405,-20593.845,-21303.855,-11761.245,-6241.995
1764434893.1708808,-339.165,-8818.289999999999,-37335.645,-24736.275,-20587.77,-21286.98,-11768.4,-6249.96
1764434893.1708808,-331.92,-8811.494999999999,-37335.51,-24728.535,-20580.705,-21266.595,-11775.6,-6255.855
1764434893.1708808,-322.47,-8802.945,-37333.665,-24717.51,-20571.255,-21241.665,-11783.295,-6261.929999999999
1764434893.1708808,-321.39,-8802.539999999999,-37336.14,-24714.405,-20568.465,-21230.865,-11788.29,-6267.375
1764434893.1708808,-319.77,-8799.975,-37329.255,-24708.69,-20562.75,-21230.82,-11780.505,-6259.59
1764434893.1708808,-327.015,-8805.779999999999,-37326.42,-24709.905,-20563.605,-21244.5,-11775.69,-6256.349999999999
1764434893.1708808,-328.32,-8811.225,-37331.685,-24725.925,-20578.14,-21267.225,-11764.62,-6244.875
1764434893.1708808,-337.005,-8819.64,-37334.385,-24739.38,-20589.21,-21292.38,-11756.97,-6239.34
1764434893.1708808,-346.05,-8826.074999999999,-37334.79,-24740.37,-20590.425,-21304.17,-11756.97,-6240.78
1764434893.1708808,-339.3,-8812.755,-37322.325,-24726.645,-20579.355,-21292.74,-11755.485,-6242.355
1764434893.1708808,-332.595,-8805.96,-37324.665,-24726.915,-20579.4,-21282.165,-11762.865,-6247.53
1764434893.1708808,-337.365,-8820.36,-37345.77,-24734.97,-20581.65,-21268.395,-11771.415,-6256.215
1764434893.1708808,-329.265,-8816.13,-37351.35,-24731.64,-20575.845,-21244.86,-11782.665,-6263.099999999999
1764434893.1708808,-317.565,-8798.895,-37337.58,-24718.05,-20568.69,-21232.755,-11787.57,-6266.34
1764434893.2190444,-322.56,-8802.18,-37329.345,-24703.29,-20560.635,-21232.215,-11781.045,-6263.82
1764434893.2190444,-325.935,-8805.914999999999,-37323.27,-24709.14,-20576.61,-21260.745,-11777.49,-6254.685
1764434893.2190444,-322.965,-8802.315,-37323.18,-24725.97,-20586.78,-21280.23,-11769.525,-6244.245
1764434893.2190444,-335.385,-8815.994999999999,-37333.17,-24742.44,-20592.405,-21297.33,-11758.68,-6238.935
1764434893.2190444,-333.45,-8815.005,-37332.135,-24740.37,-20588.355,-21304.665,-11752.83,-6229.889999999999
1764434893.2190444,-317.97,-8798.94,-37322.73,-24729.39,-20577.375,-21289.095,-11749.5,-6234.3
1764434893.2190444,-346.995,-8823.015,-37334.565,-24722.55,-20573.19,-21274.425,-11756.43,-6252.974999999999
1764434893.2190444,-341.73,-8810.685,-37322.91,-24718.905,-20585.79,-21275.55,-11773.53,-6257.25
1764434893.2190444,-317.88,-8794.529999999999,-37323.81,-24712.56,-20578.545,-21255.705,-11784.285,-6257.655
1764434893.2190444,-318.285,-8798.58,-37329.21,-24708.735,-20566.485,-21233.835,-11784.24,-6259.679999999999
1764434893.2190444,-310.05,-8793.449999999999,-37328.985,-24714.27,-20570.895,-21240.765,-11779.155,-6253.92
1764434893.2190444,-321.03,-8802.765,-37330.515,-24719.67,-20576.52,-21258.135,-11772.09,-6251.175
1764434893.2190444,-328.905,-8809.605,-37330.47,-24727.365,-20582.46,-21275.91,-11765.475,-6246.675
1764434893.2190444,-340.47,-8820.09,-37335.555,-24739.29,-20587.545,-21293.865,-11758.14,-6244.65
1764434893.2190444,-347.895,-8826.795,-37335.915,-24739.245,-20587.725,-21302.19,-11755.62,-6241.32
1764434893.2190444,-340.065,-8820.09,-37337.67,-24739.65,-20587.725,-21298.14,-11756.61,-6237.764999999999
1764434893.2190444,-334.08,-8813.744999999999,-37337.49,-24732.18,-20579.31,-21279.465,-11762.73,-6245.28
1764434893.2190444,-326.07,-8801.64,-37325.07,-24722.145,-20576.43,-21264.93,-11774.07,-6256.349999999999
1764434893.2190444,-316.935,-8789.715,-37315.26,-24703.29,-20563.74,-21236.94,-11778.57,-6263.01
1764434893.2205656,-338.715,-8808.795,-37330.65,-24704.325,-20558.52,-21223.53,-11784.555,-6275.295
1764434893.2205656,-308.88,-8786.07,-37326.15,-24714.585,-20566.485,-21237.075,-11782.53,-6256.17
1764434893.2205656,-320.49,-8798.94,-37338.57,-24725.565,-20564.325,-21244.005,-11772.855,-6254.91
1764434893.2209797,-342.585,-8824.23,-37345.275,-24726.645,-20563.065,-21252.6,-11758.23,-6248.205
1764434893.2209797,-335.88,-8820.225,-37329.39,-24728.4,-20582.415,-21289.905,-11750.355,-6232.05
1764434893.2674804,-339.705,-8810.145,-37314.36,-24728.76,-20589.12,-21303.99,-11749.86,-6238.62
1764434893.2674804,-335.565,-8814.735,-37328.67,-24739.47,-20594.52,-21304.215,-11749.95,-6231.825
1764434893.2674804,-324.315,-8805.824999999999,-37329.12,-24736.365,-20593.035,-21293.55,-11760.705,-6236.73
1764434893.2674804,-325.305,-8806.095,-37335.15,-24733.215,-20588.175,-21273.75,-11772.54,-6251.4
1764434893.2674804,-319.095,-8799.975,-37334.79,-24721.65,-20576.52,-21247.83,-11780.955,-6258.87
1764434893.2674804,-314.505,-8795.115,-37329.795,-24710.715,-20567.97,-21236.58,-11784.375,-6260.94
1764434893.2674804,-317.34,-8797.41,-37329.66,-24713.46,-20568.555,-21241.17,-11781.765,-6258.06
1764434893.2674804,-327.015,-8806.815,-37334.07,-24723.63,-20576.52,-21258.315,-11777.805,-6256.08
1764434893.2674804,-332.235,-8811.539999999999,-37332.045,-24729.48,-20580.75,-21275.19,-11768.625,-6249.599999999999
1764434893.2674804,-340.515,-8818.38,-37331.55,-24735.78,-20583.54,-21292.2,-11757.87,-6242.58
1764434893.2674804,-343.575,-8817.885,-37328.22,-24737.13,-20584.845,-21300.705,-11753.505,-6239.79
1764434893.2674804,-342.495,-8812.17,-37321.92,-24730.2,-20578.5,-21290.445,-11758.275,-6246.405
1764434893.2674804,-338.265,-8817.885,-37336.77,-24733.17,-20576.115,-21275.505,-11763.63,-6249.915
1764434893.2674804,-335.205,-8815.095,-37342.395,-24730.02,-20576.43,-21263.58,-11776.005,-6265.665
1764434893.2674804,-327.33,-8806.32,-37336.815,-24724.53,-20580.3,-21254.175,-11782.215,-6264.855
1764434893.2674804,-320.985,-8807.22,-37344.15,-24727.455,-20580.795,-21247.965,-11792.295,-6265.304999999999
1764434893.2674804,-320.535,-8804.475,-37335.87,-24718.545,-20569.41,-21240.99,-11784.6,-6262.469999999999
1764434893.2674804,-326.97,-8809.47,-37333.53,-24722.505,-20572.92,-21255.165,-11775.6,-6258.105
1764434893.2674804,-323.325,-8804.07,-37327.455,-24729.885,-20580.57,-21276.18,-11765.88,-6246.224999999999
1764434893.2674804,-345.33,-8825.355,-37339.785,-24743.97,-20585.16,-21293.325,-11756.07,-6246.63
1764434893.2674804,-359.415,-8836.92,-37341.27,-24742.89,-20583.045,-21298.23,-11757.195,-6249.96
1764434893.2674804,-346.68,-8825.76,-37338.66,-24746.535,-20589.345,-21297.015,-11763.09,-6248.295
1764434893.3138192,-330.795,-8808.84,-37328.67,-24732.81,-20584.53,-21287.25,-11769.615,-6248.205
1764434893.3138192,-331.47,-8808.75,-37333.17,-24732.27,-20583.09,-21270.465,-11779.92,-6255.719999999999
1764434893.3138192,-318.825,-8806.14,-37351.665,-24740.685,-20578.455,-21245.4,-11785.32,-6264.27
1764434893.3138192,-324.045,-8808.164999999999,-37346.58,-24722.28,-20568.285,-21236.04,-11791.89,-6270.705
1764434893.3138192,-317.115,-8795.97,-37320.12,-24705.36,-20567.52,-21245.445,-11786.895,-6261.705
1764434893.3138192,-325.53,-8802.27,-37322.145,-24717.645,-20574.99,-21259.62,-11780.595,-6263.235
1764434893.3138192,-349.875,-8827.605,-37340.55,-24736.095,-20584.98,-21281.76,-11772.045,-6262.02
1764434893.3138192,-348.345,-8828.685,-37340.64,-24747.75,-20596.095,-21308.22,-11766.6,-6246.135
1764434893.3138192,-338.13,-8815.5,-37326.825,-24740.415,-20588.895,-21308.535,-11759.58,-6237.945
1764434893.3138192,-345.87,-8817.48,-37328.04,-24735.6,-20580.84,-21295.845,-11765.07,-6251.67
1764434893.3138192,-332.505,-8814.465,-37338.255,-24741.54,-20583.9,-21286.395,-11769.615,-6250.32
1764434893.3138192,-326.115,-8808.525,-37339.29,-24733.035,-20575.71,-21263.355,-11779.2,-6260.355
1764434893.3138192,-336.915,-8808.93,-37337.22,-24722.685,-20569.68,-21242.16,-11787.3,-6276.599999999999
1764434893.3138192,-327.69,-8808.84,-37345.14,-24726.87,-20571.705,-21239.955,-11791.755,-6270.705
1764434893.3138192,-332.685,-8817.21,-37351.935,-24731.505,-20573.28,-21244.68,-11791.665,-6268.365
1764434893.3138192,-330.93,-8819.73,-37352.655,-24744.24,-20588.49,-21271.095,-11783.07,-6255.719999999999
1764434893.3138192,-331.245,-8815.815,-37337.085,-24737.715,-20588.22,-21286.755,-11772.09,-6246.63
1764434893.3138192,-331.965,-8811.99,-37321.11,-24730.92,-20586.285,-21300.975,-11758.185,-6233.94
1764434893.3138192,-340.02,-8818.154999999999,-37327.815,-24741.045,-20587.77,-21305.16,-11754.765,-6237.405
1764434893.3138192,-345.555,-8821.44,-37336.455,-24746.625,-20589.39,-21301.29,-11761.695,-6246.99
1764434893.3138192,-340.65,-8817.119999999999,-37336.59,-24738.66,-20582.64,-21283.965,-11769.93,-6253.425
1764434893.3138192,-330.39,-8808.885,-37336.77,-24732.18,-20580.39,-21268.08,-11778.21,-6256.44
1764434893.3138192,-329.22,-8813.744999999999,-37349.28,-24726.915,-20571.165,-21245.49,-11787.03,-6265.575
1764434893.3138192,-318.015,-8800.965,-37339.11,-24714.945,-20562.93,-21233.88,-11787.93,-6263.099999999999
1764434893.357568,-320.265,-8799.525,-37329.21,-24711.345,-20564.28,-21240.765,-11787.255,-6262.83
1764434893.357568,-324.945,-8793.449999999999,-37312.155,-24711.885,-20568.195,-21254.94,-11780.595,-6261.344999999999
1764434893.357568,-341.955,-8818.199999999999,-37333.89,-24733.08,-20577.24,-21274.155,-11771.595,-6256.62
1764434893.357568,-343.845,-8828.82,-37342.485,-24749.865,-20594.52,-21307.635,-11762.64,-6241.95
1764434893.357568,-344.52,-8824.455,-37334.745,-24744.06,-20589.705,-21309.03,-11758.005,-6239.25
1764434893.357568,-340.965,-8816.715,-37330.29,-24743.655,-20590.2,-21302.595,-11762.055,-6245.01
1764434893.357568,-338.445,-8815.185,-37336.05,-24739.02,-20580.255,-21280.68,-11768.265,-6252.435
1764434893.357568,-331.065,-8814.69,-37345.455,-24740.055,-20583.27,-21267.54,-11775.87,-6255.315
1764434893.357568,-331.11,-8816.67,-37351.845,-24731.1,-20575.125,-21246.12,-11789.595,-6267.375
1764434893.357568,-316.395,-8795.654999999999,-37327.365,-24707.25,-20562.615,-21235.32,-11790.585,-6267.645
1764434893.357568,-326.295,-8805.105,-37333.98,-24718.95,-20569.23,-21244.545,-11781.54,-6265.53
1764434893.357568,-331.425,-8813.61,-37347.39,-24740.325,-20580.39,-21265.56,-11778.21,-6257.52
1764434893.357568,-344.7,-8827.47,-37347.615,-24734.7,-20572.065,-21272.355,-11768.355,-6253.469999999999
1764434893.357568,-341.19,-8818.065,-37325.115,-24734.385,-20589.3,-21304.89,-11758.995,-6240.195
1764434893.357568,-345.69,-8824.05,-37332.495,-24745.365,-20596.14,-21314.295,-11755.845,-6238.665
1764434893.358571,-348.3,-8816.715,-37323.18,-24733.44,-20585.97,-21304.08,-11767.005,-6252.795
1764434893.358571,-339.39,-8810.369999999999,-37327.23,-24733.485,-20581.965,-21284.685,-11771.64,-6257.969999999999
1764434893.358571,-347.175,-8822.34,-37342.215,-24736.5,-20580.12,-21265.92,-11780.595,-6267.645
1764434893.358571,-322.245,-8796.06,-37326.555,-24720.84,-20575.08,-21251.475,-11791.215,-6265.215
1764434893.358571,-320.985,-8807.445,-37345.005,-24731.415,-20577.78,-21244.455,-11789.91,-6265.98
1764434893.3590832,-325.62,-8813.25,-37344.555,-24728.265,-20575.53,-21250.98,-11786.445,-6261.615
1764434893.3590832,-321.615,-8800.605,-37327.23,-24727.365,-20583.36,-21275.64,-11781.54,-6253.965
1764434893.4054835,-334.215,-8814.869999999999,-37335.285,-24738.525,-20586.78,-21289.365,-11771.82,-6251.715
1764434893.4054835,-350.055,-8831.565,-37345.14,-24752.43,-20594.745,-21308.13,-11765.52,-6250.905
1764434893.4054835,-359.595,-8830.755,-37337.445,-24750.27,-20595.195,-21315.105,-11761.695,-6250.815
1764434893.4054835,-340.29,-8818.065,-37335.33,-24749.1,-20594.43,-21310.515,-11763.81,-6241.905
1764434893.4054835,-337.77,-8816.22,-37339.02,-24745.32,-20588.805,-21292.2,-11771.325,-6251.355
1764434893.4054835,-335.25,-8814.33,-37343.745,-24740.46,-20582.955,-21272.22,-11781.09,-6260.94
1764434893.4054835,-326.205,-8806.5,-37340.28,-24728.355,-20576.16,-21251.97,-11789.82,-6267.105
1764434893.4054835,-318.69,-8797.005,-37331.685,-24717.69,-20568.87,-21242.115,-11790.27,-6265.844999999999
1764434893.4054835,-325.845,-8801.73,-37332.945,-24720.075,-20564.19,-21242.835,-11785.59,-6265.125
1764434893.4054835,-334.305,-8813.789999999999,-37347.345,-24741.99,-20579.265,-21264.12,-11781.045,-6261.344999999999
1764434893.4054835,-339.345,-8826.435,-37356.525,-24754.365,-20587.185,-21283.11,-11770.605,-6253.29
1764434893.4054835,-354.42,-8833.32,-37343.565,-24745.5,-20578.905,-21293.775,-11761.335,-6254.505
1764434893.4054835,-360.045,-8831.34,-37331.28,-24741.0,-20584.89,-21308.355,-11759.805,-6251.04
1764434893.4054835,-342.045,-8821.485,-37331.595,-24741.72,-20594.43,-21313.215,-11767.77,-6246.045
1764434893.4054835,-334.53,-8808.255,-37320.345,-24731.145,-20591.64,-21297.69,-11772.945,-6250.59
1764434893.4054835,-327.42,-8801.82,-37323.81,-24725.07,-20579.58,-21272.13,-11784.78,-6262.965
1764434893.4054835,-333.315,-8807.445,-37334.565,-24723.495,-20573.595,-21249.405,-11788.965,-6273.99
1764434893.4054835,-333.27,-8817.84,-37349.415,-24735.6,-20584.845,-21255.48,-11792.925,-6268.139999999999
1764434893.4054835,-331.29,-8814.195,-37341.63,-24729.795,-20578.14,-21256.605,-11790.945,-6265.215
1764434893.4054835,-336.375,-8818.47,-37342.845,-24738.435,-20585.475,-21274.335,-11785.995,-6261.84
1764434893.4054835,-336.87,-8817.255,-37339.47,-24745.68,-20591.73,-21293.235,-11776.545,-6252.84
1764434893.4054835,-346.77,-8828.055,-37340.595,-24747.03,-20588.76,-21304.8,-11764.62,-6244.695
1764434893.4054835,-353.925,-8824.994999999999,-37330.38,-24745.545,-20592.27,-21314.34,-11764.8,-6252.344999999999
1764434893.4054835,-356.985,-8824.59,-37333.575,-24746.625,-20591.82,-21307.995,-11772.855,-6260.94
1764434893.4538963,-349.155,-8826.48,-37346.4,-24750.09,-20591.37,-21295.08,-11779.92,-6262.245
1764434893.4538963,-334.395,-8815.725,-37347.84,-24747.3,-20588.49,-21277.17,-11785.59,-6263.37
1764434893.4538963,-322.47,-8798.805,-37337.49,-24730.335,-20572.065,-21249.045,-11793.825,-6271.965
1764434893.4544811,-338.4,-8825.039999999999,-37360.755,-24728.67,-20561.715,-21231.045,-11791.215,-6277.724999999999
1764434893.4544811,-343.485,-8829.404999999999,-37358.19,-24741.045,-20584.755,-21256.38,-11790.63,-6271.65
1764434893.4544811,-328.86,-8804.34,-37327.95,-24736.5,-20588.94,-21275.91,-11789.46,-6262.02
1764434893.4544811,-338.04,-8801.414999999999,-37310.535,-24719.85,-20570.625,-21272.58,-11771.685,-6260.895
1764434893.4544811,-351.945,-8829.18,-37330.695,-24740.865,-20592.72,-21310.83,-11760.39,-6245.415
1764434893.4544811,-357.165,-8838.18,-37345.095,-24761.655,-20608.92,-21327.885,-11766.24,-6247.17
1764434893.4544811,-343.305,-8819.505,-37335.375,-24752.655,-20600.19,-21314.745,-11768.445,-6247.44
1764434893.4544811,-335.565,-8810.64,-37330.965,-24740.64,-20588.94,-21293.73,-11772.54,-6250.77
1764434893.4544811,-330.39,-8807.355,-37335.105,-24734.655,-20581.965,-21273.075,-11782.305,-6258.33
1764434893.4544811,-325.305,-8805.195,-37339.29,-24729.93,-20576.34,-21251.34,-11791.17,-6268.05
1764434893.4544811,-322.47,-8804.475,-37340.775,-24730.875,-20577.735,-21247.335,-11791.845,-6269.264999999999
1764434893.4544811,-326.97,-8810.685,-37342.125,-24731.73,-20575.53,-21252.015,-11787.3,-6265.71
1764434893.4544811,-332.82,-8812.395,-37331.325,-24728.805,-20576.16,-21267.63,-11783.205,-6262.38
1764434893.4544811,-336.555,-8812.44,-37325.745,-24733.305,-20578.545,-21281.58,-11768.715,-6253.29
1764434893.4544811,-350.145,-8826.255,-37335.15,-24749.64,-20589.525,-21304.71,-11761.74,-6249.24
1764434893.4544811,-347.445,-8824.14,-37334.655,-24755.445,-20594.97,-21313.845,-11760.255,-6243.705
1764434893.4544811,-349.695,-8826.795,-37341.18,-24756.03,-20593.35,-21305.88,-11767.32,-6251.849999999999
1764434893.4544811,-345.78,-8822.25,-37339.29,-24744.915,-20585.97,-21292.02,-11776.185,-6260.4
1764434893.4544811,-334.8,-8811.99,-37336.095,-24735.555,-20579.49,-21272.94,-11783.295,-6264.224999999999
1764434893.4544811,-326.52,-8805.195,-37336.545,-24728.445,-20573.28,-21251.205,-11790.81,-6270.57
1764434893.4544811,-324.765,-8803.395,-37336.545,-24724.575,-20569.32,-21242.745,-11793.285,-6273.315
1764434893.4980097,-325.8,-8808.57,-37340.82,-24728.715,-20567.43,-21244.68,-11785.77,-6265.53
1764434893.4980097,-352.215,-8830.529999999999,-37350.27,-24740.955,-20575.035,-21259.845,-11781.495,-6271.065
1764434893.4980097,-355.05,-8821.664999999999,-37327.005,-24729.075,-20569.365,-21272.175,-11770.515,-6266.205
1764434893.4980097,-346.725,-8825.76,-37334.7,-24746.265,-20590.83,-21311.865,-11763.315,-6244.38
1764434893.4980097,-342.225,-8823.555,-37339.245,-24754.905,-20597.445,-21319.515,-11759.985,-6238.665
1764434893.498521,-342.72,-8818.47,-37333.44,-24745.68,-20585.7,-21299.895,-11763.315,-6246.495
1764434893.498521,-339.795,-8813.07,-37335.015,-24743.52,-20583.135,-21285.72,-11770.875,-6258.465
1764434893.498521,-348.75,-8821.125,-37344.195,-24736.32,-20571.525,-21262.545,-11778.39,-6271.875
1764434893.498521,-331.335,-8808.074999999999,-37342.305,-24727.995,-20567.385,-21247.785,-11792.88,-6273.764999999999
1764434893.498521,-319.23,-8807.58,-37349.19,-24736.86,-20574.315,-21244.14,-11788.065,-6264.405
1764434893.498521,-325.035,-8810.82,-37344.69,-24734.88,-20569.815,-21241.305,-11784.015,-6268.815
1764434893.498521,-336.33,-8810.369999999999,-37329.795,-24724.89,-20564.685,-21253.68,-11780.64,-6274.125
1764434893.498521,-353.97,-8833.904999999999,-37339.605,-24743.34,-20590.245,-21295.53,-11766.105,-6252.48
1764434893.498521,-330.84,-8813.97,-37326.645,-24747.255,-20597.31,-21319.065,-11762.73,-6234.21
1764434893.498521,-332.46,-8813.789999999999,-37325.97,-24744.78,-20587.005,-21310.605,-11756.43,-6233.76
1764434893.498521,-335.79,-8815.095,-37329.39,-24740.415,-20573.685,-21289.14,-11759.13,-6245.37
1764434893.498521,-349.515,-8833.23,-37352.565,-24750.495,-20579.355,-21280.14,-11768.895,-6258.554999999999
1764434893.498521,-350.37,-8828.865,-37351.395,-24745.86,-20586.465,-21279.06,-11788.92,-6273.179999999999
1764434893.498521,-328.14,-8806.68,-37336.365,-24731.37,-20580.93,-21259.845,-11796.345,-6272.73
1764434893.498521,-325.305,-8804.835,-37333.98,-24724.305,-20574.585,-21249.54,-11794.32,-6271.469999999999
1764434893.498521,-323.775,-8804.744999999999,-37331.28,-24724.035,-20573.145,-21255.615,-11787.39,-6264.09
1764434893.4995358,-335.79,-8817.39,-37336.095,-24729.165,-20573.37,-21265.515,-11779.47,-6261.66
1764434893.5440445,-336.915,-8815.904999999999,-37329.885,-24735.195,-20581.11,-21285.405,-11770.155,-6250.59
1764434893.5440445,-345.735,-8822.565,-37330.56,-24741.9,-20582.91,-21301.065,-11758.905,-6243.885
1764434893.5440445,-352.62,-8825.4,-37330.065,-24742.575,-20580.435,-21301.965,-11757.375,-6247.08
1764434893.5440445,-348.165,-8818.065,-37327.005,-24738.66,-20579.13,-21296.7,-11766.375,-6253.74
1764434893.5440445,-331.83,-8817.48,-37343.34,-24747.66,-20584.08,-21284.73,-11765.34,-6246.405
1764434893.5440445,-330.615,-8812.08,-37339.245,-24736.005,-20574.315,-21261.42,-11776.995,-6259.32
1764434893.5440445,-327.33,-8810.46,-37343.205,-24731.415,-20571.795,-21245.535,-11787.435,-6268.5
1764434893.5440445,-321.39,-8807.49,-37339.65,-24723.0,-20569.095,-21242.565,-11789.145,-6264.315
1764434893.5440445,-314.64,-8797.185,-37326.15,-24718.365,-20564.82,-21246.66,-11781.0,-6258.825
1764434893.5440445,-332.955,-8809.92,-37326.285,-24722.415,-20567.52,-21260.52,-11775.42,-6262.695
1764434893.5440445,-345.015,-8820.315,-37330.11,-24736.23,-20579.625,-21285.945,-11768.535,-6254.73
1764434893.5440445,-350.235,-8832.015,-37341.045,-24749.865,-20585.52,-21304.08,-11759.58,-6246.045
1764434893.5440445,-347.265,-8824.095,-37330.38,-24741.27,-20579.94,-21304.755,-11757.645,-6244.29
1764434893.5440445,-345.195,-8822.97,-37335.33,-24746.445,-20585.475,-21300.165,-11767.005,-6251.625
1764434893.5440445,-331.38,-8812.529999999999,-37334.655,-24742.62,-20583.0,-21284.19,-11768.355,-6249.96
1764434893.5440445,-333.9,-8814.195,-37339.29,-24739.38,-20581.29,-21269.52,-11780.19,-6263.145
1764434893.5440445,-335.025,-8819.64,-37352.34,-24738.345,-20575.26,-21249.18,-11789.82,-6273.09
1764434893.5440445,-322.245,-8806.815,-37343.295,-24730.425,-20572.38,-21246.795,-11794.5,-6272.099999999999
1764434893.5450463,-321.48,-8804.52,-37336.14,-24730.02,-20573.055,-21251.565,-11786.13,-6266.835
1764434893.5450463,-345.915,-8826.795,-37353.735,-24748.83,-20578.77,-21263.49,-11777.49,-6266.79
1764434893.5450463,-335.07,-8813.789999999999,-37330.335,-24734.745,-20577.195,-21287.07,-11772.27,-6249.96
1764434893.5450463,-345.51,-8818.92,-37321.155,-24729.21,-20570.4,-21293.775,-11758.77,-6245.82
1764434893.5902276,-348.84,-8830.125,-37335.195,-24747.705,-20589.12,-21311.73,-11756.925,-6243.075
1764434893.5902276,-341.505,-8822.295,-37336.725,-24750.27,-20593.98,-21308.265,-11765.835,-6245.145
1764434893.5902276,-342.63,-8822.025,-37344.825,-24744.105,-20580.795,-21281.76,-11772.945,-6257.61
1764434893.5902276,-341.865,-8820.0,-37347.03,-24736.185,-20573.865,-21262.77,-11783.52,-6271.38
1764434893.5902276,-322.29,-8803.98,-37337.04,-24730.47,-20575.215,-21251.205,-11790.81,-6267.24
1764434893.5902276,-325.395,-8806.68,-37335.15,-24724.305,-20568.105,-21239.505,-11791.215,-6271.38
1764434893.5902276,-319.455,-8803.17,-37332.315,-24732.63,-20577.465,-21254.715,-11784.51,-6260.67
1764434893.5902276,-333.0,-8814.869999999999,-37335.6,-24733.8,-20575.17,-21265.38,-11777.355,-6260.49
1764434893.5902276,-340.2,-8817.795,-37329.255,-24735.375,-20580.84,-21286.17,-11769.345,-6253.155
1764434893.5902276,-348.885,-8826.795,-37334.565,-24745.995,-20587.545,-21304.62,-11761.155,-6247.62
1764434893.5902276,-360.9,-8836.605,-37340.235,-24748.29,-20584.08,-21304.89,-11763.765,-6255.719999999999
1764434893.5902276,-342.99,-8816.22,-37322.73,-24737.13,-20585.16,-21302.28,-11767.32,-6251.625
1764434893.5902276,-331.47,-8805.645,-37322.91,-24733.44,-20582.235,-21286.125,-11772.855,-6255.405
1764434893.5902276,-332.91,-8812.529999999999,-37338.075,-24734.97,-20577.195,-21264.3,-11780.19,-6263.054999999999
1764434893.5902276,-326.745,-8810.64,-37343.025,-24730.065,-20571.3,-21243.915,-11786.985,-6269.804999999999
1764434893.5902276,-342.27,-8824.095,-37351.755,-24737.22,-20580.75,-21248.28,-11795.175,-6280.56
1764434893.5902276,-328.995,-8811.045,-37339.605,-24734.52,-20583.09,-21261.51,-11792.34,-6267.42
1764434893.5902276,-329.22,-8810.595,-37333.53,-24733.44,-20579.895,-21272.58,-11783.34,-6262.695
1764434893.5902276,-352.89,-8829.27,-37339.47,-24742.8,-20583.855,-21288.015,-11772.09,-6262.514999999999
1764434893.5912435,-358.605,-8835.57,-37339.83,-24753.195,-20594.61,-21313.98,-11768.31,-6254.505
1764434893.5912435,-351.675,-8831.654999999999,-37341.045,-24756.21,-20596.77,-21317.445,-11765.205,-6248.429999999999
1764434893.5912435,-346.455,-8828.145,-37342.755,-24755.265,-20596.185,-21308.49,-11770.02,-6250.905
1764434893.5912435,-337.77,-8820.09,-37338.93,-24743.88,-20584.305,-21285.18,-11774.79,-6256.26
1764434893.5912435,-339.885,-8818.875,-37343.16,-24739.695,-20580.885,-21267.54,-11786.94,-6273.764999999999
1764434893.6341836,-326.385,-8809.244999999999,-37341.99,-24731.055,-20572.425,-21246.3,-11791.395,-6272.594999999999
1764434893.6341836,-322.065,-8806.41,-37340.64,-24722.73,-20563.785,-21236.535,-11791.26,-6273.99
1764434893.6341836,-336.105,-8813.43,-37333.215,-24721.38,-20565.765,-21244.23,-11784.105,-6272.91
1764434893.6341836,-335.475,-8814.24,-37333.26,-24735.015,-20577.645,-21266.145,-11776.23,-6260.355
1764434893.6341836,-349.065,-8836.065,-37350.315,-24750.81,-20580.84,-21280.815,-11765.655,-6251.625
1764434893.6341836,-350.235,-8832.869999999999,-37341.405,-24748.605,-20582.37,-21298.365,-11761.92,-6249.78
1764434893.6341836,-353.79,-8823.69,-37322.82,-24736.815,-20585.16,-21306.555,-11761.65,-6251.264999999999
1764434893.6341836,-334.305,-8808.39,-37319.31,-24734.43,-20582.64,-21298.32,-11762.82,-6242.219999999999
1764434893.6341836,-338.355,-8812.17,-37330.47,-24739.965,-20578.365,-21275.73,-11768.535,-6257.25
1764434893.635203,-339.84,-8822.34,-37349.82,-24745.23,-20580.525,-21261.465,-11780.055,-6265.62
1764434893.635203,-319.59,-8806.725,-37344.915,-24732.72,-20575.305,-21246.84,-11786.94,-6263.865
1764434893.635203,-310.545,-8792.055,-37330.65,-24718.095,-20563.695,-21240.27,-11785.86,-6263.325
1764434893.635203,-326.115,-8812.17,-37338.21,-24721.47,-20565.09,-21247.785,-11782.485,-6263.955
1764434893.635203,-347.13,-8824.994999999999,-37335.96,-24737.04,-20585.295,-21273.66,-11780.19,-6267.78
1764434893.635203,-342.27,-8814.645,-37322.055,-24734.34,-20584.26,-21289.905,-11770.515,-6252.615
1764434893.635203,-335.835,-8815.904999999999,-37325.295,-24741.315,-20586.015,-21304.89,-11756.43,-6235.02
1764434893.635203,-344.25,-8822.205,-37331.55,-24747.705,-20590.29,-21310.56,-11756.745,-6239.835
1764434893.635203,-341.19,-8819.505,-37334.7,-24748.515,-20588.04,-21298.41,-11761.38,-6244.155
1764434893.636197,-336.555,-8814.24,-37335.42,-24742.845,-20585.115,-21284.775,-11771.1,-6253.065
1764434893.636197,-327.825,-8806.23,-37334.16,-24732.315,-20576.25,-21262.995,-11779.83,-6260.04
1764434893.636197,-314.775,-8795.835,-37335.6,-24728.895,-20567.61,-21240.495,-11783.385,-6261.3
1764434893.636197,-320.355,-8805.6,-37347.39,-24730.56,-20559.465,-21227.805,-11780.73,-6262.425
1764434893.636197,-328.995,-8809.065,-37339.38,-24725.52,-20560.95,-21239.64,-11782.665,-6265.889999999999
1764434893.636197,-333.0,-8804.789999999999,-37326.51,-24725.475,-20564.865,-21256.83,-11777.22,-6262.155
1764434893.679741,-359.505,-8838.585,-37346.895,-24739.92,-20570.805,-21271.41,-11761.515,-6257.16
1764434893.680249,-353.07,-8829.225,-37335.285,-24747.66,-20590.02,-21304.575,-11759.13,-6247.575
1764434893.680249,-344.115,-8819.01,-37325.655,-24739.245,-20586.555,-21307.59,-11755.575,-6241.59
1764434893.680249,-338.805,-8815.904999999999,-37324.215,-24740.505,-20593.08,-21305.745,-11760.525,-6244.155
1764434893.680249,-328.095,-8800.02,-37315.08,-24733.17,-20588.4,-21289.5,-11768.94,-6250.905
1764434893.680249,-336.285,-8808.3,-37328.04,-24727.725,-20575.575,-21261.015,-11781.18,-6266.115
1764434893.680249,-324.18,-8802.675,-37331.055,-24721.92,-20571.03,-21243.915,-11787.03,-6269.94
1764434893.680249,-313.83,-8797.725,-37331.505,-24724.305,-20575.53,-21247.56,-11783.34,-6260.264999999999
1764434893.680249,-318.915,-8798.67,-37323.63,-24718.995,-20568.195,-21248.415,-11778.705,-6259.32
1764434893.680249,-335.205,-8805.645,-37320.345,-24719.895,-20566.755,-21259.305,-11778.435,-6266.79
1764434893.680249,-338.13,-8816.715,-37327.23,-24735.33,-20579.85,-21283.605,-11762.37,-6246.675
1764434893.680249,-341.595,-8825.985,-37336.32,-24752.385,-20593.125,-21306.42,-11753.73,-6237.63
1764434893.680249,-347.13,-8827.335,-37336.455,-24753.69,-20593.08,-21307.455,-11755.395,-6243.48
1764434893.680249,-340.245,-8819.505,-37334.7,-24747.03,-20587.77,-21295.665,-11760.075,-6245.145
1764434893.680249,-336.06,-8816.985,-37338.12,-24740.775,-20580.435,-21276.9,-11768.175,-6253.245
1764434893.680249,-334.17,-8815.365,-37340.685,-24736.95,-20581.47,-21265.92,-11782.755,-6266.115
1764434893.680249,-324.63,-8805.375,-37334.115,-24727.905,-20577.915,-21251.565,-11792.655,-6271.875
1764434893.680249,-321.39,-8802.36,-37331.055,-24722.595,-20570.895,-21242.52,-11790.045,-6269.625
1764434893.680249,-324.765,-8807.67,-37332.315,-24723.765,-20569.545,-21248.55,-11781.315,-6261.48
1764434893.680249,-333.405,-8815.32,-37335.105,-24733.08,-20577.285,-21267.945,-11775.645,-6258.465
1764434893.680249,-337.5,-8818.154999999999,-37330.83,-24738.21,-20580.93,-21285.54,-11764.215,-6248.88
1764434893.680249,-346.725,-8825.895,-37333.44,-24747.885,-20589.12,-21306.915,-11759.265,-6245.28
1764434893.7302594,-346.32,-8823.779999999999,-37332.27,-24747.975,-20587.86,-21306.735,-11757.69,-6243.389999999999
1764434893.7302594,-342.765,-8821.08,-37333.17,-24745.23,-20585.34,-21296.655,-11763.09,-6248.429999999999
1764434893.7302594,-335.88,-8814.869999999999,-37332.9,-24737.94,-20579.49,-21279.33,-11769.84,-6253.965
1764434893.7302594,-330.12,-8808.48,-37332.765,-24728.805,-20572.38,-21257.955,-11779.515,-6262.605
1764434893.7302594,-325.305,-8806.545,-37337.04,-24725.43,-20568.735,-21241.035,-11786.49,-6268.815
1764434893.7302594,-313.38,-8802.225,-37343.205,-24731.055,-20565.585,-21233.34,-11782.98,-6262.245
1764434893.7302594,-323.73,-8809.244999999999,-37344.465,-24729.84,-20553.525,-21226.725,-11774.97,-6264.719999999999
1764434893.7302594,-350.685,-8829.63,-37341.495,-24725.745,-20557.62,-21246.57,-11772.36,-6268.455
1764434893.7302594,-330.39,-8808.84,-37313.82,-24722.64,-20575.71,-21283.38,-11760.48,-6242.94
1764434893.7302594,-341.145,-8808.795,-37310.58,-24732.63,-20583.99,-21307.365,-11755.71,-6246.45
1764434893.7302594,-346.32,-8821.485,-37328.4,-24746.76,-20582.685,-21301.83,-11752.515,-6244.469999999999
1764434893.7302594,-363.87,-8847.045,-37361.385,-24769.62,-20593.98,-21297.195,-11764.305,-6256.485
1764434893.7302594,-331.83,-8811.09,-37335.42,-24743.385,-20583.09,-21285.18,-11774.565,-6253.605
1764434893.7302594,-324.405,-8803.485,-37328.13,-24727.815,-20577.285,-21268.845,-11781.36,-6259.679999999999
1764434893.7302594,-321.39,-8803.755,-37333.89,-24730.74,-20580.345,-21254.58,-11790.045,-6265.755
1764434893.7302594,-315.18,-8799.435,-37332.945,-24726.915,-20569.365,-21240.54,-11785.365,-6262.605
1764434893.7302594,-324.63,-8806.68,-37332.315,-24729.03,-20568.69,-21249.045,-11780.55,-6261.84
1764434893.7302594,-332.595,-8814.06,-37332.495,-24734.7,-20575.62,-21271.815,-11778.255,-6260.04
1764434893.7302594,-329.85,-8806.32,-37317.69,-24732.09,-20575.26,-21287.745,-11763.81,-6247.53
1764434893.7302594,-342.81,-8821.35,-37327.545,-24744.69,-20582.82,-21301.515,-11752.92,-6241.995
1764434893.7302594,-345.42,-8821.755,-37330.83,-24751.935,-20589.48,-21308.67,-11759.31,-6246.135
1764434893.7302594,-355.095,-8834.67,-37342.44,-24752.34,-20590.74,-21301.965,-11771.01,-6257.745
1764434893.7752006,-337.95,-8814.645,-37330.83,-24742.395,-20586.24,-21288.285,-11779.065,-6260.67
1764434893.7752006,-323.055,-8802.945,-37331.505,-24737.715,-20579.355,-21265.47,-11783.07,-6261.03
1764434893.7752006,-317.97,-8801.775,-37336.77,-24730.29,-20567.88,-21239.28,-11786.4,-6264.585
1764434893.7752006,-318.87,-8803.035,-37333.305,-24721.155,-20560.545,-21234.105,-11785.41,-6264.585
1764434893.7752006,-322.83,-8804.025,-37324.62,-24718.365,-20564.28,-21248.73,-11781.945,-6261.255
1764434893.7752006,-329.49,-8807.985,-37323.09,-24728.625,-20576.52,-21271.41,-11777.625,-6257.565
1764434893.7752006,-336.555,-8815.994999999999,-37327.32,-24740.145,-20582.685,-21290.49,-11768.13,-6249.645
1764434893.7752006,-344.205,-8821.89,-37326.42,-24745.905,-20585.745,-21305.43,-11760.57,-6245.28
1764434893.7752006,-350.415,-8827.47,-37331.865,-24750.495,-20587.185,-21306.735,-11759.4,-6247.8
1764434893.7752006,-342.18,-8821.619999999999,-37335.105,-24750.54,-20584.44,-21294.405,-11763.495,-6248.565
1764434893.7752006,-341.865,-8821.305,-37338.39,-24743.655,-20574.54,-21272.265,-11770.965,-6258.42
1764434893.7752006,-332.28,-8811.045,-37331.145,-24729.435,-20574.675,-21262.23,-11783.565,-6265.844999999999
1764434893.7752006,-321.165,-8799.119999999999,-37323.945,-24717.24,-20566.17,-21243.015,-11788.92,-6268.094999999999
1764434893.7752006,-321.21,-8795.565,-37315.98,-24706.53,-20553.48,-21230.685,-11789.325,-6268.23
1764434893.7752006,-313.47,-8796.24,-37322.1,-24719.58,-20559.375,-21238.47,-11774.475,-6253.02
1764434893.7752006,-327.645,-8813.07,-37340.28,-24744.87,-20574.045,-21261.105,-11767.095,-6253.605
1764434893.7752006,-339.075,-8815.275,-37334.52,-24745.455,-20575.62,-21283.965,-11766.015,-6254.415
1764434893.7752006,-355.59,-8818.425,-37317.15,-24729.03,-20563.695,-21289.5,-11761.38,-6258.735
1764434893.7752006,-352.98,-8836.56,-37341.945,-24754.77,-20587.5,-21307.68,-11753.955,-6241.41
1764434893.7752006,-340.155,-8830.35,-37352.16,-24767.505,-20600.865,-21305.295,-11761.02,-6241.139999999999
1764434893.7752006,-328.32,-8810.414999999999,-37336.95,-24747.57,-20584.17,-21280.815,-11770.965,-6249.014999999999
1764434893.7762218,-327.69,-8806.185,-37329.345,-24725.25,-20567.97,-21255.615,-11780.64,-6261.03
1764434893.7762218,-324.81,-8802.99,-37322.595,-24708.33,-20559.465,-21236.76,-11785.5,-6268.365
1764434893.7762218,-306.765,-8788.455,-37315.935,-24713.145,-20568.735,-21245.445,-11785.32,-6258.645
1764434893.820707,-314.46,-8798.715,-37325.52,-24722.64,-20566.665,-21247.47,-11775.69,-6254.415
1764434893.822216,-334.305,-8812.664999999999,-37334.295,-24736.68,-20571.975,-21261.78,-11771.595,-6260.76
1764434893.822216,-344.88,-8827.92,-37345.815,-24750.9,-20577.105,-21282.21,-11759.13,-6245.505
1764434893.822216,-353.7,-8833.545,-37339.695,-24744.645,-20576.025,-21297.285,-11755.17,-6244.785
1764434893.822216,-347.31,-8818.11,-37319.94,-24738.48,-20581.47,-21304.44,-11758.05,-6248.34
1764434893.822216,-331.425,-8806.77,-37319.49,-24743.385,-20591.145,-21303.9,-11760.435,-6240.554999999999
1764434893.822216,-331.335,-8810.73,-37333.17,-24743.52,-20583.18,-21281.4,-11768.22,-6248.969999999999
1764434893.822216,-325.8,-8803.619999999999,-37331.865,-24732.405,-20573.145,-21258.18,-11780.19,-6261.255
1764434893.822216,-320.085,-8800.11,-37330.695,-24719.85,-20560.275,-21235.005,-11785.23,-6268.005
1764434893.822216,-334.08,-8810.414999999999,-37332.945,-24719.67,-20561.985,-21235.365,-11785.32,-6271.65
1764434893.822216,-311.13,-8795.88,-37323.54,-24723.54,-20570.895,-21254.22,-11775.69,-6246.179999999999
1764434893.822216,-322.02,-8803.44,-37322.73,-24728.13,-20571.39,-21266.325,-11766.96,-6244.65
1764434893.822216,-332.28,-8810.73,-37323.135,-24734.745,-20573.28,-21282.795,-11756.295,-6239.745
1764434893.822216,-341.19,-8815.725,-37319.715,-24736.23,-20574.45,-21297.015,-11750.13,-6238.035
1764434893.822216,-344.97,-8818.605,-37323.315,-24742.665,-20582.145,-21303.54,-11752.74,-6241.005
1764434893.822216,-337.995,-8815.77,-37328.805,-24745.005,-20583.72,-21294.45,-11759.58,-6244.02
1764434893.822216,-330.21,-8806.005,-37325.835,-24736.455,-20575.125,-21275.055,-11767.995,-6251.895
1764434893.822216,-325.08,-8801.145,-37326.24,-24725.295,-20563.155,-21248.505,-11774.655,-6259.094999999999
1764434893.822216,-325.71,-8809.065,-37340.46,-24726.42,-20563.47,-21237.975,-11782.665,-6266.745
1764434893.822216,-312.75,-8796.105,-37329.39,-24720.615,-20561.22,-21239.37,-11781.315,-6259.59
1764434893.822216,-315.315,-8796.6,-37321.515,-24713.955,-20550.51,-21236.445,-11770.245,-6252.795
1764434893.822216,-330.39,-8803.664999999999,-37316.07,-24714.63,-20549.115,-21246.84,-11767.05,-6256.889999999999
1764434893.822216,-337.005,-8800.695,-37309.815,-24726.78,-20561.895,-21272.445,-11758.23,-6252.344999999999
1764434893.822216,-347.76,-8832.735,-37343.655,-24755.94,-20576.88,-21294.405,-11741.265,-6232.139999999999
1764434893.8672872,-356.67,-8842.68,-37346.355,-24756.255,-20581.74,-21302.325,-11753.595,-6241.365
1764434893.8672872,-325.935,-8794.619999999999,-37302.21,-24723.765,-20570.175,-21288.555,-11759.67,-6240.105
1764434893.8672872,-327.69,-8799.3,-37313.28,-24723.405,-20566.71,-21269.745,-11764.89,-6249.87
1764434893.8672872,-323.685,-8805.779999999999,-37333.755,-24731.955,-20570.4,-21253.905,-11773.215,-6254.55
1764434893.8672872,-308.61,-8787.24,-37323.045,-24717.69,-20558.16,-21233.25,-11781.0,-6258.915
1764434893.8672872,-309.825,-8785.485,-37314.945,-24705.18,-20542.455,-21219.48,-11774.745,-6260.219999999999
1764434893.8672872,-325.62,-8806.5,-37325.655,-24720.57,-20557.44,-21239.505,-11769.3,-6252.435
1764434893.8672872,-318.69,-8794.71,-37313.775,-24721.155,-20558.655,-21254.58,-11768.445,-6246.09
1764434893.8672872,-330.705,-8808.885,-37321.335,-24732.405,-20567.07,-21278.385,-11756.88,-6239.745
1764434893.8672872,-323.46,-8804.97,-37318.275,-24741.945,-20579.625,-21301.155,-11744.505,-6223.86
1764434893.8672872,-340.065,-8817.66,-37330.2,-24748.47,-20578.23,-21297.105,-11748.195,-6236.55
1764434893.8672872,-338.85,-8817.705,-37330.245,-24735.78,-20567.34,-21281.76,-11755.89,-6243.3
1764434893.8672872,-326.43,-8805.15,-37322.505,-24729.39,-20571.255,-21275.235,-11765.655,-6246.54
1764434893.8672872,-313.605,-8790.345,-37314.135,-24718.14,-20568.375,-21258.315,-11776.32,-6252.344999999999
1764434893.8672872,-309.105,-8784.63,-37314.18,-24711.345,-20560.365,-21240.495,-11784.375,-6261.165
1764434893.8672872,-314.1,-8790.75,-37318.77,-24713.775,-20560.455,-21241.44,-11783.07,-6262.469999999999
1764434893.8672872,-314.28,-8799.345,-37324.845,-24725.16,-20569.05,-21255.795,-11769.03,-6244.92
1764434893.8672872,-322.965,-8804.115,-37323.405,-24730.335,-20572.83,-21271.95,-11765.835,-6243.075
1764434893.8672872,-332.055,-8812.574999999999,-37325.295,-24739.245,-20577.645,-21290.805,-11756.88,-6235.875
1764434893.8672872,-344.16,-8817.705,-37326.465,-24743.79,-20575.845,-21298.59,-11752.29,-6244.245
1764434893.8672872,-348.03,-8823.375,-37330.965,-24746.04,-20577.06,-21300.255,-11754.63,-6243.03
1764434893.8672872,-339.75,-8818.92,-37331.82,-24745.86,-20580.345,-21291.39,-11760.57,-6245.37
1764434893.9138682,-325.53,-8801.505,-37322.865,-24738.84,-20577.645,-21275.595,-11765.34,-6248.7
1764434893.9138682,-327.015,-8797.86,-37323.405,-24725.52,-20559.15,-21243.87,-11774.16,-6262.74
1764434893.9138682,-320.94,-8800.965,-37331.055,-24721.65,-20561.535,-21238.245,-11779.785,-6259.905
1764434893.9138682,-304.515,-8794.305,-37325.835,-24717.87,-20563.605,-21240.9,-11776.77,-6248.385
1764434893.9138682,-305.505,-8784.855,-37306.845,-24710.85,-20560.455,-21246.165,-11768.94,-6247.44
1764434893.9138682,-335.115,-8807.895,-37318.14,-24721.695,-20560.5,-21256.02,-11762.415,-6253.02
1764434893.9138682,-322.245,-8807.49,-37319.67,-24730.965,-20563.965,-21270.69,-11745.675,-6226.965
1764434893.9138682,-347.175,-8818.11,-37323.405,-24740.28,-20569.23,-21284.775,-11745.09,-6242.94
1764434893.9145713,-347.13,-8826.435,-37340.145,-24752.16,-20582.685,-21302.55,-11753.505,-6243.12
1764434893.9145713,-338.13,-8816.625,-37329.345,-24737.355,-20575.215,-21289.995,-11757.105,-6245.28
1764434893.9145713,-334.035,-8805.24,-37315.98,-24729.84,-20574.585,-21276.495,-11763.27,-6247.889999999999
1764434893.9145713,-311.4,-8791.605,-37318.725,-24724.08,-20569.455,-21256.11,-11773.215,-6246.81
1764434893.9145713,-314.145,-8794.035,-37324.53,-24719.13,-20561.31,-21237.39,-11780.505,-6258.465
1764434893.9145713,-317.925,-8796.779999999999,-37323.765,-24717.06,-20557.215,-21233.88,-11779.29,-6259.86
1764434893.9145713,-324.945,-8800.965,-37321.74,-24720.39,-20557.935,-21243.6,-11775.24,-6257.925
1764434893.9145713,-326.925,-8804.565,-37326.6,-24734.655,-20566.17,-21263.175,-11767.23,-6249.014999999999
1764434893.9145713,-342.45,-8815.41,-37329.165,-24738.84,-20564.91,-21278.52,-11759.085,-6248.52
1764434893.9145713,-363.96,-8846.595,-37350.9,-24757.155,-20578.725,-21299.13,-11752.38,-6245.73
1764434893.9155762,-344.07,-8815.904999999999,-37317.33,-24739.47,-20578.455,-21300.93,-11753.64,-6240.105
1764434893.9155762,-339.57,-8815.095,-37321.695,-24734.925,-20573.64,-21286.08,-11758.995,-6243.615
1764434893.9155762,-337.365,-8816.715,-37335.33,-24745.815,-20584.305,-21283.92,-11773.665,-6253.2
1764434893.9155762,-320.13,-8795.565,-37322.1,-24731.055,-20578.05,-21265.875,-11783.025,-6257.52
1764434893.9155762,-317.25,-8795.654999999999,-37324.53,-24719.67,-20564.19,-21240.18,-11784.69,-6261.389999999999
1764434893.9155762,-315.63,-8795.654999999999,-37322.82,-24720.12,-20567.07,-21244.23,-11781.27,-6256.62
1764434893.965342,-319.14,-8797.86,-37322.46,-24723.855,-20568.69,-21255.12,-11776.365,-6252.21
1764434893.965342,-330.885,-8809.065,-37325.97,-24733.17,-20574.675,-21272.04,-11771.865,-6251.085
1764434893.965342,-340.065,-8816.265,-37325.475,-24741.36,-20581.065,-21292.92,-11762.55,-6245.594999999999
1764434893.965342,-348.345,-8822.25,-37329.57,-24751.665,-20586.87,-21309.975,-11757.69,-6243.615
1764434893.965342,-347.085,-8821.215,-37331.415,-24753.555,-20585.565,-21307.05,-11757.735,-6243.389999999999
1764434893.965342,-345.015,-8819.324999999999,-37333.485,-24747.93,-20580.795,-21292.695,-11765.25,-6250.32
1764434893.965342,-334.17,-8807.715,-37324.395,-24733.665,-20573.73,-21274.515,-11771.73,-6253.335
1764434893.965342,-325.8,-8801.64,-37326.105,-24728.175,-20569.41,-21254.94,-11781.18,-6260.49
1764434893.965342,-321.435,-8797.68,-37328.49,-24726.555,-20564.505,-21238.965,-11788.2,-6267.33
1764434893.965342,-321.84,-8800.289999999999,-37332.405,-24728.49,-20557.53,-21230.415,-11782.665,-6264.675
1764434893.965342,-332.505,-8812.17,-37335.555,-24727.275,-20556.27,-21240.765,-11779.065,-6264.855
1764434893.965342,-329.085,-8804.52,-37317.78,-24722.235,-20562.48,-21265.2,-11771.595,-6254.955
1764434893.965342,-357.75,-8836.02,-37337.985,-24746.805,-20577.465,-21289.5,-11760.345,-6251.445
1764434893.965342,-352.62,-8825.31,-37327.815,-24748.11,-20581.74,-21308.445,-11760.615,-6245.639999999999
1764434893.965342,-353.745,-8819.91,-37316.25,-24736.095,-20576.7,-21306.105,-11763.54,-6250.005
1764434893.965342,-341.325,-8818.244999999999,-37332.81,-24752.205,-20590.245,-21304.305,-11770.425,-6246.719999999999
1764434893.965342,-332.325,-8805.24,-37328.22,-24739.335,-20578.005,-21280.095,-11780.505,-6262.245
1764434893.965342,-329.4,-8810.775,-37338.57,-24738.12,-20576.025,-21263.13,-11783.79,-6261.48
1764434893.965342,-321.48,-8805.6,-37337.895,-24733.395,-20574.63,-21249.99,-11788.47,-6264.99
1764434893.965342,-327.87,-8805.33,-37331.145,-24726.24,-20568.105,-21244.635,-11784.06,-6264.99
1764434893.965342,-323.865,-8803.215,-37327.77,-24729.3,-20571.345,-21258.18,-11778.255,-6254.955
1764434893.965342,-336.78,-8813.295,-37329.93,-24733.755,-20571.525,-21270.825,-11771.415,-6254.775
1764434893.965342,-345.645,-8822.97,-37331.82,-24743.07,-20581.335,-21295.845,-11764.98,-6248.565
1764434893.965342,-349.47,-8823.69,-37327.68,-24748.83,-20587.995,-21311.19,-11761.02,-6244.83
1764434894.0066392,-345.24,-8818.289999999999,-37327.5,-24750.54,-20587.14,-21308.85,-11760.39,-6243.705
1764434894.0066392,-333.72,-8811.27,-37332.585,-24749.685,-20581.605,-21292.785,-11765.475,-6247.08
1764434894.0066392,-339.57,-8816.265,-37344.6,-24750.45,-20573.145,-21268.845,-11770.74,-6258.375
1764434894.0066392,-352.845,-8829.855,-37355.265,-24741.495,-20564.28,-21246.255,-11783.925,-6271.11
1764434894.0066392,-320.67,-8799.029999999999,-37324.755,-24715.575,-20564.955,-21246.84,-11793.51,-6265.304999999999
1764434894.0066392,-313.83,-8784.675,-37309.32,-24715.305,-20570.49,-21251.565,-11786.67,-6260.804999999999
1764434894.0066392,-328.59,-8796.465,-37316.16,-24720.48,-20564.145,-21253.275,-11782.215,-6264.719999999999
1764434894.0066392,-337.86,-8812.529999999999,-37329.165,-24738.39,-20577.825,-21277.665,-11777.625,-6257.565
1764434894.0066392,-331.65,-8817.48,-37332.18,-24746.94,-20584.665,-21299.715,-11762.595,-6236.145
1764434894.0066392,-354.69,-8830.755,-37332.45,-24746.445,-20579.355,-21303.855,-11756.79,-6245.639999999999
1764434894.0066392,-352.935,-8820.09,-37323.855,-24741.81,-20579.715,-21305.115,-11761.875,-6251.31
1764434894.0066392,-348.66,-8817.39,-37329.615,-24743.34,-20581.74,-21297.69,-11772.18,-6255.179999999999
1764434894.0066392,-336.915,-8815.095,-37336.5,-24742.35,-20580.84,-21283.965,-11776.77,-6254.37
1764434894.0066392,-328.86,-8811.765,-37343.565,-24741.45,-20577.105,-21262.815,-11784.735,-6259.995
1764434894.0066392,-334.665,-8815.005,-37344.78,-24729.255,-20562.615,-21240.135,-11792.475,-6273.719999999999
1764434894.0066392,-331.785,-8804.385,-37324.665,-24718.77,-20562.345,-21244.41,-11792.79,-6273.179999999999
1764434894.009292,-324.675,-8806.59,-37331.955,-24736.905,-20578.095,-21265.965,-11780.145,-6254.73
1764434894.009292,-332.505,-8816.31,-37340.73,-24746.355,-20577.87,-21275.865,-11770.155,-6249.554999999999
1764434894.009292,-340.83,-8821.17,-37336.545,-24749.19,-20579.355,-21292.875,-11762.235,-6246.81
1764434894.009292,-365.175,-8836.289999999999,-37335.195,-24751.26,-20585.025,-21309.705,-11760.12,-6251.94
1764434894.009292,-350.01,-8820.63,-37323.495,-24743.115,-20581.38,-21307.905,-11762.19,-6243.03
1764434894.009292,-335.88,-8806.095,-37318.275,-24740.46,-20581.785,-21297.465,-11767.23,-6245.73
1764434894.0892289,-344.52,-8820.81,-37339.245,-24741.9,-20573.865,-21275.01,-11776.5,-6260.535
1764434894.0892289,-333.72,-8813.115,-37337.76,-24732.225,-20571.39,-21260.25,-11788.065,-6266.969999999999
1764434894.0892289,-325.215,-8801.279999999999,-37327.41,-24725.115,-20572.65,-21252.465,-11793.105,-6269.04
1764434894.0892289,-324.09,-8802.135,-37328.445,-24725.88,-20567.205,-21247.155,-11788.02,-6263.955
1764434894.0892289,-328.005,-8808.345,-37330.38,-24729.795,-20570.04,-21261.06,-11780.595,-6257.655
1764434894.0892289,-337.77,-8814.195,-37329.255,-24735.105,-20573.91,-21279.015,-11774.295,-6256.125
1764434894.0932543,-351.54,-8826.93,-37333.035,-24744.195,-20577.555,-21293.145,-11762.685,-6250.995
1764434894.0932543,-355.815,-8827.83,-37330.785,-24750.54,-20585.88,-21312.585,-11761.02,-6248.565
1764434894.0932543,-355.095,-8828.01,-37334.655,-24750.9,-20584.665,-21312.27,-11763.315,-6249.42
1764434894.094243,-351.72,-8827.425,-37339.515,-24751.755,-20586.24,-21301.335,-11771.19,-6253.965
1764434894.094243,-333.585,-8806.455,-37326.465,-24735.96,-20571.705,-21276.0,-11774.385,-6255.495
1764434894.094243,-341.505,-8819.64,-37350.54,-24740.415,-20563.56,-21249.765,-11786.67,-6272.46
1764434894.094243,-331.29,-8810.414999999999,-37341.09,-24731.82,-20569.41,-21251.43,-11795.355,-6271.875
1764434894.09525,-330.345,-8805.42,-37323.0,-24717.645,-20562.48,-21249.675,-11789.235,-6267.465
1764434894.09525,-330.12,-8801.414999999999,-37317.645,-24720.795,-20562.48,-21256.74,-11781.99,-6264.179999999999
1764434894.09525,-337.77,-8815.59,-37335.105,-24738.39,-20567.61,-21270.465,-11771.145,-6257.565
1764434894.096578,-362.565,-8846.369999999999,-37352.16,-24763.68,-20590.695,-21305.61,-11763.99,-6249.87
1764434894.096578,-336.78,-8812.215,-37320.255,-24756.705,-20601.09,-21333.51,-11765.745,-6237.135
1764434894.096578,-342.18,-8814.6,-37318.995,-24744.78,-20583.045,-21313.575,-11765.88,-6247.53
1764434894.096578,-347.22,-8816.039999999999,-37327.095,-24746.31,-20577.915,-21294.765,-11775.915,-6262.2
1764434894.096578,-360.225,-8834.94,-37352.565,-24756.57,-20577.42,-21275.37,-11776.545,-6264.99
1764434894.096578,-335.07,-8817.435,-37343.97,-24741.18,-20575.17,-21264.66,-11788.965,-6267.554999999999
1764434894.096578,-322.47,-8804.295,-37332.045,-24732.54,-20577.825,-21260.745,-11794.455,-6265.304999999999
1764434894.096578,-328.635,-8810.145,-37335.6,-24734.295,-20579.715,-21262.77,-11791.35,-6266.115
1764434894.096578,-328.185,-8804.88,-37322.73,-24729.12,-20575.62,-21273.165,-11785.32,-6257.34
1764434894.096578,-333.315,-8805.824999999999,-37316.835,-24732.315,-20574.585,-21283.605,-11775.915,-6253.785
1764434894.096578,-352.125,-8831.295,-37336.275,-24753.105,-20587.05,-21304.26,-11766.825,-6247.755
1764434894.096578,-355.59,-8831.43,-37332.855,-24756.255,-20592.09,-21318.84,-11766.105,-6247.844999999999
1764434894.0972564,-357.165,-8824.455,-37324.89,-24747.3,-20584.845,-21311.865,-11771.46,-6254.865
1764434894.0972564,-348.435,-8822.654999999999,-37336.185,-24755.04,-20589.795,-21304.17,-11777.13,-6255.09
1764434894.0972564,-345.465,-8824.32,-37347.075,-24755.94,-20587.05,-21286.17,-11780.865,-6260.625
1764434894.0972564,-334.62,-8809.605,-37333.845,-24734.88,-20571.345,-21260.07,-11788.245,-6267.735
1764434894.0972564,-324.27,-8800.065,-37331.415,-24734.79,-20577.96,-21258.72,-11795.895,-6269.849999999999
1764434894.0972564,-334.44,-8810.055,-37336.23,-24732.855,-20570.58,-21252.33,-11790.315,-6270.84
1764434894.0972564,-336.42,-8816.085,-37332.36,-24734.565,-20573.775,-21265.29,-11779.515,-6258.645
1764434894.0972564,-338.22,-8814.105,-37325.385,-24736.32,-20578.005,-21285.225,-11776.86,-6254.054999999999
1764434894.0972564,-349.245,-8822.205,-37328.22,-24748.83,-20585.97,-21306.24,-11768.445,-6250.185
1764434894.0972564,-354.96,-8826.345,-37331.19,-24756.12,-20587.185,-21315.645,-11762.325,-6247.485
1764434894.0972564,-357.435,-8831.115,-37337.04,-24754.59,-20584.125,-21310.02,-11764.395,-6250.905
1764434894.0977802,-350.82,-8823.555,-37332.72,-24748.425,-20584.53,-21301.425,-11774.43,-6256.575
1764434894.0977802,-338.355,-8811.27,-37328.445,-24741.27,-20579.67,-21284.505,-11781.405,-6259.5
1764434894.0977802,-326.79,-8805.6,-37333.62,-24736.725,-20571.93,-21259.935,-11788.29,-6262.74
1764434894.1315825,-321.615,-8800.02,-37330.56,-24723.99,-20560.59,-21239.82,-11789.415,-6266.16
1764434894.1315825,-337.455,-8809.335,-37331.415,-24725.295,-20560.68,-21242.61,-11788.92,-6274.349999999999
1764434894.1331594,-333.36,-8809.425,-37337.67,-24741.495,-20568.015,-21258.765,-11781.99,-6262.02
1764434894.1331594,-346.095,-8822.205,-37345.275,-24748.065,-20563.155,-21264.93,-11776.185,-6265.395
1764434894.1331594,-378.315,-8845.47,-37338.84,-24747.165,-20573.91,-21294.315,-11767.905,-6263.865
1764434894.1331594,-352.845,-8824.05,-37322.235,-24753.78,-20599.245,-21331.53,-11768.04,-6243.525
1764434894.1341803,-344.205,-8815.365,-37319.67,-24750.27,-20591.91,-21322.215,-11766.06,-6244.155
1764434894.1341803,-349.29,-8821.89,-37330.74,-24751.665,-20588.895,-21308.22,-11774.88,-6254.775
1764434894.1341803,-340.785,-8811.494999999999,-37325.565,-24739.605,-20579.13,-21288.15,-11784.015,-6262.425
1764434894.1341803,-337.635,-8814.195,-37335.645,-24735.015,-20571.705,-21263.895,-11791.98,-6270.929999999999
1764434894.1341803,-330.795,-8809.605,-37335.555,-24730.29,-20568.015,-21251.565,-11795.58,-6272.82
1764434894.1341803,-324.63,-8801.595,-37326.24,-24727.005,-20566.305,-21253.23,-11790.99,-6264.855
1764434894.1341803,-331.83,-8808.705,-37329.795,-24733.98,-20566.44,-21262.41,-11781.855,-6259.995
1764434894.1341803,-347.355,-8825.985,-37344.555,-24751.215,-20573.91,-21280.32,-11776.5,-6259.724999999999
1764434894.1341803,-357.705,-8832.24,-37343.7,-24754.005,-20572.74,-21297.105,-11768.94,-6256.62
1764434894.1341803,-359.415,-8828.279999999999,-37336.14,-24751.17,-20570.715,-21303.945,-11762.775,-6252.57
1764434894.1346943,-357.57,-8830.664999999999,-37336.275,-24746.175,-20568.06,-21297.24,-11763.54,-6251.804999999999
1764434894.1346943,-346.14,-8814.285,-37322.82,-24745.41,-20578.41,-21293.64,-11774.88,-6260.04
1764434894.1346943,-349.695,-8810.595,-37316.7,-24734.79,-20580.165,-21284.955,-11778.615,-6266.969999999999
1764434894.1346943,-350.1,-8824.14,-37337.535,-24733.53,-20569.185,-21259.935,-11790.45,-6271.065
1764434894.1346943,-312.795,-8792.505,-37324.44,-24729.615,-20569.275,-21253.635,-11792.43,-6257.565
1764434894.1346943,-315.18,-8794.35,-37320.345,-24723.495,-20566.845,-21255.525,-11786.67,-6256.98
1764434894.1813695,-328.41,-8800.965,-37317.42,-24724.35,-20565.81,-21266.64,-11781.63,-6259.094999999999
1764434894.1813695,-339.57,-8810.64,-37321.605,-24735.645,-20570.58,-21282.255,-11774.34,-6254.505
1764434894.1813695,-353.565,-8820.135,-37323.945,-24744.195,-20573.37,-21296.88,-11768.805,-6255.81
1764434894.1813695,-360.315,-8826.3,-37326.87,-24749.37,-20577.105,-21309.03,-11769.48,-6256.304999999999
1764434894.1813695,-344.79,-8824.68,-37334.655,-24756.615,-20586.96,-21315.87,-11760.255,-6237.63
1764434894.1813695,-345.825,-8824.68,-37341.54,-24756.75,-20586.015,-21302.19,-11772.18,-6251.445
1764434894.1813695,-339.21,-8811.63,-37330.155,-24741.18,-20576.88,-21282.21,-11781.135,-6260.04
1764434894.1813695,-338.58,-8815.23,-37341.63,-24744.69,-20579.985,-21269.205,-11793.69,-6267.915
1764434894.1813695,-326.34,-8804.34,-37339.2,-24734.88,-20566.62,-21247.965,-11795.265,-6269.445
1764434894.1813695,-339.84,-8818.74,-37345.14,-24735.195,-20562.165,-21247.38,-11791.17,-6270.84
1764434894.1813695,-334.395,-8810.865,-37328.265,-24731.685,-20565.72,-21265.245,-11785.32,-6259.5
1764434894.1813695,-344.07,-8808.615,-37313.19,-24730.38,-20570.445,-21282.255,-11777.355,-6258.42
1764434894.1813695,-358.785,-8826.345,-37322.955,-24741.135,-20571.525,-21295.26,-11766.015,-6250.679999999999
1764434894.1813695,-353.79,-8829.99,-37334.16,-24758.28,-20585.115,-21313.845,-11762.73,-6241.32
1764434894.1813695,-346.77,-8820.99,-37329.615,-24753.555,-20584.08,-21312.72,-11765.115,-6245.505
1764434894.1813695,-348.93,-8821.529999999999,-37333.08,-24747.345,-20576.745,-21294.405,-11773.17,-6254.955
1764434894.1813695,-346.365,-8816.445,-37332.45,-24738.93,-20568.24,-21273.165,-11781.54,-6265.17
1764434894.1813695,-339.12,-8812.89,-37339.02,-24738.3,-20566.35,-21256.29,-11790.63,-6271.065
1764434894.2280786,-332.955,-8812.619999999999,-37342.98,-24735.105,-20563.065,-21245.715,-11793.51,-6269.895
1764434894.2280786,-326.385,-8799.795,-37328.31,-24730.74,-20567.61,-21255.03,-11793.105,-6266.925
1764434894.2280786,-324.09,-8791.515,-37312.02,-24719.22,-20557.125,-21257.37,-11780.145,-6258.465
1764434894.2280786,-348.12,-8822.789999999999,-37329.615,-24732.54,-20564.19,-21274.29,-11771.865,-6256.889999999999
1764434894.2280786,-370.755,-8841.24,-37336.095,-24746.805,-20576.205,-21299.4,-11767.59,-6259.41
1764434894.2280786,-348.3,-8821.935,-37330.92,-24758.28,-20590.11,-21323.385,-11762.865,-6238.98
1764434894.2280786,-349.245,-8824.635,-37338.345,-24757.515,-20584.44,-21314.295,-11763.45,-6241.455
1764434894.2280786,-350.415,-8820.9,-37328.76,-24742.8,-20577.6,-21297.915,-11774.115,-6253.469999999999
1764434894.2280786,-336.105,-8805.914999999999,-37322.325,-24738.21,-20577.33,-21283.92,-11782.305,-6258.735
1764434894.2280786,-329.58,-8803.44,-37330.965,-24734.025,-20566.17,-21257.055,-11789.91,-6266.25
1764434894.2280786,-330.615,-8806.32,-37335.555,-24731.91,-20564.82,-21247.47,-11796.165,-6271.92
1764434894.2280786,-334.53,-8810.145,-37331.865,-24729.84,-20566.125,-21253.77,-11790.585,-6267.465
1764434894.2280786,-333.81,-8809.38,-37327.905,-24734.16,-20569.23,-21269.52,-11781.945,-6257.79
1764434894.2280786,-345.015,-8818.92,-37329.975,-24738.03,-20569.815,-21282.255,-11776.365,-6255.315
1764434894.2280786,-349.74,-8820.315,-37323.09,-24743.88,-20575.44,-21301.065,-11763.315,-6247.844999999999
1764434894.2280786,-355.545,-8826.164999999999,-37328.085,-24754.095,-20582.055,-21315.105,-11760.615,-6245.594999999999
1764434894.2280786,-355.32,-8823.735,-37329.525,-24752.295,-20578.86,-21306.87,-11764.305,-6250.275
1764434894.2280786,-351.135,-8822.88,-37334.52,-24745.995,-20572.065,-21289.23,-11770.155,-6256.889999999999
1764434894.2280786,-339.705,-8813.34,-37330.335,-24734.655,-20565.18,-21270.555,-11777.22,-6262.695
1764434894.2280786,-343.035,-8813.654999999999,-37333.395,-24731.235,-20563.155,-21251.97,-11782.935,-6270.389999999999
1764434894.2280786,-321.795,-8798.355,-37327.635,-24727.32,-20563.74,-21249.99,-11789.415,-6261.615
1764434894.2280786,-317.97,-8794.485,-37321.965,-24721.47,-20555.505,-21246.39,-11781.36,-6255.045
1764434894.2280786,-331.74,-8807.49,-37328.175,-24731.19,-20564.37,-21264.48,-11778.435,-6254.37
1764434894.2280786,-345.015,-8818.74,-37330.65,-24739.065,-20572.245,-21284.235,-11775.69,-6254.505
1764434894.2280786,-347.13,-8817.029999999999,-37320.615,-24742.215,-20576.07,-21301.785,-11763.36,-6243.705
1764434894.2280786,-352.665,-8822.699999999999,-37327.365,-24752.88,-20581.38,-21312.765,-11760.885,-6244.514999999999
1764434894.2280786,-354.87,-8826.39,-37335.06,-24756.345,-20580.615,-21306.915,-11767.635,-6254.91
1764434894.2290883,-363.195,-8824.5,-37329.705,-24746.895,-20573.865,-21289.815,-11777.22,-6268.545
1764434894.2679644,-351.63,-8825.265,-37343.565,-24752.34,-20572.605,-21271.77,-11781.45,-6263.415
1764434894.2679644,-334.395,-8811.135,-37341.225,-24742.26,-20567.205,-21256.38,-11793.51,-6268.094999999999
1764434894.2679644,-325.305,-8805.465,-37341.495,-24738.39,-20567.61,-21254.625,-11794.815,-6265.889999999999
1764434894.2679644,-333.945,-8815.095,-37343.97,-24737.445,-20562.3,-21252.33,-11792.025,-6266.745
1764434894.2679644,-338.265,-8807.715,-37323.495,-24732.09,-20564.28,-21265.245,-11785.14,-6265.98
1764434894.2679644,-357.075,-8830.305,-37336.725,-24743.565,-20575.935,-21290.94,-11780.37,-6263.82
1764434894.2679644,-349.38,-8815.545,-37315.89,-24735.105,-20573.73,-21308.715,-11769.84,-6250.005
1764434894.2679644,-356.715,-8821.755,-37323.54,-24742.665,-20569.77,-21306.78,-11761.695,-6249.915
1764434894.2679644,-375.165,-8838.045,-37337.13,-24750.27,-20574.72,-21308.04,-11775.465,-6266.385
1764434894.2679644,-349.065,-8821.035,-37337.31,-24758.19,-20590.83,-21311.415,-11780.28,-6254.73
1764434894.2679644,-334.395,-8809.83,-37332.9,-24745.95,-20582.01,-21289.14,-11782.62,-6253.92
1764434894.2689655,-331.245,-8807.445,-37333.755,-24734.115,-20568.33,-21260.88,-11791.215,-6264.0
1764434894.2689655,-324.855,-8802.27,-37331.865,-24727.59,-20561.4,-21249.945,-11794.77,-6265.71
1764434894.2689655,-321.165,-8798.13,-37326.015,-24720.84,-20554.065,-21247.92,-11789.91,-6260.67
1764434894.2689655,-341.415,-8818.38,-37336.995,-24734.88,-20562.57,-21262.005,-11782.395,-6262.02
1764434894.2689655,-353.34,-8823.465,-37334.34,-24745.815,-20575.71,-21288.015,-11777.94,-6261.165
1764434894.2689655,-347.985,-8818.065,-37328.265,-24752.97,-20585.52,-21316.545,-11769.345,-6245.73
1764434894.2689655,-358.335,-8825.58,-37331.145,-24757.065,-20589.075,-21325.68,-11767.905,-6248.745
1764434894.2689655,-357.255,-8823.06,-37329.84,-24752.295,-20580.03,-21310.155,-11768.535,-6251.94
1764434894.2689655,-355.455,-8827.199999999999,-37341.81,-24754.59,-20581.83,-21300.03,-11779.245,-6259.995
1764434894.269963,-341.955,-8812.755,-37335.6,-24745.275,-20575.17,-21280.635,-11784.33,-6262.065
1764434894.269963,-341.325,-8813.744999999999,-37343.205,-24737.76,-20564.1,-21255.705,-11795.94,-6273.855
1764434894.318046,-331.515,-8809.154999999999,-37346.265,-24733.89,-20560.77,-21245.805,-11795.49,-6274.755
1764434894.318046,-322.335,-8801.955,-37333.665,-24728.04,-20560.59,-21252.6,-11791.35,-6265.395
1764434894.318046,-326.925,-8800.289999999999,-37314.45,-24723.315,-20559.69,-21262.14,-11783.34,-6260.445
1764434894.318046,-355.14,-8821.619999999999,-37328.67,-24744.78,-20574.54,-21287.34,-11777.985,-6266.115
1764434894.318046,-366.975,-8834.445,-37334.205,-24750.72,-20579.85,-21312.765,-11772.18,-6257.79
1764434894.318046,-352.98,-8827.425,-37332.765,-24763.005,-20595.105,-21330.9,-11765.295,-6242.219999999999
1764434894.318677,-352.44,-8826.705,-37337.04,-24758.505,-20584.665,-21315.24,-11767.095,-6247.17
1764434894.318677,-347.4,-8818.154999999999,-37329.615,-24743.07,-20572.965,-21294.45,-11774.925,-6255.99
1764434894.318677,-336.105,-8807.535,-37327.905,-24739.65,-20569.815,-21275.505,-11781.765,-6262.74
1764434894.318677,-347.31,-8815.365,-37339.245,-24740.73,-20565.45,-21252.105,-11791.035,-6278.849999999999
1764434894.318677,-326.43,-8803.26,-37336.185,-24735.645,-20563.02,-21246.075,-11793.375,-6266.835
1764434894.318677,-324.315,-8800.605,-37334.745,-24738.795,-20566.665,-21256.47,-11788.92,-6262.695
1764434894.318677,-347.49,-8825.625,-37346.355,-24744.69,-20569.545,-21271.32,-11782.98,-6264.405
1764434894.318677,-337.905,-8809.875,-37321.515,-24734.025,-20573.865,-21297.42,-11779.02,-6253.425
1764434894.318677,-343.26,-8813.52,-37321.065,-24746.985,-20582.235,-21313.935,-11767.905,-6247.755
1764434894.318677,-356.805,-8821.395,-37320.615,-24744.285,-20577.285,-21315.195,-11765.745,-6253.92
1764434894.318677,-367.29,-8832.105,-37330.605,-24750.495,-20583.09,-21313.665,-11767.68,-6256.665
1764434894.318677,-342.99,-8818.695,-37334.88,-24751.215,-20582.64,-21303.09,-11776.32,-6249.87
1764434894.318677,-338.265,-8810.64,-37333.395,-24743.565,-20576.205,-21284.955,-11786.715,-6260.715
1764434894.318677,-328.32,-8803.44,-37333.62,-24731.64,-20562.39,-21256.425,-11791.665,-6265.53
1764434894.318677,-331.965,-8808.39,-37338.03,-24727.725,-20554.245,-21241.395,-11793.915,-6272.37
1764434894.318677,-333.18,-8805.96,-37329.075,-24727.365,-20561.58,-21254.895,-11791.53,-6269.445
1764434894.3636672,-331.335,-8807.265,-37330.11,-24737.625,-20571.93,-21274.515,-11783.205,-6256.844999999999
1764434894.3636672,-338.445,-8811.09,-37326.15,-24739.38,-20572.83,-21290.805,-11775.645,-6254.145
1764434894.3636672,-355.5,-8824.904999999999,-37326.825,-24746.04,-20576.61,-21309.975,-11766.06,-6250.545
1764434894.3636672,-359.775,-8828.19,-37331.415,-24756.345,-20585.295,-21321.99,-11765.25,-6248.295
1764434894.3636672,-356.67,-8826.21,-37334.97,-24756.525,-20584.755,-21314.52,-11769.795,-6252.255
1764434894.3636672,-347.265,-8817.48,-37330.875,-24747.93,-20578.815,-21298.545,-11777.4,-6257.655
1764434894.3636672,-342.63,-8815.455,-37335.555,-24741.99,-20573.415,-21281.445,-11785.365,-6264.135
1764434894.3636672,-330.885,-8805.15,-37333.8,-24732.765,-20567.745,-21263.22,-11793.24,-6268.905
1764434894.3636672,-329.04,-8802.945,-37332.405,-24726.825,-20561.22,-21250.53,-11794.95,-6271.335
1764434894.3636672,-336.555,-8807.535,-37327.86,-24725.655,-20560.725,-21255.255,-11791.035,-6270.84
1764434894.3636672,-335.295,-8806.095,-37323.9,-24730.425,-20561.58,-21266.505,-11779.515,-6258.51
1764434894.3636672,-342.495,-8809.515,-37323.405,-24735.06,-20559.105,-21276.36,-11769.48,-6254.235
1764434894.3636672,-363.69,-8829.36,-37330.11,-24739.695,-20556.405,-21287.295,-11761.965,-6254.594999999999
1764434894.3636672,-373.545,-8837.955,-37328.985,-24744.15,-20566.17,-21300.03,-11762.37,-6257.07
1764434894.3646643,-348.255,-8811.404999999999,-37317.78,-24743.655,-20571.21,-21301.02,-11765.565,-6253.335
1764434894.3646643,-344.88,-8815.545,-37333.845,-24751.71,-20579.895,-21298.815,-11772.315,-6255.675
1764434894.3646643,-338.94,-8816.49,-37335.195,-24743.115,-20579.04,-21288.87,-11778.3,-6254.73
1764434894.3646643,-328.005,-8797.815,-37321.38,-24724.755,-20563.425,-21259.89,-11790.09,-6267.014999999999
1764434894.3646643,-328.545,-8807.535,-37341.18,-24736.995,-20564.055,-21248.64,-11788.695,-6264.719999999999
1764434894.3646643,-329.715,-8808.66,-37342.485,-24743.745,-20568.825,-21262.905,-11788.695,-6262.065
1764434894.3646643,-331.38,-8806.59,-37329.84,-24734.745,-20561.04,-21267.81,-11776.815,-6253.605
1764434894.3646643,-341.37,-8811.9,-37324.665,-24738.255,-20569.995,-21288.24,-11770.2,-6251.219999999999
1764434894.3646643,-344.52,-8814.015,-37325.43,-24744.6,-20572.02,-21304.935,-11759.22,-6243.75
1764434894.3646643,-350.82,-8820.855,-37330.47,-24748.965,-20570.85,-21308.49,-11754.135,-6239.565
1764434894.4059813,-360.0,-8832.96,-37339.425,-24754.725,-20576.43,-21307.095,-11761.92,-6246.585
1764434894.4059813,-346.77,-8814.195,-37321.515,-24741.495,-20575.395,-21298.77,-11777.04,-6258.78
1764434894.4059813,-328.23,-8799.164999999999,-37316.655,-24730.965,-20567.97,-21280.14,-11781.495,-6255.495
1764434894.4059813,-328.995,-8796.24,-37318.32,-24720.75,-20555.235,-21250.575,-11789.19,-6269.355
1764434894.4059813,-333.45,-8802.225,-37329.165,-24729.66,-20564.01,-21253.23,-11794.365,-6273.945
1764434894.4059813,-329.805,-8799.615,-37325.79,-24729.48,-20563.56,-21259.485,-11790.45,-6265.349999999999
1764434894.406525,-330.12,-8801.64,-37322.37,-24730.74,-20561.22,-21266.55,-11776.005,-6252.974999999999
1764434894.406525,-341.145,-8815.005,-37327.68,-24740.64,-20566.665,-21283.785,-11766.69,-6248.07
1764434894.406525,-350.325,-8820.404999999999,-37327.14,-24747.48,-20572.47,-21304.665,-11761.155,-6245.235
1764434894.406525,-347.04,-8813.43,-37320.93,-24747.345,-20572.425,-21310.515,-11759.895,-6243.615
1764434894.407532,-352.485,-8820.045,-37332.9,-24757.065,-20577.285,-21305.97,-11764.845,-6253.2
1764434894.407532,-367.92,-8836.965,-37348.695,-24755.265,-20571.345,-21288.78,-11771.505,-6263.955
1764434894.407532,-338.535,-8810.91,-37333.71,-24738.525,-20563.38,-21274.515,-11779.875,-6257.205
1764434894.407532,-335.34,-8806.41,-37336.275,-24731.73,-20553.3,-21249.18,-11790.54,-6271.605
1764434894.407532,-343.755,-8812.08,-37330.875,-24723.945,-20554.11,-21244.275,-11792.385,-6275.79
1764434894.407532,-320.67,-8801.055,-37326.015,-24730.245,-20570.445,-21268.755,-11786.445,-6253.155
1764434894.407532,-323.595,-8795.565,-37313.865,-24722.28,-20560.77,-21271.23,-11778.345,-6254.955
1764434894.407532,-362.565,-8828.64,-37337.535,-24746.715,-20570.13,-21288.87,-11773.44,-6264.45
1764434894.407532,-361.665,-8835.39,-37344.87,-24764.22,-20584.17,-21317.715,-11768.76,-6248.61
1764434894.407532,-349.2,-8817.615,-37327.005,-24754.41,-20578.365,-21320.865,-11763.99,-6241.41
1764434894.407532,-353.88,-8818.92,-37329.705,-24748.92,-20572.56,-21308.175,-11769.48,-6249.915
1764434894.407532,-353.79,-8821.98,-37330.29,-24740.955,-20567.97,-21293.955,-11779.605,-6259.77
1764434894.4515653,-343.17,-8816.445,-37335.105,-24747.57,-20580.84,-21287.745,-11788.02,-6263.82
1764434894.4515653,-332.37,-8804.205,-37326.33,-24726.69,-20561.355,-21258.18,-11792.97,-6268.5
1764434894.4515653,-326.7,-8795.789999999999,-37319.22,-24719.805,-20555.415,-21248.37,-11791.26,-6267.06
1764434894.4515653,-328.545,-8800.695,-37325.52,-24729.165,-20560.185,-21256.02,-11787.48,-6261.75
1764434894.4515653,-331.47,-8801.279999999999,-37320.66,-24731.145,-20563.92,-21271.905,-11779.695,-6256.08
1764434894.4515653,-348.795,-8824.77,-37336.23,-24745.095,-20570.94,-21290.535,-11768.895,-6249.105
1764434894.4515653,-347.67,-8820.539999999999,-37328.805,-24749.415,-20573.28,-21307.545,-11764.845,-6240.06
1764434894.4515653,-342.045,-8806.005,-37312.83,-24741.135,-20565.72,-21305.835,-11761.515,-6241.094999999999
1764434894.4515653,-357.39,-8824.815,-37328.445,-24741.225,-20558.205,-21288.375,-11758.095,-6249.825
1764434894.4515653,-362.16,-8836.154999999999,-37346.625,-24753.285,-20576.79,-21298.905,-11772.765,-6258.69
1764434894.4515653,-336.015,-8803.89,-37327.905,-24739.695,-20573.28,-21287.97,-11785.41,-6261.165
1764434894.4515653,-327.33,-8800.154999999999,-37330.965,-24733.845,-20565.315,-21260.745,-11787.84,-6262.29
1764434894.4515653,-334.485,-8809.695,-37336.545,-24731.055,-20563.695,-21255.21,-11792.88,-6268.77
1764434894.4515653,-324.045,-8792.505,-37312.245,-24716.61,-20559.51,-21260.745,-11783.79,-6258.465
1764434894.4525805,-339.435,-8809.56,-37321.29,-24725.7,-20558.88,-21269.52,-11775.06,-6257.295
1764434894.4525805,-347.94,-8811.27,-37318.455,-24734.34,-20563.155,-21288.33,-11776.095,-6260.355
1764434894.4525805,-348.93,-8822.744999999999,-37329.165,-24753.69,-20580.075,-21315.195,-11758.815,-6239.07
1764434894.4525805,-349.965,-8821.395,-37324.755,-24753.915,-20583.54,-21323.61,-11757.69,-6235.965
1764434894.4525805,-346.68,-8813.744999999999,-37322.01,-24748.83,-20578.14,-21310.83,-11761.695,-6241.32
1764434894.4525805,-344.97,-8812.17,-37326.465,-24746.94,-20573.91,-21294.99,-11770.38,-6250.455
1764434894.4525805,-341.865,-8813.565,-37335.42,-24746.13,-20570.58,-21275.37,-11780.1,-6258.24
1764434894.4525805,-333.135,-8805.24,-37333.35,-24738.03,-20566.305,-21259.755,-11791.62,-6267.195
1764434894.4982736,-324.72,-8797.635,-37327.59,-24728.76,-20558.385,-21249.09,-11789.73,-6263.955
1764434894.4982736,-332.055,-8807.985,-37335.105,-24733.26,-20556.81,-21250.89,-11783.79,-6261.929999999999
1764434894.499282,-336.825,-8810.324999999999,-37325.61,-24727.14,-20551.005,-21261.42,-11773.89,-6253.11
1764434894.499282,-340.155,-8809.154999999999,-37314.315,-24730.155,-20560.365,-21285.765,-11766.24,-6245.955
1764434894.499282,-344.34,-8809.605,-37307.745,-24733.26,-20563.875,-21302.64,-11754.945,-6238.349999999999
1764434894.499282,-353.835,-8822.43,-37321.425,-24745.005,-20569.095,-21308.805,-11755.62,-6240.645
1764434894.499282,-345.6,-8813.025,-37320.48,-24744.465,-20569.41,-21302.82,-11762.505,-6242.58
1764434894.499282,-345.015,-8809.695,-37322.415,-24738.345,-20561.895,-21284.955,-11771.82,-6253.469999999999
1764434894.4997942,-335.07,-8803.35,-37321.29,-24726.105,-20548.845,-21258.765,-11778.12,-6256.755
1764434894.4997942,-318.285,-8797.86,-37325.565,-24722.055,-20547.09,-21243.87,-11780.145,-6252.255
1764434894.4997942,-328.365,-8802.99,-37331.82,-24727.725,-20546.865,-21235.95,-11785.995,-6267.645
1764434894.4997942,-346.68,-8819.82,-37347.255,-24742.935,-20552.31,-21244.86,-11778.93,-6268.59
1764434894.4997942,-334.125,-8816.445,-37348.965,-24747.93,-20556.495,-21264.93,-11772.0,-6244.38
1764434894.4997942,-335.475,-8812.035,-37326.78,-24729.885,-20552.895,-21281.31,-11762.82,-6240.24
1764434894.4997942,-351.405,-8818.244999999999,-37311.255,-24733.89,-20566.44,-21304.89,-11758.275,-6241.95
1764434894.4997942,-335.025,-8796.33,-37291.455,-24733.305,-20579.265,-21320.37,-11753.64,-6231.87
1764434894.4997942,-342.495,-8807.535,-37310.175,-24736.185,-20571.165,-21307.68,-11758.635,-6239.07
1764434894.50081,-343.935,-8814.33,-37323.54,-24738.03,-20568.51,-21291.345,-11769.165,-6247.889999999999
1764434894.50081,-328.68,-8795.52,-37313.82,-24726.195,-20561.895,-21273.57,-11779.65,-6254.19
1764434894.50081,-330.39,-8802.81,-37329.39,-24731.775,-20565.45,-21260.835,-11786.04,-6259.905
1764434894.50081,-321.075,-8796.33,-37323.81,-24725.745,-20562.525,-21256.83,-11789.055,-6258.645
1764434894.501804,-326.52,-8799.75,-37322.73,-24727.095,-20562.93,-21263.04,-11783.52,-6257.115
1764434894.502535,-332.145,-8803.215,-37319.445,-24730.38,-20564.55,-21275.37,-11774.79,-6250.139999999999
1764434894.502535,-342.495,-8812.664999999999,-37322.145,-24741.225,-20572.065,-21295.755,-11769.12,-6246.495
1764434894.543888,-345.105,-8815.095,-37323.63,-24751.125,-20575.17,-21309.66,-11758.365,-6239.115
1764434894.543888,-355.59,-8822.699999999999,-37333.305,-24761.07,-20576.34,-21313.08,-11757.465,-6245.865
1764434894.543888,-368.73,-8826.93,-37331.955,-24745.455,-20560.995,-21293.145,-11763.0,-6259.094999999999
1764434894.543888,-349.74,-8810.865,-37314.495,-24726.33,-20561.535,-21287.565,-11769.39,-6252.75
1764434894.543888,-345.555,-8821.035,-37335.33,-24740.55,-20573.145,-21279.915,-11781.405,-6255.54
1764434894.543888,-322.605,-8795.43,-37323.63,-24723.81,-20555.415,-21249.63,-11787.75,-6259.139999999999
1764434894.5448935,-313.83,-8783.775,-37311.57,-24714.18,-20553.21,-21248.37,-11786.94,-6253.02
1764434894.5448935,-324.72,-8790.84,-37306.845,-24705.945,-20543.895,-21246.03,-11776.77,-6252.615
1764434894.5448935,-334.62,-8808.345,-37323.765,-24728.265,-20557.845,-21267.27,-11769.435,-6245.91
1764434894.5448935,-340.425,-8816.445,-37328.895,-24741.81,-20565.72,-21287.655,-11765.16,-6240.915
1764434894.5448935,-356.445,-8826.705,-37331.28,-24750.855,-20572.83,-21306.51,-11757.735,-6242.04
1764434894.5448935,-354.915,-8820.855,-37326.555,-24753.15,-20581.155,-21318.795,-11758.455,-6240.15
1764434894.5448935,-344.25,-8810.82,-37320.435,-24745.455,-20574.18,-21303.99,-11757.375,-6238.349999999999
1764434894.5448935,-342.0,-8814.285,-37328.49,-24740.595,-20567.295,-21285.855,-11764.08,-6244.514999999999
1764434894.5448935,-331.875,-8803.44,-37323.855,-24734.025,-20567.52,-21274.2,-11777.805,-6251.715
1764434894.5448935,-326.16,-8795.654999999999,-37322.145,-24724.935,-20560.59,-21254.04,-11788.155,-6262.38
1764434894.5456307,-325.305,-8795.25,-37320.255,-24718.32,-20552.985,-21243.915,-11787.165,-6261.615
1764434894.5456307,-323.055,-8796.015,-37321.29,-24722.1,-20548.665,-21243.105,-11775.87,-6250.815
1764434894.5466435,-331.155,-8803.395,-37326.78,-24731.46,-20549.565,-21254.265,-11764.62,-6248.79
1764434894.5466435,-353.295,-8828.775,-37336.68,-24739.695,-20560.365,-21286.08,-11761.02,-6245.19
1764434894.5466435,-343.665,-8811.99,-37310.31,-24732.855,-20566.665,-21309.525,-11756.115,-6233.49
1764434894.5476527,-342.81,-8809.695,-37309.41,-24738.795,-20572.11,-21313.08,-11751.21,-6231.195
1764434894.5904891,-342.0,-8809.605,-37313.955,-24736.905,-20567.34,-21301.515,-11757.195,-6237.405
1764434894.5904891,-340.02,-8805.96,-37317.24,-24733.26,-20562.48,-21284.505,-11770.965,-6251.445
1764434894.5904891,-336.645,-8799.21,-37316.925,-24724.845,-20552.895,-21260.295,-11776.59,-6260.264999999999
1764434894.5915003,-328.05,-8801.505,-37329.975,-24729.705,-20556.0,-21248.415,-11781.27,-6258.554999999999
1764434894.5915003,-328.14,-8804.744999999999,-37337.715,-24732.99,-20551.14,-21238.155,-11782.845,-6264.719999999999
1764434894.5915003,-362.07,-8826.119999999999,-37339.02,-24725.655,-20538.54,-21235.5,-11777.22,-6273.405
1764434894.5915003,-330.165,-8815.005,-37339.245,-24740.955,-20563.695,-21272.175,-11768.895,-6237.495
1764434894.5915003,-320.715,-8801.865,-37320.705,-24738.39,-20574.0,-21299.13,-11763.045,-6226.245
1764434894.5924969,-339.57,-8807.039999999999,-37314.0,-24738.705,-20570.67,-21307.545,-11755.89,-6235.29
1764434894.592902,-356.085,-8811.72,-37313.28,-24743.52,-20571.795,-21312.63,-11756.52,-6244.29
1764434894.592902,-347.49,-8818.785,-37326.24,-24746.13,-20572.695,-21306.42,-11756.79,-6234.3
1764434894.592902,-340.02,-8812.845,-37323.945,-24735.42,-20568.375,-21290.715,-11764.44,-6238.889999999999
1764434894.592902,-326.835,-8798.445,-37319.715,-24729.12,-20567.43,-21274.515,-11774.7,-6245.505
1764434894.5934975,-320.895,-8791.154999999999,-37319.355,-24720.795,-20556.18,-21252.105,-11782.665,-6257.205
1764434894.5934975,-326.025,-8801.369999999999,-37334.835,-24732.045,-20561.175,-21252.465,-11787.705,-6259.86
1764434894.5934975,-331.47,-8807.265,-37337.625,-24731.73,-20557.08,-21255.705,-11780.82,-6255.764999999999
1764434894.5934975,-337.275,-8809.065,-37323.765,-24723.945,-20553.435,-21267.855,-11771.505,-6249.735
1764434894.5934975,-345.87,-8813.34,-37318.68,-24737.805,-20568.645,-21295.215,-11768.13,-6246.36
1764434894.5934975,-349.56,-8818.244999999999,-37321.425,-24748.155,-20574.63,-21311.64,-11758.23,-6237.405
1764434894.5934975,-349.425,-8817.975,-37322.505,-24749.145,-20573.01,-21312.63,-11755.935,-6235.605
1764434894.5944955,-351.945,-8821.71,-37332.945,-24754.455,-20574.36,-21306.465,-11764.755,-6244.514999999999
1764434894.5944955,-347.67,-8816.445,-37330.02,-24743.16,-20565.855,-21288.105,-11773.8,-6252.03
1764434894.5944955,-341.46,-8807.039999999999,-37324.26,-24730.47,-20556.675,-21264.12,-11781.99,-6260.76
1764434894.5944955,-332.37,-8804.475,-37328.805,-24722.73,-20549.205,-21244.635,-11788.965,-6263.82
1764434894.637372,-324.09,-8798.535,-37323.765,-24721.695,-20558.43,-21252.915,-11789.685,-6258.645
1764434894.637372,-325.17,-8797.545,-37320.795,-24725.34,-20560.815,-21260.745,-11784.015,-6254.55
1764434894.637372,-330.345,-8800.92,-37323.315,-24731.82,-20560.68,-21270.78,-11776.455,-6252.57
1764434894.637372,-346.995,-8814.555,-37325.16,-24738.795,-20564.37,-21289.005,-11766.195,-6248.205
1764434894.637372,-360.135,-8829.99,-37333.665,-24754.455,-20578.77,-21315.195,-11762.325,-6244.469999999999
1764434894.637372,-368.73,-8841.914999999999,-37345.455,-24763.635,-20582.955,-21317.58,-11764.395,-6251.58
1764434894.637372,-354.375,-8815.59,-37321.38,-24742.08,-20569.095,-21303.765,-11768.94,-6253.92
1764434894.637372,-359.64,-8821.619999999999,-37329.48,-24739.605,-20565.405,-21286.395,-11776.995,-6260.58
1764434894.6383843,-334.395,-8808.39,-37333.35,-24738.075,-20567.295,-21274.245,-11786.31,-6257.7
1764434894.6383843,-329.13,-8802.135,-37332.765,-24732.945,-20566.395,-21261.015,-11793.105,-6263.639999999999
1764434894.6383843,-333.495,-8806.005,-37337.13,-24732.585,-20561.985,-21254.67,-11793.78,-6264.764999999999
1764434894.6383843,-340.74,-8814.6,-37336.275,-24727.905,-20552.94,-21252.24,-11784.51,-6261.795
1764434894.6383843,-349.29,-8817.93,-37330.65,-24732.63,-20560.32,-21272.895,-11782.395,-6263.46
1764434894.6383843,-354.06,-8817.119999999999,-37327.86,-24740.55,-20564.19,-21290.715,-11775.015,-6258.915
1764434894.6383843,-364.68,-8826.164999999999,-37324.935,-24742.62,-20569.68,-21311.145,-11762.73,-6249.105
1764434894.6383843,-362.61,-8835.029999999999,-37336.77,-24761.835,-20592.18,-21333.87,-11769.255,-6244.605
1764434894.6383843,-343.62,-8812.71,-37327.23,-24755.715,-20586.555,-21317.85,-11772.405,-6246.54
1764434894.6383843,-363.825,-8826.57,-37337.04,-24749.46,-20573.73,-21291.795,-11776.545,-6265.349999999999
1764434894.6383843,-343.845,-8809.605,-37326.105,-24733.305,-20566.305,-21273.84,-11787.48,-6263.099999999999
1764434894.6383843,-324.54,-8794.98,-37327.905,-24730.515,-20565.855,-21260.25,-11797.56,-6266.52
1764434894.6383843,-328.815,-8796.015,-37325.385,-24721.065,-20552.265,-21245.625,-11797.02,-6273.315
1764434894.6393828,-359.28,-8827.38,-37344.87,-24738.39,-20559.51,-21255.525,-11788.335,-6275.205
1764434894.6393828,-338.67,-8815.095,-37334.79,-24744.78,-20574.99,-21285.495,-11781.045,-6250.77
1764434894.6393828,-346.23,-8816.4,-37326.69,-24745.32,-20578.905,-21304.62,-11774.97,-6248.745
1764434894.6840425,-350.775,-8820.765,-37334.115,-24756.3,-20575.08,-21311.91,-11765.655,-6242.58
1764434894.6840425,-360.315,-8831.744999999999,-37342.935,-24761.655,-20583.945,-21324.825,-11766.6,-6247.98
1764434894.6840425,-354.96,-8820.135,-37325.07,-24750.405,-20588.085,-21321.63,-11770.92,-6249.195
1764434894.6840425,-350.19,-8820.135,-37334.52,-24751.035,-20586.33,-21305.205,-11780.145,-6254.415
1764434894.6840425,-342.54,-8812.71,-37337.085,-24744.78,-20579.535,-21285.225,-11790.855,-6264.764999999999
1764434894.6840425,-331.965,-8801.279999999999,-37336.905,-24738.165,-20570.805,-21264.615,-11796.705,-6269.13
1764434894.6840425,-339.615,-8813.835,-37346.805,-24738.255,-20563.2,-21254.31,-11794.905,-6271.02
1764434894.6840425,-345.465,-8819.955,-37341.315,-24736.275,-20563.83,-21264.165,-11790.765,-6267.105
1764434894.6840425,-334.395,-8804.205,-37317.87,-24734.295,-20570.94,-21284.64,-11781.045,-6253.02
1764434894.6840425,-349.02,-8818.965,-37326.78,-24746.67,-20579.4,-21303.99,-11774.34,-6247.755
1764434894.6840425,-356.355,-8821.89,-37323.45,-24748.695,-20579.04,-21316.095,-11764.62,-6245.865
1764434894.6840425,-359.37,-8827.875,-37337.535,-24762.915,-20587.725,-21327.03,-11766.06,-6246.764999999999
1764434894.6840425,-361.89,-8832.735,-37347.03,-24763.455,-20583.99,-21314.655,-11773.935,-6254.73
1764434894.6840425,-358.02,-8826.39,-37334.16,-24748.2,-20578.275,-21298.59,-11783.52,-6262.92
1764434894.6840425,-338.265,-8804.744999999999,-37320.615,-24733.71,-20572.605,-21280.5,-11788.065,-6262.56
1764434894.6840425,-334.665,-8803.08,-37327.05,-24726.465,-20561.715,-21257.73,-11795.67,-6270.795
1764434894.6840425,-341.28,-8813.205,-37335.105,-24729.39,-20563.605,-21257.415,-11797.065,-6272.099999999999
1764434894.6840425,-338.985,-8814.33,-37337.805,-24743.88,-20576.52,-21276.855,-11795.985,-6264.9
1764434894.6840425,-340.605,-8814.015,-37334.025,-24746.31,-20572.695,-21283.605,-11783.79,-6256.035
1764434894.6840425,-358.695,-8828.64,-37336.14,-24748.965,-20571.705,-21296.79,-11775.375,-6257.429999999999
1764434894.6840425,-360.585,-8828.64,-37328.67,-24754.185,-20587.05,-21329.1,-11771.01,-6249.105
1764434894.6840425,-356.265,-8823.375,-37326.465,-24756.39,-20586.15,-21328.47,-11766.6,-6245.865
1764434894.7323632,-359.64,-8823.869999999999,-37331.37,-24753.285,-20575.755,-21309.975,-11773.665,-6257.88
1764434894.7323632,-362.34,-8825.58,-37332.81,-24742.395,-20565.315,-21288.375,-11784.33,-6269.175
1764434894.7323632,-342.36,-8823.69,-37347.3,-24755.085,-20581.695,-21284.325,-11787.93,-6260.49
1764434894.7323632,-315.54,-8793.585,-37331.73,-24740.73,-20570.13,-21262.5,-11794.185,-6262.92
1764434894.7323632,-334.935,-8803.664999999999,-37330.83,-24725.79,-20546.055,-21235.905,-11792.25,-6280.38
1764434894.7323632,-362.115,-8831.25,-37343.88,-24736.995,-20559.555,-21257.685,-11786.76,-6276.87
1764434894.7323632,-347.445,-8823.645,-37331.28,-24738.795,-20573.775,-21290.22,-11782.035,-6254.594999999999
1764434894.7323632,-334.35,-8805.15,-37314.63,-24740.64,-20577.555,-21309.03,-11772.18,-6242.355
1764434894.7323632,-359.37,-8832.645,-37338.705,-24759.315,-20575.485,-21311.505,-11763.72,-6249.599999999999
1764434894.7323632,-357.885,-8837.369999999999,-37351.665,-24775.74,-20588.985,-21321.09,-11764.305,-6247.665
1764434894.7323632,-363.15,-8830.755,-37335.24,-24756.075,-20582.64,-21311.73,-11768.4,-6251.76
1764434894.7323632,-341.145,-8811.315,-37319.535,-24737.13,-20580.705,-21308.67,-11778.435,-6249.285
1764434894.7323632,-333.09,-8804.025,-37323.225,-24737.535,-20579.76,-21288.015,-11788.065,-6258.915
1764434894.7323632,-334.575,-8806.095,-37329.75,-24734.07,-20577.42,-21273.975,-11799.855,-6271.83
1764434894.7323632,-334.035,-8806.815,-37330.74,-24733.665,-20575.08,-21270.105,-11799.99,-6271.83
1764434894.7323632,-335.475,-8809.965,-37331.415,-24737.805,-20573.055,-21273.615,-11789.955,-6263.28
1764434894.7323632,-339.255,-8812.98,-37327.995,-24741.09,-20576.565,-21290.445,-11781.855,-6255.945
1764434894.7323632,-350.145,-8822.115,-37330.74,-24750.27,-20580.48,-21308.04,-11774.295,-6252.165
1764434894.7323632,-357.57,-8822.744999999999,-37324.755,-24749.415,-20577.465,-21319.065,-11770.965,-6251.715
1764434894.7323632,-360.045,-8822.34,-37320.12,-24744.42,-20574.045,-21317.895,-11768.67,-6253.38
1764434894.7323632,-341.865,-8815.949999999999,-37329.03,-24753.735,-20584.215,-21319.29,-11768.265,-6242.445
1764434894.7333708,-346.59,-8815.5,-37333.395,-24745.23,-20569.995,-21289.77,-11773.89,-6258.599999999999
1764434894.7742145,-367.29,-8843.895,-37363.05,-24761.52,-20582.46,-21282.525,-11790.0,-6274.08
1764434894.7742145,-330.75,-8805.779999999999,-37340.1,-24746.445,-20576.97,-21268.935,-11798.595,-6266.925
1764434894.7742145,-341.37,-8817.255,-37345.635,-24739.02,-20561.175,-21253.14,-11795.04,-6272.19
1764434894.7752242,-335.16,-8805.015,-37324.665,-24730.965,-20570.58,-21277.665,-11795.895,-6266.16
1764434894.7752242,-329.13,-8799.705,-37318.275,-24735.78,-20576.34,-21294.63,-11781.54,-6250.185
1764434894.7752242,-347.49,-8817.66,-37327.68,-24748.47,-20579.94,-21309.48,-11773.665,-6249.195
1764434894.7762487,-361.62,-8831.025,-37334.025,-24757.335,-20584.935,-21325.095,-11768.445,-6249.78
1764434894.7762487,-360.18,-8829.585,-37333.62,-24758.82,-20586.24,-21326.58,-11768.445,-6250.32
1764434894.7762487,-354.465,-8823.824999999999,-37336.23,-24759.315,-20581.515,-21311.82,-11772.045,-6252.03
1764434894.7762487,-351.18,-8821.26,-37341.855,-24756.795,-20575.305,-21293.46,-11780.955,-6260.04
1764434894.7762487,-345.015,-8814.105,-37339.245,-24742.08,-20564.64,-21271.095,-11789.46,-6267.599999999999
1764434894.7762487,-340.38,-8813.789999999999,-37343.205,-24734.61,-20559.15,-21254.94,-11797.875,-6272.145
1764434894.7762487,-341.325,-8815.185,-37336.995,-24726.42,-20556.135,-21251.07,-11797.38,-6274.575
1764434894.7762487,-337.185,-8805.24,-37319.94,-24727.68,-20565.945,-21269.07,-11790.63,-6267.465
1764434894.7762487,-342.99,-8812.08,-37325.52,-24740.82,-20572.695,-21285.675,-11781.315,-6258.195
1764434894.7762487,-365.22,-8833.545,-37339.425,-24753.87,-20575.89,-21301.695,-11774.97,-6259.86
1764434894.7762487,-363.51,-8828.73,-37326.87,-24746.22,-20574.09,-21318.885,-11768.535,-6248.115
1764434894.7762487,-358.695,-8816.805,-37318.005,-24743.115,-20570.265,-21312.495,-11765.565,-6252.929999999999
1764434894.7762487,-354.33,-8816.67,-37327.275,-24748.965,-20575.305,-21308.805,-11771.91,-6255.495
1764434894.7762487,-347.625,-8824.455,-37348.02,-24759.765,-20582.055,-21298.455,-11774.88,-6252.84
1764434894.7762487,-343.53,-8817.255,-37347.57,-24744.285,-20565.36,-21270.555,-11787.84,-6267.599999999999
1764434894.7762487,-341.73,-8817.435,-37339.56,-24726.105,-20552.85,-21248.19,-11792.565,-6271.469999999999
1764434894.7777686,-324.27,-8796.015,-37317.465,-24724.53,-20562.435,-21255.165,-11792.43,-6263.415
1764434894.7777686,-331.155,-8807.039999999999,-37332.495,-24737.445,-20561.715,-21261.24,-11781.72,-6256.665
1764434894.824929,-342.855,-8821.664999999999,-37343.655,-24747.21,-20564.82,-21277.215,-11780.145,-6255.135
1764434894.824929,-352.035,-8818.56,-37317.24,-24733.62,-20564.955,-21296.205,-11776.32,-6254.46
1764434894.824929,-358.56,-8824.725,-37318.14,-24748.515,-20585.52,-21324.15,-11767.995,-6250.679999999999
1764434894.8264666,-352.62,-8827.515,-37336.905,-24765.21,-20586.285,-21319.605,-11767.635,-6248.34
1764434894.8264666,-365.49,-8833.994999999999,-37342.305,-24760.845,-20578.95,-21304.755,-11773.305,-6263.054999999999
1764434894.8264666,-370.575,-8828.055,-37331.73,-24741.45,-20571.57,-21294.855,-11785.905,-6270.929999999999
1764434894.8264666,-328.545,-8801.865,-37324.845,-24732.99,-20570.355,-21283.335,-11791.305,-6254.235
1764434894.8274784,-341.145,-8811.855,-37331.955,-24722.28,-20550.465,-21245.895,-11794.725,-6272.73
1764434894.8274784,-335.565,-8810.505,-37332.09,-24732.135,-20566.395,-21258.27,-11796.57,-6266.52
1764434894.8274784,-321.93,-8801.145,-37326.42,-24737.715,-20573.055,-21271.905,-11782.62,-6248.88
1764434894.8274784,-333.63,-8807.895,-37322.235,-24736.005,-20571.345,-21287.115,-11774.835,-6246.945
1764434894.8274784,-345.69,-8816.94,-37320.705,-24742.71,-20576.88,-21309.345,-11769.93,-6244.695
1764434894.8284836,-356.22,-8825.49,-37325.25,-24753.555,-20584.215,-21325.32,-11765.61,-6243.66
1764434894.8284836,-357.525,-8826.795,-37328.085,-24755.895,-20583.09,-21323.745,-11765.745,-6245.28
1764434894.8284836,-351.27,-8821.215,-37327.95,-24750.405,-20577.375,-21308.13,-11770.2,-6248.115
1764434894.8284836,-347.445,-8818.154999999999,-37329.705,-24745.905,-20575.215,-21293.82,-11780.1,-6256.755
1764434894.829482,-341.505,-8811.81,-37330.695,-24738.12,-20569.32,-21274.29,-11790.09,-6266.385
1764434894.829482,-337.95,-8810.055,-37336.545,-24736.815,-20566.71,-21259.845,-11798.325,-6273.54
1764434894.829482,-335.52,-8802.99,-37328.13,-24729.03,-20559.96,-21253.5,-11796.84,-6273.045
1764434894.829482,-338.13,-8812.98,-37331.82,-24735.33,-20566.17,-21268.305,-11783.115,-6257.429999999999
1764434894.829482,-343.575,-8815.095,-37325.565,-24735.465,-20566.53,-21281.895,-11776.455,-6253.65
1764434894.830486,-348.39,-8817.074999999999,-37322.595,-24742.89,-20571.48,-21300.705,-11770.38,-6247.395
1764434894.830486,-343.395,-8819.775,-37327.815,-24755.94,-20579.445,-21318.975,-11759.22,-6233.264999999999
1764434894.830486,-356.715,-8823.15,-37329.255,-24757.515,-20575.89,-21315.6,-11762.73,-6248.474999999999
1764434894.8704748,-364.77,-8831.97,-37345.455,-24764.76,-20574.99,-21303.045,-11772.27,-6258.33
1764434894.8704748,-365.94,-8840.115,-37354.05,-24760.35,-20572.92,-21287.655,-11782.44,-6263.37
1764434894.8714724,-343.08,-8813.789999999999,-37331.775,-24737.13,-20567.88,-21271.995,-11789.595,-6265.26
1764434894.8714724,-326.205,-8794.89,-37320.795,-24731.055,-20572.335,-21267.9,-11796.66,-6265.215
1764434894.8714724,-323.505,-8791.965,-37320.345,-24729.48,-20565.675,-21259.62,-11792.475,-6262.469999999999
1764434894.8714724,-343.845,-8811.045,-37328.67,-24732.54,-20561.085,-21261.195,-11786.355,-6268.635
1764434894.872471,-347.715,-8812.89,-37325.655,-24737.85,-20566.035,-21278.52,-11780.37,-6264.224999999999
1764434894.872471,-369.18,-8828.505,-37327.185,-24744.51,-20567.88,-21297.87,-11771.82,-6263.594999999999
1764434894.8728428,-375.975,-8851.32,-37353.645,-24772.455,-20586.465,-21323.655,-11764.845,-6247.889999999999
1764434894.8728428,-352.305,-8823.869999999999,-37334.565,-24762.015,-20587.59,-21329.37,-11769.03,-6243.12
1764434894.8728428,-352.35,-8817.93,-37326.69,-24746.805,-20574.0,-21306.195,-11771.505,-6250.23
1764434894.8728428,-345.465,-8815.275,-37324.71,-24742.17,-20575.98,-21293.82,-11778.165,-6251.219999999999
1764434894.873551,-342.945,-8813.789999999999,-37329.57,-24735.015,-20563.11,-21261.96,-11786.67,-6268.185
1764434894.873551,-351.27,-8811.045,-37326.105,-24727.59,-20557.53,-21247.47,-11796.57,-6283.889999999999
1764434894.873551,-327.465,-8800.965,-37325.115,-24730.83,-20569.05,-21265.74,-11796.48,-6262.02
1764434894.873551,-324.45,-8798.49,-37318.815,-24729.615,-20566.98,-21273.615,-11786.355,-6251.04
1764434894.873551,-342.675,-8813.295,-37325.205,-24739.83,-20570.355,-21286.08,-11778.66,-6254.955
1764434894.873551,-356.445,-8821.845,-37324.08,-24746.355,-20575.035,-21305.97,-11773.935,-6253.2
1764434894.873551,-356.49,-8824.455,-37326.195,-24756.12,-20582.82,-21323.565,-11766.42,-6243.75
1764434894.8745582,-354.33,-8824.095,-37330.605,-24760.755,-20585.295,-21323.88,-11764.215,-6242.58
1764434894.8745582,-351.045,-8820.675,-37331.955,-24758.505,-20581.785,-21309.255,-11769.39,-6248.07
1764434894.8745582,-346.995,-8815.455,-37331.64,-24750.09,-20571.615,-21285.855,-11778.48,-6258.105
1764434894.9151323,-342.855,-8810.279999999999,-37330.695,-24733.935,-20555.505,-21257.64,-11789.37,-6270.12
1764434894.9161465,-340.56,-8814.735,-37348.875,-24747.075,-20565.09,-21254.76,-11793.825,-6270.795
1764434894.9161465,-342.9,-8826.345,-37362.645,-24746.76,-20556.18,-21246.21,-11791.845,-6269.264999999999
1764434894.9161465,-344.115,-8816.175,-37327.14,-24729.03,-20565.0,-21273.255,-11792.565,-6267.554999999999
1764434894.9161465,-336.24,-8807.49,-37312.56,-24733.17,-20574.81,-21293.73,-11779.695,-6252.21
1764434894.9161465,-349.245,-8821.44,-37323.09,-24745.77,-20578.23,-21310.245,-11773.215,-6250.185
1764434894.9171474,-359.01,-8819.1,-37312.335,-24745.725,-20580.255,-21322.8,-11769.39,-6252.255
1764434894.9181511,-359.055,-8820.09,-37317.78,-24751.215,-20581.2,-21320.865,-11770.29,-6256.349999999999
1764434894.9181511,-376.56,-8840.34,-37337.67,-24759.495,-20582.37,-21308.445,-11776.005,-6264.945
1764434894.9181511,-353.16,-8830.26,-37341.405,-24754.995,-20581.92,-21298.14,-11786.76,-6258.825
1764434894.9181511,-338.445,-8813.295,-37334.97,-24747.84,-20581.11,-21286.53,-11797.2,-6265.98
1764434894.919147,-329.445,-8802.675,-37330.425,-24736.905,-20570.22,-21267.315,-11800.8,-6268.815
1764434894.919147,-330.39,-8803.98,-37330.38,-24731.01,-20559.42,-21255.795,-11794.41,-6265.485
1764434894.919147,-340.695,-8814.33,-37334.025,-24738.885,-20566.845,-21271.05,-11791.305,-6265.17
1764434894.919147,-340.245,-8808.39,-37321.56,-24738.975,-20567.745,-21283.245,-11782.575,-6258.42
1764434894.919147,-343.08,-8812.8,-37321.245,-24749.415,-20573.955,-21303.09,-11768.715,-6245.099999999999
1764434894.919147,-361.08,-8833.455,-37332.54,-24755.04,-20572.965,-21311.28,-11757.87,-6243.705
1764434894.9201472,-378.54,-8835.525,-37320.57,-24740.595,-20569.815,-21312.9,-11771.235,-6263.505
1764434894.9201472,-351.99,-8820.765,-37326.645,-24754.455,-20590.965,-21324.195,-11778.165,-6251.264999999999
1764434894.9201472,-343.89,-8821.08,-37341.945,-24760.395,-20588.625,-21305.565,-11779.74,-6252.929999999999
1764434894.9201472,-341.82,-8816.805,-37341.81,-24747.165,-20573.685,-21275.64,-11790.405,-6264.719999999999
1764434894.9201472,-335.025,-8807.445,-37334.43,-24734.295,-20562.12,-21254.13,-11796.21,-6269.895
1764434894.9201472,-334.305,-8802.135,-37321.11,-24722.73,-20558.88,-21253.77,-11794.77,-6270.255
1764434894.9201472,-334.305,-8803.35,-37319.805,-24729.165,-20564.415,-21269.475,-11788.56,-6261.344999999999
1764434894.9663098,-339.435,-8813.744999999999,-37327.815,-24739.605,-20564.595,-21278.79,-11776.005,-6249.554999999999
1764434894.9663098,-362.16,-8833.41,-37336.995,-24751.71,-20567.34,-21293.28,-11767.275,-6254.19
1764434894.9663098,-351.405,-8821.845,-37330.965,-24765.66,-20586.51,-21323.025,-11763.54,-6242.67
1764434894.9663098,-339.84,-8805.42,-37320.255,-24760.755,-20583.63,-21319.605,-11761.425,-6237.719999999999
1764434894.9663098,-357.66,-8830.619999999999,-37345.05,-24760.89,-20572.965,-21298.05,-11766.195,-6251.804999999999
1764434894.9663098,-361.53,-8838.63,-37351.305,-24751.665,-20570.715,-21286.755,-11781.9,-6266.745
1764434894.9663098,-349.425,-8812.755,-37323.81,-24733.08,-20572.38,-21276.18,-11793.195,-6272.55
1764434894.9663098,-324.72,-8795.565,-37323.18,-24733.98,-20571.93,-21263.22,-11794.815,-6262.695
1764434894.9663098,-328.815,-8801.369999999999,-37327.23,-24730.38,-20562.165,-21255.615,-11791.215,-6262.065
1764434894.967307,-337.365,-8811.99,-37332.405,-24736.32,-20566.845,-21270.33,-11787.3,-6258.014999999999
1764434894.967307,-341.28,-8807.355,-37321.245,-24734.205,-20563.2,-21278.115,-11777.445,-6256.98
1764434894.967307,-364.86,-8832.914999999999,-37331.685,-24749.64,-20570.805,-21296.835,-11767.635,-6256.889999999999
1764434894.967307,-355.86,-8821.98,-37317.285,-24749.64,-20575.89,-21315.645,-11766.195,-6245.28
1764434894.967307,-365.94,-8824.545,-37319.04,-24745.59,-20568.33,-21307.005,-11769.525,-6259.905
1764434894.967307,-363.015,-8835.48,-37341.36,-24762.42,-20586.69,-21315.06,-11769.525,-6251.355
1764434894.967307,-348.165,-8824.815,-37344.87,-24764.715,-20592.945,-21308.715,-11787.705,-6258.105
1764434894.967307,-334.98,-8806.59,-37333.17,-24746.94,-20577.465,-21281.355,-11796.165,-6267.285
1764434894.967307,-333.585,-8806.14,-37336.905,-24742.035,-20570.22,-21262.68,-11800.44,-6272.325
1764434894.967307,-333.81,-8807.085,-37333.665,-24735.69,-20564.37,-21258.72,-11796.885,-6270.84
1764434894.967307,-340.335,-8812.44,-37328.625,-24734.16,-20563.605,-21266.955,-11789.055,-6265.755
1764434894.967307,-342.855,-8811.045,-37318.32,-24736.41,-20568.69,-21283.74,-11779.74,-6256.665
1764434894.967307,-356.805,-8827.785,-37332.0,-24754.995,-20579.085,-21305.835,-11772.945,-6253.965
1764434894.967307,-359.145,-8826.255,-37325.745,-24755.94,-20583.315,-21322.62,-11770.2,-6252.344999999999
1764434894.967307,-366.3,-8831.205,-37331.955,-24763.545,-20588.67,-21322.89,-11768.805,-6253.875
1764434895.011125,-365.76,-8835.164999999999,-37344.105,-24763.365,-20580.795,-21303.495,-11775.465,-6260.355
1764434895.011125,-356.355,-8824.365,-37333.395,-24739.245,-20565.36,-21285.09,-11787.255,-6268.094999999999
1764434895.011125,-334.44,-8804.789999999999,-37323.09,-24731.145,-20564.685,-21268.935,-11792.34,-6264.9
1764434895.011125,-327.465,-8799.795,-37324.8,-24734.61,-20565.36,-21253.77,-11798.28,-6271.065
1764434895.011125,-333.315,-8799.255,-37317.195,-24721.965,-20552.445,-21245.04,-11793.24,-6274.755
1764434895.011125,-347.22,-8820.81,-37329.57,-24738.21,-20567.655,-21267.405,-11783.97,-6261.615
1764434895.011125,-331.11,-8806.14,-37320.255,-24744.87,-20576.88,-21289.59,-11778.255,-6245.28
1764434895.011125,-348.39,-8819.505,-37329.165,-24759.405,-20579.715,-21306.24,-11770.965,-6246.405
1764434895.011125,-362.16,-8831.565,-37332.72,-24757.785,-20572.245,-21307.815,-11763.99,-6248.565
1764434895.011125,-353.385,-8823.69,-37325.52,-24753.87,-20583.99,-21322.395,-11770.785,-6247.62
1764434895.011125,-343.44,-8810.055,-37317.645,-24747.48,-20584.17,-21313.71,-11773.8,-6248.745
1764434895.011125,-347.94,-8812.529999999999,-37323.495,-24744.69,-20579.265,-21295.395,-11781.225,-6259.365
1764434895.011125,-349.47,-8819.955,-37337.58,-24743.79,-20574.405,-21275.19,-11795.04,-6270.929999999999
1764434895.011125,-343.26,-8817.119999999999,-37340.1,-24741.045,-20573.28,-21262.815,-11805.03,-6276.42
1764434895.011125,-327.465,-8803.215,-37330.515,-24739.83,-20573.865,-21264.66,-11798.28,-6263.235
1764434895.011125,-334.035,-8809.02,-37329.615,-24741.135,-20570.805,-21270.69,-11789.19,-6258.33
1764434895.011125,-343.935,-8819.279999999999,-37333.935,-24749.325,-20574.27,-21286.215,-11782.845,-6254.415
1764434895.011125,-355.14,-8824.005,-37329.21,-24753.06,-20574.27,-21299.715,-11774.655,-6252.795
1764434895.011125,-354.96,-8819.19,-37324.17,-24757.92,-20580.57,-21315.15,-11766.78,-6246.945
1764434895.011125,-370.62,-8845.74,-37354.455,-24777.225,-20590.56,-21322.89,-11770.38,-6254.145
1764434895.011125,-365.445,-8839.26,-37351.395,-24771.645,-20587.77,-21310.785,-11780.595,-6262.92
1764434895.011125,-362.565,-8828.46,-37332.495,-24746.67,-20578.77,-21291.48,-11788.83,-6269.219999999999
1764434895.056113,-324.54,-8794.215,-37310.895,-24728.4,-20574.765,-21274.785,-11792.295,-6256.035
1764434895.056113,-327.33,-8799.57,-37322.37,-24728.49,-20565.585,-21254.985,-11797.335,-6266.025
1764434895.056113,-339.57,-8810.279999999999,-37333.44,-24739.2,-20572.515,-21262.095,-11799.765,-6274.665
1764434895.056113,-340.2,-8812.485,-37331.73,-24742.98,-20575.08,-21274.29,-11790.45,-6264.585
1764434895.056113,-347.715,-8820.09,-37331.415,-24747.03,-20573.775,-21284.73,-11779.155,-6257.429999999999
1764434895.056113,-352.395,-8819.055,-37322.73,-24749.37,-20577.645,-21307.455,-11772.18,-6251.219999999999
1764434895.056113,-351.27,-8821.71,-37327.32,-24756.39,-20577.465,-21314.655,-11760.615,-6238.395
1764434895.056113,-347.76,-8820.99,-37332.63,-24756.345,-20574.27,-21309.705,-11762.37,-6239.79
1764434895.056113,-363.645,-8829.945,-37330.83,-24746.04,-20567.88,-21293.73,-11773.17,-6260.715
1764434895.056113,-348.39,-8814.105,-37319.085,-24742.485,-20576.475,-21287.295,-11782.395,-6255.9
1764434895.0581355,-335.115,-8798.4,-37312.695,-24727.32,-20561.355,-21259.305,-11793.69,-6268.23
1764434895.0581355,-324.135,-8796.869999999999,-37326.555,-24737.085,-20563.02,-21248.235,-11792.655,-6265.8
1764434895.0581355,-332.055,-8808.3,-37341.405,-24746.625,-20562.57,-21249.495,-11790.18,-6265.215
1764434895.0581355,-348.03,-8827.74,-37346.85,-24744.33,-20561.625,-21262.59,-11783.34,-6262.965
1764434895.0581355,-348.93,-8822.835,-37327.05,-24742.53,-20573.28,-21287.43,-11780.64,-6255.99
1764434895.059126,-343.395,-8810.369999999999,-37309.365,-24746.355,-20583.315,-21312.855,-11770.02,-6243.84
1764434895.059126,-346.815,-8813.88,-37311.12,-24749.01,-20579.805,-21320.73,-11761.155,-6237.405
1764434895.059863,-349.515,-8818.244999999999,-37321.29,-24755.31,-20578.365,-21313.53,-11764.395,-6243.165
1764434895.059863,-354.015,-8819.73,-37325.7,-24748.74,-20572.785,-21298.41,-11774.97,-6257.88
1764434895.059863,-362.34,-8830.35,-37334.88,-24747.795,-20572.875,-21285.27,-11780.73,-6265.215
1764434895.059863,-339.93,-8815.545,-37336.455,-24748.47,-20579.355,-21276.18,-11796.975,-6264.99
1764434895.059863,-332.55,-8802.765,-37325.025,-24732.765,-20566.71,-21257.145,-11801.385,-6272.145
1764434895.1036253,-337.68,-8808.705,-37326.825,-24733.62,-20565.81,-21257.865,-11798.73,-6270.795
1764434895.1036253,-344.07,-8815.77,-37328.94,-24741.225,-20570.04,-21271.77,-11791.305,-6266.295
1764434895.1036253,-337.815,-8811.494999999999,-37325.295,-24748.02,-20575.89,-21289.455,-11779.92,-6250.905
1764434895.1046324,-348.795,-8819.055,-37324.89,-24757.605,-20580.48,-21307.23,-11770.38,-6246.54
1764434895.1046324,-358.605,-8829.81,-37330.965,-24765.345,-20583.045,-21316.68,-11763.495,-6242.849999999999
1764434895.1046324,-356.085,-8823.645,-37323.27,-24753.195,-20574.855,-21309.705,-11765.34,-6245.235
1764434895.1046324,-348.03,-8818.92,-37325.88,-24748.515,-20570.49,-21296.385,-11769.39,-6248.34
1764434895.1046324,-334.26,-8811.9,-37331.64,-24748.29,-20569.59,-21279.69,-11779.74,-6253.155
1764434895.1046324,-316.395,-8787.735,-37311.75,-24724.53,-20554.695,-21253.23,-11786.94,-6258.78
1764434895.1046324,-360.405,-8817.164999999999,-37327.455,-24724.35,-20549.7,-21236.13,-11795.625,-6289.155
1764434895.1046324,-330.48,-8800.92,-37326.105,-24730.38,-20561.49,-21251.655,-11790.63,-6264.495
1764434895.1046324,-340.47,-8806.904999999999,-37318.365,-24725.7,-20560.995,-21268.485,-11787.3,-6262.83
1764434895.1046324,-353.43,-8820.045,-37318.59,-24737.58,-20570.445,-21286.845,-11771.775,-6250.23
1764434895.1046324,-342.99,-8817.795,-37322.91,-24755.445,-20586.105,-21317.22,-11764.17,-6233.13
1764434895.1046324,-348.12,-8820.765,-37324.26,-24758.685,-20587.05,-21325.59,-11760.795,-6234.255
1764434895.1046324,-355.005,-8819.55,-37320.21,-24750.855,-20577.24,-21313.8,-11767.095,-6246.945
1764434895.1046324,-355.86,-8827.965,-37337.355,-24762.69,-20586.78,-21310.29,-11774.565,-6252.344999999999
1764434895.1046324,-345.825,-8821.17,-37338.66,-24756.57,-20583.045,-21294.045,-11784.69,-6258.014999999999
1764434895.1046324,-336.78,-8810.955,-37333.98,-24745.23,-20575.62,-21270.465,-11793.825,-6266.88
1764434895.1046324,-330.345,-8805.24,-37332.585,-24738.3,-20565.855,-21251.205,-11797.92,-6271.695
1764434895.1046324,-337.95,-8807.94,-37326.195,-24726.195,-20551.185,-21240.99,-11790.99,-6272.054999999999
1764434895.1046324,-346.005,-8814.42,-37326.915,-24733.08,-20558.61,-21260.97,-11784.33,-6262.92
1764434895.1046324,-334.845,-8799.525,-37310.13,-24727.005,-20550.915,-21267.045,-11772.405,-6250.005
1764434895.1046324,-358.965,-8837.414999999999,-37342.665,-24760.71,-20575.215,-21301.2,-11761.38,-6243.66
1764434895.1554108,-353.475,-8827.695,-37340.73,-24768.09,-20584.665,-21325.725,-11759.67,-6236.145
1764434895.1564004,-349.92,-8826.525,-37335.555,-24756.255,-20574.765,-21311.505,-11762.55,-6235.605
1764434895.1564004,-347.58,-8816.94,-37318.59,-24743.655,-20575.035,-21299.265,-11772.495,-6247.08
1764434895.1564004,-331.425,-8796.914999999999,-37304.415,-24730.38,-20572.605,-21286.845,-11778.57,-6248.025
1764434895.1564004,-327.015,-8797.005,-37315.08,-24726.33,-20559.87,-21259.17,-11786.625,-6256.17
1764434895.1564004,-325.53,-8797.59,-37320.255,-24726.465,-20557.71,-21248.19,-11791.62,-6261.615
1764434895.1564004,-322.92,-8796.015,-37317.015,-24724.08,-20555.73,-21251.745,-11787.03,-6255.36
1764434895.1564004,-329.49,-8802.63,-37316.34,-24728.04,-20557.8,-21264.075,-11781.945,-6249.105
1764434895.1564004,-337.5,-8802.765,-37305.315,-24723.09,-20550.555,-21268.755,-11771.685,-6250.139999999999
1764434895.1564004,-350.865,-8818.289999999999,-37320.57,-24746.805,-20569.545,-21300.12,-11762.955,-6245.145
1764434895.1564004,-357.615,-8834.445,-37344.105,-24770.07,-20581.515,-21317.58,-11758.545,-6237.495
1764434895.1564004,-357.705,-8833.365,-37343.52,-24765.84,-20578.905,-21314.745,-11765.655,-6244.785
1764434895.1564004,-342.27,-8807.805,-37311.345,-24739.155,-20569.995,-21299.715,-11772.045,-6249.105
1764434895.1564004,-331.695,-8794.44,-37305.54,-24729.795,-20564.235,-21278.43,-11776.545,-6253.514999999999
1764434895.1564004,-338.49,-8814.645,-37338.525,-24743.115,-20564.685,-21258.405,-11786.355,-6264.54
1764434895.1564004,-337.59,-8817.029999999999,-37342.485,-24741.9,-20567.97,-21256.11,-11795.715,-6268.545
1764434895.1564004,-321.615,-8792.505,-37311.705,-24724.665,-20563.38,-21261.645,-11793.465,-6259.635
1764434895.1564004,-329.445,-8801.145,-37315.845,-24732.495,-20566.17,-21274.965,-11785.545,-6254.955
1764434895.1564004,-331.065,-8802.81,-37313.28,-24736.23,-20569.5,-21291.48,-11774.745,-6244.469999999999
1764434895.1564004,-343.575,-8812.17,-37315.755,-24747.615,-20580.435,-21315.465,-11769.39,-6242.76
1764434895.1564004,-354.69,-8821.755,-37319.895,-24754.275,-20582.505,-21322.665,-11763.045,-6242.085
1764434895.1564004,-351.72,-8822.34,-37326.24,-24756.615,-20581.425,-21319.38,-11764.485,-6241.094999999999
1764434895.1564004,-350.415,-8821.845,-37332.315,-24754.23,-20576.97,-21302.955,-11773.44,-6249.87
1764434895.1564004,-341.055,-8808.164999999999,-37323.36,-24741.99,-20568.105,-21280.455,-11782.035,-6256.395
1764434895.1564004,-331.92,-8802.72,-37326.24,-24734.43,-20559.06,-21254.355,-11788.02,-6261.075
1764434895.1564004,-329.49,-8796.824999999999,-37319.265,-24722.91,-20551.995,-21242.34,-11797.155,-6270.57
1764434895.1977124,-322.605,-8792.82,-37315.71,-24721.11,-20547.45,-21240.315,-11785.05,-6261.255
1764434895.1977124,-332.46,-8811.045,-37327.95,-24732.63,-20554.965,-21258.27,-11774.025,-6248.429999999999
1764434895.1977124,-346.995,-8816.58,-37323.27,-24740.64,-20566.17,-21278.7,-11772.945,-6252.344999999999
1764434895.1977124,-342.045,-8813.835,-37322.865,-24756.615,-20582.415,-21307.995,-11763.585,-6236.73
1764434895.1977124,-343.215,-8816.76,-37322.685,-24755.85,-20579.67,-21316.905,-11759.535,-6234.57
1764434895.1977124,-345.825,-8810.865,-37309.77,-24739.47,-20569.32,-21306.87,-11760.39,-6240.825
1764434895.1977124,-337.275,-8803.529999999999,-37313.64,-24740.64,-20568.375,-21292.695,-11768.265,-6246.135
1764434895.1977124,-350.865,-8810.82,-37321.02,-24735.555,-20558.52,-21266.19,-11774.565,-6263.054999999999
1764434895.1977124,-340.965,-8812.395,-37335.6,-24739.965,-20562.435,-21253.545,-11785.365,-6262.065
1764434895.1977124,-319.59,-8793.675,-37325.07,-24730.155,-20559.375,-21246.39,-11792.565,-6260.445
1764434895.1977124,-319.77,-8789.085,-37311.93,-24719.985,-20554.92,-21249.09,-11787.75,-6258.599999999999
1764434895.1977124,-332.19,-8810.82,-37327.995,-24736.815,-20561.805,-21259.8,-11771.01,-6243.705
1764434895.1977124,-335.25,-8803.935,-37313.55,-24730.875,-20555.19,-21268.755,-11765.43,-6246.135
1764434895.1977124,-361.26,-8824.994999999999,-37321.965,-24742.935,-20565.45,-21292.875,-11760.795,-6248.88
1764434895.1977124,-346.005,-8816.22,-37318.365,-24749.235,-20577.33,-21312.27,-11755.08,-6230.745
1764434895.1977124,-331.695,-8800.065,-37314.99,-24747.525,-20571.885,-21303.495,-11754.72,-6228.63
1764434895.1977124,-347.625,-8814.69,-37336.455,-24755.175,-20567.205,-21286.08,-11760.795,-6244.155
1764434895.1977124,-345.915,-8831.475,-37353.87,-24754.815,-20565.54,-21272.355,-11771.145,-6245.955
1764434895.1977124,-325.89,-8802.855,-37320.525,-24736.14,-20572.515,-21264.66,-11787.795,-6252.75
1764434895.1977124,-305.64,-8776.305,-37295.37,-24710.58,-20560.23,-21251.205,-11788.785,-6249.915
1764434895.1987066,-312.84,-8785.485,-37304.37,-24716.43,-20557.575,-21251.205,-11779.38,-6247.08
1764434895.1987066,-324.675,-8796.6,-37310.445,-24726.375,-20560.95,-21263.58,-11772.99,-6245.594999999999
1764434895.244535,-329.22,-8800.875,-37308.87,-24731.955,-20562.795,-21277.845,-11763.36,-6236.91
1764434895.244535,-340.245,-8810.955,-37314.45,-24746.265,-20572.02,-21300.84,-11756.475,-6233.4
1764434895.244535,-341.685,-8811.18,-37314.495,-24750.63,-20572.155,-21307.05,-11749.32,-6227.46
1764434895.244535,-337.905,-8808.705,-37313.055,-24744.555,-20566.98,-21298.77,-11751.615,-6227.28
1764434895.244535,-332.505,-8801.279999999999,-37311.3,-24738.12,-20562.57,-21284.955,-11758.545,-6235.514999999999
1764434895.244535,-336.42,-8804.475,-37327.365,-24744.33,-20558.835,-21266.1,-11770.065,-6250.995
1764434895.244535,-337.545,-8810.145,-37337.085,-24738.66,-20551.41,-21244.77,-11783.07,-6262.065
1764434895.244535,-326.025,-8797.23,-37319.985,-24723.54,-20550.105,-21238.83,-11785.185,-6258.87
1764434895.244535,-336.42,-8806.904999999999,-37319.13,-24717.42,-20545.47,-21238.47,-11782.215,-6263.415
1764434895.244535,-320.49,-8791.244999999999,-37306.35,-24728.49,-20562.84,-21266.685,-11771.595,-6243.12
1764434895.244535,-327.195,-8798.805,-37310.22,-24735.51,-20561.355,-21277.8,-11763.63,-6236.28
1764434895.244535,-345.555,-8809.289999999999,-37303.245,-24729.525,-20554.605,-21289.32,-11757.87,-6240.69
1764434895.2455342,-343.17,-8812.125,-37308.915,-24743.385,-20570.58,-21310.74,-11749.95,-6228.045
1764434895.2455342,-334.89,-8806.185,-37310.58,-24746.175,-20574.36,-21309.75,-11757.375,-6228.54
1764434895.2455342,-335.295,-8807.715,-37317.42,-24746.31,-20575.53,-21300.525,-11766.015,-6237.945
1764434895.2455342,-331.02,-8801.865,-37317.555,-24737.58,-20565.945,-21277.17,-11773.395,-6245.73
1764434895.2455342,-325.215,-8795.25,-37316.79,-24727.725,-20555.865,-21250.125,-11781.27,-6256.125
1764434895.2455342,-319.95,-8794.755,-37319.94,-24728.76,-20557.8,-21245.085,-11785.77,-6256.395
1764434895.2455342,-324.585,-8799.119999999999,-37323.0,-24731.955,-20559.555,-21250.755,-11781.99,-6254.594999999999
1764434895.2455342,-329.31,-8804.699999999999,-37325.52,-24739.38,-20561.355,-21261.645,-11771.64,-6247.349999999999
1764434895.2455342,-335.205,-8807.895,-37320.345,-24740.1,-20558.295,-21273.795,-11763.045,-6240.285
1764434895.2455342,-337.68,-8809.92,-37314.495,-24742.485,-20562.345,-21295.755,-11755.44,-6231.42
1764434895.2890155,-342.27,-8809.695,-37309.23,-24743.745,-20567.565,-21305.385,-11751.975,-6233.355
1764434895.2890155,-353.745,-8816.4,-37312.83,-24745.23,-20568.33,-21298.5,-11753.82,-6241.23
1764434895.2890155,-346.59,-8820.494999999999,-37329.93,-24753.69,-20575.665,-21294.855,-11766.825,-6243.165
1764434895.2890155,-328.455,-8793.9,-37309.635,-24731.37,-20558.97,-21268.89,-11776.23,-6251.355
1764434895.2890155,-342.315,-8806.86,-37320.93,-24728.13,-20553.165,-21246.345,-11785.14,-6264.135
1764434895.2890155,-325.08,-8801.595,-37325.835,-24730.695,-20556.675,-21241.08,-11787.84,-6256.215
1764434895.2895615,-342.045,-8805.914999999999,-37317.465,-24722.55,-20551.635,-21244.545,-11794.095,-6273.27
1764434895.2895615,-336.645,-8793.63,-37299.105,-24717.15,-20552.625,-21261.015,-11785.185,-6262.695
1764434895.2895615,-331.65,-8805.195,-37313.19,-24735.33,-20563.74,-21279.24,-11766.69,-6242.175
1764434895.2895615,-353.16,-8829.72,-37334.565,-24766.74,-20591.1,-21316.32,-11759.805,-6236.865
1764434895.2895615,-345.015,-8815.455,-37321.83,-24759.54,-20581.56,-21315.42,-11758.77,-6233.13
1764434895.2895615,-349.38,-8826.119999999999,-37341.18,-24773.58,-20588.04,-21314.565,-11763.675,-6236.19
1764434895.2895615,-344.745,-8817.795,-37338.975,-24763.815,-20581.02,-21297.915,-11771.685,-6246.045
1764434895.2895615,-345.735,-8816.039999999999,-37330.47,-24749.955,-20576.97,-21280.23,-11781.99,-6255.405
1764434895.2895615,-338.04,-8805.105,-37323.405,-24733.98,-20568.645,-21258.99,-11790.585,-6264.764999999999
1764434895.2895615,-328.185,-8804.43,-37326.6,-24729.93,-20566.035,-21255.165,-11793.69,-6257.429999999999
1764434895.2895615,-331.65,-8810.82,-37333.845,-24738.48,-20567.34,-21255.435,-11790.72,-6257.655
1764434895.2895615,-329.76,-8801.505,-37322.28,-24738.165,-20567.655,-21269.07,-11783.34,-6249.465
1764434895.2895615,-337.905,-8810.235,-37322.01,-24742.62,-20569.32,-21283.875,-11771.91,-6242.04
1764434895.2895615,-350.415,-8820.045,-37320.48,-24757.965,-20589.03,-21317.715,-11766.87,-6240.15
1764434895.2895615,-348.345,-8814.96,-37313.28,-24754.95,-20587.905,-21324.825,-11763.27,-6235.29
1764434895.290587,-352.215,-8820.72,-37324.98,-24758.46,-20584.53,-21314.79,-11768.67,-6242.67
1764434895.290587,-344.295,-8812.305,-37321.875,-24750.63,-20579.895,-21301.245,-11775.78,-6246.99
1764434895.290587,-337.725,-8807.805,-37325.745,-24747.165,-20573.775,-21281.85,-11783.655,-6253.695
1764434895.3345032,-336.96,-8810.64,-37337.58,-24745.815,-20567.835,-21259.44,-11793.285,-6264.179999999999
