Timestamp,Channel1,Channel2,Channel3,Channel4,Channel5,Channel6,Channel7,Channel8
1764433722.8636718,37207.89,24354.0,66069.72,-4623.48,-31677.795,-47694.645,-9031.455,13434.39
1764433722.8642085,37205.145,24350.895,66067.92,-4624.965,-31678.875,-47695.68,-9034.74,13431.33
1764433722.8642085,37204.83,24352.605,66071.7,-4623.12,-31678.065,-47695.23,-9027.72,13433.67
1764433722.8642085,37200.555,24352.56,66072.465,-4624.83,-31679.865,-47698.515,-9019.26,13435.335
1764433722.8642085,37190.97,24348.105,66068.595,-4631.49,-31687.11,-47707.425,-9012.06,13434.165
1764433722.8642085,37179.405,24339.06,66060.63,-4642.38,-31698.72,-47719.935,-9012.15,13428.315
1764433722.8642085,37180.845,24340.545,66061.755,-4641.84,-31697.64,-47719.305,-9010.035,13431.105
1764433722.8642085,37187.73,24344.55,66065.08499999999,-4636.62,-31692.42,-47713.14,-9010.755,13434.66
1764433722.8642085,37188.855,24343.29,66061.62,-4636.935,-31692.78,-47712.24,-9021.33,13430.7
1764433722.8642085,37199.205,24350.175,66066.56999999999,-4628.88,-31683.465,-47701.755,-9026.82,13433.895
1764433722.8642085,37205.955,24352.515,66068.73,-4624.2,-31677.84,-47695.95,-9033.345,13432.95
1764433722.8642085,37202.985,24350.4,66066.75,-4625.775,-31680.36,-47697.12,-9036.045,13429.305
1764433722.8642085,37201.95,24352.56,66069.58499999999,-4624.065,-31679.505,-47696.76,-9028.665,13432.14
1764433722.8642085,37192.995,24347.25,66066.39,-4629.915,-31686.12,-47704.185,-9025.47,13429.305
1764433722.8642085,37187.55,24345.495,66066.93,-4633.065,-31690.215,-47709.315,-9015.705,13431.735
1764433722.864744,37178.505,24338.925,66061.26,-4641.48,-31698.765,-47719.17,-9013.275,13428.225
1764433722.864744,37178.37,24338.16,66059.81999999999,-4643.37,-31700.115,-47720.97,-9012.645,13428.36
1764433722.864744,37184.895,24342.66,66062.655,-4638.915,-31695.48,-47715.615,-9014.715,13431.42
1764433722.864744,37188.63,24343.02,66061.26,-4637.295,-31693.365,-47712.555,-9023.58,13429.485
1764433722.864744,37193.445,24344.46,66060.36,-4634.054999999999,-31688.865,-47706.93,-9033.705,13427.145
1764433722.864744,37195.245,24344.01,66058.875,-4632.03,-31687.065,-47703.465,-9043.695,13422.555
1764433722.864744,37195.92,24343.785,66059.91,-4630.77,-31686.255,-47702.52,-9044.28,13422.465
1764433722.864744,37191.87,24342.075,66060.63,-4631.355,-31688.055,-47704.905,-9040.185,13423.005
1764433722.912245,37187.235,24340.5,66061.17,-4634.595,-31692.015,-47709.63,-9033.3,13423.635
1764433722.912245,37179.945,24337.35,66058.965,-4640.355,-31698.27,-47717.325,-9024.975,13423.905
1764433722.912245,37173.285,24333.66,66056.22,-4646.07,-31704.66,-47724.345,-9019.44,13423.095
1764433722.912245,37173.735,24334.2,66056.08499999999,-4645.845,-31704.795,-47724.705,-9018.315,13424.625
1764433722.912245,37183.41,24340.545,66060.855,-4639.95,-31697.64,-47716.605,-9017.73,13429.89
1764433722.912245,37187.1,24340.23,66058.785,-4639.365,-31696.65,-47714.31,-9027.27,13426.74
1764433722.912245,37198.17,24347.295,66064.95,-4630.635,-31687.47,-47702.655,-9031.545,13430.475
1764433722.912245,37202.58,24348.555,66065.985,-4626.27,-31683.195,-47697.705,-9038.79,13428.9
1764433722.912245,37200.195,24346.755,66063.87,-4627.08,-31684.5,-47698.965,-9041.67,13425.255
1764433722.913256,37199.205,24347.61,66066.03,-4626.0,-31684.05,-47699.73,-9034.74,13427.685
1764433722.913256,37189.89,24342.255,66062.205,-4632.84,-31691.07,-47707.65,-9031.23,13424.58
1764433722.913256,37183.005,24340.32,66062.745,-4636.98,-31695.525,-47713.59,-9020.79,13426.155
1764433722.913256,37181.34,24341.085,66064.68,-4638.33,-31696.56,-47716.11,-9010.755,13429.44
1764433722.913256,37178.28,24337.98,66060.72,-4641.929999999999,-31699.53,-47719.89,-9013.275,13427.595
1764433722.913256,37184.355,24341.535,66062.25,-4638.645,-31695.39,-47715.12,-9015.93,13429.98
1764433722.913256,37187.145,24341.175,66060.045,-4638.014999999999,-31694.67,-47712.735,-9026.19,13426.83
1764433722.913256,37197.225,24347.97,66065.08499999999,-4629.51,-31685.265,-47702.115,-9030.915,13429.89
1764433722.913256,37203.795,24350.805,66067.47,-4624.514999999999,-31679.82,-47695.635,-9036.765,13430.385
1764433722.913256,37204.92,24351.66,66069.22499999999,-4622.67,-31678.74,-47694.195,-9036.81,13429.755
1764433722.913256,37197.36,24346.98,66066.03,-4628.385,-31685.31,-47701.08,-9035.91,13425.885
1764433722.913256,37190.97,24344.19,66064.995,-4632.929999999999,-31689.495,-47706.48,-9029.385,13425.48
1764433722.913256,37184.13,24341.58,66064.455,-4636.755,-31694.04,-47711.88,-9020.43,13426.11
1764433722.9567163,37183.635,24344.325,66068.45999999999,-4636.08,-31693.185,-47712.42,-9009.945,13431.69
1764433722.9567163,37184.58,24344.46,66068.28,-4636.71,-31693.86,-47713.32,-9010.17,13432.32
1764433722.9567163,37188.27,24345.765,66067.69499999999,-4635.135,-31692.24,-47710.71,-9014.58,13432.635
1764433722.9567163,37191.195,24345.315,66065.58,-4634.595,-31690.755,-47708.37,-9023.4,13430.43
1764433722.9567163,37195.47,24345.54,66064.005,-4632.885,-31688.055,-47704.455,-9034.695,13426.56
1764433722.9567163,37204.38,24351.84,66069.45,-4625.099999999999,-31679.37,-47695.365,-9037.665,13429.395
1764433722.9567163,37204.11,24352.56,66071.295,-4623.66,-31679.1,-47694.15,-9037.665,13429.755
1764433722.9567163,37196.64,24348.24,66068.505,-4628.565,-31684.995,-47700.315,-9036.27,13426.245
1764433722.9567163,37190.43,24345.18,66067.245,-4631.4,-31688.505,-47705.13,-9029.52,13425.75
1764433722.9567163,37184.265,24342.03,66066.03,-4635.36,-31693.635,-47710.53,-9019.845,13427.145
1764433722.9567163,37181.205,24342.345,66067.33499999999,-4637.07,-31696.245,-47714.31,-9011.745,13430.385
1764433722.9567163,37180.26,24340.77,66065.58,-4639.095,-31697.865,-47716.965,-9013.23,13429.35
1764433722.9567163,37189.53,24346.53,66069.94499999999,-4633.29,-31690.89,-47709.405,-9013.59,13434.21
1764433722.9567163,37193.49,24347.7,66069.27,-4631.445,-31687.74,-47705.265,-9021.51,13433.535
1764433722.9567163,37200.06,24350.445,66069.495,-4627.395,-31683.33,-47698.92,-9031.14,13431.915
1764433722.9567163,37201.59,24349.32,66067.515,-4626.81,-31682.115,-47697.21,-9040.5,13427.1
1764433722.9567163,37202.895,24350.895,66070.035,-4624.74,-31680.135,-47695.365,-9039.285,13427.91
1764433722.9567163,37204.155,24355.17,66075.255,-4621.139999999999,-31677.615,-47692.935,-9029.43,13432.41
1764433722.9567163,37198.98,24353.595,66074.895,-4623.974999999999,-31680.855,-47697.66,-9022.14,13433.715
1764433722.9567163,37190.34,24349.365,66071.88,-4629.554999999999,-31687.425,-47705.175,-9014.4,13433.13
1764433722.9567163,37182.51,24343.875,66067.83,-4636.665,-31694.58,-47713.68,-9010.89,13430.745
1764433722.9567163,37185.255,24345.72,66069.135,-4635.54,-31692.24,-47711.88,-9008.325,13434.435
1764433722.9567163,37187.73,24346.44,66067.875,-4634.55,-31691.205,-47710.26,-9014.265,13433.895
1764433722.9567163,37189.485,24344.37,66064.05,-4635.764999999999,-31691.025,-47709.585,-9025.425,13428.855
1764433723.0040658,37196.55,24347.79,66064.545,-4631.67,-31686.615,-47702.475,-9034.11,13428.585
1764433723.0040658,37201.815,24349.5,66066.12,-4626.675,-31682.61,-47697.39,-9039.87,13428.72
1764433723.0040658,37203.93,24351.345,66069.63,-4623.12,-31679.415,-47694.33,-9036.945,13430.61
1764433723.0040658,37203.705,24353.28,66073.41,-4620.465,-31677.255,-47692.935,-9028.08,13433.535
1764433723.0040658,37197.18,24350.76,66072.015,-4624.245,-31681.755,-47698.47,-9021.42,13432.905
1764433723.0040658,37185.03,24342.93,66065.715,-4634.505,-31692.645,-47710.08,-9017.955,13428.45
1764433723.0040658,37179.855,24340.5,66064.23,-4639.77,-31697.595,-47716.02,-9012.33,13429.395
1764433723.0040658,37183.005,24343.56,66066.795,-4637.61,-31694.76,-47713.815,-9009.765,13432.59
1764433723.0040658,37188.36,24345.9,66067.29,-4633.965,-31691.655,-47709.63,-9013.41,13433.895
1764433723.0040658,37191.51,24345.225,66065.13,-4633.74,-31690.53,-47706.705,-9022.41,13431.555
1764433723.0040658,37195.515,24344.595,66063.59999999999,-4631.445,-31687.65,-47702.88,-9034.38,13428.135
1764433723.0040658,37200.33,24345.81,66064.77,-4627.62,-31682.565,-47698.245,-9040.905,13426.38
1764433723.0040658,37201.005,24347.34,66066.345,-4625.505,-31681.125,-47696.625,-9039.69,13426.83
1764433723.0040658,37200.285,24349.59,66070.26,-4622.94,-31679.82,-47695.995,-9030.78,13429.98
1764433723.0040658,37195.83,24348.24,66070.44,-4625.19,-31683.915,-47700.09,-9023.94,13431.06
1764433723.0040658,37189.035,24344.235,66069.405,-4631.13,-31690.08,-47707.65,-9015.84,13430.655
1764433723.0040658,37180.98,24339.195,66064.95,-4638.87,-31697.055,-47716.695,-9012.69,13428.36
1764433723.0054405,37176.615,24334.38,66059.37,-4644.585,-31701.915,-47721.78,-9017.37,13424.625
1764433723.0054405,37185.345,24339.915,66063.465,-4638.69,-31695.48,-47714.49,-9018.36,13429.035
1764433723.0054405,37186.02,24337.935,66059.73,-4639.77,-31696.02,-47714.04,-9029.475,13423.59
1764433723.0054405,37195.47,24343.335,66064.31999999999,-4632.615,-31687.515,-47705.49,-9036.27,13425.615
1764433723.0054405,37204.65,24349.68,66069.54,-4624.83,-31679.37,-47695.995,-9038.745,13429.035
1764433723.0481396,37202.13,24347.025,66067.245,-4626.405,-31681.62,-47697.3,-9040.995,13425.795
1764433723.0481396,37197.63,24345.045,66066.48,-4628.61,-31684.59,-47700.855,-9036.495,13424.58
1764433723.0481396,37194.165,24344.64,66067.965,-4629.465,-31686.795,-47703.915,-9027.54,13427.37
1764433723.0481396,37190.925,24344.55,66069.855,-4631.67,-31689.315,-47707.2,-9015.93,13431.6
1764433723.0481396,37185.57,24341.985,66068.28,-4636.17,-31693.95,-47713.005,-9010.53,13432.41
1764433723.0481396,37185.66,24342.255,66067.83,-4637.07,-31694.13,-47713.545,-9010.53,13432.41
1764433723.0481396,37188.945,24342.93,66067.33499999999,-4635.315,-31691.475,-47711.34,-9015.525,13432.32
1764433723.0481396,37192.545,24343.02,66066.255,-4633.83,-31690.44,-47708.46,-9024.48,13430.565
1764433723.0481396,37198.8,24345.0,66066.66,-4630.095,-31686.165,-47702.115,-9034.02,13428.765
1764433723.0481396,37199.88,24343.29,66064.31999999999,-4630.139999999999,-31685.265,-47700.765,-9044.01,13423.815
1764433723.0481396,37199.565,24343.695,66065.44499999999,-4629.105,-31684.77,-47700.0,-9043.74,13422.69
1764433723.0481396,37196.91,24344.64,66066.885,-4629.554999999999,-31685.58,-47701.395,-9036.855,13423.68
1764433723.0481396,37195.605,24346.755,66070.62,-4629.014999999999,-31685.13,-47701.89,-9025.65,13428.63
1764433723.0481396,37186.38,24342.165,66068.37,-4635.045,-31691.565,-47709.855,-9018.27,13427.82
1764433723.0481396,37180.935,24338.745,66066.435,-4640.355,-31696.92,-47716.38,-9012.87,13427.235
1764433723.0481396,37180.98,24337.845,66064.995,-4641.345,-31698.135,-47717.775,-9013.14,13427.73
1764433723.0481396,37186.29,24340.635,66065.715,-4638.87,-31695.21,-47713.86,-9017.46,13428.855
1764433723.0481396,37190.205,24342.435,66065.13,-4637.295,-31692.33,-47710.575,-9025.245,13427.37
1764433723.0481396,37195.695,24344.055,66064.86,-4633.2,-31688.505,-47704.905,-9035.145,13425.885
1764433723.0481396,37205.235,24349.77,66070.215,-4624.875,-31680.45,-47695.32,-9036.765,13428.405
1764433723.0481396,37201.545,24346.845,66068.37,-4626.81,-31682.7,-47697.165,-9039.465,13424.58
1764433723.0496705,37196.145,24344.145,66067.56,-4629.24,-31685.715,-47701.395,-9035.865,13423.41
1764433723.0496705,37194.93,24346.305,66070.755,-4628.97,-31685.805,-47702.745,-9025.425,13427.91
1764433723.0496705,37187.1,24343.335,66070.215,-4633.92,-31690.755,-47710.215,-9016.56,13428.63
1764433723.0961888,37181.025,24340.995,66068.09999999999,-4638.735,-31695.435,-47716.065,-9011.79,13429.035
1764433723.0961888,37180.62,24340.5,66065.985,-4640.13,-31696.56,-47716.695,-9012.915,13428.27
1764433723.0961888,37184.265,24340.86,66065.895,-4639.139999999999,-31694.49,-47714.4,-9018.945,13428.27
1764433723.0961888,37188.63,24342.075,66065.67,-4636.71,-31691.205,-47710.035,-9027.63,13427.415
1764433723.0972018,37196.595,24345.27,66066.705,-4632.03,-31684.77,-47702.745,-9035.415,13427.325
1764433723.0972018,37197.54,24343.47,66064.77,-4632.03,-31684.635,-47701.305,-9044.82,13422.24
1764433723.0972018,37199.025,24344.595,66067.155,-4628.88,-31682.025,-47697.795,-9042.12,13424.175
1764433723.0972018,37197.315,24345.765,66069.58499999999,-4627.485,-31681.26,-47698.29,-9034.425,13427.19
1764433723.0972018,37187.64,24339.6,66065.265,-4633.965,-31689.765,-47707.2,-9030.555,13423.275
1764433723.0972018,37182.42,24338.7,66065.22,-4637.655,-31693.455,-47712.825,-9019.845,13424.13
1764433723.0972018,37175.13,24334.155,66061.485,-4644.09,-31700.025,-47720.61,-9016.965,13421.835
1764433723.0972018,37180.125,24337.98,66064.68,-4640.895,-31696.065,-47716.92,-9013.455,13427.1
1764433723.0972018,37185.525,24340.59,66065.76,-4637.97,-31693.095,-47712.645,-9018.36,13428.18
1764433723.098197,37190.115,24341.76,66065.355,-4635.675,-31689.855,-47708.775,-9027.63,13425.975
1764433723.098197,37197.225,24345.18,66067.065,-4630.23,-31684.14,-47701.665,-9036.225,13425.345
1764433723.098197,37198.26,24343.155,66064.635,-4629.375,-31684.14,-47699.82,-9045.09,13420.935
1764433723.0987084,37198.89,24343.92,66066.12,-4627.349999999999,-31682.925,-47698.695,-9043.29,13422.15
1764433723.0987084,37195.74,24342.795,66066.795,-4629.014999999999,-31684.77,-47701.44,-9038.025,13422.78
1764433723.0987084,37194.12,24344.595,66070.53,-4628.474999999999,-31684.77,-47702.97,-9027.0,13427.955
1764433723.0987084,37184.76,24340.365,66067.605,-4634.775,-31692.69,-47711.295,-9018.855,13426.83
1764433723.0987084,37176.03,24334.56,66061.70999999999,-4643.639999999999,-31700.385,-47720.655,-9017.685,13423.005
1764433723.0987084,37179.54,24337.53,66064.095,-4641.03,-31697.235,-47718.405,-9014.715,13426.83
1764433723.1398392,37185.885,24339.96,66066.03,-4636.62,-31693.545,-47713.185,-9018.54,13428.675
1764433723.1398392,37188.585,24339.33,66063.51,-4636.53,-31692.42,-47710.845,-9028.53,13425.66
1764433723.1398392,37193.85,24340.185,66063.375,-4633.02,-31688.64,-47705.535,-9039.51,13423.005
1764433723.1398392,37201.41,24345.765,66067.47,-4625.595,-31681.035,-47696.715,-9042.615,13424.625
1764433723.1398392,37197.585,24343.56,66065.44499999999,-4627.26,-31682.97,-47698.785,-9044.145,13421.43
1764433723.1398392,37194.48,24342.93,66066.61499999999,-4628.7,-31684.455,-47700.99,-9037.395,13422.555
1764433723.1398392,37192.68,24344.595,66069.81,-4628.655,-31684.68,-47702.745,-9026.28,13427.01
1764433723.1408484,37182.375,24338.385,66064.72499999999,-4637.205,-31694.13,-47713.725,-9020.7,13423.995
1764433723.1408484,37179.63,24336.765,66064.14,-4640.13,-31697.505,-47717.91,-9014.94,13425.795
1764433723.1408484,37176.255,24333.255,66060.405,-4644.405,-31701.42,-47721.42,-9019.755,13422.195
1764433723.1408484,37183.77,24337.71,66063.19499999999,-4639.23,-31695.75,-47715.12,-9021.24,13425.48
1764433723.1418612,37185.975,24336.63,66059.955,-4639.455,-31694.445,-47712.555,-9031.365,13421.385
1764433723.1418612,37197.495,24343.83,66065.985,-4630.724999999999,-31685.49,-47701.62,-9035.775,13424.715
1764433723.1418612,37199.205,24343.02,66064.545,-4629.24,-31684.23,-47699.055,-9043.425,13420.98
1764433723.1418612,37200.285,24344.28,66066.705,-4627.08,-31681.98,-47697.57,-9041.22,13421.925
1764433723.1418612,37198.395,24346.17,66069.36,-4626.81,-31681.305,-47698.65,-9033.3,13424.94
1764433723.1418612,37189.395,24340.77,66066.56999999999,-4633.02,-31687.47,-47706.21,-9028.62,13422.825
1764433723.1418612,37184.895,24339.735,66067.605,-4635.54,-31690.98,-47711.115,-9017.505,13425.705
1764433723.142884,37175.67,24333.165,66061.62,-4643.595,-31699.26,-47720.565,-9016.695,13422.15
1764433723.142884,37177.02,24333.345,66061.08,-4644.675,-31699.08,-47720.7,-9017.955,13422.15
1764433723.1438663,37187.28,24340.635,66066.93,-4636.44,-31690.215,-47711.25,-9017.865,13427.685
1764433723.1438663,37191.285,24341.04,66065.715,-4634.19,-31687.92,-47707.74,-9027.09,13426.2
1764433723.1438663,37195.785,24342.39,66064.545,-4631.895,-31685.58,-47703.15,-9037.845,13423.41
1764433723.1438663,37203.615,24347.565,66069.27,-4624.38,-31678.02,-47695.185,-9039.42,13426.02
1764433723.1863046,37203.435,24348.33,66070.70999999999,-4623.48,-31676.895,-47694.375,-9037.08,13425.795
1764433723.1863046,37198.035,24345.45,66069.81,-4626.405,-31680.72,-47698.83,-9032.985,13425.165
1764433723.1863046,37188.27,24339.87,66065.67,-4633.29,-31687.965,-47707.875,-9029.655,13422.465
1764433723.1863046,37179.675,24335.82,66062.97,-4640.445,-31695.12,-47716.47,-9023.22,13421.655
1764433723.1863046,37174.185,24332.085,66060.18,-4645.62,-31700.115,-47722.995,-9019.62,13421.025
1764433723.1863046,37176.075,24332.31,66059.81999999999,-4646.07,-31699.8,-47722.185,-9021.015,13421.88
1764433723.1863046,37185.03,24338.025,66063.87,-4639.23,-31693.005,-47714.175,-9021.78,13426.02
1764433723.1863046,37189.35,24339.42,66064.095,-4636.349999999999,-31690.575,-47710.755,-9029.16,13424.535
1764433723.1863046,37196.505,24342.03,66064.95,-4632.165,-31685.94,-47704.23,-9038.52,13422.825
1764433723.1863046,37197.945,24340.995,66063.375,-4631.13,-31684.32,-47701.935,-9046.71,13419.495
1764433723.1863046,37197.81,24341.895,66065.4,-4629.014999999999,-31683.465,-47700.63,-9044.505,13419.945
1764433723.1863046,37194.255,24341.76,66065.94,-4629.87,-31685.175,-47702.61,-9038.115,13421.655
1764433723.1863046,37189.485,24339.735,66066.345,-4632.255,-31688.415,-47706.795,-9030.015,13422.465
1764433723.1863046,37182.555,24337.26,66064.995,-4637.565,-31693.455,-47713.23,-9021.96,13422.42
1764433723.1863046,37178.73,24335.82,66064.545,-4640.67,-31696.74,-47717.28,-9016.155,13423.77
1764433723.187819,37183.005,24339.735,66066.93,-4637.565,-31693.32,-47713.5,-9014.04,13428.36
1764433723.187819,37188.405,24342.57,66067.56,-4634.775,-31689.9,-47710.125,-9018.63,13429.485
1764433723.187819,37192.05,24342.21,66065.535,-4633.74,-31688.235,-47707.38,-9028.845,13426.605
1764433723.187819,37196.145,24342.12,66063.735,-4631.76,-31685.805,-47702.7,-9040.995,13423.095
1764433723.187819,37199.475,24343.47,66064.68,-4629.105,-31682.655,-47698.335,-9046.755,13421.88
1764433723.187819,37199.16,24344.685,66067.02,-4627.395,-31682.07,-47698.245,-9043.965,13422.6
1764433723.187819,37198.26,24347.475,66070.62,-4625.325,-31681.845,-47697.795,-9034.695,13425.93
1764433723.235874,37192.545,24345.135,66069.94499999999,-4628.79,-31685.715,-47702.925,-9027.765,13425.705
1764433723.235874,37181.7,24338.475,66065.67,-4637.295,-31694.175,-47713.005,-9022.5,13422.87
1764433723.235874,37173.735,24332.175,66060.22499999999,-4644.9,-31702.545,-47721.645,-9022.77,13419.135
1764433723.235874,37178.46,24335.82,66062.43,-4642.065,-31699.845,-47718.405,-9021.24,13422.6
1764433723.235874,37183.95,24338.97,66063.645,-4639.275,-31695.66,-47713.815,-9025.02,13423.41
1764433723.235874,37188.855,24340.32,66063.555,-4636.8,-31691.655,-47709.315,-9033.075,13422.42
1764433723.235874,37197.72,24344.505,66066.435,-4629.465,-31684.545,-47700.72,-9040.68,13423.185
1764433723.235874,37202.355,24346.8,66068.01,-4625.19,-31681.44,-47695.815,-9045.0,13422.87
1764433723.235874,37199.07,24343.83,66066.48,-4626.45,-31684.455,-47698.515,-9046.215,13420.17
1764433723.235874,37198.08,24346.08,66070.305,-4624.83,-31682.385,-47697.885,-9036.225,13424.445
1764433723.235874,37191.06,24342.705,66067.83,-4630.41,-31687.2,-47704.77,-9029.7,13423.635
1764433723.235874,37177.65,24333.3,66059.86499999999,-4641.84,-31698.54,-47718.405,-9026.955,13418.19
1764433723.235874,37173.51,24331.635,66057.435,-4646.115,-31703.085,-47723.805,-9022.77,13418.37
1764433723.235874,37176.885,24335.055,66059.81999999999,-4643.639999999999,-31699.62,-47720.97,-9021.375,13420.98
1764433723.235874,37181.88,24336.855,66060.54,-4640.715,-31695.84,-47716.065,-9025.425,13421.79
1764433723.235874,37185.66,24337.26,66060.135,-4638.645,-31693.77,-47711.745,-9034.74,13420.17
1764433723.235874,37193.94,24342.165,66063.51,-4631.895,-31687.47,-47703.69,-9042.57,13420.755
1764433723.235874,37198.17,24343.335,66064.77,-4628.205,-31684.14,-47699.37,-9047.475,13419.945
1764433723.235874,37194.21,24339.105,66061.8,-4631.4,-31687.47,-47703.015,-9049.23,13416.435
1764433723.235874,37188.54,24336.405,66060.36,-4634.865,-31691.205,-47707.605,-9044.955,13414.86
1764433723.235874,37183.365,24335.37,66061.305,-4636.935,-31694.58,-47711.88,-9036.855,13416.12
1764433723.235874,37180.08,24336.045,66063.735,-4638.599999999999,-31696.29,-47715.255,-9024.705,13420.62
1764433723.2799242,37175.715,24333.975,66061.17,-4642.83,-31700.205,-47720.34,-9020.655,13421.25
1764433723.2799242,37175.22,24331.95,66058.56,-4645.215,-31702.095,-47721.195,-9024.3,13419.27
1764433723.2799242,37181.655,24334.2,66060.36,-4641.929999999999,-31697.595,-47716.02,-9028.89,13421.16
1764433723.2799242,37187.28,24335.64,66060.94499999999,-4638.554999999999,-31693.59,-47711.025,-9036.765,13421.07
1764433723.2799242,37194.975,24339.78,66063.285,-4632.795,-31687.605,-47703.42,-9044.145,13421.25
1764433723.2799242,37198.71,24341.805,66064.905,-4629.42,-31684.59,-47698.47,-9048.915,13420.71
1764433723.2799242,37197.63,24342.795,66066.84,-4628.474999999999,-31683.285,-47697.795,-9046.08,13420.755
1764433723.2799242,37192.365,24340.68,66066.165,-4630.59,-31686.615,-47702.52,-9042.12,13419.225
1764433723.2799242,37182.42,24334.11,66060.63,-4638.42,-31695.255,-47712.375,-9038.655,13415.4
1764433723.2799242,37175.31,24330.465,66059.595,-4643.145,-31700.7,-47719.62,-9029.97,13415.715
1764433723.2809384,37174.815,24332.58,66061.98,-4643.37,-31700.97,-47719.89,-9021.78,13419.72
1764433723.2809384,37174.185,24330.465,66058.83,-4646.474999999999,-31703.265,-47721.735,-9025.965,13417.47
1764433723.2809384,37183.32,24336.405,66062.88,-4639.77,-31695.84,-47714.04,-9027.54,13422.51
1764433723.2809384,37188.18,24338.295,66062.745,-4636.665,-31692.195,-47708.955,-9035.55,13421.43
1764433723.2809384,37196.235,24342.93,66065.805,-4630.139999999999,-31685.31,-47700.99,-9042.615,13422.645
1764433723.2809384,37201.86,24346.08,66068.81999999999,-4625.73,-31680.27,-47694.96,-9046.08,13423.68
1764433723.2809384,37198.125,24343.515,66067.245,-4627.575,-31682.655,-47697.39,-9046.44,13421.295
1764433723.2809384,37195.335,24343.47,66068.45999999999,-4627.98,-31684.14,-47699.325,-9039.33,13422.69
1764433723.2809384,37185.795,24338.16,66064.77,-4634.46,-31691.61,-47707.785,-9035.01,13419.18
1764433723.2809384,37180.26,24337.26,66064.77,-4637.34,-31695.525,-47712.735,-9024.39,13421.835
1764433723.2809384,37175.085,24333.795,66061.395,-4642.155,-31701.015,-47718.945,-9022.05,13420.89
1764433723.2809384,37172.835,24330.195,66057.20999999999,-4646.205,-31704.12,-47722.32,-9027.225,13417.47
1764433723.2814467,37181.115,24336.18,66061.305,-4640.49,-31697.595,-47714.805,-9028.44,13421.43
1764433723.2814467,37187.28,24338.16,66061.665,-4637.205,-31694.04,-47708.415,-9036.27,13420.62
1764433723.3253412,37194.795,24341.31,66063.645,-4631.264999999999,-31687.245,-47701.17,-9044.505,13420.665
1764433723.3253412,37198.035,24342.345,66064.59,-4628.474999999999,-31684.59,-47697.12,-9048.915,13420.08
1764433723.3253412,37195.56,24340.545,66064.68,-4628.79,-31686.39,-47698.515,-9048.105,13417.92
1764433723.3253412,37195.155,24343.02,66068.37,-4627.08,-31684.905,-47697.84,-9039.015,13421.61
1764433723.3253412,37189.395,24341.355,66067.965,-4630.545,-31688.64,-47702.565,-9030.825,13422.375
1764433723.3253412,37180.35,24336.495,66065.44499999999,-4636.845,-31695.93,-47711.07,-9023.265,13421.16
1764433723.3253412,37173.33,24331.725,66060.58499999999,-4644.675,-31702.41,-47719.08,-9022.545,13418.775
1764433723.3253412,37180.08,24336.9,66064.68,-4640.175,-31697.28,-47713.005,-9019.305,13424.355
1764433723.3253412,37185.795,24339.465,66065.895,-4637.16,-31693.095,-47707.92,-9024.66,13425.12
1764433723.3253412,37186.605,24336.945,66061.395,-4638.554999999999,-31694.13,-47707.155,-9037.62,13419.45
1764433723.3263557,37198.395,24344.37,66067.47,-4628.655,-31683.69,-47695.86,-9040.95,13423.095
1764433723.3263557,37201.185,24346.305,66068.505,-4626.495,-31680.72,-47692.17,-9045.09,13421.88
1764433723.3263557,37197.405,24343.065,66066.20999999999,-4629.465,-31683.78,-47696.13,-9046.53,13418.46
1764433723.3263557,37195.785,24344.28,66068.325,-4628.474999999999,-31683.78,-47696.355,-9038.025,13421.97
1764433723.3263557,37188.9,24341.895,66067.245,-4632.48,-31688.325,-47701.845,-9030.195,13421.835
1764433723.3263557,37179.045,24335.235,66062.745,-4639.905,-31696.38,-47711.97,-9024.57,13419.405
1764433723.3263557,37169.64,24327.72,66055.185,-4648.545,-31704.795,-47722.05,-9026.46,13414.41
1764433723.3263557,37169.505,24326.73,66053.16,-4649.67,-31706.145,-47723.67,-9029.385,13412.7
1764433723.3263557,37178.73,24333.21,66057.97499999999,-4643.054999999999,-31698.45,-47715.795,-9030.645,13417.155
1764433723.3268638,37185.345,24335.91,66059.37,-4639.005,-31693.59,-47709.855,-9038.295,13417.11
1764433723.3268638,37190.43,24337.845,66059.775,-4634.955,-31689.09,-47703.6,-9048.105,13415.985
1764433723.3268638,37197.45,24341.895,66064.005,-4628.745,-31683.465,-47696.49,-9049.77,13418.595
1764433723.3268638,37192.41,24338.745,66061.89,-4631.355,-31686.84,-47699.325,-9050.355,13415.535
1764433723.327875,37187.955,24336.495,66061.665,-4633.56,-31689.945,-47703.015,-9044.505,13416.075
1764433723.3749266,37183.185,24335.055,66061.62,-4636.08,-31693.365,-47707.515,-9035.64,13417.155
1764433723.375927,37174.995,24331.455,66059.595,-4641.615,-31699.8,-47715.435,-9028.215,13416.84
1764433723.375927,37172.025,24330.33,66058.73999999999,-4644.9,-31702.095,-47719.08,-9024.525,13417.92
1764433723.375927,37177.605,24334.38,66061.53,-4641.165,-31698.09,-47714.58,-9023.31,13421.385
1764433723.375927,37182.105,24336.09,66061.755,-4638.51,-31694.895,-47710.665,-9027.945,13421.295
1764433723.375927,37182.42,24332.76,66056.76,-4640.175,-31696.605,-47710.44,-9041.22,13414.95
1764433723.375927,37191.105,24337.755,66059.325,-4633.785,-31690.08,-47701.665,-9047.97,13415.985
1764433723.375927,37198.62,24344.055,66065.08499999999,-4625.955,-31682.52,-47693.565,-9047.43,13419.855
1764433723.375927,37194.885,24342.255,66064.545,-4627.755,-31684.095,-47696.265,-9047.34,13418.145
1764433723.375927,37189.395,24339.33,66063.95999999999,-4630.5,-31687.38,-47700.855,-9042.615,13417.875
1764433723.375927,37184.04,24337.305,66063.42,-4633.965,-31692.195,-47705.625,-9034.65,13418.055
1764433723.375927,37177.335,24333.795,66062.06999999999,-4638.87,-31697.685,-47712.33,-9025.92,13418.415
1764433723.375927,37173.735,24331.905,66060.27,-4642.245,-31701.915,-47716.29,-9022.5,13418.685
1764433723.375927,37176.75,24333.705,66060.22499999999,-4641.525,-31701.33,-47715.705,-9023.67,13419.54
1764433723.375927,37186.605,24340.14,66065.895,-4634.01,-31693.095,-47706.525,-9024.795,13424.58
1764433723.376932,37191.87,24340.545,66065.355,-4631.4,-31689.72,-47702.79,-9033.885,13422.96
1764433723.376932,37199.565,24345.495,66068.145,-4625.505,-31682.52,-47694.645,-9041.13,13423.23
1764433723.376932,37203.93,24349.005,66070.575,-4621.23,-31677.705,-47688.75,-9044.145,13424.31
1764433723.376932,37202.22,24348.51,66071.34,-4620.42,-31677.795,-47689.155,-9041.04,13424.355
1764433723.376932,37196.28,24346.08,66070.26,-4623.795,-31681.53,-47694.105,-9035.865,13423.05
1764433723.376932,37186.785,24341.13,66067.065,-4630.275,-31688.91,-47702.295,-9031.905,13420.17
1764433723.376932,37183.41,24341.58,66068.81999999999,-4632.03,-31690.935,-47705.22,-9020.34,13424.805
1764433723.419147,37177.785,24336.63,66064.86,-4637.745,-31696.335,-47710.665,-9018.63,13423.41
1764433723.419147,37176.795,24334.11,66061.26,-4641.705,-31698.945,-47714.04,-9023.985,13420.71
1764433723.419147,37185.93,24340.05,66066.12,-4635.0,-31691.655,-47706.48,-9025.605,13423.86
1764433723.419147,37191.285,24341.49,66066.165,-4631.804999999999,-31688.055,-47702.25,-9034.29,13422.195
1764433723.419147,37198.395,24345.495,66067.245,-4625.73,-31682.925,-47694.915,-9043.065,13422.42
1764433723.419147,37199.79,24345.855,66066.66,-4624.155,-31681.395,-47692.62,-9048.6,13419.945
1764433723.419147,37201.995,24349.86,66072.105,-4619.655,-31677.705,-47689.155,-9041.04,13423.455
1764433723.419147,37193.895,24343.83,66068.37,-4624.56,-31683.555,-47696.94,-9038.115,13420.17
1764433723.419147,37187.73,24342.03,66067.56,-4628.205,-31688.46,-47702.07,-9030.42,13420.935
1764433723.419147,37183.455,24340.95,66068.91,-4631.175,-31691.205,-47706.705,-9019.845,13424.265
1764433723.4201891,37177.695,24336.54,66064.635,-4637.52,-31697.145,-47713.905,-9018.945,13422.375
1764433723.4201891,37180.035,24337.08,66064.185,-4637.385,-31696.335,-47712.915,-9020.565,13423.095
1764433723.4201891,37188.765,24342.48,66068.595,-4631.715,-31689.045,-47704.815,-9022.545,13426.965
1764433723.4201891,37190.52,24340.545,66064.545,-4633.11,-31689.225,-47703.375,-9034.83,13421.43
1764433723.4201891,37199.16,24344.865,66066.93,-4626.945,-31682.79,-47694.78,-9041.895,13421.88
1764433723.4201891,37206.585,24351.255,66072.915,-4618.889999999999,-31675.365,-47686.095,-9040.905,13426.47
1764433723.4201891,37205.505,24351.93,66074.22,-4617.179999999999,-31674.69,-47685.78,-9036.09,13427.37
1764433723.4201891,37200.645,24349.995,66074.355,-4619.34,-31677.705,-47689.515,-9029.7,13426.92
1764433723.4201891,37192.545,24345.36,66071.745,-4624.29,-31683.69,-47697.975,-9024.03,13425.075
1764433723.4201891,37183.185,24340.545,66068.28,-4631.13,-31691.475,-47706.345,-9018.54,13424.445
1764433723.4201891,37175.805,24335.235,66062.745,-4639.679999999999,-31698.855,-47714.355,-9020.07,13420.8
1764433723.4201891,37177.92,24335.505,66062.385,-4639.005,-31697.64,-47713.77,-9022.68,13421.835
1764433723.46479,37185.165,24339.195,66064.185,-4634.865,-31691.925,-47707.38,-9026.19,13423.725
1764433723.46479,37186.785,24336.81,66060.54,-4636.17,-31692.555,-47706.03,-9039.105,13419.045
1764433723.46479,37194.255,24340.185,66062.385,-4630.545,-31686.84,-47698.155,-9047.79,13418.235
1764433723.46479,37197.765,24342.57,66064.86,-4626.9,-31682.97,-47693.295,-9050.085,13418.235
1764433723.46479,37197.54,24343.11,66066.795,-4625.82,-31682.385,-47692.71,-9046.035,13419.27
1764433723.46479,37195.695,24343.785,66069.495,-4625.28,-31682.565,-47693.79,-9037.395,13422.06
1764433723.46479,37193.895,24345.765,66072.78,-4624.29,-31682.43,-47695.455,-9024.525,13427.055
1764433723.46479,37184.895,24340.68,66069.36,-4631.085,-31690.62,-47704.815,-9018.45,13424.985
1764433723.46479,37177.425,24334.155,66063.015,-4639.185,-31698.765,-47713.41,-9020.07,13420.845
1764433723.46479,37179.54,24335.595,66062.34,-4639.05,-31697.775,-47711.79,-9021.96,13422.06
1764433723.46479,37189.53,24342.615,66068.145,-4631.22,-31689.54,-47702.52,-9022.905,13426.83
1764433723.46479,37195.245,24344.145,66068.055,-4627.98,-31685.94,-47697.615,-9031.995,13426.11
1764433723.46479,37203.48,24348.33,66070.575,-4622.13,-31679.37,-47689.605,-9039.33,13425.975
1764433723.4658077,37207.17,24351.345,66072.87,-4617.63,-31675.41,-47684.79,-9041.31,13426.695
1764433723.4658077,37201.725,24348.33,66070.035,-4619.7,-31678.605,-47688.075,-9041.85,13423.95
1764433723.4658077,37195.245,24344.595,66068.37,-4624.514999999999,-31683.24,-47694.15,-9037.215,13422.285
1764433723.4658077,37192.725,24346.08,66071.25,-4625.19,-31684.68,-47697.03,-9025.245,13426.245
1764433723.4658077,37183.095,24340.59,66066.795,-4632.974999999999,-31692.465,-47707.02,-9019.665,13424.22
1764433723.4658077,37179.945,24339.6,66065.805,-4636.8,-31695.48,-47710.395,-9017.19,13423.905
1764433723.4658077,37185.885,24343.65,66069.135,-4632.66,-31690.935,-47705.22,-9016.245,13427.685
1764433723.4658077,37190.61,24344.145,66068.955,-4630.86,-31688.955,-47701.845,-9022.68,13426.965
1764433723.4658077,37191.78,24341.31,66064.635,-4632.974999999999,-31689.99,-47701.935,-9036.045,13420.935
1764433723.4658077,37199.07,24345.135,66065.84999999999,-4627.304999999999,-31683.87,-47694.465,-9044.415,13420.71
1764433723.4658077,37202.895,24347.295,66067.785,-4623.525,-31680.54,-47690.235,-9046.44,13420.845
1764433723.51466,37204.875,24350.085,66072.59999999999,-4619.745,-31677.705,-47687.22,-9040.005,13424.535
1764433723.51466,37195.74,24344.55,66069.45,-4625.054999999999,-31684.095,-47694.825,-9038.115,13420.89
1764433723.515661,37189.53,24342.75,66069.0,-4628.61,-31688.46,-47700.45,-9029.61,13422.06
1764433723.515661,37186.155,24342.705,66070.08,-4630.905,-31691.07,-47704.23,-9018.36,13426.335
1764433723.515661,37180.575,24339.555,66067.11,-4636.08,-31695.66,-47709.315,-9017.415,13424.355
1764433723.515661,37179.54,24336.495,66063.78,-4639.32,-31698.135,-47711.475,-9023.535,13421.295
1764433723.516659,37188.495,24342.255,66067.92,-4633.605,-31691.34,-47703.51,-9025.47,13425.03
1764433723.516659,37192.275,24342.48,66065.67,-4632.389999999999,-31689.54,-47700.72,-9035.82,13422.33
1764433723.516659,37204.38,24350.22,66072.33,-4622.13,-31678.83,-47688.39,-9039.15,13427.01
1764433723.516659,37210.005,24354.585,66076.33499999999,-4616.865,-31672.755,-47681.505,-9039.105,13428.9
1764433723.5176578,37208.025,24354.765,66078.0,-4616.595,-31673.25,-47681.865,-9036.405,13429.215
1764433723.5176578,37202.535,24352.56,66076.605,-4619.565,-31677.525,-47686.725,-9031.635,13428.27
1764433723.5176578,37192.86,24346.53,66072.06,-4626.315,-31685.49,-47696.355,-9027.09,13424.94
1764433723.5176578,37187.055,24345.045,66072.105,-4630.095,-31689.315,-47702.07,-9017.145,13427.505
1764433723.5176578,37182.42,24341.76,66069.135,-4635.135,-31694.22,-47707.425,-9016.155,13425.66
1764433723.5176578,37180.53,24337.71,66064.005,-4639.32,-31697.505,-47709.99,-9023.805,13421.115
1764433723.5176578,37188.225,24341.76,66066.795,-4633.695,-31691.025,-47703.105,-9027.45,13424.085
1764433723.5176578,37189.62,24339.645,66063.23999999999,-4633.74,-31690.71,-47702.07,-9040.5,13419.585
1764433723.5176578,37197.585,24343.65,66065.58,-4626.855,-31684.365,-47694.105,-9047.655,13419.72
1764433723.5176578,37201.095,24347.025,66067.83,-4623.21,-31679.865,-47688.66,-9049.41,13420.755
1764433723.5176578,37202.355,24350.31,66071.52,-4620.645,-31676.85,-47686.635,-9043.47,13423.86
1764433723.5176578,37195.2,24345.0,66068.505,-4626.09,-31682.97,-47693.07,-9039.96,13420.665
1764433723.5176578,37190.025,24343.425,66069.135,-4629.014999999999,-31686.39,-47697.93,-9030.465,13422.195
1764433723.5176578,37177.695,24335.46,66063.06,-4638.554999999999,-31696.56,-47709.405,-9026.685,13418.055
1764433723.5186608,37173.735,24332.76,66060.405,-4643.01,-31700.52,-47714.535,-9025.29,13416.84
1764433723.5186608,37176.975,24334.02,66060.36,-4641.795,-31698.09,-47712.15,-9026.46,13418.55
1764433723.5595794,37186.785,24340.905,66065.22,-4633.965,-31689.54,-47702.79,-9026.775,13424.265
1764433723.5595794,37191.69,24342.48,66064.31999999999,-4631.49,-31686.03,-47698.29,-9036.63,13422.555
1764433723.5595794,37196.235,24343.56,66063.69,-4628.429999999999,-31682.52,-47693.52,-9047.205,13419.405
1764433723.5595794,37200.645,24346.305,66067.155,-4624.245,-31677.885,-47688.03,-9047.475,13420.935
1764433723.5595794,37199.745,24346.26,66068.775,-4623.389999999999,-31677.615,-47688.39,-9043.515,13421.97
1764433723.5595794,37195.92,24345.81,66069.315,-4624.965,-31679.865,-47691.36,-9036.765,13422.645
1764433723.5595794,37192.77,24347.205,66071.79,-4625.955,-31681.125,-47693.61,-9026.145,13426.245
1764433723.5595794,37181.52,24339.285,66065.67,-4635.495,-31690.845,-47704.59,-9021.42,13422.42
1764433723.5595794,37178.46,24336.81,66063.78,-4639.32,-31694.58,-47708.73,-9019.62,13421.97
1764433723.5595794,37184.22,24340.905,66067.02,-4635.99,-31689.675,-47704.185,-9019.305,13425.705
1764433723.5595794,37188.72,24342.255,66066.705,-4634.19,-31687.245,-47700.99,-9026.64,13424.58
1764433723.5605764,37189.035,24338.835,66060.855,-4636.26,-31688.64,-47701.215,-9040.815,13418.01
1764433723.5605764,37200.195,24346.08,66066.705,-4626.764999999999,-31678.47,-47690.46,-9044.775,13422.15
1764433723.5610847,37204.02,24349.23,66069.675,-4621.365,-31674.015,-47685.33,-9045.63,13423.005
1764433723.5610847,37201.545,24348.33,66070.395,-4621.095,-31675.545,-47687.22,-9042.345,13422.33
1764433723.5610847,37192.005,24341.535,66065.625,-4628.79,-31683.87,-47696.445,-9041.355,13416.93
1764433723.5610847,37188.045,24341.94,66067.785,-4630.32,-31685.895,-47699.73,-9030.78,13419.99
1764433723.5610847,37181.34,24338.835,66066.435,-4634.639999999999,-31691.655,-47706.345,-9022.05,13420.845
1764433723.5610847,37178.865,24336.585,66064.41,-4638.105,-31695.255,-47710.08,-9019.665,13421.7
1764433723.5610847,37176.57,24333.165,66059.595,-4641.84,-31698.495,-47712.915,-9025.92,13417.92
1764433723.5610847,37184.895,24338.745,66063.735,-4636.304999999999,-31691.07,-47705.13,-9028.53,13421.295
1764433723.5610847,37189.845,24340.32,66063.19499999999,-4632.705,-31687.965,-47700.405,-9037.98,13419.81
1764433723.607782,37196.37,24343.155,66063.78,-4627.755,-31683.6,-47694.015,-9045.99,13418.685
1764433723.607782,37201.14,24347.07,66067.69499999999,-4622.355,-31677.525,-47687.715,-9046.395,13420.35
1764433723.607782,37196.055,24344.01,66066.345,-4625.054999999999,-31681.08,-47692.17,-9045.9,13418.01
1764433723.607782,37194.21,24344.955,66069.315,-4625.099999999999,-31681.935,-47693.205,-9037.44,13421.43
1764433723.607782,37186.56,24342.615,66068.055,-4629.915,-31686.795,-47698.74,-9029.97,13421.295
1764433723.607782,37177.65,24337.485,66064.545,-4637.205,-31694.22,-47707.56,-9023.715,13420.485
1764433723.607782,37171.395,24331.275,66058.785,-4643.73,-31701.195,-47714.715,-9024.975,13416.165
1764433723.607782,37176.345,24335.055,66061.17,-4641.12,-31697.505,-47710.755,-9026.37,13419.405
1764433723.607782,37184.31,24340.23,66064.455,-4635.179999999999,-31690.17,-47702.79,-9029.655,13423.23
1764433723.607782,37186.245,24337.71,66060.675,-4635.945,-31689.81,-47702.205,-9041.49,13418.19
1764433723.607782,37197.855,24345.585,66066.705,-4626.224999999999,-31679.82,-47690.505,-9045.18,13422.105
1764433723.607782,37201.23,24346.755,66068.81999999999,-4622.58,-31677.48,-47686.995,-9046.395,13421.88
1764433723.6087823,37197.405,24344.145,66067.515,-4624.83,-31681.125,-47690.64,-9045.18,13419.855
1764433723.6087823,37194.165,24344.505,66069.765,-4625.099999999999,-31682.205,-47693.07,-9037.08,13421.655
1764433723.6087823,37183.68,24338.16,66064.86,-4633.38,-31690.98,-47703.15,-9032.58,13417.65
1764433723.6087823,37177.335,24334.785,66063.51,-4639.139999999999,-31696.695,-47709.99,-9025.65,13418.055
1764433723.6087823,37177.83,24336.045,66064.41,-4639.455,-31696.965,-47710.935,-9021.015,13421.07
1764433723.6087823,37176.525,24333.75,66060.855,-4641.929999999999,-31699.035,-47712.105,-9027.0,13417.92
1764433723.6087823,37186.2,24340.41,66065.22,-4635.179999999999,-31691.205,-47703.465,-9028.44,13422.96
1764433723.6087823,37192.995,24343.02,66065.4,-4631.13,-31685.58,-47697.48,-9036.495,13422.51
1764433723.6087823,37202.58,24348.96,66069.855,-4623.255,-31677.705,-47687.67,-9041.625,13425.435
1764433723.6087823,37205.145,24350.76,66071.83499999999,-4620.465,-31675.14,-47685.015,-9043.515,13425.705
1764433723.6087823,37198.395,24346.215,66068.595,-4624.245,-31680.495,-47691.18,-9044.46,13421.25
1764433723.6087823,37193.535,24344.955,66068.505,-4626.09,-31683.555,-47694.915,-9037.98,13421.16
1764433723.652086,37191.06,24346.305,66071.88,-4626.81,-31685.13,-47696.805,-9025.92,13425.21
1764433723.652086,37183.545,24342.885,66069.315,-4632.389999999999,-31690.395,-47703.735,-9018.495,13425.84
1764433723.652086,37179.54,24339.24,66065.94,-4636.8,-31693.32,-47708.64,-9018.54,13424.535
1764433723.652086,37180.8,24338.52,66063.735,-4637.52,-31693.365,-47707.965,-9022.995,13422.555
1764433723.652086,37185.57,24340.185,66063.51,-4635.675,-31691.115,-47703.96,-9028.8,13422.105
1764433723.652086,37185.885,24336.675,66058.47,-4637.16,-31691.655,-47704.32,-9043.38,13416.21
1764433723.652086,37193.535,24341.175,66061.70999999999,-4630.815,-31685.13,-47695.68,-9049.68,13417.245
1764433723.652086,37199.61,24345.36,66066.39,-4625.73,-31679.64,-47690.145,-9048.78,13419.36
1764433723.652086,37194.615,24341.76,66064.005,-4628.52,-31683.69,-47694.195,-9047.52,13416.615
1764433723.652086,37189.935,24341.4,66065.13,-4629.24,-31684.635,-47696.13,-9039.42,13417.38
1764433723.652086,37179.405,24334.965,66060.0,-4638.285,-31693.95,-47706.93,-9035.145,13414.005
1764433723.653102,37174.95,24334.2,66060.58499999999,-4640.67,-31697.55,-47712.24,-9025.38,13417.245
1764433723.653102,37168.605,24328.215,66054.59999999999,-4647.915,-31704.795,-47719.44,-9028.08,13412.745
1764433723.653102,37172.07,24329.25,66055.59,-4646.429999999999,-31703.085,-47716.965,-9031.005,13413.555
1764433723.653102,37180.98,24333.975,66059.73,-4639.815,-31695.57,-47709.54,-9032.94,13416.975
1764433723.653102,37183.095,24332.355,66055.31999999999,-4640.264999999999,-31695.21,-47707.425,-9046.395,13411.44
1764433723.6544151,37191.015,24337.17,66057.525,-4634.639999999999,-31688.82,-47700.18,-9054.045,13412.295
1764433723.6544151,37198.125,24342.66,66063.645,-4626.764999999999,-31681.125,-47692.53,-9051.12,13417.47
1764433723.6554365,37192.77,24339.24,66061.665,-4629.51,-31684.59,-47695.545,-9049.275,13414.32
1764433723.6554365,37190.88,24340.905,66064.275,-4629.33,-31684.545,-47696.355,-9039.78,13417.65
1764433723.6554365,37184.76,24339.06,66063.915,-4632.615,-31688.55,-47701.8,-9030.78,13418.685
1764433723.6564264,37174.86,24332.85,66058.92,-4640.895,-31697.64,-47712.645,-9026.775,13415.715
1764433723.6564264,37169.28,24328.08,66053.83499999999,-4647.915,-31704.03,-47719.08,-9028.395,13412.34
1764433723.6564264,37172.16,24329.16,66054.15,-4645.889999999999,-31702.095,-47716.65,-9031.68,13412.88
1764433723.7008798,37182.78,24335.91,66059.28,-4638.014999999999,-31693.41,-47707.155,-9031.995,13417.515
1764433723.7008798,37188.135,24336.945,66059.055,-4635.72,-31689.81,-47702.52,-9041.805,13415.895
1764433723.7008798,37190.835,24336.315,66057.705,-4633.514999999999,-31687.605,-47698.92,-9052.47,13411.98
1764433723.7008798,37194.075,24338.295,66059.81999999999,-4629.87,-31684.365,-47694.87,-9053.73,13412.25
1764433723.7008798,37193.94,24340.23,66062.655,-4628.16,-31683.69,-47694.42,-9048.105,13413.87
1764433723.7008798,37188.135,24338.07,66061.935,-4631.22,-31688.055,-47699.64,-9042.615,13414.14
1764433723.7008798,37180.755,24334.47,66060.0,-4636.17,-31693.545,-47705.895,-9034.425,13414.185
1764433723.7008798,37172.205,24329.655,66056.84999999999,-4643.145,-31701.24,-47714.31,-9029.205,13412.97
1764433723.7008798,37167.48,24325.695,66052.755,-4648.86,-31706.055,-47720.205,-9030.33,13410.81
1764433723.7008798,37175.085,24331.365,66057.48,-4643.639999999999,-31699.89,-47713.905,-9029.52,13415.535
1764433723.7018907,37181.745,24334.695,66058.83,-4639.77,-31694.715,-47707.74,-9033.75,13416.885
1764433723.7018907,37184.58,24333.75,66055.95,-4638.915,-31693.545,-47705.58,-9045.855,13412.385
1764433723.7018907,37191.24,24336.72,66057.705,-4633.29,-31688.01,-47698.29,-9053.37,13412.34
1764433723.7018907,37194.435,24339.285,66060.855,-4630.005,-31684.005,-47693.16,-9053.82,13414.095
1764433723.7018907,37196.055,24343.785,66066.61499999999,-4625.955,-31680.675,-47690.595,-9045.45,13418.28
1764433723.7018907,37188.45,24338.745,66063.465,-4630.86,-31686.885,-47696.94,-9042.12,13415.76
1764433723.7018907,37184.31,24338.43,66064.77,-4633.605,-31690.17,-47701.215,-9031.77,13418.415
1764433723.7018907,37175.985,24333.21,66061.26,-4640.625,-31697.73,-47709.72,-9026.37,13417.065
1764433723.7018907,37168.065,24326.46,66053.97,-4649.13,-31706.19,-47718.675,-9030.195,13411.26
1764433723.7018907,37170.54,24327.585,66053.16,-4649.13,-31704.84,-47717.01,-9034.065,13410.63
1764433723.745431,37177.695,24330.915,66055.095,-4644.63,-31698.63,-47711.115,-9038.79,13412.34
1764433723.745431,37182.735,24332.13,66055.005,-4640.715,-31694.58,-47705.895,-9048.555,13411.215
1764433723.745431,37188.81,24334.605,66056.355,-4635.945,-31689.63,-47699.64,-9056.295,13409.82
1764433723.745431,37189.44,24334.335,66056.44499999999,-4635.135,-31688.865,-47698.11,-9059.805,13407.975
1764433723.745431,37191.645,24338.745,66061.215,-4631.13,-31685.805,-47694.69,-9050.895,13412.385
1764433723.745431,37183.995,24333.03,66058.425,-4637.07,-31692.465,-47702.565,-9047.115,13409.46
1764433723.745431,37177.155,24330.15,66056.985,-4641.974999999999,-31697.91,-47709.765,-9039.195,13409.685
1764433723.745431,37172.745,24329.295,66057.97499999999,-4645.485,-31700.88,-47714.22,-9029.97,13412.16
1764433723.745942,37167.345,24325.2,66053.385,-4650.795,-31706.235,-47720.07,-9031.635,13408.56
1764433723.745942,37173.96,24330.87,66057.255,-4646.205,-31700.79,-47714.445,-9030.96,13412.745
1764433723.745942,37178.73,24332.13,66057.435,-4643.46,-31697.505,-47710.44,-9037.89,13412.385
1764433723.757161,37180.44,24329.25,66052.485,-4644.179999999999,-31698.315,-47709.18,-9052.065,13406.535
1764433723.757161,37186.605,24332.355,66053.88,-4639.23,-31692.87,-47702.115,-9059.175,13405.815
1764433723.7581606,37187.91,24333.48,66055.23,-4637.115,-31689.99,-47699.595,-9060.75,13405.77
1764433723.7581606,37186.875,24334.02,66056.895,-4636.125,-31689.945,-47700.045,-9056.25,13407.345
1764433723.7581606,37185.57,24336.54,66060.405,-4634.73,-31689.45,-47700.81,-9045.855,13411.485
1764433723.7581606,37174.545,24329.07,66055.095,-4642.965,-31698.405,-47711.07,-9042.12,13407.66
1764433723.7591584,37167.435,24325.245,66052.98,-4648.41,-31704.165,-47718.27,-9034.875,13407.435
1764433723.7591584,37169.64,24328.35,66056.08499999999,-4647.105,-31702.32,-47716.47,-9029.25,13411.395
1764433723.7591584,37169.82,24327.405,66053.655,-4648.635,-31702.635,-47716.065,-9034.515,13409.865
1764433723.760164,37180.755,24335.55,66059.86499999999,-4641.255,-31694.13,-47706.39,-9035.46,13415.4
1764433723.760164,37183.77,24335.1,66057.48,-4640.4,-31692.33,-47703.105,-9046.755,13411.98
1764433723.7611578,37194.57,24342.93,66064.005,-4630.59,-31682.07,-47692.08,-9049.23,13416.12
1764433723.7611578,37198.035,24345.495,66066.795,-4626.45,-31678.83,-47687.805,-9049.365,13417.425
1764433723.7956753,37195.38,24345.855,66067.65,-4626.495,-31679.595,-47689.065,-9044.64,13418.235
1764433723.7956753,37186.38,24339.915,66062.88,-4633.155,-31687.2,-47696.985,-9041.895,13414.815
1764433723.7956753,37177.74,24334.38,66060.27,-4639.635,-31694.58,-47704.905,-9035.685,13413.105
1764433723.7956753,37169.685,24329.835,66057.39,-4646.07,-31701.06,-47713.23,-9030.105,13411.935
1764433723.7956753,37167.93,24328.755,66055.05,-4649.13,-31703.625,-47716.02,-9029.025,13411.935
1764433723.7956753,37171.305,24330.15,66055.455,-4647.78,-31702.14,-47713.815,-9031.905,13412.52
1764433723.7956753,37182.735,24337.845,66061.755,-4638.87,-31692.825,-47703.195,-9032.715,13418.325
1764433723.7956753,37188.045,24339.42,66060.98999999999,-4636.08,-31688.64,-47698.83,-9042.66,13416.75
1764433723.7956753,37191.33,24340.185,66060.0,-4633.83,-31686.3,-47694.78,-9052.29,13413.285
1764433723.7956753,37196.145,24343.785,66065.31,-4627.62,-31681.215,-47688.165,-9050.04,13416.3
1764433723.7956753,37191.42,24340.905,66063.915,-4630.32,-31684.68,-47691.675,-9047.79,13414.95
1764433723.7956753,37189.845,24343.155,66067.02,-4630.005,-31684.77,-47692.44,-9037.71,13419.0
1764433723.7956753,37183.68,24340.995,66066.795,-4633.47,-31689.225,-47698.02,-9028.62,13420.395
1764433723.7956753,37174.635,24334.695,66062.43,-4640.895,-31698.18,-47707.83,-9024.705,13418.775
1764433723.7956753,37169.325,24329.295,66056.985,-4647.915,-31704.66,-47714.265,-9027.63,13415.175
1764433723.7966726,37173.555,24330.645,66057.3,-4646.07,-31701.915,-47711.835,-9030.555,13415.535
1764433723.7966726,37180.17,24333.84,66059.09999999999,-4641.48,-31696.515,-47705.805,-9035.595,13416.255
1764433723.7966726,37180.305,24331.41,66054.465,-4642.695,-31697.415,-47704.905,-9049.905,13409.91
1764433723.7966726,37188.315,24335.955,66057.705,-4635.54,-31690.215,-47696.31,-9054.765,13411.62
1764433723.7966726,37195.2,24342.21,66064.455,-4628.97,-31683.33,-47688.705,-9051.93,13415.985
1764433723.7966726,37191.195,24340.545,66063.78,-4630.86,-31686.255,-47691.135,-9048.555,13415.31
1764433723.7966726,37181.565,24334.335,66058.65,-4636.395,-31694.04,-47699.685,-9046.395,13411.17
1764433723.7966726,37178.685,24335.46,66061.035,-4637.07,-31695.165,-47703.195,-9034.785,13414.995
1764433723.7966726,37171.305,24331.5,66058.245,-4643.639999999999,-31701.78,-47711.07,-9028.215,13414.905
1764433723.8409944,37164.51,24325.065,66051.45,-4651.605,-31708.665,-47718.765,-9032.04,13409.685
1764433723.8409944,37168.11,24326.145,66051.405,-4649.67,-31705.92,-47716.47,-9036.09,13409.91
1764433723.8409944,37178.505,24333.435,66057.56999999999,-4641.795,-31697.1,-47706.255,-9037.395,13414.77
1764433723.8409944,37185.795,24336.765,66059.055,-4635.99,-31691.745,-47699.325,-9045.27,13414.995
1764433723.8409944,37192.095,24339.465,66059.73,-4631.13,-31686.66,-47693.835,-9052.92,13413.96
1764433723.8409944,37190.97,24338.115,66058.69499999999,-4631.355,-31686.705,-47693.52,-9056.475,13411.485
1764433723.8409944,37190.475,24339.555,66062.295,-4630.095,-31686.12,-47692.665,-9049.95,13413.96
1764433723.8409944,37182.285,24334.695,66058.785,-4635.585,-31692.24,-47699.595,-9046.17,13410.855
1764433723.8409944,37178.46,24334.785,66061.035,-4636.755,-31693.545,-47703.24,-9034.83,13414.725
1764433723.8409944,37167.435,24327.405,66054.59999999999,-4646.16,-31703.4,-47714.355,-9033.165,13410.63
1764433723.8420062,37165.68,24326.415,66053.43,-4648.455,-31705.29,-47716.785,-9032.04,13411.485
1764433723.8420062,37174.005,24332.58,66058.38,-4642.785,-31699.395,-47709.135,-9030.555,13417.02
1764433723.8420062,37180.845,24337.08,66061.08,-4637.429999999999,-31693.365,-47702.565,-9034.74,13419.135
1764433723.8420062,37184.67,24336.72,66059.235,-4636.215,-31691.295,-47698.92,-9046.35,13415.175
1764433723.8420062,37187.28,24335.91,66056.94,-4635.179999999999,-31689.945,-47696.985,-9057.375,13410.36
1764433723.8420062,37189.935,24337.89,66059.325,-4633.02,-31687.605,-47694.96,-9057.195,13410.9
1764433723.8420062,37190.385,24340.86,66063.51,-4630.23,-31685.445,-47692.35,-9049.005,13414.86
1764433723.8420062,37184.76,24339.06,66063.19499999999,-4633.065,-31688.865,-47696.4,-9042.48,13415.22
1764433723.8420062,37177.29,24335.46,66062.025,-4637.925,-31693.77,-47702.79,-9034.47,13415.175
1764433723.8420062,37168.515,24330.42,66057.20999999999,-4645.665,-31702.005,-47711.745,-9030.33,13412.79
1764433723.8420062,37164.015,24326.73,66052.845,-4650.929999999999,-31706.82,-47717.865,-9032.13,13410.18
1764433723.8420062,37170.99,24330.24,66056.22,-4646.79,-31701.78,-47712.78,-9032.67,13413.33
1764433723.8420062,37177.605,24332.805,66057.345,-4642.695,-31697.1,-47707.515,-9038.88,13413.96
1764433723.8420062,37184.535,24335.325,66058.02,-4638.195,-31692.015,-47700.63,-9047.16,13413.645
1764433723.885136,37191.33,24339.42,66059.73,-4632.795,-31686.21,-47693.79,-9053.19,13413.06
1764433723.885136,37188.675,24336.81,66058.33499999999,-4633.65,-31687.515,-47695.005,-9056.925,13409.685
1764433723.885136,37188.495,24338.745,66062.16,-4631.175,-31686.345,-47694.33,-9049.995,13412.835
1764433723.885136,37179.18,24333.66,66058.02,-4637.474999999999,-31693.23,-47702.25,-9047.07,13409.28
1764433723.885136,37172.655,24331.185,66056.535,-4642.785,-31698.18,-47708.73,-9038.835,13410.315
1764433723.885136,37169.415,24330.555,66057.20999999999,-4645.395,-31701.42,-47712.735,-9029.25,13413.51
1764433723.885136,37165.005,24326.01,66052.575,-4651.02,-31706.73,-47717.955,-9031.455,13410.495
1764433723.885136,37171.665,24330.645,66055.31999999999,-4646.88,-31702.05,-47712.51,-9032.22,13413.78
1764433723.885136,37178.325,24334.02,66056.94,-4642.605,-31697.055,-47706.705,-9037.215,13415.085
1764433723.885136,37182.6,24334.56,66055.5,-4640.22,-31694.22,-47702.97,-9048.33,13411.845
1764433723.885136,37185.75,24334.875,66054.42,-4637.565,-31691.16,-47699.415,-9057.915,13408.56
1764433723.885136,37186.695,24335.595,66056.48999999999,-4635.045,-31688.955,-47696.535,-9058.59,13408.065
1764433723.885136,37187.37,24338.16,66059.86499999999,-4632.03,-31687.335,-47695.365,-9050.58,13411.305
1764433723.885136,37179.63,24332.985,66056.715,-4637.88,-31694.22,-47703.15,-9047.43,13408.47
1764433723.885136,37173.645,24331.23,66056.94,-4641.03,-31698.495,-47709.045,-9038.52,13410.585
1764433723.885136,37170.36,24331.455,66058.2,-4642.92,-31700.295,-47712.195,-9029.07,13414.095
1764433723.885136,37165.77,24327.855,66053.43,-4648.724999999999,-31705.83,-47717.235,-9031.68,13411.395
1764433723.885136,37170.36,24330.06,66054.645,-4647.15,-31703.355,-47714.04,-9033.84,13413.195
1764433723.885136,37180.71,24336.855,66059.37,-4639.815,-31695.12,-47704.905,-9036.09,13417.605
1764433723.885136,37183.95,24336.045,66056.805,-4639.005,-31692.195,-47702.115,-9048.645,13412.655
1764433723.885136,37190.475,24339.33,66059.415,-4633.29,-31687.11,-47694.555,-9054.99,13411.98
1764433723.885136,37192.725,24342.255,66062.52,-4629.87,-31684.77,-47690.955,-9053.595,13413.69
1764433723.9323597,37193.895,24345.9,66067.69499999999,-4626.315,-31682.16,-47688.705,-9044.505,13418.235
1764433723.9323597,37187.685,24342.84,66065.44499999999,-4630.724999999999,-31685.94,-47694.51,-9039.015,13417.38
1764433723.9323597,37176.48,24335.955,66060.63,-4638.96,-31695.795,-47705.445,-9034.65,13413.96
1764433723.9323597,37173.735,24336.135,66061.98,-4640.355,-31696.785,-47708.235,-9025.245,13417.83
1764433723.9323597,37173.42,24336.0,66061.8,-4642.11,-31697.955,-47709.63,-9024.48,13419.225
1764433723.9323597,37176.84,24337.53,66061.53,-4641.255,-31695.975,-47706.57,-9028.44,13419.81
1764433723.9323597,37184.985,24342.03,66063.645,-4636.62,-31689.855,-47700.27,-9032.49,13421.565
1764433723.9323597,37188.9,24341.805,66061.62,-4635.27,-31688.28,-47696.895,-9045.18,13417.515
1764433723.9323597,37191.87,24341.175,66060.45,-4633.425,-31686.39,-47692.71,-9055.17,13413.915
1764433723.933375,37193.76,24343.335,66062.745,-4629.96,-31683.555,-47689.65,-9054.45,13414.545
1764433723.933375,37192.095,24344.01,66064.86,-4629.24,-31684.005,-47690.325,-9048.015,13416.435
1764433723.933375,37185.75,24340.86,66064.005,-4633.605,-31687.965,-47695.455,-9041.445,13416.21
1764433723.933375,37177.92,24337.8,66063.19499999999,-4638.735,-31693.005,-47702.25,-9033.3,13416.39
1764433723.933375,37173.645,24336.9,66063.42,-4641.705,-31695.615,-47706.345,-9025.29,13419.135
1764433723.933375,37172.205,24334.83,66060.72,-4643.91,-31698.72,-47709.27,-9025.245,13418.595
1764433723.933375,37174.005,24334.515,66058.47,-4644.09,-31698.855,-47709.27,-9031.59,13417.2
1764433723.933375,37184.625,24341.04,66064.5,-4636.889999999999,-31690.665,-47700.18,-9032.985,13422.195
1764433723.933375,37190.25,24342.48,66063.645,-4633.245,-31686.615,-47694.87,-9042.615,13420.305
1764433723.933375,37191.87,24341.22,66061.8,-4632.389999999999,-31685.265,-47692.575,-9053.325,13416.345
1764433723.933375,37192.635,24341.895,66063.15,-4630.679999999999,-31683.015,-47691.0,-9054.405,13415.265
1764433723.933375,37190.61,24342.255,66064.36499999999,-4631.264999999999,-31683.555,-47692.035,-9048.915,13415.715
1764433723.933375,37185.435,24341.04,66064.185,-4633.47,-31687.29,-47696.895,-9041.67,13416.255
1764433723.9810858,37179.27,24339.105,66063.95999999999,-4637.79,-31692.24,-47703.42,-9033.03,13416.885
1764433723.9810858,37172.43,24335.46,66060.58499999999,-4643.955,-31697.505,-47710.305,-9027.495,13416.705
1764433723.9810858,37170.135,24332.985,66057.97499999999,-4646.925,-31700.115,-47713.185,-9028.665,13415.895
1764433723.9810858,37175.31,24335.82,66059.235,-4644.27,-31697.415,-47709.81,-9032.265,13417.56
1764433723.9810858,37187.505,24345.45,66067.245,-4634.01,-31686.525,-47697.885,-9031.68,13425.03
1764433723.9810858,37192.77,24347.16,66067.02,-4630.455,-31681.62,-47692.305,-9041.265,13423.68
1764433723.9810858,37198.305,24349.635,66068.145,-4625.82,-31677.57,-47686.32,-9047.43,13423.275
1764433723.9810858,37197.63,24348.735,66067.785,-4625.55,-31678.02,-47686.23,-9049.14,13421.745
1764433723.9810858,37190.745,24344.055,66064.36499999999,-4629.78,-31683.24,-47692.215,-9048.015,13417.74
1764433723.9810858,37186.155,24343.11,66065.355,-4631.715,-31685.715,-47696.445,-9040.23,13418.28
1764433723.9810858,37183.41,24344.055,66067.785,-4633.245,-31687.515,-47699.235,-9027.81,13422.465
1764433723.9810858,37175.355,24338.835,66063.87,-4639.139999999999,-31694.67,-47707.29,-9023.76,13420.755
1764433723.9815972,37170.135,24333.12,66058.065,-4645.755,-31700.835,-47714.04,-9028.08,13415.85
1764433723.9815972,37173.555,24334.47,66057.795,-4644.045,-31698.765,-47711.115,-9032.355,13416.48
1764433723.9815972,37184.67,24342.705,66064.86,-4635.09,-31689.45,-47700.315,-9033.345,13422.78
1764433723.9815972,37191.195,24344.01,66065.22,-4631.625,-31684.815,-47694.78,-9042.57,13421.16
1764433723.9815972,37197.27,24346.125,66066.03,-4626.945,-31680.09,-47688.12,-9049.275,13420.26
1764433723.9815972,37200.015,24349.23,66068.81999999999,-4623.57,-31677.165,-47684.61,-9047.79,13422.105
1764433723.9815972,37196.28,24349.05,66069.18,-4624.605,-31678.74,-47686.86,-9043.02,13422.51
1764433723.9815972,37187.055,24343.785,66065.44499999999,-4630.77,-31685.535,-47694.555,-9039.24,13418.91
1764433723.9815972,37182.51,24343.02,66066.885,-4633.02,-31687.83,-47698.74,-9028.215,13422.015
1764433723.9815972,37176.12,24339.51,66064.455,-4638.87,-31693.68,-47705.715,-9022.77,13421.7
1764433723.9815972,37172.475,24335.955,66060.27,-4643.054999999999,-31697.73,-47710.98,-9025.425,13419.45
1764433723.9815972,37180.71,24342.525,66064.68,-4637.655,-31691.79,-47704.23,-9025.92,13424.445
1764433724.023548,37187.82,24345.45,66066.48,-4633.605,-31687.29,-47698.605,-9031.14,13425.57
1764433724.023548,37190.205,24342.93,66062.43,-4633.92,-31686.885,-47696.85,-9044.82,13420.08
1764433724.023548,37199.115,24349.005,66067.11,-4625.91,-31678.515,-47687.67,-9047.655,13422.915
1764433724.023548,37199.43,24349.23,66067.83,-4624.47,-31676.67,-47685.375,-9048.555,13422.105
1764433724.023548,37190.79,24343.695,66064.41,-4629.33,-31682.97,-47693.205,-9048.42,13417.38
1764433724.023548,37185.21,24341.085,66064.455,-4632.795,-31687.245,-47698.74,-9042.21,13417.56
1764433724.023548,37182.33,24342.345,66067.56,-4633.47,-31688.955,-47700.72,-9030.105,13422.285
1764433724.023548,37174.5,24337.935,66063.19499999999,-4640.355,-31695.615,-47708.91,-9025.695,13420.98
1764433724.023548,37169.235,24332.895,66056.76,-4646.745,-31701.42,-47714.805,-9029.34,13416.705
1764433724.023548,37177.335,24337.71,66060.72,-4641.435,-31694.895,-47707.605,-9030.465,13420.755
1764433724.023548,37184.22,24341.31,66063.15,-4636.845,-31689.45,-47701.305,-9035.235,13421.79
1764433724.023548,37188.27,24340.95,66061.035,-4635.63,-31687.785,-47698.74,-9047.295,13418.235
1764433724.023548,37197.36,24347.16,66065.84999999999,-4627.665,-31679.685,-47689.245,-9050.31,13420.485
1764433724.023548,37194.57,24345.27,66063.95999999999,-4628.7,-31681.215,-47690.145,-9052.695,13417.425
1764433724.023548,37191.78,24344.775,66064.095,-4630.139999999999,-31683.15,-47692.575,-9047.475,13418.145
1764433724.023548,37186.2,24342.705,66063.78,-4633.065,-31686.795,-47697.975,-9041.445,13418.235
1764433724.023548,37179.585,24339.96,66062.925,-4637.61,-31691.25,-47704.68,-9031.68,13419.315
1764433724.023548,37172.88,24336.18,66060.9,-4643.145,-31697.55,-47711.835,-9026.145,13419.405
1764433724.023548,37171.215,24334.965,66058.785,-4645.62,-31699.98,-47714.22,-9026.91,13419.405
1764433724.023548,37175.985,24337.395,66059.64,-4643.595,-31697.01,-47710.08,-9031.14,13420.305
1764433724.023548,37186.245,24343.515,66064.36499999999,-4636.53,-31689.09,-47700.54,-9033.885,13423.995
1764433724.023548,37188.225,24341.76,66061.305,-4635.99,-31688.595,-47699.055,-9047.205,13417.605
1764433724.023548,37193.22,24344.505,66062.61,-4632.12,-31684.77,-47693.025,-9054.18,13417.29
1764433724.023548,37196.055,24347.025,66066.20999999999,-4627.755,-31680.99,-47689.11,-9050.715,13420.08
1764433724.0709765,37196.685,24349.68,66070.035,-4625.595,-31679.505,-47688.39,-9042.12,13423.545
1764433724.0720775,37189.035,24345.54,66067.69499999999,-4631.085,-31685.355,-47694.87,-9037.755,13421.61
1764433724.0720775,37177.92,24338.88,66062.385,-4639.59,-31694.445,-47705.31,-9033.3,13418.37
1764433724.0720775,37174.86,24339.105,66062.61,-4641.66,-31696.605,-47708.1,-9024.12,13421.385
1764433724.0730762,37174.77,24338.07,66061.08,-4643.955,-31697.595,-47710.08,-9023.58,13420.935
1764433724.0730762,37175.58,24336.315,66058.605,-4644.9,-31698.63,-47710.575,-9031.095,13417.92
1764433724.0730762,37185.255,24342.93,66063.645,-4636.26,-31690.08,-47701.44,-9033.48,13422.51
1764433724.0730762,37190.925,24344.73,66063.19499999999,-4632.525,-31686.345,-47696.265,-9043.695,13420.44
1764433724.0730762,37196.19,24347.835,66065.805,-4628.565,-31681.665,-47690.775,-9049.725,13419.765
1764433724.0730762,37196.1,24347.88,66066.20999999999,-4627.71,-31680.405,-47689.335,-9049.815,13419.09
1764433724.0730762,37190.385,24344.685,66063.15,-4630.995,-31684.365,-47693.34,-9046.89,13417.56
1764433724.074093,37188.36,24346.485,66066.345,-4630.23,-31684.5,-47694.78,-9036.315,13421.34
1764433724.074093,37180.89,24343.56,66065.44499999999,-4635.315,-31690.17,-47702.565,-9027.405,13421.385
1764433724.074093,37173.555,24338.655,66062.16,-4642.02,-31696.47,-47709.54,-9023.715,13420.8
1764433724.074093,37169.91,24334.785,66057.84,-4647.465,-31700.43,-47713.635,-9027.675,13417.83
1764433724.074093,37178.73,24342.21,66062.7,-4641.21,-31693.14,-47705.13,-9027.045,13423.005
1764433724.074093,37184.67,24344.685,66063.735,-4637.385,-31689.81,-47699.595,-9032.76,13423.32
1764433724.0750902,37187.145,24342.48,66060.36,-4637.429999999999,-31688.685,-47697.21,-9046.44,13418.055
1764433724.0750902,37196.82,24349.455,66065.84999999999,-4628.88,-31679.64,-47688.12,-9048.465,13421.61
1764433724.0750902,37194.345,24347.61,66064.635,-4629.195,-31681.35,-47689.065,-9050.49,13418.415
1764433724.0750902,37193.445,24349.545,66067.515,-4627.349999999999,-31680.945,-47688.885,-9042.39,13421.655
1764433724.0750902,37184.67,24344.865,66063.735,-4633.83,-31688.1,-47697.39,-9039.105,13418.19
1764433724.0750902,37177.695,24341.985,66063.105,-4639.05,-31692.915,-47703.375,-9029.07,13419.27
1764433724.0750902,37175.895,24342.48,66064.31999999999,-4641.03,-31693.32,-47706.255,-9020.115,13422.87
1764433724.114851,37176.48,24342.165,66064.005,-4641.84,-31693.77,-47707.47,-9019.935,13423.77
1764433724.114851,37180.485,24343.47,66063.19499999999,-4639.905,-31691.34,-47703.96,-9024.885,13423.68
1764433724.114851,37186.605,24346.485,66064.41,-4636.395,-31687.065,-47697.93,-9030.87,13424.085
1764433724.114851,37191.06,24347.07,66063.825,-4633.785,-31684.41,-47693.07,-9042.39,13421.07
1764433724.114851,37193.085,24345.855,66062.16,-4633.56,-31682.97,-47691.0,-9050.94,13417.245
1764433724.114851,37195.92,24349.185,66066.03,-4628.925,-31679.505,-47687.76,-9047.88,13419.495
1764433724.114851,37189.755,24345.09,66063.51,-4633.245,-31684.275,-47692.89,-9045.225,13416.795
1764433724.114851,37183.275,24342.57,66062.7,-4636.845,-31688.145,-47697.84,-9039.285,13416.345
1764433724.114851,37176.75,24340.185,66062.025,-4640.445,-31692.375,-47703.555,-9030.105,13417.515
1764433724.114851,37170.495,24336.18,66059.415,-4646.07,-31697.73,-47710.035,-9024.795,13417.83
1764433724.114851,37171.98,24336.63,66059.595,-4646.88,-31698.54,-47711.34,-9024.75,13418.91
1764433724.114851,37180.665,24342.885,66064.455,-4640.67,-31691.115,-47703.645,-9025.245,13424.04
1764433724.1158707,37187.775,24346.395,66066.345,-4635.179999999999,-31685.58,-47697.165,-9030.285,13424.94
1764433724.1158707,37193.445,24349.095,66065.76,-4631.22,-31681.62,-47691.765,-9040.095,13423.635
1764433724.1158707,37199.16,24351.885,66068.01,-4626.72,-31677.3,-47685.51,-9045.27,13423.59
1764433724.1158707,37195.605,24348.33,66066.795,-4628.655,-31679.55,-47687.49,-9048.06,13419.765
1764433724.1158707,37194.435,24350.175,66070.17,-4626.72,-31679.055,-47687.985,-9039.465,13422.51
1764433724.1158707,37185.66,24344.82,66065.67,-4633.245,-31686.075,-47696.04,-9036.495,13419.63
1764433724.1158707,37181.07,24344.325,66067.83,-4635.675,-31688.595,-47700.27,-9025.38,13423.32
1764433724.1158707,37176.345,24342.03,66066.255,-4640.31,-31693.005,-47706.12,-9020.025,13423.005
1764433724.165352,37174.14,24340.185,66062.925,-4642.785,-31695.66,-47708.91,-9022.68,13422.105
1764433724.165352,37174.68,24338.79,66059.91,-4643.775,-31696.695,-47707.92,-9030.015,13419.405
1764433724.165352,37184.76,24344.37,66064.635,-4636.889999999999,-31687.92,-47699.19,-9032.31,13423.68
1764433724.165352,37189.755,24343.92,66061.935,-4634.955,-31685.58,-47695.725,-9043.74,13420.08
1764433724.165352,37199.7,24351.165,66068.055,-4626.63,-31677.3,-47685.42,-9045.72,13424.085
1764433724.165352,37198.44,24349.995,66067.92,-4626.63,-31678.47,-47685.69,-9047.295,13422.42
1764433724.165352,37191.51,24346.215,66065.355,-4630.95,-31683.06,-47691.765,-9045.855,13419.09
1764433724.165352,37188.945,24347.385,66069.045,-4630.545,-31683.555,-47692.62,-9034.695,13422.87
1764433724.165352,37181.61,24343.92,66067.785,-4634.955,-31689.945,-47700.0,-9026.505,13423.32
1764433724.165352,37174.545,24339.69,66063.33,-4641.3,-31696.245,-47708.235,-9022.86,13421.25
1764433724.165352,37174.815,24340.275,66062.97,-4642.695,-31696.605,-47708.145,-9023.265,13421.88
1764433724.165352,37178.73,24342.12,66063.555,-4640.804999999999,-31694.265,-47704.77,-9028.395,13422.06
1764433724.165352,37186.155,24345.99,66065.265,-4636.26,-31689.405,-47698.335,-9033.435,13423.095
1764433724.165352,37192.05,24346.485,66064.185,-4633.425,-31685.85,-47693.7,-9044.55,13419.99
1764433724.165352,37194.12,24346.53,66063.51,-4631.715,-31683.69,-47690.865,-9052.38,13417.38
1764433724.165352,37196.1,24349.32,66067.02,-4628.16,-31680.54,-47687.04,-9048.735,13419.225
1764433724.165352,37191.42,24347.97,66067.33499999999,-4630.05,-31683.06,-47690.64,-9043.92,13418.91
1764433724.165352,37182.33,24341.94,66063.645,-4636.71,-31690.62,-47699.28,-9040.455,13415.895
1764433724.165352,37177.47,24341.22,66064.455,-4639.724999999999,-31693.905,-47704.14,-9029.7,13418.82
1764433724.165352,37168.605,24334.425,66058.29,-4648.139999999999,-31702.275,-47712.96,-9028.62,13416.03
1764433724.165352,37171.35,24336.585,66060.45,-4646.295,-31700.475,-47711.115,-9026.595,13418.955
1764433724.165352,37176.975,24339.42,66061.665,-4643.145,-31696.47,-47706.93,-9030.06,13420.08
1764433724.165352,37185.705,24344.595,66064.77,-4637.07,-31689.495,-47698.83,-9033.705,13422.69
1764433724.1663637,37190.745,24345.945,66064.31999999999,-4633.92,-31685.265,-47692.62,-9044.28,13420.44
1764433724.2099905,37197.0,24349.59,66067.605,-4628.295,-31679.145,-47686.275,-9047.88,13421.655
1764433724.2099905,37196.685,24349.275,66067.785,-4627.44,-31679.145,-47686.5,-9047.115,13420.755
1764433724.2099905,37188.9,24343.605,66063.51,-4633.38,-31685.67,-47693.52,-9046.395,13416.345
1764433724.2099905,37182.24,24340.32,66062.385,-4637.745,-31690.53,-47699.19,-9040.86,13415.67
1764433724.2099905,37174.545,24337.53,66061.26,-4642.514999999999,-31696.065,-47706.3,-9031.95,13416.66
1764433724.2099905,37171.8,24336.81,66061.305,-4644.135,-31697.955,-47709.585,-9024.255,13419.495
1764433724.2099905,37171.395,24336.765,66060.63,-4645.08,-31698.495,-47709.99,-9025.2,13419.72
1764433724.2099905,37172.79,24335.685,66058.425,-4645.845,-31698.72,-47709.36,-9032.22,13416.93
1764433724.2099905,37182.24,24341.985,66062.52,-4638.69,-31689.99,-47700.405,-9035.865,13420.935
1764433724.2099905,37188.405,24344.235,66062.52,-4634.145,-31685.085,-47694.33,-9045.99,13418.955
1764433724.2099905,37190.43,24343.65,66061.53,-4633.56,-31684.005,-47692.62,-9054.045,13414.59
1764433724.2099905,37190.835,24344.46,66063.42,-4632.075,-31683.105,-47690.955,-9052.47,13415.22
1764433724.2099905,37190.745,24347.07,66067.875,-4628.79,-31681.62,-47689.785,-9042.975,13419.495
1764433724.2099905,37184.355,24344.28,66066.93,-4632.48,-31685.31,-47695.095,-9035.64,13419.765
1764433724.2099905,37173.24,24337.305,66061.395,-4641.57,-31694.715,-47706.12,-9031.14,13415.76
1764433724.2099905,37168.605,24335.325,66059.325,-4645.98,-31699.665,-47711.655,-9027.09,13415.76
1764433724.2099905,37174.41,24339.735,66062.565,-4642.514999999999,-31695.795,-47707.695,-9023.31,13420.755
1764433724.2099905,37176.975,24339.78,66060.94499999999,-4641.929999999999,-31694.895,-47705.13,-9029.835,13420.215
1764433724.2099905,37180.665,24340.23,66059.81999999999,-4639.724999999999,-31692.915,-47700.765,-9037.44,13418.325
1764433724.2099905,37182.78,24337.98,66055.905,-4640.264999999999,-31691.835,-47699.325,-9050.805,13412.565
1764433724.2099905,37186.695,24340.41,66057.66,-4636.889999999999,-31687.785,-47695.5,-9056.79,13411.035
1764433724.2099905,37186.155,24341.13,66059.685,-4635.495,-31687.02,-47694.645,-9056.205,13411.035
1764433724.2109857,37183.005,24339.285,66059.955,-4637.16,-31689.225,-47697.705,-9050.895,13411.62
1764433724.2109857,37177.92,24336.72,66059.55,-4640.715,-31692.78,-47703.105,-9043.605,13411.89
1764433724.2540329,37173.96,24336.72,66061.53,-4642.695,-31695.03,-47707.47,-9031.725,13415.13
1764433724.2540329,37169.775,24335.595,66059.775,-4646.16,-31698.63,-47711.88,-9026.73,13415.67
1764433724.255577,37168.155,24333.705,66056.895,-4649.849999999999,-31701.285,-47714.58,-9029.655,13414.635
1764433724.255577,37171.53,24334.425,66056.535,-4648.41,-31699.665,-47711.565,-9035.28,13414.23
1764433724.255577,37178.01,24337.08,66057.20999999999,-4645.395,-31695.705,-47705.625,-9042.39,13414.095
1764433724.255577,37184.58,24338.97,66058.065,-4640.49,-31690.845,-47699.19,-9051.84,13412.385
1764433724.255577,37187.01,24339.285,66058.515,-4637.429999999999,-31688.01,-47696.355,-9058.32,13409.82
1764433724.255577,37187.55,24340.635,66060.22499999999,-4635.27,-31686.615,-47694.78,-9056.295,13410.675
1764433724.255577,37187.91,24344.1,66064.72499999999,-4632.75,-31684.14,-47693.295,-9046.44,13414.68
1764433724.255577,37179.855,24339.69,66061.755,-4637.88,-31690.98,-47700.945,-9042.12,13412.61
1764433724.255577,37174.95,24338.97,66063.51,-4639.86,-31694.22,-47705.4,-9030.69,13416.525
1764433724.255577,37168.785,24335.91,66060.63,-4644.99,-31698.855,-47711.565,-9025.83,13416.075
1764433724.255577,37164.78,24330.69,66054.87,-4650.66,-31703.355,-47716.74,-9031.365,13411.89
1764433724.255577,37170.315,24332.31,66055.68,-4647.825,-31700.34,-47712.915,-9036.27,13413.285
1764433724.2565868,37180.8,24339.33,66060.54,-4640.58,-31692.015,-47703.555,-9039.465,13416.975
1764433724.2575932,37183.5,24338.565,66057.345,-4640.49,-31691.16,-47701.17,-9052.965,13411.44
1764433724.2575932,37188.27,24340.905,66059.055,-4635.54,-31686.75,-47695.68,-9056.52,13411.53
1764433724.2575932,37191.69,24345.72,66063.825,-4630.095,-31681.935,-47690.46,-9050.895,13415.895
1764433724.2575932,37187.37,24343.38,66063.95999999999,-4632.48,-31684.5,-47693.79,-9046.26,13415.985
1764433724.2585878,37176.12,24336.135,66058.605,-4640.49,-31693.905,-47703.915,-9043.92,13410.72
1764433724.2585878,37169.505,24334.11,66057.795,-4644.81,-31699.08,-47711.115,-9034.65,13412.16
1764433724.2585878,37169.46,24336.585,66060.405,-4644.945,-31698.495,-47711.07,-9025.29,13417.965
1764433724.2585878,37169.46,24335.595,66059.055,-4646.565,-31699.395,-47712.42,-9027.54,13417.83
1764433724.2585878,37171.26,24334.11,66056.48999999999,-4647.554999999999,-31699.665,-47711.655,-9035.055,13415.13
1764433724.3027103,37181.745,24340.995,66061.08,-4639.905,-31691.52,-47701.305,-9037.62,13419.18
1764433724.3027103,37189.08,24344.415,66061.8,-4634.685,-31685.805,-47694.375,-9046.395,13419.0
1764433724.3027103,37194.255,24347.745,66064.68,-4629.24,-31680.495,-47687.76,-9049.77,13419.585
1764433724.3027103,37193.49,24348.195,66065.805,-4629.014999999999,-31680.09,-47687.895,-9048.51,13418.505
1764433724.3027103,37186.335,24344.595,66062.88,-4633.74,-31685.85,-47694.69,-9046.53,13415.76
1764433724.3027103,37180.98,24343.155,66062.97,-4636.08,-31689.225,-47699.28,-9038.385,13417.155
1764433724.3027103,37177.47,24342.48,66064.995,-4637.745,-31691.295,-47703.33,-9026.235,13420.89
1764433724.3027103,37169.1,24336.27,66058.92,-4646.835,-31699.485,-47712.645,-9026.055,13417.335
1764433724.3027103,37170.81,24337.485,66059.81999999999,-4645.755,-31698.0,-47711.43,-9025.83,13419.63
1764433724.3027103,37173.825,24338.25,66058.965,-4645.17,-31696.02,-47708.64,-9032.31,13417.875
1764433724.3027103,37182.87,24343.605,66062.34,-4639.005,-31689.54,-47700.315,-9036.855,13419.81
1764433724.3027103,37185.345,24340.995,66058.785,-4638.195,-31690.035,-47698.2,-9050.49,13414.23
1764433724.3027103,37192.995,24346.53,66063.95999999999,-4630.724999999999,-31682.43,-47689.02,-9051.75,13417.695
1764433724.3027103,37192.23,24347.385,66065.67,-4629.599999999999,-31682.205,-47688.57,-9050.175,13417.785
1764433724.3027103,37185.255,24343.245,66063.285,-4634.054999999999,-31687.065,-47694.735,-9047.115,13415.355
1764433724.3027103,37179.765,24341.805,66063.51,-4636.845,-31690.44,-47699.685,-9039.6,13416.435
1764433724.3027103,37172.655,24339.06,66061.8,-4641.84,-31696.155,-47707.425,-9030.78,13417.11
1764433724.3027103,37167.705,24336.72,66059.505,-4646.52,-31700.745,-47712.24,-9025.785,13416.795
1764433724.3027103,37171.62,24339.285,66062.295,-4644.135,-31697.01,-47709.09,-9024.03,13419.81
1764433724.3027103,37173.51,24337.845,66059.73,-4644.63,-31696.155,-47708.37,-9031.365,13416.975
1764433724.303727,37183.32,24344.055,66063.645,-4637.655,-31688.505,-47698.74,-9035.145,13420.215
1764433724.303727,37188.405,24344.01,66062.83499999999,-4636.395,-31686.48,-47694.69,-9047.43,13416.435
1764433724.303727,37194.075,24347.52,66065.985,-4631.715,-31681.89,-47688.75,-9051.165,13417.83
1764433724.303727,37195.515,24349.995,66068.28,-4628.565,-31679.145,-47686.545,-9047.43,13419.81
1764433724.3495018,37195.605,24352.335,66072.645,-4626.27,-31677.705,-47686.365,-9037.575,13423.05
1764433724.3495018,37187.55,24348.375,66070.08,-4631.22,-31683.285,-47692.845,-9032.13,13421.925
1764433724.3495018,37177.29,24341.58,66066.525,-4639.185,-31691.34,-47701.845,-9026.505,13419.405
1764433724.3495018,37168.245,24334.65,66060.36,-4648.23,-31699.485,-47711.43,-9027.675,13414.635
1764433724.3495018,37169.01,24334.11,66059.325,-4649.445,-31700.16,-47712.285,-9029.115,13415.445
1764433724.3495018,37175.265,24337.53,66060.495,-4644.99,-31695.21,-47707.065,-9033.12,13417.56
1764433724.3495018,37186.065,24345.27,66065.58,-4637.07,-31686.48,-47696.265,-9035.46,13422.285
1764433724.3495018,37189.17,24345.495,66063.825,-4634.73,-31683.375,-47692.035,-9046.89,13417.83
1764433724.3495018,37190.61,24344.595,66062.79,-4633.065,-31681.62,-47690.325,-9054.045,13414.59
1764433724.3495018,37193.355,24348.06,66067.33499999999,-4628.88,-31677.57,-47685.87,-9048.78,13418.145
1764433724.3495018,37189.08,24346.71,66067.605,-4630.635,-31680.63,-47689.38,-9043.605,13417.695
1764433724.3495018,37178.775,24339.555,66062.61,-4638.554999999999,-31689.855,-47699.595,-9041.445,13413.375
1764433724.3495018,37171.125,24336.36,66060.405,-4644.764999999999,-31695.795,-47708.235,-9033.75,13412.88
1764433724.3495018,37167.795,24334.56,66058.92,-4648.23,-31699.62,-47712.69,-9028.665,13413.825
1764433724.3495018,37171.755,24337.26,66060.135,-4646.115,-31696.605,-47709.18,-9026.73,13417.965
1764433724.3495018,37172.025,24334.695,66056.48999999999,-4647.375,-31697.64,-47709.765,-9035.865,13414.905
1764433724.3495018,37180.395,24339.465,66059.28,-4641.615,-31691.79,-47702.295,-9041.94,13416.435
1764433724.3495018,37182.87,24338.25,66056.31,-4640.849999999999,-31690.08,-47698.92,-9054.855,13411.215
1764433724.3495018,37187.685,24341.13,66059.01,-4636.665,-31685.445,-47693.835,-9058.05,13411.935
1764433724.3495018,37188.495,24343.2,66061.755,-4633.965,-31683.735,-47691.99,-9054.495,13413.24
1764433724.396963,37185.255,24342.795,66063.33,-4634.145,-31685.49,-47693.295,-9047.97,13414.5
1764433724.396963,37183.005,24344.28,66066.12,-4633.92,-31685.805,-47694.69,-9037.17,13417.965
1764433724.396963,37175.49,24340.635,66064.275,-4639.905,-31692.195,-47703.465,-9029.295,13418.01
1764433724.396963,37167.12,24334.83,66058.83,-4647.735,-31700.16,-47711.925,-9028.35,13414.23
1764433724.396963,37170.945,24337.755,66061.305,-4645.53,-31697.73,-47708.595,-9027.225,13417.605
1764433724.396963,37176.255,24340.32,66062.47499999999,-4642.335,-31692.69,-47703.735,-9031.59,13419.135
1764433724.396963,37183.5,24343.56,66064.275,-4637.655,-31687.605,-47697.57,-9037.98,13419.495
1764433724.396963,37184.895,24340.995,66059.55,-4638.014999999999,-31688.235,-47695.635,-9052.47,13412.565
1764433724.396963,37189.485,24343.56,66061.34999999999,-4633.605,-31684.095,-47690.145,-9056.7,13413.42
1764433724.396963,37190.925,24345.315,66064.77,-4631.22,-31681.845,-47688.615,-9052.785,13415.355
1764433724.396963,37190.295,24347.88,66068.685,-4630.23,-31681.98,-47688.57,-9043.56,13418.325
1764433724.397971,37178.82,24340.545,66062.655,-4638.285,-31690.17,-47699.73,-9041.13,13414.005
1764433724.397971,37169.775,24335.235,66059.73,-4645.53,-31697.82,-47708.865,-9034.92,13411.845
1764433724.397971,37164.645,24331.995,66057.84,-4650.345,-31702.5,-47714.355,-9032.31,13411.215
1764433724.397971,37165.995,24332.67,66057.795,-4649.625,-31702.545,-47713.68,-9033.795,13412.295
1764433724.397971,37172.97,24336.135,66059.415,-4645.304999999999,-31697.28,-47708.37,-9037.305,13414.23
1764433724.397971,37185.66,24344.73,66065.625,-4635.045,-31686.255,-47696.355,-9037.8,13420.17
1764433724.397971,37193.625,24347.52,66067.065,-4629.554999999999,-31680.54,-47688.795,-9045.855,13420.08
1764433724.397971,37197.855,24349.635,66069.18,-4625.55,-31677.03,-47683.845,-9049.545,13419.585
1764433724.397971,37196.46,24349.68,66070.17,-4625.865,-31677.345,-47683.89,-9047.835,13419.18
1764433724.397971,37191.645,24348.33,66069.135,-4628.61,-31680.945,-47687.895,-9042.66,13418.91
1764433724.397971,37188.585,24349.23,66071.295,-4629.105,-31682.16,-47690.1,-9032.085,13422.195
1764433724.397971,37179.36,24343.875,66068.91,-4635.675,-31689.0,-47699.55,-9025.2,13421.205
1764433724.397971,37168.83,24335.595,66060.315,-4645.304999999999,-31698.99,-47710.575,-9028.215,13415.04
1764433724.441458,37168.695,24334.155,66057.885,-4646.88,-31700.16,-47712.105,-9031.59,13413.195
1764433724.441984,37178.91,24340.905,66063.33,-4639.905,-31691.655,-47703.51,-9031.41,13418.775
1764433724.441984,37183.68,24342.075,66062.655,-4636.935,-31688.64,-47698.965,-9039.465,13418.145
1764433724.441984,37185.255,24340.005,66058.69499999999,-4636.755,-31688.73,-47696.805,-9053.64,13411.755
1764433724.441984,37188.945,24341.13,66059.55,-4633.785,-31685.805,-47693.115,-9058.32,13410.72
1764433724.441984,37188.36,24342.345,66061.665,-4632.48,-31684.905,-47692.395,-9055.845,13411.98
1764433724.441984,37187.1,24344.73,66065.13,-4631.58,-31684.14,-47691.945,-9046.305,13415.76
1764433724.441984,37180.395,24340.86,66062.97,-4635.99,-31689.09,-47698.47,-9039.555,13414.86
1764433724.441984,37172.115,24336.495,66061.035,-4642.155,-31695.93,-47705.85,-9032.04,13414.68
1764433724.441984,37167.165,24333.57,66058.785,-4647.285,-31700.7,-47711.385,-9029.07,13413.555
1764433724.441984,37167.12,24332.31,66056.4,-4648.635,-31701.465,-47713.5,-9032.49,13412.295
1764433724.441984,37167.57,24329.61,66052.89,-4649.94,-31701.915,-47713.275,-9041.715,13408.65
1764433724.441984,37176.705,24334.83,66057.435,-4643.19,-31695.3,-47704.095,-9045.855,13411.845
1764433724.441984,37184.625,24338.745,66059.955,-4637.565,-31689.405,-47696.76,-9054.135,13411.71
1764433724.441984,37187.235,24340.23,66060.405,-4635.45,-31686.255,-47692.845,-9058.455,13410.405
1764433724.441984,37188.225,24342.345,66063.19499999999,-4632.929999999999,-31683.555,-47690.865,-9054.765,13412.295
1764433724.441984,37178.685,24334.605,66057.56999999999,-4639.815,-31691.79,-47699.865,-9054.63,13407.255
1764433724.441984,37170.585,24330.33,66055.5,-4645.395,-31697.685,-47706.93,-9048.6,13405.86
1764433724.441984,37164.105,24327.72,66054.59999999999,-4649.49,-31703.13,-47713.365,-9038.88,13406.895
1764433724.441984,37163.745,24328.935,66056.58,-4650.165,-31703.715,-47714.535,-9031.14,13411.125
1764433724.441984,37160.46,24324.795,66051.18,-4655.565,-31707.63,-47718.54,-9038.025,13406.76
1764433724.441984,37165.41,24326.91,66051.94499999999,-4653.495,-31704.3,-47714.58,-9043.605,13406.805
1764433724.441984,37175.67,24332.76,66056.76,-4645.215,-31696.02,-47705.175,-9046.62,13411.215
1764433724.441984,37179.135,24331.32,66053.79,-4644.585,-31694.85,-47702.43,-9059.22,13405.455
1764433724.4909914,37183.905,24333.705,66055.5,-4640.04,-31690.62,-47696.985,-9062.01,13405.23
1764433724.4909914,37182.51,24334.65,66056.94,-4639.005,-31690.035,-47697.075,-9059.355,13405.095
1764433724.4909914,37181.115,24336.36,66060.405,-4637.88,-31690.125,-47697.12,-9050.58,13408.11
1764433724.4909914,37171.305,24330.96,66056.175,-4644.045,-31697.37,-47705.175,-9046.17,13404.78
1764433724.4909914,37167.795,24330.6,66057.525,-4646.34,-31700.115,-47709.54,-9034.92,13408.02
1764433724.4909914,37162.845,24328.17,66055.41,-4651.155,-31704.03,-47715.03,-9031.95,13408.155
1764433724.4909914,37162.35,24326.325,66052.305,-4653.9,-31705.83,-47717.685,-9036.27,13405.995
1764433724.4909914,37165.185,24325.335,66050.055,-4653.63,-31705.47,-47716.02,-9043.875,13404.015
1764433724.4909914,37174.815,24331.635,66054.105,-4645.395,-31697.46,-47706.39,-9047.655,13407.795
1764433724.4909914,37178.415,24331.545,66051.495,-4644.405,-31695.975,-47702.88,-9060.39,13404.06
1764433724.4909914,37183.41,24334.515,66054.15,-4639.77,-31691.52,-47697.3,-9063.405,13404.375
1764433724.4909914,37185.345,24338.655,66059.055,-4635.585,-31688.1,-47694.33,-9057.645,13408.38
1764433724.4909914,37177.695,24333.615,66056.31,-4640.76,-31693.32,-47701.62,-9055.17,13405.545
1764433724.4909914,37173.285,24333.12,66056.895,-4642.335,-31696.02,-47705.58,-9046.35,13407.165
1764433724.4909914,37162.935,24326.145,66051.495,-4651.65,-31705.83,-47716.29,-9041.715,13403.655
1764433724.4909914,37157.67,24322.455,66048.525,-4656.735,-31710.6,-47721.645,-9039.42,13403.07
1764433724.4909914,37159.425,24323.175,66048.61499999999,-4656.33,-31709.88,-47720.655,-9041.58,13403.7
1764433724.4909914,37168.83,24330.285,66053.16,-4649.94,-31702.545,-47712.24,-9042.57,13408.11
1764433724.4909914,37176.075,24334.02,66054.645,-4645.62,-31697.055,-47705.535,-9048.825,13408.155
1764433724.4909914,37182.375,24335.91,66054.645,-4641.03,-31692.96,-47699.01,-9058.905,13406.355
1764433724.4909914,37182.78,24334.02,66053.43,-4640.76,-31693.455,-47697.885,-9065.79,13403.295
1764433724.4909914,37180.71,24333.255,66053.11499999999,-4641.075,-31694.445,-47698.515,-9063.45,13402.395
1764433724.4909914,37175.67,24331.365,66052.98,-4643.145,-31697.145,-47702.745,-9057.51,13402.26
1764433724.4920042,37169.82,24329.88,66053.745,-4646.295,-31700.745,-47707.02,-9049.185,13403.925
1764433724.5375516,37165.905,24329.475,66054.825,-4648.815,-31703.94,-47710.35,-9038.52,13407.03
1764433724.5375516,37159.02,24323.76,66048.93,-4656.285,-31711.14,-47718.315,-9038.745,13403.7
1764433724.5375516,37164.375,24327.27,66051.315,-4652.415,-31707.495,-47715.21,-9037.62,13407.3
1764433724.5375516,37170.405,24330.105,66053.205,-4649.445,-31703.715,-47710.305,-9042.345,13408.02
1764433724.5375516,37176.57,24332.985,66053.97,-4646.565,-31699.215,-47704.41,-9049.545,13407.57
1764433724.5375516,37182.645,24335.55,66053.61,-4642.29,-31694.67,-47698.965,-9059.085,13405.32
1764433724.5375516,37186.83,24337.845,66056.355,-4638.42,-31690.62,-47694.33,-9061.515,13405.905
1764433724.5375516,37183.725,24336.18,66056.13,-4639.275,-31691.745,-47695.995,-9060.165,13404.87
1764433724.5375516,37174.95,24331.05,66052.485,-4644.675,-31698.225,-47702.61,-9057.42,13401.99
1764433724.5375516,37171.8,24331.86,66054.735,-4645.035,-31699.575,-47705.49,-9047.43,13405.905
1764433724.5375516,37165.05,24328.53,66053.61,-4650.12,-31705.2,-47713.32,-9039.78,13406.085
1764433724.5375516,37156.635,24321.735,66047.08499999999,-4658.13,-31712.67,-47721.87,-9041.22,13401.54
1764433724.5375516,37159.245,24323.085,66047.175,-4657.005,-31711.455,-47719.62,-9042.345,13403.025
1764433724.5375516,37170.135,24330.645,66052.755,-4649.58,-31702.68,-47709.765,-9042.93,13408.695
1764433724.5375516,37177.11,24334.47,66053.83499999999,-4644.764999999999,-31697.37,-47702.97,-9049.365,13409.235
1764433724.5375516,37178.91,24331.68,66050.45999999999,-4644.63,-31697.325,-47701.665,-9063.54,13402.845
1764433724.5375516,37182.33,24333.705,66051.94499999999,-4641.84,-31693.455,-47697.795,-9066.69,13402.44
1764433724.5375516,37182.825,24335.64,66054.915,-4639.635,-31692.195,-47696.13,-9061.965,13404.6
1764433724.5375516,37181.925,24337.71,66059.145,-4637.88,-31691.745,-47696.22,-9052.245,13409.055
1764433724.5375516,37174.14,24333.57,66056.22,-4642.965,-31698.09,-47703.06,-9046.575,13408.245
1764433724.5375516,37161.54,24324.435,66048.75,-4653.855,-31709.34,-47714.85,-9043.47,13403.385
1764433724.5375516,37158.525,24322.815,66046.815,-4657.32,-31713.03,-47719.44,-9040.5,13403.52
1764433724.5375516,37162.215,24325.605,66048.345,-4655.16,-31710.24,-47717.595,-9040.77,13405.68
1764433724.5375516,37170.495,24331.23,66052.485,-4648.41,-31702.86,-47709.045,-9042.345,13409.55
1764433724.5815885,37176.705,24333.255,66053.34,-4645.395,-31697.775,-47703.96,-9050.49,13409.01
1764433724.5815885,37183.905,24335.73,66054.285,-4640.355,-31692.69,-47697.615,-9059.22,13407.885
1764433724.582602,37187.955,24338.385,66055.635,-4636.53,-31689.405,-47693.7,-9063.045,13406.805
1764433724.582602,37181.835,24333.66,66052.08,-4640.985,-31694.85,-47697.975,-9064.71,13402.755
1764433724.582602,37175.85,24331.95,66051.81,-4643.595,-31698.18,-47702.205,-9058.815,13402.575
1764433724.582602,37168.56,24327.81,66049.785,-4648.365,-31703.175,-47709.27,-9052.515,13401.585
1764433724.583605,37162.17,24324.48,66049.155,-4652.82,-31708.89,-47717.01,-9043.92,13402.71
1764433724.583605,37159.47,24323.58,66048.3,-4655.88,-31711.815,-47720.16,-9040.455,13403.43
1764433724.583605,37165.23,24327.585,66050.55,-4652.955,-31707.765,-47715.525,-9039.105,13406.49
1764433724.583605,37171.935,24330.645,66052.17,-4649.22,-31703.355,-47709.765,-9044.145,13408.11
1764433724.583605,37179.495,24334.38,66054.06,-4643.865,-31697.73,-47703.6,-9050.31,13409.73
1764433724.5845978,37184.445,24335.73,66054.06,-4640.085,-31692.24,-47698.065,-9060.345,13407.57
1764433724.5845978,37187.01,24336.81,66055.14,-4637.295,-31690.035,-47695.23,-9064.44,13406.085
1764433724.5845978,37183.995,24335.685,66055.23,-4638.014999999999,-31691.295,-47696.22,-9062.73,13405.365
1764433724.5845978,37176.12,24331.005,66052.125,-4643.595,-31696.74,-47703.465,-9059.31,13402.71
1764433724.5845978,37169.595,24328.395,66050.81999999999,-4647.915,-31702.365,-47710.215,-9052.605,13402.62
1764433724.5855987,37165.77,24329.16,66053.16,-4649.49,-31705.02,-47714.175,-9040.68,13406.355
1764433724.5855987,37162.845,24327.945,66051.63,-4652.145,-31707.72,-47717.46,-9037.665,13406.445
1764433724.5855987,37161.72,24325.02,66047.84999999999,-4654.71,-31710.69,-47719.395,-9042.48,13404.105
1764433724.5855987,37166.985,24327.18,66048.66,-4651.695,-31705.92,-47714.355,-9047.97,13405.05
1764433724.5855987,37178.91,24334.74,66055.185,-4641.255,-31695.48,-47703.24,-9050.49,13410.585
1764433724.5855987,37184.31,24336.54,66055.005,-4637.79,-31691.925,-47697.705,-9059.805,13408.47
1764433724.6259327,37184.85,24335.955,66053.88,-4637.565,-31691.7,-47696.31,-9065.655,13405.095
1764433724.6259327,37184.535,24337.935,66056.895,-4636.304999999999,-31690.08,-47695.905,-9061.155,13406.805
1764433724.6259327,37175.895,24332.49,66053.16,-4642.514999999999,-31696.02,-47703.465,-9058.095,13402.62
1764433724.6259327,37168.335,24328.755,66051.81,-4647.105,-31701.375,-47709.495,-9050.805,13401.72
1764433724.6259327,37166.805,24331.23,66055.68,-4647.195,-31702.455,-47711.07,-9037.62,13407.48
1764433724.6259327,37166.31,24332.22,66055.86,-4648.23,-31703.4,-47712.78,-9032.4,13410.225
1764433724.6259327,37166.265,24330.06,66053.88,-4649.535,-31705.11,-47714.04,-9037.08,13408.92
1764433724.6259327,37168.11,24328.53,66050.37,-4650.929999999999,-31704.57,-47713.68,-9046.62,13405.635
1764433724.6259327,37179.045,24335.46,66055.095,-4643.099999999999,-31695.39,-47703.06,-9050.13,13410.27
1764433724.6259327,37182.825,24334.965,66053.16,-4641.165,-31693.41,-47699.28,-9061.155,13405.77
1764433724.6259327,37188.765,24339.51,66057.39,-4635.72,-31687.515,-47692.89,-9061.47,13407.57
1764433724.6259327,37186.47,24339.285,66058.02,-4635.855,-31688.28,-47693.295,-9058.725,13407.21
1764433724.6269517,37181.34,24338.385,66058.33499999999,-4637.34,-31690.755,-47696.67,-9052.02,13408.335
1764433724.6269517,37173.735,24334.92,66056.08499999999,-4642.245,-31696.155,-47703.285,-9045.675,13408.065
1764433724.6279516,37162.62,24327.72,66050.81999999999,-4650.795,-31705.38,-47713.995,-9041.49,13404.78
1764433724.6279516,37159.38,24325.74,66048.12,-4654.98,-31708.89,-47718.765,-9038.835,13404.69
1764433724.6279516,37165.41,24329.61,66051.18,-4650.255,-31704.795,-47714.13,-9037.575,13408.56
1764433724.6279516,37172.745,24333.48,66054.285,-4645.755,-31699.44,-47707.47,-9041.13,13410.855
1764433724.628949,37179.45,24336.855,66055.72499999999,-4641.435,-31694.49,-47701.035,-9048.555,13411.125
1764433724.628949,37181.475,24335.19,66052.485,-4641.615,-31693.95,-47698.965,-9061.56,13405.77
1764433724.628949,37185.345,24337.305,66054.87,-4637.52,-31690.485,-47694.78,-9063.63,13405.95
1764433724.628949,37185.705,24339.87,66057.93,-4634.145,-31688.775,-47693.655,-9058.725,13407.795
1764433724.6726413,37178.955,24337.71,66056.58,-4637.79,-31692.51,-47698.515,-9053.505,13406.985
1764433724.6726413,37167.39,24329.43,66050.55,-4646.97,-31701.78,-47709.765,-9050.895,13402.08
1764433724.6726413,37161.81,24326.64,66049.47,-4651.29,-31707.27,-47716.065,-9042.795,13402.89
1764433724.6726413,37164.015,24329.97,66053.06999999999,-4649.58,-31705.11,-47714.355,-9035.46,13408.065
1764433724.6726413,37165.185,24329.79,66051.36,-4650.165,-31705.47,-47714.31,-9039.15,13406.895
1764433724.6726413,37166.13,24327.315,66048.12,-4651.245,-31706.685,-47714.04,-9048.78,13403.43
1764433724.6726413,37173.465,24331.23,66050.73,-4646.295,-31700.34,-47706.48,-9055.305,13404.6
1764433724.6726413,37180.71,24334.785,66051.58499999999,-4641.57,-31694.535,-47699.595,-9063.18,13403.745
1764433724.6726413,37185.12,24337.755,66054.825,-4636.26,-31690.305,-47694.87,-9064.215,13404.96
1764433724.6726413,37180.44,24334.11,66052.17,-4639.005,-31693.545,-47698.92,-9064.44,13402.26
1764433724.6726413,37179.09,24335.46,66056.13,-4638.195,-31693.545,-47699.145,-9054.405,13405.635
1764433724.6726413,37171.395,24332.31,66055.23,-4642.514999999999,-31698.72,-47705.715,-9046.935,13405.365
1764433724.6726413,37160.145,24325.02,66049.875,-4651.695,-31708.17,-47716.65,-9043.74,13402.08
1764433724.6726413,37158.795,24324.93,66048.885,-4653.945,-31710.15,-47719.26,-9039.87,13403.16
1764433724.6726413,37165.185,24330.105,66052.26,-4649.715,-31705.29,-47714.085,-9038.34,13407.75
1764433724.6726413,37172.97,24333.66,66055.005,-4644.764999999999,-31700.025,-47707.74,-9042.12,13410.36
1764433724.6726413,37181.835,24337.845,66057.93,-4639.095,-31693.365,-47700.54,-9047.295,13412.34
1764433724.6726413,37187.595,24341.04,66058.47,-4634.415,-31688.595,-47692.98,-9055.485,13411.305
1764433724.6726413,37190.7,24342.975,66059.685,-4630.724999999999,-31685.445,-47689.515,-9058.365,13410.855
1764433724.6726413,37185.255,24338.205,66057.12,-4634.595,-31689.945,-47693.295,-9059.535,13407.885
1764433724.6726413,37179.405,24335.46,66056.625,-4637.88,-31693.995,-47698.47,-9054.27,13406.445
1764433724.6726413,37171.98,24331.545,66054.87,-4642.605,-31699.305,-47705.67,-9046.89,13405.455
1764433724.6726413,37165.905,24328.89,66053.655,-4647.33,-31704.12,-47712.465,-9038.34,13406.67
1764433724.6726413,37164.645,24328.215,66052.89,-4650.165,-31705.965,-47714.49,-9035.145,13407.705
1764433724.716991,37169.955,24331.635,66055.77,-4646.7,-31702.23,-47710.89,-9034.245,13410.81
1764433724.716991,37171.53,24330.285,66052.575,-4646.565,-31701.375,-47710.08,-9043.47,13407.975
1764433724.716991,37181.745,24336.405,66057.56999999999,-4638.51,-31693.365,-47700.09,-9047.745,13411.755
1764433724.716991,37185.57,24335.865,66056.48999999999,-4636.485,-31690.845,-47695.545,-9058.635,13407.795
1764433724.718014,37187.91,24337.215,66057.39,-4634.01,-31688.505,-47691.855,-9061.47,13407.12
1764433724.718014,37187.235,24338.475,66059.91,-4633.605,-31687.515,-47691.675,-9056.79,13408.245
1764433724.718014,37186.695,24341.13,66063.735,-4632.48,-31686.84,-47691.63,-9046.53,13412.745
1764433724.718014,37175.985,24334.56,66058.83,-4640.715,-31695.39,-47701.71,-9043.065,13409.91
1764433724.718014,37168.11,24330.915,66056.985,-4646.34,-31701.465,-47708.865,-9034.92,13410.27
1764433724.718014,37168.29,24332.31,66057.97499999999,-4646.565,-31701.42,-47709.27,-9030.51,13412.655
1764433724.718014,37169.685,24332.355,66056.805,-4647.014999999999,-31701.375,-47708.865,-9034.335,13411.935
1764433724.718014,37172.7,24332.175,66054.735,-4646.565,-31700.205,-47707.02,-9042.84,13409.685
1764433724.718014,37184.895,24339.96,66060.98999999999,-4637.745,-31690.62,-47695.95,-9046.035,13414.635
1764433724.718014,37187.82,24338.07,66057.795,-4637.07,-31689.63,-47693.43,-9058.545,13410.27
1764433724.718014,37191.51,24341.355,66060.72,-4632.57,-31685.895,-47688.84,-9059.715,13410.585
1764433724.718014,37192.5,24345.405,66065.94,-4629.42,-31682.565,-47686.005,-9052.65,13414.545
1764433724.718014,37185.795,24341.715,66063.51,-4633.83,-31688.055,-47692.485,-9048.69,13412.475
1764433724.718014,37178.775,24338.745,66061.755,-4638.69,-31693.23,-47699.505,-9041.625,13412.025
1764433724.718014,37171.485,24334.92,66059.45999999999,-4644.585,-31699.755,-47707.74,-9034.515,13411.53
1764433724.718014,37167.435,24331.545,66056.355,-4648.32,-31703.985,-47712.24,-9034.02,13410.855
1764433724.718014,37171.62,24333.885,66057.66,-4646.07,-31700.7,-47707.83,-9035.19,13413.42
1764433724.718014,37173.555,24333.48,66055.275,-4645.8,-31700.565,-47706.48,-9043.515,13410.495
1764433724.718014,37183.365,24338.88,66059.415,-4638.599999999999,-31692.825,-47697.3,-9047.79,13413.06
1764433724.718014,37187.145,24338.025,66057.66,-4636.485,-31690.44,-47693.835,-9059.805,13409.055
1764433724.7651567,37192.41,24342.795,66062.61,-4630.365,-31685.175,-47687.535,-9059.04,13412.07
1764433724.7651567,37187.55,24339.645,66060.405,-4633.29,-31688.775,-47691.405,-9058.815,13409.235
1764433724.7651567,37186.11,24341.175,66063.51,-4632.795,-31688.145,-47692.26,-9049.545,13412.52
1764433724.7651567,37176.66,24335.865,66059.91,-4639.86,-31695.795,-47700.945,-9044.37,13410.495
1764433724.7651567,37172.835,24335.685,66061.34999999999,-4641.705,-31698.81,-47705.22,-9032.49,13414.185
1764433724.7651567,37166.13,24330.42,66055.77,-4648.724999999999,-31705.56,-47712.51,-9034.29,13410.0
1764433724.7651567,37168.605,24331.185,66055.36499999999,-4648.05,-31703.94,-47710.665,-9037.305,13410.675
1764433724.7651567,37178.37,24337.305,66060.94499999999,-4640.445,-31696.38,-47701.89,-9038.565,13415.49
1764433724.7651567,37186.245,24340.95,66063.19499999999,-4635.585,-31690.665,-47694.915,-9045.765,13415.76
1764433724.7651567,37191.015,24341.76,66062.61,-4632.3,-31686.255,-47689.38,-9055.665,13413.285
1764433724.7651567,37193.625,24343.785,66064.77,-4628.88,-31683.33,-47685.555,-9056.205,13414.32
1764433724.7651567,37189.755,24341.445,66063.78,-4631.445,-31686.12,-47688.57,-9054.765,13412.25
1764433724.7651567,37187.82,24342.705,66066.20999999999,-4630.545,-31685.985,-47689.965,-9045.18,13415.445
1764433724.7651567,37179.135,24338.52,66063.33,-4635.945,-31693.005,-47697.975,-9039.6,13413.87
1764433724.7651567,37168.56,24331.32,66058.11,-4644.99,-31701.51,-47708.55,-9035.865,13411.26
1764433724.7651567,37169.955,24334.02,66060.045,-4643.865,-31700.61,-47707.74,-9029.52,13415.4
1764433724.7651567,37172.61,24335.055,66059.55,-4643.415,-31699.62,-47706.255,-9032.76,13415.445
1764433724.7661688,37177.29,24335.73,66059.595,-4641.48,-31696.965,-47702.295,-9039.78,13414.32
1764433724.7661688,37184.76,24339.06,66061.035,-4636.62,-31692.105,-47695.32,-9047.565,13414.77
1764433724.7661688,37190.61,24341.535,66061.44,-4632.705,-31686.705,-47688.795,-9056.475,13413.555
1764433724.8101285,37192.59,24342.795,66062.06999999999,-4630.32,-31684.905,-47686.365,-9058.815,13413.06
1764433724.8101285,37186.83,24338.61,66059.45999999999,-4633.695,-31689.855,-47691.9,-9058.095,13409.595
1764433724.8101285,37184.355,24339.645,66062.11499999999,-4633.245,-31690.485,-47693.07,-9049.275,13412.565
1764433724.8101285,37173.555,24333.255,66057.12,-4641.705,-31698.45,-47702.925,-9044.73,13409.37
1764433724.8101285,37167.795,24331.095,66056.355,-4646.025,-31703.265,-47709.405,-9036.27,13411.305
1764433724.8101285,37168.875,24333.705,66059.73,-4644.72,-31701.915,-47708.775,-9030.42,13414.77
1764433724.8101285,37169.415,24331.32,66056.76,-4646.429999999999,-31703.085,-47709.405,-9036.54,13412.295
1764433724.8101285,37180.035,24338.025,66061.305,-4639.139999999999,-31695.57,-47701.035,-9037.98,13416.93
1764433724.8101285,37188.135,24342.48,66063.735,-4632.57,-31688.505,-47693.16,-9044.73,13418.1
1764433724.8101285,37192.725,24343.38,66062.97,-4629.285,-31685.355,-47688.705,-9054.495,13415.58
1764433724.8101285,37195.155,24345.855,66064.86,-4627.26,-31682.97,-47685.915,-9056.07,13415.58
1764433724.8111477,37192.32,24344.595,66065.22,-4628.429999999999,-31684.68,-47687.22,-9053.73,13415.175
1764433724.8111477,37185.57,24340.23,66063.105,-4631.94,-31689.765,-47692.755,-9048.78,13413.555
1764433724.8111477,37175.04,24333.435,66058.605,-4640.04,-31698.54,-47702.79,-9043.875,13410.135
1764433724.8111477,37167.615,24329.61,66056.265,-4645.889999999999,-31704.66,-47710.845,-9036.675,13409.82
1764433724.8111477,37166.22,24329.07,66055.23,-4648.455,-31707.045,-47713.365,-9034.515,13410.72
1764433724.8111477,37173.87,24334.47,66059.45999999999,-4643.28,-31700.43,-47706.615,-9032.94,13415.985
1764433724.8111477,37179.495,24336.585,66060.135,-4639.995,-31696.875,-47701.755,-9038.655,13416.345
1764433724.811658,37186.65,24339.555,66061.215,-4635.405,-31691.745,-47695.23,-9046.71,13416.66
1764433724.811658,37190.655,24340.455,66060.18,-4633.65,-31688.685,-47691.405,-9057.42,13413.285
1764433724.811658,37197.27,24346.485,66066.345,-4626.585,-31681.935,-47683.98,-9055.125,13417.11
1764433724.811658,37192.68,24343.695,66064.455,-4629.24,-31685.49,-47686.815,-9053.505,13414.23
1764433724.811658,37189.755,24343.47,66065.84999999999,-4629.375,-31686.93,-47688.93,-9044.595,13416.435
1764433724.811658,37181.16,24338.43,66062.97,-4635.72,-31693.77,-47697.12,-9038.205,13415.4
1764433724.8591335,37169.82,24331.275,66056.715,-4644.72,-31703.04,-47707.875,-9034.245,13411.62
1764433724.8591335,37168.965,24331.68,66055.77,-4645.935,-31703.49,-47708.955,-9031.5,13412.745
1764433724.8591335,37171.35,24332.895,66055.41,-4645.62,-31702.32,-47707.92,-9036.135,13412.025
1764433724.8591335,37172.79,24330.555,66052.305,-4646.88,-31702.68,-47708.055,-9045.855,13409.145
1764433724.8591335,37182.195,24336.855,66056.13,-4639.365,-31693.995,-47698.11,-9050.49,13412.295
1764433724.8591335,37184.13,24335.055,66052.755,-4639.32,-31693.23,-47696.04,-9063.315,13406.67
1764433724.8591335,37187.1,24337.395,66055.59,-4635.45,-31691.025,-47692.35,-9063.045,13407.66
1764433724.8591335,37188.225,24340.59,66060.72,-4631.22,-31687.965,-47689.47,-9054.45,13411.62
1764433724.8591335,37183.905,24338.88,66061.53,-4633.065,-31690.53,-47693.295,-9047.07,13412.295
1764433724.8591335,37175.67,24334.695,66058.73999999999,-4639.23,-31697.595,-47701.755,-9041.13,13410.405
1764433724.8591335,37165.005,24327.99,66053.205,-4648.32,-31706.28,-47712.33,-9037.755,13407.12
1764433724.8591335,37162.845,24326.595,66051.58499999999,-4651.02,-31709.025,-47715.03,-9036.81,13406.895
1764433724.8591335,37168.65,24330.87,66054.645,-4646.745,-31703.76,-47709.63,-9036.675,13411.08
1764433724.8591335,37171.17,24330.06,66052.935,-4645.98,-31702.455,-47706.75,-9045.72,13408.38
1764433724.8591335,37180.89,24335.37,66055.815,-4639.679999999999,-31695.57,-47698.83,-9052.155,13409.82
1764433724.8591335,37188.0,24338.97,66057.97499999999,-4634.415,-31688.91,-47691.63,-9059.715,13409.73
1764433724.8591335,37191.06,24341.355,66060.855,-4631.49,-31685.85,-47687.445,-9058.815,13411.035
1764433724.8591335,37187.055,24339.33,66060.09,-4632.929999999999,-31688.01,-47690.145,-9055.98,13409.955
1764433724.8591335,37178.73,24334.425,66056.58,-4638.87,-31694.445,-47697.75,-9053.235,13406.625
1764433724.8591335,37169.82,24330.645,66053.97,-4644.135,-31701.555,-47706.075,-9047.205,13405.41
1764433724.8601315,37163.745,24327.855,66053.25,-4649.22,-31706.505,-47712.195,-9039.51,13406.535
1764433724.8601315,37164.78,24328.305,66054.51,-4649.67,-31706.1,-47712.645,-9035.82,13409.415
1764433724.8616457,37163.79,24325.605,66050.055,-4652.415,-31708.17,-47713.815,-9042.885,13405.995
1764433724.8616457,37170.495,24328.89,66051.72,-4648.545,-31703.715,-47707.83,-9048.105,13406.355
1764433724.9042816,37182.735,24336.63,66057.795,-4638.69,-31694.04,-47696.49,-9051.57,13410.585
1764433724.9042816,37185.885,24336.72,66055.635,-4637.16,-31692.24,-47693.43,-9062.37,13407.165
1764433724.9042816,37186.56,24336.945,66056.94,-4635.54,-31690.305,-47691.72,-9064.395,13407.03
1764433724.9042816,37182.96,24335.595,66057.56999999999,-4636.26,-31691.88,-47693.16,-9060.66,13406.625
1764433724.9042816,37180.485,24337.215,66061.125,-4635.675,-31691.745,-47694.645,-9050.94,13410.09
1764433724.9042816,37171.305,24331.365,66056.805,-4643.37,-31699.62,-47704.68,-9046.44,13407.615
1764433724.9042816,37167.48,24330.555,66057.93,-4645.98,-31702.005,-47708.415,-9036.99,13410.27
1764433724.9042816,37162.44,24326.73,66053.745,-4651.155,-31706.64,-47713.23,-9038.34,13407.885
1764433724.9053054,37166.805,24329.205,66055.14,-4647.96,-31703.805,-47710.305,-9040.32,13410.045
1764433724.9053054,37170.585,24329.07,66052.305,-4647.195,-31702.455,-47707.965,-9049.14,13407.435
1764433724.9053054,37181.925,24336.0,66057.20999999999,-4638.825,-31693.185,-47696.895,-9053.145,13411.035
1764433724.9053054,37184.31,24336.36,66056.31,-4636.575,-31691.7,-47692.755,-9063.99,13407.21
1764433724.9053054,37185.885,24337.035,66057.61499999999,-4633.92,-31689.675,-47690.055,-9064.755,13407.705
1764433724.9053054,37186.83,24339.42,66061.395,-4631.76,-31688.415,-47689.065,-9056.97,13411.17
1764433724.9053054,37180.215,24336.0,66058.965,-4636.755,-31693.275,-47695.86,-9052.56,13409.37
1764433724.9053054,37175.715,24335.73,66060.72,-4638.42,-31695.795,-47699.46,-9042.165,13412.52
1764433724.9053054,37168.56,24331.77,66058.11,-4644.315,-31702.14,-47707.245,-9035.505,13412.385
1764433724.9053054,37164.915,24328.26,66054.95999999999,-4649.804999999999,-31706.235,-47711.565,-9036.765,13410.135
1764433724.9053054,37164.825,24325.47,66050.91,-4652.46,-31708.17,-47712.915,-9044.145,13406.04
1764433724.9053054,37171.935,24329.07,66052.935,-4647.465,-31702.41,-47706.165,-9048.555,13407.93
1764433724.9063177,37185.03,24339.105,66061.08,-4636.17,-31690.44,-47692.845,-9050.265,13414.23
1764433724.9063177,37190.745,24341.265,66061.62,-4632.165,-31685.535,-47687.04,-9058.545,13412.655
1764433724.953741,37192.275,24341.94,66062.25,-4630.815,-31683.96,-47684.925,-9060.165,13411.395
1764433724.953741,37184.94,24336.18,66058.965,-4636.17,-31689.72,-47690.955,-9060.48,13407.255
1764433724.953741,37179.0,24333.255,66058.11,-4638.87,-31693.14,-47695.59,-9054.09,13407.12
1764433724.953741,37171.8,24331.005,66056.895,-4643.145,-31698.27,-47702.52,-9045.63,13407.48
1764433724.953741,37169.1,24331.995,66058.73999999999,-4644.72,-31700.16,-47705.715,-9034.695,13411.575
1764433724.953741,37167.12,24330.42,66057.435,-4647.645,-31702.23,-47709.09,-9034.83,13410.63
1764433724.953741,37166.76,24327.81,66053.61,-4650.03,-31703.355,-47709.945,-9042.795,13407.12
1764433724.953741,37175.085,24333.615,66056.895,-4643.82,-31696.515,-47702.43,-9045.54,13410.135
1764433724.953741,37183.23,24337.575,66058.69499999999,-4638.51,-31690.44,-47694.375,-9052.38,13411.215
1764433724.953741,37183.41,24334.74,66055.68,-4639.32,-31690.98,-47693.565,-9065.295,13405.545
1764433724.953741,37184.31,24334.56,66056.76,-4637.655,-31689.99,-47692.035,-9067.185,13403.88
1764433724.953741,37181.34,24334.695,66057.39,-4638.195,-31690.845,-47693.79,-9062.955,13404.375
1764433724.953741,37179.36,24336.81,66060.135,-4637.88,-31691.52,-47694.96,-9053.145,13408.11
1764433724.953741,37169.865,24331.86,66057.48,-4644.54,-31699.305,-47703.69,-9046.665,13406.445
1764433724.953741,37166.355,24330.87,66059.235,-4645.889999999999,-31701.015,-47707.65,-9036.18,13410.405
1764433724.953741,37160.64,24324.75,66053.295,-4652.55,-31707.09,-47714.175,-9039.015,13406.535
1764433724.953741,37163.16,24325.47,66052.485,-4652.01,-31705.74,-47712.195,-9043.695,13406.715
1764433724.953741,37171.44,24330.33,66055.185,-4646.07,-31699.35,-47704.815,-9047.7,13408.605
1764433724.953741,37183.185,24337.935,66060.765,-4637.115,-31689.09,-47693.88,-9051.03,13413.015
1764433724.953741,37185.3,24336.45,66057.705,-4636.665,-31688.505,-47692.665,-9062.28,13407.75
1764433724.953741,37187.685,24339.105,66060.98999999999,-4632.974999999999,-31685.895,-47689.29,-9062.28,13408.2
1764433724.953741,37188.18,24342.48,66065.895,-4629.465,-31683.735,-47687.175,-9054.27,13412.61
1764433724.953741,37182.06,24339.825,66064.68,-4632.795,-31688.055,-47692.53,-9048.285,13411.62
1764433724.9547572,37172.52,24334.155,66060.9,-4640.355,-31695.57,-47701.44,-9043.11,13409.505
1764433724.997777,37165.05,24329.52,66057.56999999999,-4647.87,-31702.905,-47709.09,-9038.295,13408.155
1764433724.998314,37159.335,24324.345,66052.485,-4653.99,-31708.44,-47715.21,-9041.265,13405.005
1764433724.998314,37162.755,24324.345,66051.72,-4652.505,-31706.64,-47713.68,-9045.855,13404.96
1764433724.998314,37170.72,24328.98,66054.375,-4647.24,-31700.385,-47706.615,-9049.725,13407.615
1764433724.998314,37183.365,24337.17,66060.315,-4638.105,-31689.495,-47694.69,-9052.605,13412.025
1764433724.998314,37186.11,24336.54,66058.47,-4635.945,-31687.875,-47691.855,-9063.54,13408.245
1764433724.998314,37189.08,24339.33,66061.575,-4632.389999999999,-31684.455,-47688.255,-9062.64,13409.91
1764433724.998314,37187.955,24340.455,66063.645,-4631.264999999999,-31684.365,-47689.065,-9056.52,13411.8
1764433724.998314,37186.965,24342.345,66066.795,-4630.32,-31684.275,-47688.84,-9046.125,13415.355
1764433724.998314,37178.955,24338.43,66064.36499999999,-4636.035,-31690.755,-47696.445,-9038.295,13414.635
1764433724.998314,37168.425,24331.455,66059.145,-4645.665,-31700.115,-47708.1,-9035.91,13410.405
1764433724.998314,37166.49,24329.835,66057.12,-4648.59,-31702.365,-47710.665,-9035.685,13409.91
1764433724.998314,37170.585,24332.085,66057.255,-4646.61,-31699.395,-47707.065,-9038.25,13411.53
1764433724.998314,37180.485,24339.06,66062.11499999999,-4639.005,-31691.565,-47698.38,-9039.69,13416.435
1764433724.998314,37186.47,24340.455,66061.485,-4635.675,-31688.415,-47693.025,-9049.905,13414.455
1764433724.998314,37187.595,24337.395,66057.75,-4636.53,-31689.045,-47691.27,-9062.28,13408.065
1764433724.998314,37189.17,24338.79,66059.955,-4633.245,-31686.57,-47688.03,-9062.775,13408.29
1764433724.998314,37188.315,24339.96,66062.61,-4631.715,-31686.615,-47688.615,-9056.16,13409.865
1764433724.998314,37186.56,24341.715,66065.67,-4631.445,-31686.615,-47689.605,-9046.62,13413.42
1764433724.998314,37176.66,24336.0,66061.8,-4638.554999999999,-31694.67,-47698.92,-9040.365,13411.62
1764433724.998314,37173.465,24335.865,66063.465,-4640.67,-31696.965,-47702.79,-9029.88,13415.535
1764433724.998314,37170.405,24332.67,66060.58499999999,-4644.99,-31700.655,-47706.795,-9031.77,13413.645
1764433724.998314,37169.415,24329.565,66055.23,-4648.185,-31703.22,-47708.865,-9040.545,13409.235
1764433724.998314,37176.435,24332.355,66056.265,-4644.405,-31698.54,-47703.24,-9046.44,13410.18
1764433725.0457652,37189.305,24340.635,66062.925,-4634.73,-31687.605,-47690.73,-9050.49,13414.995
1764433725.0457652,37194.12,24342.84,66064.41,-4630.139999999999,-31682.79,-47685.24,-9058.32,13413.375
1764433725.0457652,37191.915,24341.085,66062.97,-4631.13,-31684.365,-47686.185,-9060.93,13410.09
1764433725.0457652,37189.485,24341.355,66064.185,-4630.23,-31685.04,-47686.455,-9055.935,13411.71
1764433725.0457652,37188.405,24343.38,66067.69499999999,-4628.429999999999,-31685.085,-47687.58,-9046.125,13416.03
1764433725.0457652,37180.98,24340.32,66066.03,-4633.74,-31690.98,-47694.645,-9037.98,13415.58
1764433725.0457652,37173.51,24335.685,66062.745,-4639.995,-31697.145,-47701.8,-9033.165,13414.635
1764433725.0457652,37170.36,24332.805,66059.01,-4644.315,-31700.475,-47705.31,-9034.245,13412.835
1764433725.0457652,37168.695,24328.485,66054.105,-4647.87,-31703.265,-47708.055,-9042.84,13407.48
1764433725.0457652,37175.265,24331.995,66056.535,-4643.28,-31698.045,-47702.385,-9047.88,13408.92
1764433725.0457652,37188.27,24340.905,66063.59999999999,-4633.514999999999,-31687.29,-47690.145,-9050.805,13414.68
1764433725.0457652,37193.895,24343.92,66064.59,-4628.745,-31683.015,-47683.845,-9057.465,13414.365
1764433725.0457652,37194.885,24344.685,66066.165,-4626.495,-31680.99,-47681.37,-9057.555,13414.86
1764433725.0457652,37189.53,24341.535,66063.555,-4629.599999999999,-31685.58,-47686.455,-9055.665,13411.53
1764433725.0457652,37187.955,24343.2,66066.705,-4629.014999999999,-31685.13,-47687.94,-9045.405,13415.04
1764433725.0457652,37180.53,24339.375,66065.22,-4634.415,-31691.43,-47694.78,-9037.35,13414.68
1764433725.0457652,37172.97,24335.865,66062.16,-4640.264999999999,-31698.045,-47702.07,-9031.365,13413.735
1764433725.0457652,37168.875,24332.22,66057.255,-4645.395,-31701.69,-47707.2,-9033.48,13411.395
1764433725.0457652,37168.785,24329.205,66052.755,-4647.33,-31704.165,-47708.37,-9041.625,13407.705
1764433725.046777,37175.625,24332.175,66054.15,-4643.415,-31699.26,-47702.115,-9047.07,13409.19
1764433725.046777,37187.1,24339.735,66060.72,-4634.099999999999,-31689.045,-47690.55,-9050.94,13413.465
1764433725.046777,37192.05,24341.085,66061.70999999999,-4630.275,-31685.4,-47685.42,-9059.13,13410.9
1764433725.089203,37191.285,24340.545,66061.26,-4630.545,-31685.445,-47684.925,-9060.39,13409.505
1764433725.089203,37190.43,24342.885,66064.72499999999,-4628.25,-31684.14,-47683.845,-9053.1,13413.06
1764433725.089203,37182.87,24339.195,66061.665,-4633.38,-31689.63,-47690.595,-9048.24,13411.125
1764433725.089203,37178.28,24338.52,66062.61,-4635.99,-31692.87,-47694.825,-9037.62,13413.645
1764433725.089203,37168.335,24331.68,66057.75,-4644.315,-31701.33,-47704.365,-9034.92,13410.27
1764433725.089203,37166.625,24330.06,66055.995,-4646.79,-31703.895,-47707.02,-9035.73,13409.595
1764433725.089203,37172.88,24334.155,66059.055,-4642.92,-31698.99,-47701.575,-9036.81,13412.385
1764433725.089203,37177.695,24335.73,66058.33499999999,-4640.535,-31696.2,-47697.03,-9044.19,13411.665
1764433725.089203,37189.035,24342.795,66062.83499999999,-4632.03,-31687.38,-47686.41,-9048.915,13415.625
1764433725.089203,37190.88,24341.355,66060.18,-4631.13,-31685.985,-47684.25,-9059.445,13410.585
1764433725.089203,37191.87,24342.03,66061.53,-4629.105,-31684.185,-47682.765,-9060.165,13409.82
1764433725.089203,37189.17,24341.58,66063.06,-4629.96,-31684.365,-47683.62,-9054.765,13410.54
1764433725.089203,37187.595,24343.47,66066.93,-4628.655,-31684.68,-47684.61,-9043.965,13415.13
1764433725.089203,37180.26,24340.005,66065.175,-4632.929999999999,-31690.44,-47691.315,-9036.045,13415.265
1764433725.089203,37171.8,24335.145,66061.395,-4640.22,-31697.82,-47699.82,-9031.725,13413.51
1764433725.089203,37167.03,24329.79,66056.22,-4646.655,-31703.58,-47706.3,-9035.64,13409.595
1764433725.089203,37174.095,24334.605,66059.235,-4642.74,-31698.315,-47700.54,-9037.125,13413.69
1764433725.090743,37178.37,24335.685,66058.92,-4641.255,-31694.94,-47696.22,-9045.135,13412.565
1764433725.090743,37190.34,24342.795,66064.905,-4631.895,-31685.13,-47684.52,-9048.87,13417.38
1764433725.090743,37192.455,24341.355,66062.205,-4631.804999999999,-31684.455,-47683.53,-9060.075,13412.34
1764433725.090743,37196.505,24346.08,66067.02,-4626.224999999999,-31678.875,-47678.355,-9056.655,13415.355
1764433725.090743,37193.265,24345.135,66067.33499999999,-4627.485,-31681.395,-47680.965,-9051.75,13415.625
1764433725.090743,37183.725,24339.06,66062.655,-4634.865,-31689.72,-47689.965,-9049.68,13410.9
1764433725.090743,37176.3,24336.855,66061.935,-4638.33,-31694.94,-47696.355,-9040.995,13411.395
1764433725.137398,37173.555,24336.9,66063.19499999999,-4640.355,-31696.515,-47699.505,-9031.14,13415.13
1764433725.137398,37169.775,24333.075,66058.83,-4644.99,-31700.97,-47704.365,-9034.02,13412.115
1764433725.137398,37176.705,24336.9,66062.06999999999,-4640.849999999999,-31696.29,-47699.28,-9035.73,13415.4
1764433725.137398,37178.235,24335.235,66057.39,-4641.795,-31695.885,-47698.065,-9045.9,13411.755
1764433725.137398,37186.335,24339.33,66059.505,-4635.179999999999,-31688.73,-47689.155,-9053.685,13413.105
1764433725.137398,37187.64,24337.665,66057.39,-4634.19,-31687.74,-47687.625,-9064.26,13407.705
1764433725.137398,37187.865,24338.52,66059.415,-4632.255,-31685.85,-47686.005,-9063.81,13407.66
1764433725.137398,37185.345,24338.25,66060.58499999999,-4632.705,-31686.75,-47688.12,-9058.86,13408.83
1764433725.137398,37184.715,24340.545,66064.635,-4630.995,-31686.48,-47688.255,-9047.835,13413.51
1764433725.137398,37177.38,24338.115,66063.78,-4635.405,-31691.655,-47694.465,-9038.34,13414.23
1764433725.137398,37171.125,24335.235,66062.34,-4640.67,-31696.335,-47700.945,-9032.13,13414.77
1764433725.137398,37169.415,24333.615,66059.81999999999,-4643.28,-31698.27,-47704.365,-9032.265,13414.32
1764433725.137398,37170.945,24332.895,66057.705,-4643.775,-31698.27,-47703.105,-9038.79,13412.43
1764433725.137398,37177.65,24335.505,66058.605,-4640.13,-31694.13,-47697.615,-9045.405,13412.7
1764433725.137398,37185.975,24339.645,66061.305,-4634.19,-31687.155,-47689.245,-9052.74,13412.97
1764433725.137398,37189.98,24340.86,66061.395,-4631.264999999999,-31683.645,-47684.79,-9061.29,13411.26
1764433725.137398,37190.745,24341.895,66063.285,-4629.33,-31681.845,-47683.305,-9060.66,13411.53
1764433725.1389146,37188.72,24341.625,66064.455,-4629.825,-31682.925,-47684.745,-9054.27,13412.655
1764433725.1389146,37181.835,24338.475,66063.15,-4634.415,-31688.865,-47690.91,-9048.915,13410.855
1764433725.1389146,37169.505,24330.78,66056.625,-4644.315,-31698.855,-47702.52,-9044.955,13406.22
1764433725.1389146,37164.24,24328.035,66054.33,-4649.264999999999,-31703.355,-47708.955,-9038.52,13406.355
1764433725.1389146,37167.435,24330.915,66057.03,-4647.06,-31700.655,-47707.065,-9034.65,13410.585
1764433725.181819,37167.3,24328.17,66053.16,-4649.445,-31702.05,-47707.605,-9043.605,13406.895
1764433725.181819,37172.835,24329.61,66052.935,-4646.97,-31699.62,-47703.285,-9050.985,13405.995
1764433725.181819,37183.68,24336.0,66057.66,-4638.554999999999,-31691.25,-47693.205,-9056.16,13408.38
1764433725.1828446,37186.425,24335.595,66056.715,-4636.935,-31688.82,-47690.19,-9065.52,13404.645
1764433725.1828446,37190.88,24340.59,66062.745,-4631.264999999999,-31683.465,-47684.25,-9060.705,13409.01
1764433725.1828446,37185.12,24336.72,66060.27,-4634.82,-31687.92,-47689.02,-9058.905,13406.175
1764433725.1828446,37182.33,24337.26,66061.755,-4634.955,-31689.315,-47691.315,-9050.13,13409.415
1764433725.1841438,37173.195,24332.715,66058.965,-4641.57,-31696.38,-47699.505,-9042.795,13408.425
1764433725.1841438,37168.47,24330.69,66057.56999999999,-4646.52,-31701.69,-47705.895,-9036.63,13408.605
1764433725.1841438,37166.985,24328.845,66055.095,-4650.03,-31704.615,-47708.82,-9037.71,13408.2
1764433725.1841438,37171.215,24330.87,66055.545,-4648.545,-31701.105,-47705.265,-9042.075,13408.92
1764433725.1841438,37183.23,24339.285,66062.43,-4638.24,-31691.475,-47694.285,-9042.255,13414.095
1764433725.1841438,37191.06,24343.83,66064.36499999999,-4631.895,-31685.67,-47686.995,-9049.455,13414.95
1764433725.1841438,37190.43,24339.96,66059.775,-4633.38,-31687.11,-47686.14,-9062.1,13408.785
1764433725.1841438,37193.85,24342.84,66063.645,-4629.645,-31683.42,-47682.54,-9059.04,13410.9
1764433725.1841438,37185.435,24337.395,66059.685,-4635.405,-31689.09,-47690.145,-9057.69,13406.355
1764433725.1841438,37182.645,24337.98,66061.485,-4636.304999999999,-31691.07,-47692.62,-9048.555,13409.01
1764433725.1841438,37173.285,24332.76,66057.525,-4643.46,-31699.08,-47701.395,-9042.615,13407.255
1764433725.1841438,37169.235,24332.13,66057.435,-4645.665,-31701.915,-47705.895,-9034.695,13409.91
1764433725.1841438,37164.6,24328.035,66053.745,-4651.245,-31707.18,-47710.845,-9039.015,13406.175
1764433725.1861367,37170.405,24330.555,66055.095,-4647.825,-31703.805,-47705.58,-9041.76,13408.245
1764433725.1861367,37174.275,24331.095,66053.7,-4645.755,-31701.015,-47702.07,-9050.175,13406.76
1764433725.1861367,37187.055,24339.465,66059.81999999999,-4636.125,-31689.765,-47690.145,-9053.55,13411.8
1764433725.1861367,37192.725,24342.48,66061.53,-4631.13,-31685.085,-47683.845,-9058.77,13411.485
1764433725.229427,37192.59,24343.47,66062.52,-4629.96,-31684.23,-47682.0,-9058.95,13411.215
1764433725.229427,37185.615,24339.285,66059.145,-4635.09,-31690.17,-47688.795,-9057.24,13407.615
1764433725.229427,37179.945,24336.405,66058.785,-4638.645,-31694.22,-47693.79,-9050.4,13407.48
1764433725.229427,37173.285,24334.2,66058.38,-4641.795,-31698.72,-47700.09,-9041.49,13408.56
1764433725.229427,37171.71,24334.74,66060.36,-4642.425,-31699.17,-47702.52,-9031.86,13411.98
1764433725.229427,37170.54,24333.57,66058.875,-4645.08,-31699.485,-47703.96,-9032.625,13411.665
1764433725.229427,37173.42,24333.885,66057.93,-4644.72,-31698.99,-47702.565,-9038.79,13410.315
1764433725.229427,37176.57,24333.345,66055.68,-4644.315,-31697.415,-47699.64,-9048.285,13407.525
1764433725.229427,37187.235,24339.78,66060.315,-4635.855,-31688.82,-47689.515,-9054.18,13410.945
1764433725.229427,37189.17,24338.52,66058.155,-4635.0,-31687.965,-47687.895,-9063.54,13406.13
1764433725.229427,37190.16,24339.96,66060.0,-4632.615,-31685.94,-47685.78,-9062.28,13406.715
1764433725.229427,37188.81,24341.805,66063.285,-4631.264999999999,-31685.175,-47685.6,-9053.91,13409.82
1764433725.2304451,37179.225,24336.045,66058.875,-4638.554999999999,-31693.5,-47694.06,-9051.525,13405.23
1764433725.2304451,37173.78,24334.605,66059.86499999999,-4640.67,-31697.01,-47698.65,-9039.96,13407.345
1764433725.2304451,37167.93,24330.825,66057.48,-4645.44,-31701.915,-47705.58,-9034.65,13407.66
1764433725.2304451,37163.25,24326.145,66052.17,-4651.74,-31707.315,-47710.845,-9039.195,13403.25
1764433725.2304451,37170.405,24330.105,66055.41,-4647.825,-31702.815,-47705.445,-9041.13,13406.445
1764433725.2304451,37175.985,24332.04,66055.545,-4644.99,-31698.63,-47700.45,-9049.005,13406.67
1764433725.2304451,37182.87,24335.235,66056.895,-4639.679999999999,-31692.78,-47693.655,-9057.42,13406.13
1764433725.2304451,37186.155,24336.18,66057.03,-4636.665,-31689.945,-47690.145,-9065.16,13403.205
1764433725.2304451,37185.57,24336.495,66057.435,-4635.405,-31689.405,-47689.965,-9066.06,13402.485
1764433725.2304451,37178.235,24331.59,66054.06,-4640.67,-31695.48,-47696.355,-9064.215,13398.93
1764433725.2304451,37173.06,24330.51,66054.015,-4643.19,-31698.72,-47700.09,-9056.205,13399.065
1764433725.230954,37169.01,24330.735,66056.67,-4645.349999999999,-31700.475,-47703.78,-9044.37,13403.205
1764433725.2775948,37160.595,24325.335,66051.58499999999,-4652.415,-31708.44,-47713.275,-9041.76,13400.505
1764433725.2781284,37159.65,24323.94,66048.56999999999,-4654.62,-31710.645,-47715.795,-9043.38,13399.47
1764433725.2781284,37164.555,24325.695,66049.11,-4651.605,-31706.73,-47711.61,-9047.115,13400.91
1764433725.2781284,37176.12,24332.445,66055.05,-4642.965,-31697.775,-47701.305,-9048.915,13406.22
1764433725.2781284,37186.695,24338.88,66059.235,-4635.179999999999,-31689.045,-47690.865,-9054.495,13408.965
1764433725.2781284,37189.44,24339.87,66059.055,-4632.974999999999,-31686.075,-47686.635,-9062.28,13406.4
1764433725.2781284,37185.3,24336.045,66056.175,-4635.315,-31689.315,-47689.47,-9065.205,13402.305
1764433725.2781284,37183.23,24337.17,66058.69499999999,-4635.495,-31689.405,-47690.28,-9058.23,13403.7
1764433725.2781284,37175.04,24332.13,66054.95999999999,-4641.795,-31695.795,-47697.885,-9054.18,13401.63
