Timestamp,Channel1,Channel2,Channel3,Channel4,Channel5,Channel6,Channel7,Channel8
1764434346.8415673,30694.455,17837.145,60384.69,-6882.615,-34176.195,-45792.405,-7482.554999999999,11010.015
1764434346.8415673,30702.645,17842.184999999998,60388.11,-6877.304999999999,-34170.255,-45783.99,-7485.84,11012.22
1764434346.8415673,30701.745,17841.51,60387.255,-6878.07,-34170.795,-45784.305,-7488.719999999999,11010.915
1764434346.8415673,30702.78,17843.579999999998,60390.63,-6875.054999999999,-34168.635,-45782.73,-7482.33,11014.335
1764434346.8415673,30696.615,17840.745,60388.47,-6879.375,-34173.63,-45788.58,-7478.19,11011.635
1764434346.8415673,30692.61,17840.61,60390.045,-6880.59,-34176.195,-45791.82,-7468.785,11013.075
1764434346.8415673,30691.035,17841.96,60392.79,-6880.23,-34177.545,-45793.395,-7458.84,11017.71
1764434346.8415673,30685.725,17836.92,60387.435,-6886.395,-34183.08,-45799.695,-7462.665,11013.885
1764434346.8415673,30689.865,17839.17,60388.605,-6883.92,-34179.975,-45796.455,-7464.509999999999,11016.27
1764434346.8415673,30690.27,17836.695,60384.555,-6886.17,-34180.92,-45796.59,-7473.96,11012.13
1764434346.8415673,30698.1,17841.059999999998,60387.165,-6880.995,-34174.575,-45789.255,-7479.54,11013.615
1764434346.8415673,30702.33,17841.51,60386.535,-6878.565,-34170.93,-45785.205,-7488.405,11011.77
1764434346.8415673,30700.44,17838.18,60383.925,-6880.32,-34171.785,-45786.24,-7492.094999999999,11008.845
1764434346.8415673,30700.665,17839.62,60385.545,-6878.429999999999,-34170.3,-45786.195,-7486.245,11011.185
1764434346.8415673,30694.995,17836.38,60382.575,-6885.675,-34180.605,-45795.105,-7483.32,11009.385
1764434346.8415673,30688.785,17836.11,60386.85,-6881.759999999999,-34179.885,-45795.195,-7472.34,11010.33
1764434346.8415673,30690.9,17842.545,60394.185,-6876.495,-34175.565,-45792.315,-7458.12,11017.8
1764434346.8415673,30690.0,17841.375,60390.63,-6881.219999999999,-34178.94,-45796.455,-7458.12,11016.81
1764434346.8415673,30691.755,17840.52,60388.56,-6882.795,-34179.03,-45795.015,-7462.62,11016.36
1764434346.8415673,30694.14,17840.204999999998,60387.66,-6881.895,-34177.815,-45793.215,-7470.674999999999,11015.01
1764434346.8415673,30698.685,17841.375,60387.525,-6879.42,-34173.945,-45788.04,-7478.865,11014.56
1764434346.8415673,30702.15,17840.79,60385.5,-6877.44,-34170.255,-45783.855,-7486.424999999999,11012.67
1764434346.8896518,30702.87,17840.835,60384.735,-6878.61,-34171.785,-45784.98,-7487.82,11011.5
1764434346.8896518,30700.44,17842.995,60389.37,-6876.63,-34170.795,-45784.845,-7483.094999999999,11011.905
1764434346.8896518,30695.13,17842.184999999998,60390.27,-6877.304999999999,-34172.235,-45787.68,-7477.965,11011.185
1764434346.8896518,30688.11,17837.46,60386.67,-6882.389999999999,-34178.13,-45795.15,-7471.62,11010.285
1764434346.8906584,30686.67,17838.63,60388.47,-6882.66,-34179.3,-45797.31,-7461.045,11013.705
1764434346.8906584,30681.81,17835.255,60384.195,-6888.06,-34184.655,-45802.755,-7464.87,11010.195
1764434346.8906584,30682.89,17834.489999999998,60382.215,-6888.599999999999,-34184.744999999995,-45802.125,-7469.639999999999,11009.43
1764434346.8906584,30687.435,17836.38,60382.755,-6886.665,-34181.1,-45798.21,-7475.13,11009.745
1764434346.891658,30694.86,17839.485,60384.555,-6882.03,-34175.295,-45791.28,-7481.79,11011.23
1764434346.8920803,30697.335,17838.585,60381.765,-6881.175,-34173.765,-45788.76,-7490.88,11008.26
1764434346.8920803,30702.735,17843.265,60385.95,-6877.349999999999,-34170.119999999995,-45784.53,-7487.82,11012.265
1764434346.8920803,30700.08,17843.085,60386.67,-6877.755,-34172.055,-45786.51,-7483.769999999999,11011.86
1764434346.8926544,30692.295,17837.505,60383.565,-6881.625,-34177.14,-45792.63,-7481.07,11008.575
1764434346.8926544,30689.46,17838.809999999998,60386.625,-6880.679999999999,-34178.535,-45795.6,-7470.495,11011.86
1764434346.8926544,30684.195,17837.505,60386.85,-6882.705,-34181.865,-45800.1,-7464.78,11012.04
1764434346.8926544,30681.045,17833.77,60382.755,-6887.565,-34185.555,-45803.565,-7465.455,11010.33
1764434346.8926544,30681.81,17831.835,60379.695,-6889.995,-34186.14,-45804.15,-7471.17,11008.71
1764434346.893656,30684.645,17830.71,60377.085,-6890.13,-34184.565,-45802.17,-7478.91,11006.865
1764434346.893656,30689.91,17832.329999999998,60375.78,-6888.96,-34182.81,-45798.93,-7489.259999999999,11005.425
1764434346.893656,30691.935,17832.059999999998,60373.665,-6888.285,-34182.45,-45796.995,-7500.195,11001.735
1764434346.893656,30691.44,17831.835,60375.06,-6885.9,-34178.67,-45792.855,-7498.844999999999,11000.97
1764434346.893656,30690.36,17832.375,60377.49,-6884.594999999999,-34178.805,-45793.8,-7492.679999999999,11002.68
1764434346.893656,30691.395,17836.245,60382.755,-6880.995,-34177.23,-45792.63,-7481.7,11007.27
1764434346.893656,30688.83,17836.829999999998,60383.655,-6882.795,-34180.695,-45795.87,-7470.99,11010.105
1764434346.934333,30683.97,17833.094999999998,60379.38,-6890.895,-34188.84,-45802.845,-7465.95,11010.465
1764434346.934333,30675.915,17827.335,60376.68,-6893.37,-34192.71,-45808.965,-7471.62,11003.535
1764434346.934333,30677.085,17826.704999999998,60376.365,-6890.219999999999,-34188.75,-45805.725,-7476.12,11002.32
1764434346.934333,30683.07,17828.82,60376.005,-6891.344999999999,-34188.165,-45803.43,-7481.79,11003.22
1764434346.934333,30689.055,17833.094999999998,60379.875,-6885.36,-34180.02,-45794.79,-7487.054999999999,11003.94
1764434346.934333,30693.285,17833.815,60379.605,-6882.615,-34177.095,-45791.145,-7494.795,11002.77
1764434346.934333,30694.41,17833.545,60379.695,-6881.49,-34176.869999999995,-45790.335,-7495.29,11002.275
1764434346.934333,30692.745,17833.635,60380.415,-6883.065,-34178.985,-45791.73,-7491.15,11002.995
1764434346.934333,30684.51,17828.91,60376.545,-6888.33,-34185.555,-45799.2,-7488.855,10999.35
1764434346.934333,30680.37,17828.82,60377.58,-6888.87,-34186.5,-45803.295,-7479.63,11001.42
1764434346.934333,30681.405,17831.385,60380.775,-6887.79,-34184.744999999995,-45801.99,-7465.769999999999,11008.71
1764434346.934333,30679.515,17831.295,60381.63,-6889.275,-34187.085,-45804.195,-7465.59,11007.54
1764434346.934333,30680.73,17832.059999999998,60381.36,-6888.014999999999,-34185.645,-45803.43,-7471.349999999999,11005.38
1764434346.934333,30683.835,17830.17,60377.805,-6889.23,-34185.825,-45801.945,-7479.45,11004.075
1764434346.9353442,30688.065,17830.215,60376.995,-6887.745,-34183.485,-45798.66,-7488.54,11002.32
1764434346.9353442,30690.27,17829.855,60375.285,-6887.745,-34182.27,-45796.095,-7497.63,10999.62
1764434346.9353442,30694.86,17834.355,60379.11,-6883.74,-34178.445,-45791.28,-7494.12,11003.22
1764434346.9353442,30692.565,17834.489999999998,60380.55,-6883.155,-34178.49,-45792.765,-7488.945,11004.48
1764434346.9353442,30687.615,17832.78,60381.54,-6884.099999999999,-34181.145,-45796.815,-7483.769999999999,11003.985
1764434346.9353442,30683.475,17832.78,60384.42,-6883.92,-34182.765,-45799.65,-7474.275,11006.01
1764434346.9353442,30680.55,17833.454999999998,60385.77,-6885.585,-34185.06,-45802.71,-7465.995,11008.53
1764434346.9353442,30679.47,17831.7,60382.755,-6889.094999999999,-34187.535,-45805.41,-7466.715,11008.215
1764434346.9788694,30679.83,17829.585,60379.785,-6890.4,-34189.38,-45806.13,-7473.014999999999,11005.47
1764434346.9788694,30679.335,17826.3,60375.825,-6891.03,-34188.3,-45803.79,-7482.105,11000.61
1764434346.9788694,30686.4,17829.675,60377.085,-6887.384999999999,-34183.845,-45798.21,-7488.809999999999,11001.375
1764434346.9788694,30690.855,17830.53,60376.095,-6886.395,-34183.125,-45796.14,-7496.144999999999,11000.655
1764434346.9788694,30687.12,17826.84,60373.395,-6887.88,-34184.7,-45798.615,-7499.79,10996.11
1764434346.9788694,30685.77,17828.82,60376.14,-6886.575,-34183.44,-45798.165,-7493.49,10998.0
1764434346.9788694,30686.31,17832.105,60381.27,-6884.145,-34182.27,-45798.03,-7483.59,11002.05
1764434346.9788694,30681.135,17830.62,60381.405,-6885.855,-34185.105,-45802.125,-7474.815,11002.995
1764434346.9788694,30675.465,17827.469999999998,60379.425,-6889.86,-34190.145,-45807.48,-7469.865,11002.455
1764434346.9788694,30669.84,17821.844999999998,60373.62,-6895.844999999999,-34195.905,-45813.375,-7475.13,10997.73
1764434346.9788694,30673.62,17823.285,60373.17,-6894.945,-34193.925,-45810.81,-7478.054999999999,10998.855
1764434346.9788694,30680.91,17827.785,60375.87,-6890.94,-34188.615,-45805.095,-7481.745,11001.15
1764434346.9788694,30684.195,17826.93,60374.52,-6889.724999999999,-34187.04,-45802.89,-7492.32,10997.91
1764434346.9788694,30690.945,17830.755,60377.76,-6884.19,-34179.975,-45795.51,-7495.74,11000.025
1764434346.9788694,30690.045,17830.71,60376.32,-6883.92,-34179.57,-45795.69,-7497.585,10998.54
1764434346.9788694,30685.32,17828.594999999998,60374.88,-6887.07,-34183.395,-45799.155,-7496.099999999999,10996.785
1764434346.9788694,30684.15,17830.62,60380.595,-6884.28,-34182.81,-45799.02,-7485.884999999999,11000.97
1764434346.9788694,30675.915,17826.66,60377.265,-6888.014999999999,-34187.31,-45804.735,-7477.785,10999.89
1764434346.9788694,30674.61,17826.48,60376.185,-6891.389999999999,-34190.865,-45808.695,-7470.045,11003.76
1764434346.9788694,30672.855,17825.625,60374.52,-6894.63,-34193.295,-45811.215,-7471.799999999999,11002.32
1764434346.9788694,30674.025,17827.559999999998,60379.2,-6886.98,-34187.4,-45806.175,-7474.86,10999.71
1764434346.9788694,30679.74,17827.605,60376.5,-6888.15,-34187.04,-45803.925,-7481.34,11000.205
1764434346.9788694,30683.61,17826.885,60373.8,-6888.42,-34185.195,-45801.315,-7492.094999999999,10998.045
1764434346.9788694,30683.61,17824.905,60370.335,-6889.185,-34185.15,-45800.19,-7502.4,10992.6
1764434347.0274704,30685.905,17827.335,60373.305,-6886.575,-34182.54,-45797.175,-7499.745,10994.31
1764434347.0274704,30687.93,17831.835,60379.605,-6882.12,-34179.03,-45793.755,-7489.934999999999,10999.53
1764434347.0274704,30683.61,17831.25,60380.37,-6883.605,-34181.46,-45796.77,-7484.264999999999,11000.52
1764434347.0274704,30678.705,17829.765,60380.1,-6886.304999999999,-34183.665,-45801.09,-7474.815,11001.555
1764434347.0274704,30676.455,17830.26,60381.135,-6888.69,-34185.78,-45804.51,-7467.03,11002.905
1764434347.0274704,30672.495,17825.445,60375.96,-6895.259999999999,-34191.18,-45809.46,-7471.08,10999.35
1764434347.0274704,30675.51,17825.715,60375.195,-6895.44,-34190.325,-45807.57,-7474.724999999999,10999.8
1764434347.0274704,30682.935,17830.305,60379.065,-6887.7,-34183.17,-45802.035,-7479.315,11002.14
1764434347.0274704,30687.975,17831.7,60379.11,-6883.695,-34177.455,-45795.78,-7487.28,11001.06
1764434347.0274704,30691.98,17832.42,60379.02,-6882.389999999999,-34175.52,-45792.135,-7494.299999999999,11000.205
1764434347.0274704,30692.07,17831.88,60379.11,-6882.75,-34175.835,-45791.955,-7495.2,10999.53
1764434347.0274704,30686.895,17827.695,60376.185,-6886.17,-34180.244999999995,-45796.95,-7492.769999999999,10996.695
1764434347.0274704,30685.32,17830.079999999998,60377.94,-6886.665,-34182.315,-45798.615,-7483.905,10999.845
1764434347.0284965,30678.3,17829.405,60381.27,-6886.889999999999,-34185.06,-45803.205,-7476.165,10999.8
1764434347.0284965,30679.605,17832.69,60385.23,-6884.82,-34183.89,-45803.025,-7465.59,11004.795
1764434347.0284965,30677.175,17830.17,60381.36,-6888.06,-34185.915,-45805.545,-7466.67,11003.58
1764434347.0284965,30676.32,17826.795,60377.13,-6890.895,-34187.58,-45807.12,-7474.455,11000.295
1764434347.0284965,30683.61,17830.395,60379.11,-6887.429999999999,-34183.26,-45801.09,-7478.684999999999,11002.635
1764434347.0284965,30685.995,17828.954999999998,60375.195,-6888.24,-34183.08,-45799.02,-7490.205,10998.855
1764434347.0284965,30691.17,17831.16,60376.455,-6884.775,-34177.86,-45793.89,-7495.335,10999.845
1764434347.0284965,30692.88,17832.87,60378.975,-6881.58,-34175.205,-45792.54,-7494.48,11000.745
1764434347.0284965,30691.125,17834.76,60382.08,-6880.59,-34176.105,-45792.54,-7488.315,11002.68
1764434347.0729654,30686.67,17833.77,60382.98,-6880.275,-34176.015,-45793.08,-7479.674999999999,11003.445
1764434347.0729654,30686.31,17837.145,60387.345,-6878.925,-34176.195,-45794.655,-7467.075,11008.53
1764434347.0729654,30681.585,17834.895,60385.14,-6882.21,-34180.515,-45799.515,-7461.945,11009.205
1764434347.0729654,30677.985,17830.62,60380.37,-6886.665,-34185.33,-45804.42,-7466.264999999999,11006.28
1764434347.0739665,30676.905,17826.66,60375.465,-6890.355,-34188.165,-45807.03,-7474.41,11001.465
1764434347.0739665,30683.745,17829.855,60376.545,-6887.115,-34182.9,-45800.37,-7477.875,11003.67
1764434347.0739665,30687.075,17828.73,60374.16,-6887.745,-34182.45,-45798.57,-7489.259999999999,10999.8
1764434347.0739665,30694.68,17833.5,60378.93,-6880.634999999999,-34174.845,-45790.245,-7491.87,11002.23
1764434347.0739665,30696.12,17836.245,60382.845,-6877.08,-34173.494999999995,-45788.04,-7490.79,11003.085
1764434347.0739665,30692.52,17836.469999999998,60384.06,-6877.395,-34173.855,-45789.39,-7485.075,11003.535
1764434347.0739665,30684.915,17831.79,60381.27,-6882.389999999999,-34179.615,-45795.465,-7481.969999999999,11000.385
1764434347.0739665,30680.91,17831.43,60381.675,-6883.155,-34181.19,-45798.84,-7472.115,11003.715
1764434347.0739665,30680.955,17833.635,60383.295,-6883.11,-34181.595,-45800.82,-7463.115,11007.72
1764434347.0739665,30676.185,17828.46,60378.795,-6888.69,-34188.03,-45806.895,-7468.38,11003.31
1764434347.0749595,30680.28,17830.079999999998,60380.235,-6886.08,-34184.385,-45803.16,-7471.62,11004.93
1764434347.0749595,30685.995,17831.16,60380.775,-6883.83,-34180.515,-45799.065,-7476.795,11004.615
1764434347.0749595,30690.18,17830.575,60378.93,-6883.514999999999,-34178.445,-45795.015,-7486.875,11001.195
1764434347.0749595,30689.505,17828.1,60374.25,-6886.08,-34180.965,-45795.6,-7496.639999999999,10995.66
1764434347.0749595,30690.765,17830.079999999998,60377.4,-6883.965,-34179.39,-45793.89,-7495.11,10997.595
1764434347.0749595,30692.52,17833.68,60382.62,-6879.509999999999,-34175.61,-45791.505,-7486.065,11002.455
1764434347.0749595,30683.61,17827.695,60377.535,-6884.46,-34181.865,-45799.02,-7482.69,10997.73
1764434347.0749595,30678.3,17826.614999999998,60376.86,-6889.23,-34187.265,-45804.87,-7474.769999999999,10998.72
1764434347.0749595,30677.985,17829.09,60380.055,-6889.005,-34186.095,-45804.69,-7464.825,11003.22
1764434347.0749595,30676.59,17827.155,60378.48,-6889.77,-34186.23,-45805.77,-7465.455,11001.78
1764434347.1194806,30678.66,17827.11,60376.77,-6889.455,-34187.445,-45806.445,-7472.519999999999,11001.15
1764434347.1194806,30680.865,17826.434999999998,60375.6,-6887.969999999999,-34183.98,-45802.125,-7481.429999999999,10999.53
1764434347.1194806,30687.435,17828.64,60375.645,-6886.035,-34179.795,-45797.13,-7489.349999999999,10998.9
1764434347.1194806,30692.745,17830.665,60377.49,-6884.009999999999,-34176.555,-45792.405,-7493.535,10999.08
1764434347.1194806,30692.43,17830.53,60377.94,-6883.2,-34175.52,-45790.83,-7491.644999999999,10999.17
1764434347.1194806,30690.585,17831.475,60379.56,-6882.344999999999,-34176.195,-45792.54,-7486.785,11000.16
1764434347.1194806,30685.455,17828.37,60378.525,-6883.65,-34179.3,-45797.715,-7481.295,10999.485
1764434347.1194806,30682.755,17829.899999999998,60380.73,-6884.865,-34182.63,-45800.73,-7470.179999999999,11003.58
1764434347.1194806,30680.415,17833.05,60386.085,-6881.895,-34180.38,-45799.695,-7461.179999999999,11006.28
1764434347.1194806,30679.74,17832.105,60383.385,-6885.045,-34182.72,-45802.485,-7463.115,11005.605
1764434347.1194806,30680.865,17829.495,60378.075,-6888.554999999999,-34185.465,-45803.925,-7470.945,11003.355
1764434347.1194806,30681.045,17826.075,60372.18,-6892.469999999999,-34186.59,-45803.7,-7481.07,10998.945
1764434347.1194806,30684.69,17827.92,60372.9,-6890.264999999999,-34182.585,-45798.12,-7490.115,10997.325
1764434347.1194806,30689.64,17831.925,60377.535,-6884.145,-34178.265,-45793.44,-7494.974999999999,10997.685
1764434347.1194806,30690.495,17832.645,60380.055,-6879.465,-34174.26,-45791.145,-7492.545,10998.855
1764434347.1194806,30688.875,17833.05,60381.225,-6878.79,-34173.494999999995,-45792.585,-7486.74,11000.115
1764434347.1194806,30684.735,17831.61,60380.37,-6881.219999999999,-34177.5,-45797.04,-7480.53,10999.935
1764434347.1194806,30680.685,17831.25,60381.72,-6882.705,-34180.83,-45799.965,-7469.955,11002.185
1764434347.1194806,30681.54,17834.715,60385.995,-6880.5,-34179.75,-45799.065,-7460.19,11007.72
1764434347.1194806,30678.3,17831.61,60382.17,-6884.37,-34182.945,-45803.07,-7464.69,11006.235
1764434347.1194806,30683.61,17835.03,60383.655,-6882.525,-34179.75,-45798.84,-7466.535,11008.53
1764434347.1194806,30683.52,17831.024999999998,60377.715,-6886.665,-34182.494999999995,-45800.595,-7478.009999999999,11002.77
1764434347.1642945,30690.81,17833.815,60379.245,-6882.165,-34176.825,-45794.43,-7485.389999999999,11003.04
1764434347.1642945,30696.075,17837.55,60382.395,-6877.08,-34171.83,-45789.075,-7488.269999999999,11003.445
1764434347.1642945,30694.095,17836.38,60381.63,-6877.215,-34173.09,-45788.85,-7487.684999999999,11002.23
1764434347.1642945,30688.695,17833.454999999998,60379.245,-6881.94,-34177.23,-45793.665,-7485.84,11000.61
1764434347.1642945,30688.02,17836.29,60383.52,-6878.7,-34174.17,-45792.945,-7476.434999999999,11003.94
1764434347.1642945,30684.6,17838.0,60386.22,-6879.554999999999,-34177.905,-45797.04,-7465.679999999999,11006.595
1764434347.1642945,30679.38,17835.12,60385.41,-6881.94,-34182.494999999995,-45801.72,-7460.73,11006.595
1764434347.1642945,30673.89,17829.135,60379.695,-6887.61,-34186.68,-45807.03,-7466.309999999999,11001.195
1764434347.1642945,30676.32,17828.1,60377.715,-6889.05,-34186.59,-45806.31,-7472.745,11000.52
1764434347.1642945,30681.675,17829.899999999998,60377.58,-6886.889999999999,-34182.945,-45802.305,-7479.045,11000.88
1764434347.1642945,30690.585,17834.67,60380.505,-6880.815,-34176.195,-45794.115,-7484.94,11002.77
1764434347.1642945,30695.355,17837.505,60382.305,-6877.215,-34172.28,-45788.805,-7488.405,11002.77
1764434347.1642945,30696.03,17837.864999999998,60383.97,-6876.134999999999,-34172.19,-45788.31,-7487.505,11002.68
1764434347.1642945,30694.05,17837.28,60385.005,-6876.27,-34172.64,-45789.255,-7481.655,11003.805
1764434347.1642945,30689.01,17834.265,60383.25,-6879.33,-34176.105,-45794.295,-7475.445,11003.49
1764434347.1642945,30682.485,17832.6,60380.865,-6885.719999999999,-34183.619999999995,-45801.99,-7468.38,11004.255
1764434347.1642945,30681.855,17836.02,60387.525,-6880.815,-34179.75,-45800.28,-7458.344999999999,11007.99
1764434347.1642945,30678.075,17831.385,60383.025,-6884.955,-34183.98,-45804.33,-7462.889999999999,11004.57
1764434347.165311,30683.385,17833.635,60382.17,-6883.065,-34181.775,-45800.82,-7466.04,11006.415
1764434347.165311,30685.995,17832.915,60379.785,-6883.11,-34180.02,-45798.66,-7474.815,11003.85
1764434347.1663313,30686.76,17829.63,60375.645,-6884.82,-34180.83,-45797.895,-7487.865,10998.945
1764434347.1663313,30693.6,17834.219999999998,60379.155,-6878.34,-34174.035,-45790.92,-7489.665,11002.05
1764434347.1663313,30690.765,17832.059999999998,60377.67,-6879.96,-34176.195,-45793.215,-7491.69,10999.17
1764434347.1663313,30691.98,17835.48,60382.71,-6876.179999999999,-34173.045,-45790.785,-7482.105,11003.265
1764434347.211524,30688.2,17834.985,60383.745,-6877.844999999999,-34175.43,-45793.575,-7474.32,11004.66
1764434347.211524,30681.72,17832.915,60382.89,-6880.77,-34180.065,-45799.56,-7465.679999999999,11003.94
1764434347.211524,30682.8,17836.38,60387.165,-6878.79,-34178.49,-45798.795,-7456.769999999999,11009.565
1764434347.211524,30681.63,17834.219999999998,60384.195,-6881.94,-34180.695,-45801.405,-7459.38,11007.9
1764434347.211524,30681.045,17830.305,60379.335,-6885.045,-34183.08,-45803.115,-7468.065,11003.58
1764434347.211524,30688.425,17833.545,60381.585,-6880.275,-34176.735,-45796.5,-7472.969999999999,11006.325
1764434347.211524,30693.285,17835.344999999998,60381.45,-6877.844999999999,-34172.369999999995,-45791.415,-7482.465,11004.66
1764434347.211524,30694.275,17834.67,60380.145,-6877.53,-34172.055,-45789.705,-7488.54,11001.78
1764434347.211524,30697.155,17838.36,60384.285,-6873.48,-34169.895,-45786.42,-7484.13,11005.335
1764434347.211524,30695.085,17838.585,60385.68,-6874.245,-34172.235,-45788.49,-7478.594999999999,11005.92
1764434347.211524,30687.615,17834.13,60383.43,-6878.565,-34176.735,-45794.205,-7473.915,11003.31
1764434347.2125468,30685.5,17836.11,60386.805,-6877.17,-34176.42,-45795.825,-7461.585,11007.585
1764434347.2125468,30681.81,17834.625,60384.735,-6880.545,-34179.84,-45800.28,-7457.219999999999,11008.71
1764434347.2125468,30677.085,17828.37,60376.995,-6886.665,-34185.69,-45805.635,-7463.115,11003.58
1764434347.2135406,30682.845,17830.934999999998,60376.41,-6887.565,-34185.015,-45802.53,-7466.13,11005.245
1764434347.2135406,30687.57,17832.69,60378.12,-6884.639999999999,-34180.83,-45798.12,-7473.42,11004.66
1764434347.2135406,30690.495,17832.51,60376.545,-6883.875,-34180.29,-45797.13,-7485.48,11001.645
1764434347.2135406,30693.735,17835.12,60381.495,-6873.795,-34168.455,-45786.42,-7486.29,11002.365
1764434347.2135406,30691.71,17834.265,60381.495,-6876.405,-34170.705,-45787.77,-7486.785,10999.98
1764434347.2135406,30692.565,17836.38,60382.935,-6877.665,-34172.145,-45788.58,-7479.179999999999,11004.03
1764434347.2135406,30692.16,17838.855,60386.49,-6873.344999999999,-34170.165,-45788.04,-7467.929999999999,11008.62
1764434347.2135406,30687.075,17838.36,60388.605,-6875.639999999999,-34174.17,-45793.125,-7459.019999999999,11010.915
1764434347.256256,30682.485,17835.66,60386.175,-6880.455,-34177.95,-45797.625,-7454.88,11009.745
1764434347.256256,30676.86,17830.305,60379.875,-6886.304999999999,-34184.295,-45804.375,-7462.17,11004.03
1764434347.256256,30679.065,17829.765,60379.11,-6884.594999999999,-34182.765,-45802.665,-7467.344999999999,11002.815
1764434347.256256,30686.355,17832.51,60381.9,-6878.565,-34174.575,-45794.97,-7472.115,11004.435
1764434347.2572677,30687.975,17830.395,60376.23,-6881.895,-34176.015,-45794.97,-7485.389999999999,10999.62
1764434347.2572677,30693.195,17833.274999999998,60377.67,-6879.014999999999,-34172.955,-45790.83,-7489.17,11000.655
1764434347.2572677,30696.795,17837.954999999998,60382.845,-6876.315,-34169.985,-45786.78,-7483.815,11004.12
1764434347.2572677,30690.81,17836.155,60385.005,-6874.155,-34169.58,-45787.005,-7478.37,11003.175
1764434347.2572677,30688.155,17836.2,60385.86,-6874.245,-34171.47,-45789.795,-7469.82,11005.245
1764434347.2572677,30681.72,17833.094999999998,60383.385,-6879.915,-34178.04,-45796.905,-7462.215,11004.705
1764434347.2572677,30680.325,17833.905,60384.735,-6880.86,-34179.119999999995,-45798.345,-7455.735,11007.135
1764434347.258268,30676.455,17829.18,60379.29,-6886.755,-34184.475,-45803.88,-7461.45,11002.32
1764434347.258268,30679.875,17830.53,60378.705,-6885.09,-34182.27,-45801.18,-7466.355,11002.635
1764434347.258268,30687.57,17834.489999999998,60381.225,-6879.87,-34175.565,-45793.305,-7470.719999999999,11005.38
1764434347.258268,30689.91,17832.87,60378.165,-6880.545,-34174.53,-45792.315,-7482.42,11000.43
1764434347.259278,30695.985,17836.965,60381.81,-6875.865,-34170.345,-45786.735,-7484.309999999999,11003.04
1764434347.259278,30695.895,17837.145,60382.44,-6874.155,-34169.355,-45785.43,-7481.7,11003.895
1764434347.259278,30693.15,17836.785,60382.98,-6875.099999999999,-34171.065,-45787.59,-7477.019999999999,11003.49
1764434347.259278,30685.995,17832.96,60381.045,-6879.06,-34176.285,-45794.52,-7473.42,11001.24
1764434347.259278,30685.455,17835.255,60384.465,-6878.52,-34176.78,-45795.645,-7460.235,11006.73
1764434347.259278,30685.095,17836.335,60384.555,-6880.634999999999,-34179.705,-45799.065,-7453.665,11008.845
1764434347.259278,30681.18,17832.285,60381.135,-6883.29,-34182.27,-45801.63,-7457.58,11004.345
1764434347.2602825,30678.03,17827.469999999998,60377.31,-6884.235,-34182.27,-45801.765,-7466.264999999999,10999.17
1764434347.2602825,30683.925,17829.135,60376.68,-6883.425,-34180.065,-45798.75,-7474.23,10999.26
1764434347.2999454,30692.88,17833.545,60379.335,-6877.889999999999,-34173.315,-45790.92,-7480.08,11001.06
1764434347.2999454,30696.345,17834.625,60379.92,-6874.245,-34169.58,-45786.375,-7483.995,11001.42
1764434347.2999454,30697.425,17836.02,60381.36,-6873.795,-34168.86,-45785.115,-7480.575,11003.67
1764434347.2999454,30694.545,17836.649999999998,60383.385,-6874.469999999999,-34170.39,-45787.185,-7474.995,11003.985
1764434347.2999454,30688.245,17836.02,60385.095,-6873.435,-34172.325,-45790.965,-7469.054999999999,11002.455
1764434347.2999454,30681.585,17832.51,60382.62,-6878.565,-34179.119999999995,-45798.255,-7462.889999999999,11001.465
1764434347.2999454,30680.19,17833.184999999998,60382.89,-6879.87,-34180.244999999995,-45799.695,-7455.78,11004.345
1764434347.2999454,30676.59,17827.469999999998,60376.86,-6886.17,-34186.23,-45805.455,-7462.215,10998.765
1764434347.2999454,30679.245,17827.155,60374.52,-6888.78,-34186.905,-45804.24,-7468.335,10998.09
1764434347.2999454,30685.23,17830.17,60374.385,-6886.17,-34183.619999999995,-45800.01,-7474.545,10998.72
1764434347.3009589,30692.655,17833.68,60376.68,-6876.945,-34175.52,-45793.215,-7480.665,10999.845
1764434347.3009589,30692.295,17831.204999999998,60375.285,-6876.27,-34174.17,-45791.37,-7487.099999999999,10997.19
1764434347.3019533,30689.505,17829.809999999998,60375.195,-6879.33,-34175.79,-45792.99,-7487.73,10994.22
1764434347.3019533,30690.81,17835.48,60382.53,-6873.21,-34171.92,-45789.12,-7477.065,10999.26
1764434347.3019533,30687.885,17836.335,60383.34,-6875.55,-34175.205,-45792.45,-7468.83,11001.78
1764434347.3019533,30682.8,17835.524999999998,60384.465,-6877.71,-34178.04,-45796.455,-7459.695,11003.715
1764434347.3019533,30676.77,17831.114999999998,60381.0,-6881.804999999999,-34183.485,-45803.52,-7457.715,11001.96
1764434347.3019533,30673.53,17826.255,60375.42,-6886.17,-34186.77,-45807.615,-7462.44,10997.415
1764434347.3019533,30679.02,17828.145,60376.05,-6884.28,-34183.17,-45803.745,-7466.309999999999,10999.935
1764434347.3019533,30680.28,17825.76,60371.325,-6887.25,-34184.835,-45803.07,-7477.514999999999,10996.92
1764434347.3019533,30686.22,17828.64,60374.07,-6881.445,-34178.355,-45795.465,-7483.275,10996.38
1764434347.3019533,30695.22,17835.795,60381.45,-6872.94,-34169.085,-45785.97,-7482.15,11000.745
1764434347.3497615,30694.185,17834.625,60380.73,-6874.065,-34170.84,-45786.735,-7481.429999999999,11000.16
1764434347.3497615,30688.245,17831.969999999998,60378.705,-6877.71,-34175.16,-45791.415,-7477.965,10998.36
1764434347.3497615,30688.02,17834.85,60383.295,-6875.37,-34174.665,-45791.955,-7467.615,11002.14
1764434347.3497615,30681.99,17832.87,60383.205,-6877.98,-34177.905,-45796.68,-7459.74,11002.905
1764434347.3497615,30675.735,17828.325,60378.66,-6883.11,-34183.619999999995,-45803.565,-7458.84,10999.98
1764434347.3497615,30671.685,17823.285,60373.08,-6887.79,-34187.67,-45807.21,-7465.139999999999,10995.885
1764434347.3497615,30677.58,17826.21,60375.33,-6884.73,-34183.619999999995,-45802.71,-7467.389999999999,10998.765
1764434347.3497615,30681.495,17826.66,60373.26,-6885.45,-34181.369999999995,-45800.19,-7475.4,10996.695
1764434347.3497615,30687.705,17828.684999999998,60372.765,-6883.74,-34178.715,-45796.005,-7483.545,10995.705
1764434347.3497615,30691.485,17830.53,60375.42,-6878.969999999999,-34174.845,-45790.965,-7487.415,10996.02
1764434347.3497615,30691.935,17832.96,60380.01,-6874.38,-34171.38,-45787.77,-7483.545,10997.37
1764434347.3497615,30694.365,17837.91,60386.175,-6868.755,-34167.195,-45783.585,-7472.115,11003.445
1764434347.3502991,30690.81,17837.46,60386.04,-6871.545,-34170.84,-45788.175,-7464.69,11004.48
1764434347.3502991,30683.295,17833.59,60383.745,-6878.025,-34176.869999999995,-45795.69,-7458.884999999999,11003.625
1764434347.3502991,30682.395,17834.399999999998,60384.78,-6878.745,-34177.59,-45797.22,-7453.215,11005.83
1764434347.3502991,30679.29,17830.305,60380.1,-6883.38,-34182.18,-45802.17,-7459.155,11002.05
1764434347.3502991,30685.23,17833.23,60382.35,-6879.645,-34177.77,-45796.95,-7462.125,11003.985
1764434347.3502991,30690.45,17835.12,60382.44,-6877.395,-34172.955,-45792.27,-7467.884999999999,11004.21
1764434347.3502991,30693.825,17834.13,60380.1,-6877.035,-34171.47,-45789.03,-7478.235,11001.285
1764434347.3502991,30699.72,17838.495,60384.42,-6870.554999999999,-34165.215,-45781.74,-7478.82,11004.66
1764434347.3502991,30697.515,17837.1,60383.655,-6871.455,-34167.42,-45784.17,-7477.74,11002.725
1764434347.3502991,30696.885,17839.53,60386.985,-6869.295,-34166.385,-45784.71,-7469.955,11005.515
1764434347.3987684,30689.145,17835.255,60384.96,-6874.695,-34172.46,-45791.505,-7465.5,11002.725
1764434347.3987684,30686.985,17836.2,60387.075,-6875.37,-34174.935,-45794.07,-7454.519999999999,11006.235
1764434347.3987684,30687.795,17838.945,60389.235,-6873.525,-34173.54,-45793.935,-7447.23,11010.285
1764434347.399766,30683.52,17833.86,60382.53,-6878.115,-34177.32,-45798.57,-7454.25,11005.56
1764434347.399766,30684.555,17832.375,60380.37,-6879.42,-34177.68,-45797.85,-7461.495,11003.445
1764434347.399766,30692.835,17835.795,60381.675,-6876.36,-34172.19,-45791.505,-7465.815,11006.055
1764434347.399766,30696.165,17835.66,60379.56,-6876.54,-34171.965,-45789.255,-7476.705,11002.455
1764434347.399766,30699.225,17838.855,60383.97,-6870.915,-34167.33,-45784.575,-7479.764999999999,11001.51
1764434347.400765,30700.17,17840.204999999998,60386.085,-6871.23,-34168.14,-45785.7,-7477.74,11003.31
1764434347.400765,30699.585,17842.545,60391.53,-6865.74,-34162.47,-45781.155,-7466.625,11007.675
1764434347.400765,30692.7,17839.395,60389.865,-6868.844999999999,-34167.105,-45786.33,-7460.73,11005.695
1764434347.400765,30686.265,17837.01,60388.2,-6872.94,-34172.1,-45791.145,-7453.44,11006.46
1764434347.400765,30688.56,17840.52,60391.53,-6870.96,-34170.435,-45789.84,-7444.53,11011.275
1764434347.401766,30688.47,17838.719999999998,60389.37,-6874.2,-34173.045,-45792.81,-7448.085,11010.105
1764434347.401766,30689.955,17836.515,60385.455,-6876.855,-34175.205,-45794.835,-7456.724999999999,11007.405
1764434347.401766,30692.925,17836.469999999998,60384.195,-6876.045,-34173.945,-45792.09,-7464.825,11005.515
1764434347.401766,30697.83,17837.28,60384.375,-6870.465,-34166.115,-45784.305,-7473.195,11004.165
1764434347.402768,30702.645,17839.89,60386.58,-6867.764999999999,-34164.494999999995,-45781.335,-7475.804999999999,11005.47
1764434347.402768,30703.23,17841.735,60388.065,-6866.73,-34164.54,-45781.065,-7472.115,11007.315
1764434347.402768,30704.715,17846.774999999998,60394.005,-6861.825,-34159.725,-45776.52,-7462.259999999999,11012.355
1764434347.402768,30697.83,17844.66,60394.905,-6863.264999999999,-34163.685,-45781.515,-7455.195,11010.645
1764434347.402768,30693.105,17842.95,60393.465,-6867.63,-34169.04,-45786.645,-7445.565,11012.58
1764434347.402768,30694.545,17845.515,60395.22,-6867.81,-34169.49,-45787.59,-7438.275,11017.755
1764434347.402768,30694.14,17843.85,60394.23,-6867.675,-34170.705,-45790.83,-7443.54,11015.46
1764434347.4431186,30694.41,17840.88,60389.775,-6868.304999999999,-34168.68,-45788.4,-7451.46,11011.995
1764434347.4431186,30701.97,17845.425,60392.025,-6864.165,-34163.325,-45781.425,-7455.69,11014.11
1764434347.4431186,30705.12,17844.03,60389.235,-6864.48,-34162.47,-45779.895,-7466.715,11011.005
1764434347.4431186,30710.16,17848.079999999998,60392.025,-6859.755,-34156.665,-45773.91,-7467.974999999999,11013.66
1764434347.4431186,30707.325,17847.27,60391.53,-6861.554999999999,-34158.869999999995,-45776.43,-7467.165,11012.175
1764434347.4431186,30709.215,17851.815,60397.065,-6858.855,-34157.744999999995,-45775.845,-7456.905,11016.855
1764434347.4431186,30702.105,17848.079999999998,60395.715,-6861.69,-34160.85,-45779.22,-7449.66,11016.045
1764434347.4431186,30698.145,17848.71,60397.785,-6862.679999999999,-34162.605,-45782.1,-7439.445,11019.69
1764434347.4431186,30700.035,17851.815,60401.745,-6860.429999999999,-34162.02,-45781.155,-7431.48,11024.73
1764434347.4431186,30701.61,17851.184999999998,60400.305,-6860.745,-34161.119999999995,-45780.615,-7433.865,11024.505
1764434347.4431186,30704.76,17851.545,60398.505,-6861.78,-34161.119999999995,-45780.3,-7440.929999999999,11022.93
1764434347.4431186,30705.255,17848.485,60395.31,-6862.815,-34161.255,-45780.12,-7452.315,11018.205
1764434347.4431186,30712.995,17852.67,60397.965,-6856.514999999999,-34154.595,-45771.93,-7457.67,11020.32
1764434347.4431186,30712.995,17850.645,60395.49,-6856.74,-34154.505,-45770.715,-7462.53,11018.295
1764434347.4431186,30715.785,17853.48,60398.415,-6857.415,-34154.64,-45769.455,-7458.03,11021.535
1764434347.4431186,30708.27,17851.41,60399.945,-6857.82,-34156.89,-45773.19,-7454.835,11017.26
1764434347.4431186,30705.435,17852.625,60403.455,-6854.49,-34155.54,-45774.18,-7444.304999999999,11020.23
1764434347.4431186,30705.975,17856.18,60407.415,-6853.094999999999,-34154.369999999995,-45773.82,-7430.264999999999,11027.475
1764434347.4431186,30702.96,17854.515,60404.895,-6856.245,-34157.52,-45778.05,-7429.139999999999,11026.44
1764434347.4441226,30699.18,17848.755,60398.64,-6863.49,-34165.44,-45784.08,-7437.644999999999,11021.13
1764434347.4441226,30704.85,17850.51,60399.54,-6859.889999999999,-34160.22,-45778.32,-7439.985,11023.335
1764434347.4441226,30708.405,17849.43,60396.48,-6859.575,-34158.15,-45775.62,-7448.759999999999,11021.94
1764434347.4441226,30710.205,17847.945,60392.655,-6861.554999999999,-34158.915,-45774.72,-7461.45,11017.305
1764434347.4441226,30714.48,17853.03,60397.155,-6857.37,-34153.65,-45768.51,-7461.45,11018.97
1764434347.488052,30711.78,17852.04,60398.865,-6856.92,-34154.01,-45768.645,-7459.83,11017.665
1764434347.4885888,30712.995,17854.92,60402.6,-6855.615,-34154.19,-45769.095,-7451.955,11022.165
1764434347.4885888,30706.11,17851.905,60400.755,-6858.945,-34158.645,-45775.755,-7446.735,11020.32
1764434347.4885888,30703.05,17852.445,60403.32,-6859.125,-34159.5,-45776.79,-7434.179999999999,11023.83
1764434347.4885888,30703.635,17854.335,60406.065,-6856.92,-34157.88,-45776.61,-7427.34,11027.745
1764434347.4885888,30703.545,17851.905,60403.365,-6859.304999999999,-34158.33,-45778.365,-7431.84,11025.81
1764434347.4885888,30703.815,17849.07,60398.955,-6862.634999999999,-34160.895,-45779.805,-7441.11,11021.94
1764434347.4885888,30711.105,17853.48,60401.295,-6858.495,-34156.215,-45773.325,-7446.554999999999,11024.01
1764434347.4885888,30716.145,17854.559999999998,60401.475,-6855.255,-34152.39,-45767.52,-7454.429999999999,11023.02
1764434347.4885888,30719.295,17855.55,60402.51,-6852.24,-34149.555,-45764.46,-7456.95,11023.155
1764434347.4885888,30719.16,17855.505,60402.87,-6851.88,-34148.655,-45764.145,-7453.394999999999,11023.47
1764434347.4885888,30712.455,17851.905,60399.9,-6856.469999999999,-34154.505,-45770.13,-7450.38,11021.895
1764434347.4885888,30708.99,17852.67,60402.33,-6857.28,-34156.17,-45772.425,-7441.65,11023.47
1764434347.4885888,30702.105,17851.094999999998,60404.04,-6858.99,-34159.77,-45777.195,-7434.855,11022.885
1764434347.4885888,30703.365,17852.805,60404.265,-6860.925,-34162.11,-45778.275,-7428.465,11026.98
1764434347.4885888,30700.305,17848.98,60399.495,-6862.995,-34164.9,-45782.82,-7435.44,11022.12
1764434347.4885888,30704.355,17849.835,60398.955,-6859.62,-34159.59,-45778.005,-7440.705,11021.895
1764434347.4885888,30707.55,17849.07,60397.11,-6859.844999999999,-34158.195,-45774.99,-7450.065,11020.005
1764434347.4885888,30709.215,17846.82,60393.645,-6861.78,-34158.555,-45775.08,-7462.53,11015.055
1764434347.4885888,30710.79,17847.45,60394.5,-6859.844999999999,-34155.405,-45772.38,-7465.094999999999,11014.155
1764434347.4891174,30708.855,17847.45,60395.085,-6859.395,-34156.485,-45773.415,-7462.44,11013.705
1764434347.4891174,30704.895,17846.46,60396.12,-6860.925,-34158.24,-45776.34,-7456.815,11013.48
1764434347.4891174,30701.7,17847.0,60397.29,-6862.005,-34159.86,-45779.535,-7447.815,11015.955
1764434347.4891174,30702.105,17850.825,60401.25,-6860.925,-34160.715,-45781.11,-7435.44,11022.21
1764434347.538327,30699.225,17849.114999999998,60401.16,-6861.915,-34161.84,-45782.28,-7431.434999999999,11021.85
1764434347.5393443,30699.54,17848.71,60399.63,-6862.365,-34162.065,-45782.1,-7434.09,11021.355
1764434347.5393443,30702.33,17848.395,60397.47,-6863.445,-34161.345,-45781.11,-7441.155,11019.735
1764434347.5393443,30703.455,17845.92,60393.15,-6865.65,-34163.145,-45781.38,-7453.98,11015.595
1764434347.5393443,30707.46,17845.515,60391.395,-6864.974999999999,-34161.84,-45778.275,-7463.519999999999,11012.625
1764434347.5393443,30709.44,17847.315,60393.735,-6860.79,-34157.205,-45772.605,-7463.655,11013.03
1764434347.5393443,30709.755,17849.969999999998,60397.425,-6858.315,-34155.27,-45771.795,-7459.335,11014.56
1764434347.5393443,30710.475,17853.03,60401.07,-6855.66,-34154.73,-45771.39,-7449.84,11018.61
1764434347.5393443,30706.425,17851.545,60400.935,-6857.594999999999,-34158.015,-45775.035,-7441.514999999999,11019.735
1764434347.5393443,30700.26,17849.295,60399.63,-6862.724999999999,-34163.1,-45780.525,-7434.764999999999,11019.51
1764434347.5393443,30696.66,17848.844999999998,60400.26,-6862.545,-34164.09,-45781.875,-7431.84,11019.105
1764434347.5393443,30695.445,17844.885,60395.535,-6866.73,-34168.455,-45786.015,-7438.545,11015.865
1764434347.5393443,30694.005,17841.015,60390.81,-6868.215,-34170.345,-45788.04,-7448.894999999999,11010.78
1764434347.5393443,30698.73,17842.905,60390.81,-6865.605,-34166.34,-45783.0,-7455.24,11010.375
1764434347.5393443,30706.965,17846.91,60392.88,-6861.24,-34160.805,-45776.25,-7460.73,11011.86
1764434347.5393443,30707.46,17845.785,60391.935,-6860.565,-34160.13,-45774.855,-7464.96,11009.88
1764434347.5393443,30709.035,17849.204999999998,60395.85,-6857.19,-34157.43,-45772.245,-7459.155,11012.985
1764434347.5393443,30704.625,17847.809999999998,60395.175,-6859.17,-34160.265,-45776.52,-7453.934999999999,11012.85
1764434347.5393443,30695.985,17842.545,60392.07,-6864.12,-34166.475,-45783.72,-7449.884999999999,11009.52
1764434347.5393443,30695.535,17844.93,60396.075,-6862.185,-34165.665,-45784.215,-7437.42,11015.46
1764434347.5393443,30696.66,17847.63,60398.73,-6860.88,-34164.54,-45783.405,-7431.21,11019.285
1764434347.5393443,30695.985,17845.605,60395.58,-6863.58,-34166.475,-45785.16,-7436.16,11016.72
1764434347.5393443,30697.11,17843.13,60392.385,-6865.514999999999,-34166.744999999995,-45784.98,-7444.934999999999,11013.57
1764434347.5393443,30705.03,17847.495,60394.545,-6861.24,-34160.355,-45778.14,-7450.29,11016.405
1764434347.5853302,30707.955,17847.585,60393.06,-6860.88,-34159.14,-45775.845,-7460.865,11013.705
1764434347.5853302,30705.435,17843.76,60390.045,-6861.42,-34159.905,-45775.935,-7467.57,11009.25
1764434347.5853302,30704.895,17844.885,60391.8,-6860.565,-34159.725,-45775.755,-7464.285,11009.745
1764434347.5853302,30705.885,17848.53,60395.13,-6859.8,-34160.805,-45776.16,-7455.105,11013.75
1764434347.5853302,30698.595,17845.335,60395.625,-6861.465,-34163.64,-45781.38,-7448.58,11012.31
1764434347.5853302,30695.67,17845.965,60397.92,-6861.78,-34165.08,-45784.53,-7438.545,11016.495
1764434347.5853302,30693.15,17843.579999999998,60395.085,-6866.235,-34169.4,-45788.175,-7437.465,11016.135
1764434347.5853302,30690.27,17838.36,60389.595,-6871.455,-34173.72,-45792.225,-7444.889999999999,11010.96
1764434347.5853302,30694.32,17838.989999999998,60388.425,-6870.195,-34171.47,-45788.895,-7451.505,11010.06
1764434347.5853302,30704.13,17843.85,60392.025,-6864.165,-34163.595,-45779.805,-7454.655,11013.12
1764434347.5853302,30709.98,17845.829999999998,60392.97,-6861.285,-34159.545,-45774.54,-7462.394999999999,11012.13
1764434347.5853302,30711.375,17848.305,60394.995,-6858.855,-34157.07,-45772.245,-7465.184999999999,11012.13
1764434347.5853302,30709.8,17848.305,60395.355,-6858.63,-34157.34,-45773.1,-7461.585,11012.76
1764434347.5853302,30705.66,17846.864999999998,60395.31,-6860.07,-34160.13,-45776.43,-7456.59,11013.12
1764434347.5853302,30700.935,17846.46,60396.12,-6861.915,-34162.965,-45780.03,-7448.715,11014.47
1764434347.5853302,30696.48,17845.335,60395.985,-6864.165,-34166.205,-45784.44,-7440.03,11016.27
1764434347.5853302,30693.915,17843.76,60394.185,-6866.73,-34169.31,-45788.22,-7438.23,11016.045
1764434347.5853302,30694.05,17842.23,60391.26,-6869.34,-34170.795,-45789.48,-7442.82,11013.705
1764434347.5853302,30693.6,17838.045,60386.22,-6872.355,-34172.235,-45791.1,-7452.719999999999,11009.385
1764434347.5853302,30697.56,17839.079999999998,60385.095,-6871.23,-34169.67,-45787.365,-7460.955,11008.305
1764434347.5853302,30701.97,17840.61,60385.23,-6868.485,-34166.34,-45782.37,-7468.74,11007.18
1764434347.5853302,30704.04,17841.645,60386.85,-6865.92,-34163.775,-45779.265,-7471.08,11007.135
1764434347.6310403,30704.355,17843.399999999998,60390.405,-6862.905,-34161.795,-45777.555,-7466.13,11008.98
1764434347.6310403,30698.865,17840.835,60388.74,-6866.054999999999,-34165.619999999995,-45781.92,-7461.719999999999,11007.63
1764434347.6310403,30695.175,17840.745,60390.045,-6865.335,-34166.16,-45783.63,-7451.28,11010.105
1764434347.6310403,30691.62,17840.25,60388.785,-6871.094999999999,-34172.19,-45788.76,-7443.09,11011.905
1764434347.6310403,30689.55,17839.8,60387.93,-6875.505,-34176.78,-45792.045,-7441.695,11011.23
1764434347.6310403,30687.93,17837.505,60386.625,-6874.605,-34177.59,-45795.6,-7449.48,11006.91
1764434347.6310403,30692.295,17838.225,60387.885,-6868.08,-34168.77,-45788.58,-7452.585,11007.81
1764434347.6310403,30696.57,17837.19,60385.545,-6866.955,-34165.53,-45783.45,-7460.73,11006.145
1764434347.6310403,30701.61,17838.989999999998,60385.455,-6865.245,-34162.965,-45779.535,-7470.09,11005.785
1764434347.6310403,30701.61,17838.719999999998,60384.42,-6865.92,-34164.54,-45779.355,-7474.455,11003.31
1764434347.6310403,30699.72,17839.26,60385.455,-6865.335,-34164.585,-45779.355,-7470.495,11003.22
1764434347.6320374,30700.305,17843.13,60389.865,-6861.78,-34162.74,-45778.635,-7460.235,11008.17
1764434347.6320374,30695.76,17841.555,60390.36,-6862.95,-34165.215,-45782.145,-7451.415,11010.015
1764434347.6320374,30690.405,17839.934999999998,60390.045,-6866.505,-34169.265,-45787.995,-7443.719999999999,11011.095
1764434347.6320374,30685.77,17836.469999999998,60385.905,-6871.59,-34173.945,-45793.89,-7444.71,11008.575
1764434347.6320374,30681.495,17829.54,60377.94,-6877.889999999999,-34179.57,-45799.02,-7454.384999999999,11002.185
1764434347.6320374,30685.545,17828.82,60376.455,-6879.375,-34179.075,-45797.535,-7460.235,11001.555
1764434347.6320374,30690.585,17831.925,60378.435,-6875.91,-34175.205,-45792.63,-7467.12,11001.06
1764434347.6320374,30696.12,17835.03,60382.71,-6868.485,-34168.185,-45784.665,-7474.005,11001.42
1764434347.6320374,30703.365,17840.07,60386.535,-6864.165,-34162.244999999995,-45777.87,-7471.259999999999,11006.01
1764434347.6320374,30701.43,17840.61,60387.795,-6863.175,-34162.02,-45778.545,-7467.705,11006.28
1764434347.6320374,30698.595,17839.844999999998,60388.38,-6863.58,-34164.45,-45781.65,-7461.179999999999,11006.91
1764434347.6320374,30693.375,17837.91,60387.48,-6865.92,-34167.555,-45785.295,-7453.17,11007.855
1764434347.6320374,30689.145,17837.01,60386.13,-6871.275,-34172.955,-45791.01,-7445.655,11009.43
1764434347.676079,30687.255,17837.684999999998,60388.56,-6870.014999999999,-34173.27,-45791.415,-7442.505,11010.375
1764434347.676079,30687.48,17836.29,60386.805,-6869.835,-34173.585,-45791.01,-7447.139999999999,11008.935
1764434347.676079,30687.21,17832.42,60380.82,-6873.66,-34175.655,-45792.81,-7458.165,11003.58
1764434347.676079,30691.26,17833.545,60379.74,-6872.535,-34172.82,-45789.345,-7466.4,11002.05
1764434347.676079,30699.765,17839.395,60383.745,-6866.054999999999,-34165.575,-45780.57,-7469.91,11004.66
1764434347.676079,30702.465,17840.745,60385.77,-6863.715,-34161.93,-45777.825,-7471.035,11005.065
1764434347.676079,30698.595,17838.63,60385.095,-6865.38,-34164.0,-45781.065,-7469.325,11003.67
1764434347.676079,30691.845,17834.625,60382.8,-6869.565,-34169.67,-45787.275,-7466.715,11000.835
1764434347.6770878,30689.955,17836.469999999998,60386.31,-6868.889999999999,-34169.895,-45788.265,-7456.094999999999,11005.02
1764434347.6770878,30684.33,17834.355,60385.68,-6872.219999999999,-34174.08,-45793.17,-7449.03,11005.155
1764434347.6770878,30685.5,17835.48,60386.355,-6870.915,-34173.585,-45793.44,-7444.665,11008.08
1764434347.678091,30683.385,17831.52,60380.775,-6875.37,-34177.905,-45797.49,-7451.91,11003.085
1764434347.678091,30688.605,17833.725,60381.63,-6873.03,-34174.619999999995,-45793.755,-7457.085,11003.715
1764434347.678091,30689.55,17831.43,60378.975,-6873.66,-34173.494999999995,-45791.82,-7467.795,11000.205
1764434347.679089,30694.095,17831.969999999998,60377.58,-6872.715,-34170.705,-45787.905,-7477.155,10997.865
1764434347.679089,30696.21,17832.78,60379.11,-6870.375,-34168.86,-45785.655,-7479.315,10997.595
1764434347.6796684,30695.31,17835.12,60382.98,-6866.91,-34166.52,-45783.315,-7472.88,10999.98
1764434347.6796684,30695.445,17837.145,60386.31,-6864.84,-34165.17,-45782.595,-7463.79,11004.21
1764434347.6796684,30694.185,17839.35,60390.09,-6864.12,-34165.755,-45784.17,-7452.945,11008.395
1764434347.6796684,30687.705,17837.055,60389.01,-6867.9,-34170.615,-45790.11,-7446.285,11007.81
1764434347.6796684,30683.88,17834.175,60384.96,-6872.175,-34174.98,-45794.61,-7446.509999999999,11005.38
1764434347.6796684,30684.285,17832.555,60381.18,-6874.514999999999,-34177.14,-45796.815,-7452.99,11002.635
1764434347.7231393,30687.075,17832.105,60379.605,-6874.514999999999,-34177.005,-45796.41,-7460.73,11001.15
1764434347.7231393,30690.135,17830.98,60376.275,-6874.83,-34176.015,-45793.395,-7470.809999999999,10998.9
1764434347.7231393,30697.29,17833.995,60378.21,-6869.429999999999,-34168.545,-45784.53,-7474.59,11001.285
1764434347.7231393,30700.215,17836.829999999998,60379.695,-6870.375,-34169.22,-45782.595,-7475.355,11001.375
1764434347.7231393,30694.815,17835.885,60383.385,-6868.17,-34168.905,-45784.44,-7474.005,10997.91
1764434347.7231393,30691.755,17835.704999999998,60385.545,-6864.435,-34166.88,-45786.285,-7467.795,10998.945
1764434347.7231393,30689.64,17837.235,60387.705,-6864.03,-34166.655,-45786.87,-7455.96,11003.13
1764434347.7231393,30683.88,17834.579999999998,60385.455,-6869.25,-34172.415,-45792.855,-7449.21,11003.355
1764434347.7231393,30684.645,17835.57,60386.58,-6869.115,-34172.955,-45793.98,-7445.655,11005.65
1764434347.7231393,30682.935,17831.34,60381.18,-6873.255,-34175.295,-45796.14,-7452.674999999999,11001.375
1764434347.7231393,30689.235,17833.86,60382.305,-6870.735,-34172.19,-45791.73,-7457.67,11002.545
1764434347.7231393,30691.935,17831.43,60378.255,-6873.21,-34174.845,-45792.675,-7470.179999999999,10998.135
1764434347.7231393,30695.805,17832.51,60378.48,-6870.105,-34169.58,-45786.915,-7476.615,10996.875
1764434347.7231393,30698.19,17835.885,60382.53,-6864.57,-34163.55,-45781.65,-7476.255,10997.82
1764434347.7231393,30698.505,17838.225,60385.41,-6863.58,-34163.91,-45782.01,-7471.394999999999,11000.475
1764434347.7231393,30697.56,17839.485,60389.19,-6861.014999999999,-34162.83,-45781.29,-7461.63,11004.615
1764434347.7231393,30689.64,17834.355,60384.6,-6866.73,-34169.4,-45789.03,-7456.094999999999,11002.41
1764434347.7231393,30685.14,17833.184999999998,60383.115,-6873.075,-34175.655,-45795.69,-7448.894999999999,11002.59
1764434347.7231393,30685.905,17836.515,60388.245,-6869.205,-34172.01,-45793.08,-7443.809999999999,11005.155
1764434347.7231393,30685.86,17834.535,60386.985,-6868.755,-34171.11,-45792.99,-7449.075,11003.895
1764434347.7231393,30685.14,17830.485,60380.505,-6873.435,-34174.755,-45795.105,-7459.83,10999.17
1764434347.7231393,30690.72,17832.42,60380.055,-6871.679999999999,-34171.785,-45790.56,-7467.48,10998.765
1764434347.7231393,30698.595,17837.235,60383.43,-6865.83,-34165.26,-45782.595,-7471.53,11000.925
1764434347.7231393,30698.235,17836.425,60383.61,-6865.29,-34165.845,-45782.955,-7474.679999999999,10998.54
1764434347.7675643,30697.695,17837.684999999998,60386.355,-6863.804999999999,-34164.18,-45782.865,-7470.045,11000.115
1764434347.7675643,30696.93,17839.215,60388.47,-6863.849999999999,-34165.26,-45783.315,-7461.315,11004.21
1764434347.7675643,30689.01,17835.165,60386.31,-6868.665,-34171.47,-45790.605,-7456.545,11001.33
1764434347.7675643,30687.93,17837.46,60391.485,-6865.155,-34168.815,-45790.2,-7444.98,11005.695
1764434347.7675643,30685.86,17836.515,60388.605,-6868.08,-34171.965,-45792.225,-7443.405,11005.335
1764434347.7675643,30682.935,17831.88,60382.665,-6873.795,-34176.51,-45796.365,-7452.09,11000.475
1764434347.7675643,30686.58,17831.61,60381.765,-6872.895,-34174.755,-45793.575,-7458.525,11000.385
1764434347.7675643,30692.385,17833.77,60381.72,-6870.195,-34170.615,-45788.22,-7466.264999999999,11000.88
1764434347.7675643,30697.605,17836.245,60382.845,-6865.83,-34165.44,-45782.64,-7472.88,11000.745
1764434347.7675643,30702.96,17841.195,60387.84,-6859.98,-34159.994999999995,-45775.98,-7469.415,11004.165
1764434347.7675643,30697.11,17836.875,60384.645,-6863.67,-34164.765,-45781.2,-7469.19,11001.195
1764434347.7675643,30694.05,17836.559999999998,60385.995,-6864.57,-34166.43,-45783.99,-7463.295,11001.96
1764434347.7675643,30691.26,17837.594999999998,60389.28,-6864.929999999999,-34168.23,-45787.185,-7453.215,11005.2
1764434347.7675643,30690.945,17839.665,60393.015,-6863.804999999999,-34168.095,-45787.455,-7441.155,11009.475
1764434347.7675643,30688.785,17837.82,60389.595,-6866.91,-34171.74,-45791.28,-7441.65,11008.395
1764434347.7675643,30684.645,17832.915,60383.16,-6872.759999999999,-34177.545,-45796.59,-7451.865,11001.96
1764434347.7675643,30686.94,17832.78,60382.71,-6870.42,-34174.53,-45792.72,-7458.075,11000.475
1764434347.7675643,30695.445,17836.469999999998,60384.24,-6865.425,-34166.744999999995,-45783.945,-7463.34,11003.85
1764434347.7675643,30698.37,17834.489999999998,60380.055,-6866.685,-34165.619999999995,-45782.19,-7473.195,11000.43
1764434347.7675643,30703.5,17838.855,60384.285,-6864.12,-34163.369999999995,-45778.995,-7471.08,11004.3
1764434347.7675643,30700.125,17839.844999999998,60388.29,-6862.275,-34162.47,-45778.14,-7466.67,11003.67
1764434347.7675643,30696.3,17840.79,60391.305,-6859.8,-34162.83,-45779.04,-7460.549999999999,11004.03
1764434347.8155372,30691.98,17839.485,60390.225,-6863.985,-34166.97,-45784.17,-7451.19,11005.785
1764434347.8155372,30688.56,17839.125,60391.035,-6865.29,-34169.445,-45789.03,-7443.54,11008.035
1764434347.8155372,30686.22,17836.29,60389.46,-6865.605,-34169.94,-45790.92,-7443.945,11006.505
1764434347.8155372,30683.43,17830.844999999998,60383.205,-6870.509999999999,-34174.08,-45794.07,-7451.594999999999,11001.915
1764434347.8155372,30687.705,17832.555,60382.485,-6870.554999999999,-34174.35,-45793.575,-7458.84,11001.51
1764434347.8155372,30694.635,17836.065,60384.555,-6864.57,-34168.275,-45787.275,-7465.455,11002.005
1764434347.8155372,30702.195,17840.295,60387.66,-6859.08,-34160.445,-45777.96,-7469.054999999999,11003.4
1764434347.8155372,30701.34,17838.36,60385.23,-6861.509999999999,-34162.155,-45778.995,-7472.205,11001.06
1764434347.8155372,30701.745,17839.934999999998,60387.75,-6860.88,-34162.065,-45778.815,-7465.23,11004.39
1764434347.8155372,30698.19,17840.88,60391.845,-6859.035,-34160.58,-45778.77,-7457.219999999999,11005.605
1764434347.8155372,30692.52,17839.395,60392.745,-6860.25,-34163.865,-45783.405,-7449.795,11005.335
1764434347.8155372,30685.905,17835.66,60388.56,-6866.594999999999,-34171.244999999995,-45791.19,-7445.565,11003.895
1764434347.8155372,30686.175,17836.155,60388.155,-6866.82,-34171.515,-45792.045,-7443.269999999999,11006.82
1764434347.8155372,30684.06,17831.745,60382.62,-6870.105,-34174.8,-45794.52,-7451.19,11002.68
1764434347.8155372,30691.08,17835.524999999998,60384.51,-6866.145,-34170.21,-45788.265,-7455.33,11004.84
1764434347.8155372,30697.11,17837.145,60384.51,-6863.49,-34166.34,-45783.585,-7463.565,11004.03
1764434347.8155372,30701.88,17838.809999999998,60385.365,-6860.52,-34162.83,-45779.085,-7469.865,11003.22
1764434347.8165388,30703.14,17839.844999999998,60387.21,-6858.224999999999,-34160.265,-45776.7,-7469.639999999999,11003.58
1764434347.8165388,30700.71,17839.934999999998,60387.57,-6858.9,-34161.885,-45778.005,-7466.085,11003.22
1764434347.8165388,30697.245,17839.17,60388.335,-6859.44,-34163.505,-45779.49,-7459.605,11004.57
1764434347.8165388,30691.395,17837.55,60388.56,-6861.96,-34168.14,-45784.755,-7451.235,11004.66
1764434347.8165388,30685.905,17835.434999999998,60387.75,-6865.695,-34173.45,-45791.145,-7444.44,11005.02
1764434347.8165388,30682.845,17832.465,60384.24,-6868.889999999999,-34176.105,-45794.655,-7444.889999999999,11003.04
1764434347.8165388,30684.645,17831.655,60382.215,-6870.195,-34176.375,-45794.34,-7450.29,11001.6
1764434347.86207,30688.245,17832.195,60381.63,-6868.889999999999,-34174.395,-45791.595,-7457.355,11000.43
1764434347.86207,30693.51,17832.87,60380.595,-6866.594999999999,-34170.795,-45787.41,-7466.219999999999,11000.385
1764434347.86207,30698.01,17833.59,60378.975,-6866.955,-34169.355,-45784.17,-7473.554999999999,10999.53
1764434347.86207,30697.335,17833.815,60380.82,-6865.605,-34167.105,-45781.965,-7474.679999999999,10997.28
1764434347.86207,30699.72,17839.26,60388.92,-6857.865,-34161.119999999995,-45777.465,-7464.915,11002.095
1764434347.86207,30696.795,17838.36,60389.19,-6859.395,-34163.685,-45780.795,-7457.804999999999,11004.21
1764434347.86207,30689.055,17834.85,60387.12,-6863.67,-34169.985,-45787.77,-7453.17,11001.78
1764434347.86207,30688.515,17837.954999999998,60390.27,-6863.895,-34172.325,-45789.84,-7442.865,11006.28
1764434347.86207,30687.3,17836.02,60388.785,-6866.46,-34173.45,-45790.425,-7441.019999999999,11006.955
1764434347.86207,30686.445,17833.41,60385.95,-6868.215,-34173.27,-45790.02,-7447.41,11003.67
1764434347.86207,30687.03,17830.71,60381.63,-6870.06,-34174.89,-45791.775,-7458.615,10999.215
1764434347.86207,30695.31,17835.434999999998,60385.185,-6863.94,-34167.78,-45783.27,-7463.745,11000.79
1764434347.86207,30698.505,17835.614999999998,60383.925,-6862.679999999999,-34166.07,-45780.705,-7471.62,10998.99
1764434347.86207,30703.41,17840.34,60387.93,-6856.965,-34160.04,-45776.115,-7468.83,11003.355
1764434347.86207,30700.17,17838.045,60386.4,-6859.935,-34163.685,-45778.725,-7466.174999999999,11002.635
1764434347.86207,30691.98,17833.95,60383.835,-6865.155,-34170.615,-45785.835,-7463.429999999999,10999.485
1764434347.86207,30687.03,17833.77,60387.435,-6863.219999999999,-34171.065,-45788.355,-7454.565,10999.305
1764434347.86207,30684.195,17833.545,60387.345,-6866.28,-34174.26,-45791.955,-7446.42,11001.51
1764434347.86207,30687.075,17836.425,60389.775,-6864.48,-34172.28,-45790.515,-7442.19,11005.47
1764434347.86207,30688.245,17835.48,60387.57,-6865.2,-34172.595,-45790.74,-7447.5,11005.245
1764434347.86207,30690.81,17834.579999999998,60385.095,-6866.82,-34171.65,-45789.165,-7455.509999999999,11003.58
1764434347.86207,30693.87,17833.23,60382.215,-6867.45,-34170.885,-45786.735,-7466.13,10999.395
1764434347.86207,30701.16,17837.46,60384.96,-6861.69,-34164.315,-45779.265,-7470.315,11000.655
1764434347.86207,30699.54,17835.434999999998,60383.115,-6862.815,-34164.9,-45779.67,-7473.24,10998.585
1764434347.9064388,30697.245,17834.67,60384.42,-6862.995,-34166.52,-45781.695,-7469.639999999999,10998.585
1764434347.9064388,30693.375,17834.985,60386.58,-6863.264999999999,-34168.815,-45783.855,-7462.304999999999,10999.485
1764434347.9064388,30687.345,17833.184999999998,60386.13,-6865.695,-34173.045,-45789.48,-7453.98,11000.16
1764434347.9064388,30684.735,17833.95,60387.84,-6866.325,-34174.575,-45791.28,-7445.25,11002.86
1764434347.9064388,30689.505,17839.305,60392.79,-6862.679999999999,-34169.625,-45786.96,-7439.445,11008.98
1764434347.9064388,30692.745,17839.71,60391.575,-6862.32,-34167.78,-45784.89,-7443.9,11008.89
1764434347.9064388,30696.975,17840.385,60389.595,-6862.905,-34167.42,-45783.36,-7450.785,11008.17
1764434347.9064388,30701.205,17840.52,60387.93,-6862.41,-34165.619999999995,-45779.94,-7460.144999999999,11006.64
1764434347.9064388,30704.76,17841.42,60387.39,-6861.87,-34163.82,-45775.935,-7465.815,11005.02
1764434347.9064388,30704.31,17843.219999999998,60392.16,-6855.66,-34160.355,-45774.045,-7466.804999999999,11004.03
1764434347.9064388,30701.655,17841.96,60391.53,-6855.255,-34160.04,-45774.945,-7463.565,11003.76
1764434347.9064388,30697.965,17840.43,60390.135,-6858.179999999999,-34163.145,-45777.24,-7456.724999999999,11004.885
1764434347.9064388,30691.305,17838.135,60389.865,-6861.465,-34169.94,-45785.43,-7449.84,11005.695
1764434347.9064388,30683.52,17833.184999999998,60387.57,-6864.21,-34172.505,-45791.145,-7445.07,11003.94
1764434347.9064388,30686.58,17836.02,60388.875,-6863.895,-34171.605,-45789.12,-7441.559999999999,11007.27
1764434347.9064388,30688.47,17836.155,60387.345,-6863.49,-34170.57,-45787.365,-7446.24,11006.955
1764434347.9076347,30691.665,17836.29,60386.67,-6863.849999999999,-34169.04,-45785.16,-7453.394999999999,11005.065
1764434347.9076347,30693.015,17833.635,60382.62,-6865.74,-34168.5,-45784.035,-7465.86,10999.53
1764434347.9076347,30695.985,17833.905,60381.585,-6864.12,-34166.565,-45780.075,-7473.644999999999,10997.37
1764434347.9076347,30700.35,17839.079999999998,60386.94,-6859.62,-34162.065,-45775.62,-7470.855,11001.06
1764434347.9076347,30698.955,17839.26,60388.965,-6858.675,-34162.47,-45776.43,-7464.96,11002.545
1764434347.9076347,30695.31,17838.54,60389.37,-6860.34,-34164.63,-45779.4,-7458.165,11002.905
1764434347.9505634,30686.085,17833.59,60385.68,-6865.74,-34171.38,-45787.59,-7453.259999999999,11001.105
1764434347.9505634,30683.835,17834.219999999998,60387.21,-6865.38,-34173.18,-45790.065,-7444.125,11004.075
1764434347.9505634,30686.715,17836.515,60389.235,-6863.535,-34171.605,-45789.39,-7440.66,11006.685
1764434347.9505634,30685.545,17833.274999999998,60384.285,-6867.224999999999,-34174.305,-45791.775,-7448.849999999999,11002.455
1764434347.9505634,30688.245,17833.635,60383.25,-6866.73,-34171.965,-45789.165,-7456.41,11001.915
1764434347.9505634,30693.87,17835.255,60382.935,-6863.895,-34168.005,-45784.26,-7465.139999999999,11001.645
1764434347.9505634,30698.82,17836.155,60381.945,-6861.599999999999,-34165.44,-45780.525,-7472.384999999999,11001.105
1764434347.9505634,30701.745,17838.45,60383.115,-6860.7,-34163.91,-45778.86,-7470.99,11002.545
1764434347.9522789,30698.055,17838.135,60385.77,-6858.99,-34163.055,-45779.085,-7465.634999999999,11002.455
1764434347.9522789,30692.115,17837.505,60389.91,-6856.965,-34163.235,-45782.505,-7459.83,11000.655
1764434347.9532957,30685.455,17834.715,60387.03,-6862.679999999999,-34169.04,-45788.31,-7451.37,11001.555
1764434347.9532957,30681.63,17833.32,60385.86,-6866.19,-34173.225,-45792.27,-7444.889999999999,11002.905
1764434347.9532957,30681.585,17832.465,60383.88,-6868.304999999999,-34174.665,-45793.215,-7445.115,11002.545
1764434347.9532957,30679.785,17827.02,60375.87,-6874.514999999999,-34179.84,-45797.31,-7454.519999999999,10997.37
1764434347.9532957,30684.06,17828.37,60375.735,-6873.974999999999,-34179.345,-45796.725,-7462.575,10996.47
1764434347.9532957,30692.205,17835.03,60383.655,-6862.455,-34166.655,-45784.485,-7465.995,10999.845
1764434347.9532957,30698.73,17838.36,60386.04,-6858.405,-34161.345,-45778.23,-7470.945,11000.79
1764434347.9532957,30698.145,17836.829999999998,60384.78,-6859.889999999999,-34163.64,-45779.58,-7472.655,10998.405
1764434347.9532957,30698.91,17839.35,60387.795,-6857.639999999999,-34161.255,-45778.86,-7464.915,11001.78
1764434347.9532957,30693.06,17835.57,60385.365,-6862.995,-34167.33,-45784.62,-7460.19,11000.07
1764434347.9532957,30689.505,17837.82,60390.18,-6860.34,-34166.385,-45784.44,-7447.905,11003.625
1764434347.9532957,30688.2,17839.17,60389.955,-6862.995,-34170.345,-45787.59,-7440.48,11007.135
1764434347.9532957,30687.57,17837.73,60388.695,-6863.804999999999,-34172.415,-45790.47,-7440.84,11007.045
1764434347.9532957,30683.655,17831.88,60382.53,-6866.009999999999,-34173.225,-45792.81,-7450.92,11000.61
1764434347.9965692,30688.065,17832.69,60381.675,-6864.884999999999,-34171.02,-45790.695,-7458.705,10999.62
1764434347.9965692,30698.145,17838.809999999998,60385.41,-6858.405,-34163.19,-45782.01,-7463.519999999999,11003.175
1764434347.9970803,30701.25,17838.719999999998,60386.175,-6856.965,-34161.975,-45778.41,-7469.594999999999,11000.97
1764434347.9970803,30698.685,17836.92,60385.41,-6857.955,-34162.244999999995,-45778.545,-7472.295,10998.675
1764434347.9970803,30698.235,17838.719999999998,60388.2,-6856.469999999999,-34161.795,-45778.365,-7466.04,11000.88
1764434347.9970803,30693.285,17837.864999999998,60387.93,-6857.594999999999,-34165.17,-45781.695,-7460.37,11001.285
1764434347.9970803,30690.315,17838.855,60390.495,-6857.775,-34165.935,-45784.44,-7448.4,11005.155
1764434347.9970803,30684.06,17835.255,60387.795,-6863.804999999999,-34171.83,-45791.64,-7444.62,11003.985
1764434347.9970803,30685.995,17837.145,60388.425,-6862.95,-34171.605,-45791.1,-7443.09,11006.55
1764434347.9970803,30685.005,17833.905,60384.195,-6863.804999999999,-34171.965,-45791.82,-7451.594999999999,11002.77
1764434347.9970803,30691.845,17837.594999999998,60386.22,-6861.014999999999,-34167.6,-45785.565,-7455.014999999999,11004.885
1764434347.9970803,30698.415,17840.024999999998,60387.21,-6858.405,-34163.415,-45779.895,-7462.53,11004.93
1764434347.9970803,30701.025,17840.52,60386.625,-6855.84,-34161.705,-45777.645,-7469.73,11002.86
1764434347.9970803,30706.83,17845.649999999998,60392.475,-6848.46,-34154.19,-45770.67,-7464.24,11008.26
1764434347.9970803,30703.815,17845.515,60393.285,-6848.73,-34155.27,-45772.83,-7459.335,11008.53
1764434347.9970803,30699.63,17844.434999999998,60393.51,-6850.395,-34158.105,-45776.475,-7452.315,11009.07
1764434347.9970803,30694.185,17843.309999999998,60393.645,-6852.554999999999,-34161.705,-45781.605,-7444.17,11010.015
1764434347.9970803,30691.305,17843.085,60393.735,-6855.255,-34164.945,-45785.385,-7437.42,11011.725
1764434347.9970803,30692.61,17844.21,60393.6,-6855.84,-34165.71,-45786.42,-7437.014999999999,11012.805
1764434347.9970803,30690.405,17840.835,60390.765,-6856.92,-34165.71,-45786.33,-7444.215,11007.99
1764434347.9970803,30695.895,17843.219999999998,60392.07,-6854.219999999999,-34161.165,-45780.57,-7449.48,11009.16
1764434347.9970803,30707.1,17849.61,60395.67,-6847.065,-34154.369999999995,-45771.57,-7453.485,11013.57
1764434348.0450945,30710.88,17850.329999999998,60395.715,-6844.679999999999,-34150.994999999995,-45766.98,-7458.974999999999,11012.76
1764434348.0450945,30710.97,17850.555,60397.515,-6843.465,-34149.645,-45765.27,-7458.795,11012.355
1764434348.0450945,30708.405,17851.005,60398.82,-6843.915,-34150.994999999995,-45766.845,-7453.349999999999,11012.985
1764434348.0450945,30700.845,17847.135,60395.94,-6849.54,-34157.79,-45774.63,-7450.83,11009.88
1764434348.0450945,30695.985,17845.425,60396.435,-6850.98,-34160.04,-45779.175,-7441.29,11011.5
1764434348.0450945,30696.84,17848.89,60400.08,-6849.719999999999,-34157.79,-45776.925,-7429.679999999999,11017.845
1764434348.0450945,30696.975,17848.395,60399.36,-6851.565,-34159.905,-45779.715,-7430.085,11017.035
1764434348.0450945,30694.23,17842.635,60392.745,-6856.38,-34163.415,-45783.135,-7440.03,11011.095
1764434348.0466027,30698.37,17842.815,60391.26,-6856.469999999999,-34162.244999999995,-45780.48,-7447.455,11010.87
1764434348.0466027,30706.38,17846.415,60392.925,-6853.77,-34158.24,-45774.315,-7453.98,11012.13
1764434348.0466027,30713.94,17854.38,60401.385,-6841.889999999999,-34146.765,-45763.785,-7454.745,11015.955
1764434348.0466027,30715.83,17855.594999999998,60402.96,-6839.415,-34144.695,-45761.04,-7452.719999999999,11017.26
1764434348.0466027,30710.835,17851.815,60399.45,-6844.95,-34150.994999999995,-45766.485,-7450.155,11014.92
1764434348.0466027,30710.295,17856.18,60406.02,-6840.719999999999,-34148.88,-45765.585,-7439.04,11018.835
1764434348.0466027,30705.075,17855.505,60409.395,-6840.45,-34150.5,-45768.78,-7429.455,11019.735
1764434348.0466027,30700.665,17852.985,60405.615,-6845.445,-34156.215,-45775.755,-7425.99,11019.06
1764434348.0466027,30704.13,17855.594999999998,60407.37,-6844.139999999999,-34154.19,-45772.38,-7422.12,11023.11
1764434348.048136,30704.76,17853.524999999998,60404.805,-6844.365,-34153.695,-45771.705,-7427.88,11021.805
1764434348.0486145,30708.495,17853.93,60402.69,-6845.264999999999,-34154.055,-45770.76,-7436.655,11019.465
1764434348.0486145,30710.745,17853.21,60401.61,-6844.05,-34151.085,-45767.115,-7447.455,11015.37
1764434348.0491474,30716.685,17857.934999999998,60405.03,-6838.469999999999,-34144.56,-45759.24,-7450.155,11017.035
1764434348.0491474,30721.455,17862.48,60410.52,-6832.53,-34139.7,-45753.255,-7444.665,11022.345
1764434348.0491474,30716.46,17859.105,60409.485,-6836.31,-34144.425,-45758.79,-7441.74,11020.32
1764434348.0491474,30712.725,17859.735,60410.475,-6837.03,-34145.865,-45761.22,-7434.585,11022.03
1764434348.0928817,30711.87,17862.3,60413.94,-6834.96,-34145.369999999995,-45761.715,-7422.165,11027.115
1764434348.0928817,30708.495,17861.085,60413.355,-6837.12,-34148.115,-45766.17,-7416.764999999999,11028.285
1764434348.0928817,30706.92,17859.645,60411.105,-6839.505,-34149.42,-45768.06,-7419.105,11027.07
1764434348.0928817,30704.58,17854.649999999998,60404.895,-6844.95,-34153.695,-45771.48,-7430.219999999999,11020.815
1764434348.0928817,30711.015,17856.765,60406.785,-6841.304999999999,-34149.42,-45766.35,-7435.215,11022.48
1764434348.0928817,30715.11,17856.27,60405.03,-6840.315,-34147.08,-45762.705,-7445.16,11019.96
1764434348.0928817,30722.76,17861.489999999998,60409.44,-6834.06,-34139.43,-45754.245,-7446.78,11023.92
1764434348.0944405,30724.11,17863.829999999998,60412.095,-6831.179999999999,-34135.92,-45750.69,-7444.44,11025.135
1764434348.0944405,30720.195,17862.704999999998,60412.455,-6833.295,-34140.24,-45755.865,-7439.94,11023.83
1764434348.0944405,30711.96,17857.665,60410.115,-6836.67,-34144.515,-45761.175,-7435.259999999999,11021.58
1764434348.0944405,30708.765,17858.43,60412.41,-6838.02,-34146.45,-45763.695,-7424.639999999999,11024.505
1764434348.0944405,30707.01,17858.655,60412.275,-6840.495,-34148.97,-45767.52,-7418.7,11025.63
1764434348.0944405,30708.315,17858.88,60411.78,-6840.315,-34148.16,-45767.115,-7418.34,11027.07
1764434348.0944405,30711.06,17858.835,60409.755,-6841.395,-34147.755,-45764.865,-7422.884999999999,11027.16
1764434348.0944405,30714.975,17860.5,60410.115,-6839.37,-34146.585,-45763.155,-7431.03,11026.17
1764434348.0944405,30720.105,17861.895,60410.655,-6833.34,-34140.015,-45757.35,-7439.49,11024.955
1764434348.0944405,30723.165,17862.21,60410.52,-6831.495,-34136.64,-45753.705,-7445.115,11023.515
1764434348.0944405,30720.105,17859.329999999998,60406.83,-6835.545,-34140.555,-45757.125,-7448.49,11020.635
1764434348.0944405,30717.0,17859.059999999998,60407.19,-6837.705,-34144.155,-45761.355,-7445.07,11020.635
1764434348.0944405,30710.745,17857.035,60409.08,-6837.615,-34144.785,-45761.94,-7436.205,11020.32
1764434348.0944405,30704.355,17854.515,60408.585,-6840.224999999999,-34147.755,-45766.575,-7427.429999999999,11020.545
1764434348.0944405,30704.355,17856.63,60411.105,-6839.639999999999,-34147.935,-45768.105,-7419.69,11025.045
1764434348.1386976,30704.085,17855.91,60408.81,-6841.935,-34150.95,-45769.905,-7421.13,11024.82
1764434348.1386976,30702.15,17850.735,60401.16,-6848.82,-34156.755,-45775.08,-7431.795,11018.835
1764434348.1386976,30706.11,17851.23,60401.07,-6846.57,-34152.705,-45771.12,-7438.995,11017.71
1764434348.1386976,30708.855,17850.059999999998,60399.72,-6844.995,-34150.14,-45768.195,-7449.705,11013.975
1764434348.1386976,30714.84,17855.1,60403.77,-6839.415,-34144.155,-45761.445,-7452.045,11016.405
1764434348.1386976,30711.645,17853.12,60401.43,-6841.53,-34147.215,-45763.515,-7453.394999999999,11013.84
1764434348.1386976,30709.575,17853.48,60403.995,-6840.945,-34147.575,-45764.145,-7447.455,11015.595
1764434348.1386976,30709.395,17856.719999999998,60408.585,-6837.795,-34145.91,-45763.92,-7436.924999999999,11020.635
1764434348.1386976,30701.205,17851.59,60404.265,-6843.15,-34152.525,-45771.885,-7431.12,11018.655
1764434348.1386976,30698.505,17850.285,60402.735,-6846.66,-34155.765,-45775.62,-7425.405,11020.23
1764434348.1386976,30701.745,17853.57,60406.11,-6845.04,-34154.28,-45773.145,-7423.559999999999,11023.47
1764434348.1386976,30703.77,17854.829999999998,60408.135,-6840.045,-34149.78,-45768.825,-7429.005,11022.255
1764434348.1386976,30705.57,17851.094999999998,60402.69,-6843.69,-34151.625,-45768.87,-7439.264999999999,11018.61
1764434348.1386976,30707.19,17849.114999999998,60399.45,-6844.905,-34151.445,-45767.52,-7451.009999999999,11014.11
1764434348.1386976,30713.76,17852.985,60403.23,-6838.92,-34145.19,-45761.175,-7453.215,11016.405
1764434348.1386976,30713.445,17853.75,60404.58,-6837.389999999999,-34144.335,-45760.635,-7451.684999999999,11016.27
1764434348.139935,30707.91,17850.555,60402.555,-6841.215,-34147.619999999995,-45765.135,-7449.299999999999,11014.47
1764434348.139935,30708.72,17854.649999999998,60407.19,-6838.38,-34144.92,-45763.425,-7436.79,11020.68
1764434348.139935,30704.4,17854.2,60409.08,-6839.325,-34148.52,-45767.565,-7427.25,11022.435
1764434348.139935,30702.06,17853.48,60408.855,-6840.54,-34151.535,-45770.67,-7421.535,11023.02
1764434348.139935,30701.16,17852.489999999998,60406.29,-6843.509999999999,-34153.155,-45772.605,-7423.83,11021.67
1764434348.139935,30700.98,17849.969999999998,60401.97,-6847.2,-34154.82,-45773.19,-7432.83,11017.62
1764434348.1833522,30703.995,17849.25,60400.485,-6846.075,-34153.38,-45771.165,-7441.38,11015.73
1764434348.1838837,30710.07,17850.69,60401.205,-6842.79,-34148.7,-45765.405,-7448.985,11015.46
1764434348.1838837,30714.615,17852.579999999998,60402.465,-6839.415,-34145.055,-45760.455,-7453.44,11015.505
1764434348.1838837,30714.3,17854.29,60404.085,-6838.605,-34144.29,-45759.78,-7452.495,11015.685
1764434348.1838837,30709.305,17852.445,60403.32,-6840.54,-34147.575,-45763.38,-7448.67,11014.47
1764434348.1838837,30705.57,17851.005,60404.13,-6841.304999999999,-34149.915,-45766.395,-7441.29,11016.36
1764434348.1838837,30703.635,17851.59,60406.245,-6840.81,-34151.085,-45768.87,-7430.264999999999,11020.23
1764434348.1838837,30701.16,17851.184999999998,60405.075,-6845.085,-34155.405,-45772.785,-7425.09,11021.31
1764434348.1838837,30699.63,17850.555,60404.76,-6844.86,-34154.82,-45772.92,-7426.889999999999,11019.375
1764434348.1838837,30698.37,17848.395,60400.71,-6846.795,-34156.395,-45774.225,-7435.44,11015.28
1764434348.1838837,30699.45,17845.605,60395.94,-6849.495,-34157.43,-45774.72,-7445.79,11011.23
1764434348.1838837,30709.305,17851.23,60399.81,-6842.88,-34149.33,-45765.63,-7449.84,11014.335
1764434348.1838837,30711.645,17852.085,60399.855,-6841.17,-34146.45,-45762.525,-7455.014999999999,11012.94
1764434348.1838837,30709.35,17850.645,60399.315,-6841.98,-34147.395,-45762.795,-7456.455,11011.77
1764434348.1838837,30709.71,17853.39,60403.41,-6839.594999999999,-34146.315,-45762.255,-7447.905,11015.46
1764434348.1838837,30707.28,17854.245,60405.48,-6839.054999999999,-34147.215,-45764.505,-7439.219999999999,11017.44
1764434348.1838837,30701.79,17852.399999999998,60405.39,-6841.889999999999,-34151.625,-45769.86,-7430.985,11017.845
1764434348.1838837,30698.955,17852.085,60406.11,-6843.24,-34153.335,-45772.155,-7425.0,11019.87
1764434348.1838837,30701.25,17853.795,60406.92,-6841.98,-34151.58,-45770.49,-7422.884999999999,11023.245
1764434348.1844096,30703.59,17853.075,60404.895,-6841.755,-34150.5,-45770.04,-7429.5,11022.3
1764434348.1844096,30706.65,17851.86,60401.07,-6844.905,-34151.445,-45769.095,-7437.24,11019.96
1764434348.1844096,30716.01,17857.665,60406.695,-6838.2,-34143.795,-45759.825,-7442.19,11022.795
1764434348.1844096,30718.08,17858.61,60409.98,-6833.115,-34140.195,-45756.405,-7447.455,11020.905
1764434348.1844096,30713.715,17854.335,60406.29,-6836.264999999999,-34143.525,-45758.835,-7449.57,11016.99
1764434348.1854196,30710.88,17854.245,60406.56,-6836.535,-34145.505,-45761.58,-7444.394999999999,11017.98
1764434348.1854196,30711.87,17858.969999999998,60412.14,-6832.844999999999,-34142.355,-45759.645,-7431.255,11023.83
1764434348.2309556,30707.865,17857.62,60411.465,-6836.445,-34146.225,-45763.92,-7422.165,11026.08
1764434348.2309556,30705.435,17857.485,60410.88,-6839.415,-34150.365,-45769.005,-7419.195,11026.845
1764434348.2309556,30704.625,17856.18,60410.295,-6839.639999999999,-34149.105,-45768.735,-7420.23,11025.585
1764434348.2309556,30702.195,17850.6,60404.31,-6843.735,-34151.94,-45770.22,-7430.13,11019.285
1764434348.2309556,30705.21,17850.825,60402.555,-6843.915,-34151.535,-45767.88,-7437.644999999999,11017.53
1764434348.2309556,30712.545,17853.66,60403.095,-6841.8,-34147.935,-45762.705,-7444.71,11018.385
1764434348.2319667,30718.89,17858.88,60407.73,-6834.78,-34141.68,-45756.99,-7447.724999999999,11020.32
1764434348.2319667,30716.46,17857.71,60407.685,-6832.575,-34140.015,-45756.27,-7447.365,11018.25
1764434348.2319667,30716.235,17860.5,60410.655,-6830.955,-34138.89,-45755.325,-7438.275,11021.67
1764434348.2319667,30711.285,17859.735,60410.925,-6833.61,-34141.994999999995,-45760.005,-7431.434999999999,11022.66
1764434348.2319667,30704.67,17856.54,60409.08,-6838.245,-34147.485,-45766.485,-7424.28,11022.075
1764434348.2319667,30701.52,17855.145,60408.225,-6840.945,-34151.58,-45770.445,-7420.545,11022.75
1764434348.2319667,30700.935,17853.975,60405.93,-6841.889999999999,-34153.244999999995,-45771.345,-7422.389999999999,11021.76
1764434348.2319667,30702.735,17852.76,60403.095,-6842.565,-34152.615,-45770.085,-7429.23,11019.825
1764434348.2319667,30704.805,17850.69,60399.405,-6843.014999999999,-34152.255,-45769.095,-7438.905,11017.305
1764434348.2319667,30705.3,17847.315,60394.41,-6846.255,-34153.695,-45770.04,-7452.99,11011.86
1764434348.2319667,30709.485,17850.555,60398.73,-6842.205,-34149.195,-45764.685,-7455.87,11011.455
1764434348.2319667,30714.66,17857.755,60407.505,-6833.115,-34140.915,-45756.495,-7448.219999999999,11016.99
1764434348.2319667,30709.125,17855.055,60405.12,-6838.155,-34146.81,-45762.39,-7445.519999999999,11014.785
1764434348.2329674,30707.82,17857.26,60408.81,-6837.12,-34148.79,-45765.18,-7436.115,11018.61
1764434348.2329674,30697.785,17850.149999999998,60403.365,-6842.79,-34154.73,-45773.19,-7430.58,11015.64
1764434348.2329674,30698.37,17851.05,60404.985,-6842.655,-34155.27,-45773.865,-7423.155,11020.5
1764434348.2764792,30699.0,17850.195,60402.285,-6845.67,-34156.53,-45774.9,-7424.549999999999,11020.05
1764434348.2764792,30699.495,17849.79,60402.51,-6843.645,-34153.425,-45772.065,-7431.03,11017.035
1764434348.2764792,30703.905,17850.96,60402.105,-6842.969999999999,-34152.48,-45770.895,-7439.759999999999,11016.0
1764434348.2764792,30707.055,17849.385,60398.82,-6843.42,-34150.905,-45768.33,-7450.29,11012.67
1764434348.2764792,30712.23,17852.579999999998,60401.565,-6838.92,-34145.955,-45761.805,-7452.269999999999,11014.245
1764434348.2764792,30712.005,17852.94,60401.745,-6838.605,-34146.18,-45762.39,-7451.144999999999,11014.515
1764434348.2764792,30705.66,17848.934999999998,60399.495,-6842.745,-34151.94,-45769.68,-7449.434999999999,11011.59
1764434348.2774978,30701.385,17849.16,60401.34,-6841.304999999999,-34151.265,-45769.32,-7439.894999999999,11013.615
1764434348.278499,30699.135,17849.745,60402.645,-6841.62,-34152.345,-45771.345,-7428.554999999999,11017.935
1764434348.278499,30695.58,17846.82,60398.55,-6848.325,-34159.68,-45778.545,-7425.99,11016.54
1764434348.278499,30698.55,17851.725,60403.86,-6844.005,-34154.28,-45774.495,-7422.974999999999,11019.42
1764434348.278499,30702.555,17853.255,60405.165,-6840.54,-34150.14,-45770.31,-7427.969999999999,11018.925
1764434348.278499,30705.66,17850.915,60401.835,-6842.205,-34151.445,-45770.265,-7438.094999999999,11016.495
1764434348.278499,30707.325,17849.25,60398.28,-6841.98,-34150.095,-45767.88,-7449.165,11012.49
1764434348.278499,30711.195,17851.905,60399.63,-6838.875,-34147.08,-45762.615,-7451.82,11013.21
1764434348.278499,30714.345,17856.225,60405.03,-6834.285,-34143.57,-45759.24,-7446.78,11017.305
1764434348.278499,30710.295,17855.37,60405.885,-6834.69,-34145.82,-45762.66,-7442.325,11016.675
1764434348.278499,30701.88,17850.96,60402.87,-6839.55,-34150.68,-45769.23,-7438.139999999999,11013.885
1764434348.278499,30696.885,17849.52,60401.61,-6843.42,-34155.405,-45774.945,-7430.174999999999,11015.145
1764434348.278499,30694.86,17848.575,60401.925,-6845.535,-34157.295,-45777.33,-7424.865,11016.18
1764434348.278499,30697.56,17850.239999999998,60403.545,-6843.554999999999,-34154.775,-45775.08,-7424.099999999999,11018.655
1764434348.278499,30700.44,17850.059999999998,60401.115,-6844.23,-34153.065,-45773.415,-7430.13,11018.115
1764434348.278499,30702.825,17848.125,60397.02,-6845.895,-34154.145,-45772.965,-7439.94,11014.695
1764434348.278499,30709.71,17850.915,60398.505,-6842.52,-34149.825,-45767.34,-7448.085,11014.785
1764434348.326648,30712.005,17851.32,60400.395,-6838.29,-34144.38,-45764.145,-7452.405,11013.525
1764434348.326648,30710.79,17850.645,60401.25,-6838.02,-34145.055,-45763.335,-7450.559999999999,11013.03
1764434348.326648,30706.875,17851.23,60402.06,-6839.28,-34147.125,-45765.765,-7445.519999999999,11013.57
1764434348.326648,30705.93,17854.245,60405.885,-6836.985,-34146.18,-45765.72,-7434.315,11018.25
1764434348.326648,30701.07,17852.985,60405.93,-6839.28,-34150.14,-45770.58,-7425.224999999999,11018.655
1764434348.326648,30698.685,17851.77,60404.445,-6842.25,-34153.785,-45774.18,-7421.174999999999,11019.06
1764434348.326648,30700.08,17850.735,60402.06,-6844.77,-34155.09,-45774.27,-7422.705,11020.32
1764434348.326648,30701.655,17849.295,60398.775,-6844.77,-34154.1,-45775.125,-7431.03,11018.61
1764434348.326648,30704.085,17848.62,60396.525,-6844.634999999999,-34152.975,-45772.695,-7440.344999999999,11016.045
1764434348.326648,30706.65,17849.969999999998,60398.46,-6840.09,-34147.845,-45766.395,-7450.11,11012.445
1764434348.326648,30707.415,17848.665,60398.055,-6839.37,-34148.43,-45766.395,-7456.905,11009.655
1764434348.3276618,30707.37,17848.934999999998,60398.595,-6839.46,-34148.205,-45766.08,-7454.295,11010.465
1764434348.3276618,30703.41,17848.62,60398.82,-6840.405,-34149.645,-45767.97,-7448.67,11009.925
1764434348.3276618,30700.035,17848.62,60400.845,-6841.304999999999,-34152.165,-45770.67,-7439.894999999999,11011.41
1764434348.3276618,30697.065,17848.26,60401.34,-6842.384999999999,-34153.965,-45773.865,-7428.96,11014.65
1764434348.3276618,30699.99,17851.77,60404.085,-6841.8,-34153.29,-45773.145,-7420.455,11021.175
1764434348.3276618,30699.63,17851.184999999998,60404.04,-6842.205,-34152.615,-45773.325,-7423.11,11020.59
1764434348.3276618,30699.18,17847.989999999998,60400.845,-6843.599999999999,-34153.47,-45773.865,-7432.695,11015.505
1764434348.3276618,30705.885,17850.735,60400.845,-6841.035,-34149.915,-45768.96,-7438.724999999999,11016.135
1764434348.3276618,30705.975,17847.719999999998,60396.3,-6842.7,-34150.23,-45768.33,-7452.36,11010.375
1764434348.3276618,30707.01,17846.37,60395.085,-6843.599999999999,-34150.005,-45766.845,-7457.535,11008.08
1764434348.3276618,30709.215,17849.925,60398.28,-6841.395,-34149.24,-45765.9,-7453.934999999999,11010.6
1764434348.3276618,30708.18,17852.445,60403.185,-6837.03,-34145.955,-45763.245,-7443.45,11015.055
1764434348.3276618,30703.23,17850.105,60402.96,-6837.929999999999,-34147.395,-45766.305,-7436.34,11015.865
1764434348.3712354,30694.275,17845.785,60400.08,-6845.31,-34157.88,-45777.285,-7432.11,11012.805
1764434348.3712354,30693.06,17846.1,60400.26,-6846.705,-34158.6,-45776.655,-7425.809999999999,11015.1
1764434348.3712354,30698.73,17850.42,60404.175,-6842.34,-34153.425,-45772.695,-7423.74,11018.925
1764434348.3712354,30700.575,17849.52,60401.88,-6841.755,-34152.165,-45772.29,-7431.03,11017.44
1764434348.3712354,30700.98,17846.774999999998,60396.885,-6844.905,-34155.18,-45773.64,-7442.594999999999,11012.67
1764434348.3712354,30708.945,17850.78,60399.81,-6838.514999999999,-34146.045,-45763.38,-7446.42,11014.155
1764434348.3717744,30712.095,17851.995,60400.485,-6835.905,-34142.94,-45760.095,-7450.11,11013.84
1764434348.3717744,30709.08,17850.735,60399.315,-6837.165,-34145.369999999995,-45762.885,-7451.19,11011.275
1764434348.3717744,30706.785,17851.5,60401.205,-6836.94,-34147.08,-45764.415,-7444.304999999999,11013.345
1764434348.3717744,30698.82,17846.82,60398.82,-6841.844999999999,-34152.75,-45771.615,-7439.894999999999,11010.51
1764434348.3717744,30694.23,17845.335,60398.865,-6844.679999999999,-34156.619999999995,-45776.295,-7431.344999999999,11012.085
1764434348.3717744,30696.48,17849.114999999998,60402.645,-6841.889999999999,-34154.369999999995,-45774.225,-7422.84,11017.845
1764434348.3717744,30697.155,17848.53,60401.61,-6842.61,-34154.145,-45774.0,-7426.17,11017.53
1764434348.3717744,30696.12,17843.579999999998,60395.31,-6847.245,-34157.79,-45776.115,-7436.025,11011.995
1764434348.3717744,30702.555,17847.18,60396.3,-6844.094999999999,-34153.29,-45770.715,-7440.48,11013.12
1764434348.3717744,30704.985,17846.325,60393.645,-6843.915,-34151.49,-45769.23,-7451.73,11009.205
1764434348.3717744,30710.61,17849.07,60396.03,-6839.46,-34146.135,-45762.93,-7452.63,11011.905
1764434348.3717744,30705.75,17845.469999999998,60392.655,-6843.509999999999,-34150.545,-45767.97,-7455.105,11008.26
1764434348.3717744,30702.825,17845.605,60394.5,-6846.165,-34153.92,-45770.355,-7448.4,11009.565
1764434348.3717744,30701.97,17850.78,60402.96,-6839.505,-34150.275,-45768.015,-7435.755,11012.76
1764434348.3717744,30694.14,17846.37,60400.305,-6843.96,-34155.225,-45775.71,-7430.715,11010.33
1764434348.3717744,30696.21,17849.43,60403.14,-6842.205,-34153.11,-45774.99,-7422.974999999999,11016.0
1764434348.419822,30697.2,17849.475,60401.835,-6843.15,-34152.75,-45774.855,-7424.549999999999,11016.945
1764434348.419822,30698.91,17848.44,60399.315,-6844.905,-34151.985,-45773.55,-7431.795,11015.28
1764434348.419822,30701.43,17847.585,60396.48,-6845.535,-34152.84,-45774.315,-7442.009999999999,11011.995
1764434348.419822,30709.08,17851.59,60399.945,-6839.639999999999,-34145.19,-45764.685,-7447.23,11014.785
1764434348.419822,30707.865,17848.26,60396.57,-6841.8,-34147.305,-45764.82,-7453.62,11009.88
1764434348.420821,30706.74,17848.89,60396.975,-6843.285,-34148.43,-45765.585,-7450.514999999999,11010.915
1764434348.420821,30705.795,17851.14,60400.26,-6841.98,-34148.61,-45765.99,-7442.28,11014.425
1764434348.420821,30696.885,17845.469999999998,60397.38,-6844.185,-34153.785,-45773.865,-7439.49,11010.735
1764434348.420821,30691.08,17843.175,60397.92,-6845.445,-34156.395,-45777.645,-7430.58,11012.085
1764434348.420821,30689.64,17843.67,60399.945,-6845.264999999999,-34155.945,-45777.825,-7425.495,11014.56
1764434348.420821,30694.905,17848.53,60403.545,-6841.53,-34152.345,-45773.415,-7423.424999999999,11017.62
1764434348.420821,30698.055,17848.575,60401.565,-6842.205,-34151.805,-45771.57,-7429.905,11016.855
1764434348.420821,30702.06,17848.305,60399.045,-6840.81,-34150.23,-45769.68,-7438.545,11015.64
1764434348.420821,30705.345,17845.695,60393.33,-6842.429999999999,-34149.465,-45768.6,-7450.155,11011.545
1764434348.420821,30710.43,17849.204999999998,60395.445,-6840.99,-34147.35,-45764.37,-7452.045,11013.435
1764434348.420821,30705.255,17848.8,60397.965,-6839.054999999999,-34147.98,-45766.305,-7451.955,11010.195
1764434348.420821,30700.395,17847.945,60400.305,-6837.48,-34148.07,-45766.53,-7444.98,11010.105
1764434348.420821,30696.39,17846.82,60398.91,-6840.719999999999,-34152.345,-45771.48,-7437.554999999999,11011.32
1764434348.420821,30691.935,17845.695,60398.145,-6843.96,-34157.115,-45777.42,-7429.679999999999,11012.22
1764434348.420821,30692.7,17847.315,60400.17,-6842.88,-34156.44,-45777.78,-7423.2,11016.315
1764434348.420821,30693.24,17846.64,60400.035,-6842.34,-34153.785,-45774.675,-7424.235,11016.72
1764434348.420821,30692.97,17843.625,60395.355,-6845.264999999999,-34156.035,-45776.7,-7434.809999999999,11013.165
1764434348.420821,30700.485,17846.73,60396.345,-6841.844999999999,-34151.85,-45771.84,-7440.615,11013.795
1764434348.420821,30703.77,17845.965,60394.77,-6840.764999999999,-34149.96,-45768.87,-7451.054999999999,11009.385
1764434348.4653609,30705.66,17846.91,60395.13,-6839.009999999999,-34148.25,-45765.9,-7454.88,11007.99
1764434348.4653609,30706.92,17849.52,60398.505,-6836.13,-34145.415,-45762.84,-7450.019999999999,11010.825
1764434348.4653609,30705.705,17851.68,60401.88,-6833.474999999999,-34144.515,-45762.165,-7441.019999999999,11014.47
1764434348.4653609,30698.955,17849.16,60400.755,-6836.804999999999,-34149.105,-45767.97,-7435.394999999999,11013.885
1764434348.4653609,30696.03,17849.07,60402.06,-6838.02,-34151.13,-45771.48,-7425.09,11017.17
1764434348.4653609,30692.79,17845.829999999998,60398.775,-6841.44,-34154.325,-45775.62,-7422.66,11017.035
1764434348.4653609,30695.085,17847.989999999998,60400.08,-6840.719999999999,-34153.155,-45774.135,-7423.965,11018.205
1764434348.4653609,30695.22,17845.38,60397.245,-6843.014999999999,-34154.82,-45774.09,-7433.144999999999,11012.895
1764434348.4653609,30698.73,17844.975,60395.04,-6841.935,-34153.155,-45770.265,-7441.92,11011.365
1764434348.4653609,30704.175,17846.145,60394.635,-6840.315,-34149.555,-45766.17,-7450.92,11009.52
1764434348.4653609,30707.91,17847.945,60396.93,-6836.849999999999,-34146.045,-45762.525,-7452.495,11010.465
1764434348.4653609,30709.26,17850.825,60400.53,-6834.06,-34143.48,-45760.86,-7447.275,11013.975
1764434348.4653609,30701.295,17845.695,60396.48,-6838.785,-34149.555,-45767.205,-7444.71,11010.285
1764434348.4653609,30697.92,17845.92,60398.28,-6838.83,-34150.86,-45769.41,-7435.62,11012.22
1764434348.4653609,30694.86,17846.91,60400.125,-6839.639999999999,-34152.57,-45773.325,-7425.809999999999,11015.01
1764434348.4653609,30696.345,17849.43,60403.14,-6837.84,-34153.02,-45773.19,-7418.565,11018.97
1764434348.4663627,30696.705,17848.485,60401.745,-6838.695,-34152.975,-45772.965,-7421.849999999999,11018.07
1764434348.4663627,30698.955,17847.405,60399.405,-6839.82,-34152.345,-45771.165,-7429.995,11016.045
1764434348.4663627,30701.475,17846.55,60396.255,-6841.349999999999,-34152.75,-45769.59,-7440.03,11013.57
1764434348.4663627,30704.175,17844.75,60392.835,-6840.315,-34150.275,-45766.665,-7450.695,11010.06
1764434348.4663627,30711.78,17850.96,60398.28,-6834.42,-34144.155,-45760.185,-7448.894999999999,11014.83
1764434348.4663627,30710.565,17853.12,60403.77,-6830.415,-34141.005,-45757.62,-7442.73,11015.685
1764434348.5116963,30706.02,17852.219999999998,60404.76,-6831.764999999999,-34143.21,-45761.175,-7437.87,11014.38
1764434348.5116963,30699.63,17848.395,60401.34,-6837.57,-34149.96,-45768.195,-7432.469999999999,11013.66
1764434348.5116963,30696.48,17849.024999999998,60403.545,-6837.344999999999,-34151.535,-45770.58,-7421.849999999999,11017.305
1764434348.5116963,30694.86,17849.114999999998,60403.545,-6837.165,-34152.39,-45772.65,-7417.889999999999,11018.61
1764434348.5116963,30694.32,17846.73,60400.26,-6840.09,-34153.875,-45773.82,-7422.525,11015.775
1764434348.51223,30695.67,17844.75,60396.84,-6842.52,-34155.494999999995,-45774.09,-7431.03,11013.075
1764434348.51223,30695.535,17841.51,60391.845,-6845.355,-34157.744999999995,-45774.9,-7443.63,11007.225
1764434348.51223,30700.035,17842.14,60391.575,-6841.889999999999,-34153.47,-45770.13,-7452.269999999999,11005.56
1764434348.51223,30702.645,17843.219999999998,60392.655,-6839.235,-34150.14,-45767.295,-7455.15,11006.235
1764434348.51223,30705.525,17847.135,60396.345,-6836.895,-34148.744999999995,-45766.17,-7449.48,11009.34
1764434348.51223,30699.36,17844.795,60395.85,-6840.09,-34152.84,-45770.265,-7445.969999999999,11006.46
1764434348.51223,30696.12,17845.02,60398.01,-6840.585,-34152.48,-45769.815,-7434.09,11010.15
1764434348.51223,30691.485,17843.85,60397.38,-6844.139999999999,-34157.655,-45776.88,-7426.17,11012.04
1764434348.51223,30689.235,17841.915,60396.435,-6843.554999999999,-34159.275,-45780.57,-7425.269999999999,11011.905
1764434348.51223,30689.595,17840.7,60395.22,-6843.554999999999,-34159.23,-45779.67,-7429.005,11010.51
1764434348.51223,30688.92,17840.204999999998,60394.545,-6842.07,-34157.295,-45778.365,-7437.554999999999,11006.46
1764434348.51223,30698.55,17845.38,60397.02,-6837.57,-34150.905,-45770.58,-7440.705,11010.285
1764434348.51223,30703.095,17845.11,60395.13,-6836.355,-34148.07,-45766.62,-7449.75,11009.475
1764434348.51223,30701.835,17842.05,60391.035,-6840.45,-34151.13,-45768.465,-7456.455,11005.56
1764434348.51223,30701.79,17845.38,60396.48,-6835.634999999999,-34148.34,-45766.305,-7451.684999999999,11006.865
1764434348.51223,30702.285,17849.25,60402.555,-6831.224999999999,-34144.83,-45763.875,-7441.38,11011.05
1764434348.51223,30695.76,17845.29,60398.91,-6836.49,-34151.085,-45770.985,-7435.485,11009.925
1764434348.5600612,30691.755,17844.704999999998,60399.72,-6837.884999999999,-34154.369999999995,-45774.18,-7426.53,11012.715
1764434348.5600612,30688.605,17842.545,60397.38,-6842.025,-34158.465,-45778.23,-7425.63,11011.5
1764434348.5600612,30693.15,17844.704999999998,60398.865,-6839.865,-34155.45,-45775.08,-7426.125,11013.255
1764434348.5600612,30693.78,17842.815,60395.355,-6842.16,-34155.72,-45775.215,-7434.585,11010.105
1764434348.5600612,30694.32,17839.125,60391.305,-6844.365,-34157.295,-45775.845,-7446.915,11005.11
1764434348.5600612,30699.45,17841.285,60391.71,-6840.945,-34153.335,-45770.445,-7454.745,11004.66
1764434348.5600612,30704.805,17846.055,60395.805,-6834.915,-34148.025,-45764.055,-7453.394999999999,11007.72
1764434348.5600612,30703.905,17846.055,60396.705,-6833.835,-34148.43,-45764.235,-7449.884999999999,11008.485
1764434348.5600612,30699.315,17843.985,60396.39,-6836.355,-34150.994999999995,-45767.79,-7444.575,11008.26
1764434348.5600612,30693.555,17841.195,60395.04,-6840.224999999999,-34155.45,-45773.145,-7438.5,11007.9
1764434348.5600612,30693.105,17843.85,60399.0,-6839.37,-34155.54,-45774.675,-7425.99,11013.21
1764434348.5600612,30691.035,17843.67,60399.405,-6840.9,-34157.07,-45776.43,-7423.38,11013.84
1764434348.5600612,30691.35,17842.05,60396.705,-6843.645,-34158.465,-45777.195,-7428.014999999999,11012.625
1764434348.5600612,30694.005,17841.465,60394.455,-6843.645,-34157.34,-45776.025,-7435.665,11011.32
1764434348.5600612,30694.995,17839.079999999998,60391.305,-6844.094999999999,-34155.27,-45775.08,-7446.554999999999,11006.685
1764434348.5600612,30702.51,17843.579999999998,60394.635,-6838.83,-34150.005,-45767.79,-7451.594999999999,11008.53
1764434348.5610757,30701.61,17841.195,60392.52,-6839.82,-34150.365,-45767.79,-7457.174999999999,11004.885
1764434348.5610757,30703.77,17844.704999999998,60397.02,-6836.804999999999,-34147.98,-45765.99,-7451.37,11008.035
1764434348.5610757,30697.335,17841.96,60394.185,-6840.9,-34152.03,-45770.58,-7447.23,11006.325
1764434348.5610757,30692.655,17840.114999999998,60393.06,-6842.429999999999,-34155.045,-45775.44,-7440.255,11006.73
1764434348.5610757,30688.155,17839.305,60394.275,-6844.679999999999,-34161.03,-45782.235,-7432.559999999999,11007.81
1764434348.5610757,30690.135,17842.094999999998,60397.38,-6842.295,-34157.744999999995,-45779.31,-7425.585,11013.075
1764434348.5610757,30691.035,17840.835,60395.175,-6843.014999999999,-34156.215,-45778.365,-7429.32,11012.895
1764434348.5610757,30690.36,17835.48,60389.28,-6847.335,-34159.365,-45780.975,-7440.434999999999,11007.405
1764434348.6058714,30694.455,17836.335,60388.56,-6846.615,-34157.79,-45777.42,-7449.389999999999,11005.83
1764434348.6058714,30700.395,17839.079999999998,60389.64,-6842.79,-34153.47,-45771.435,-7456.32,11005.155
1764434348.606378,30705.21,17843.13,60393.42,-6838.2,-34148.79,-45766.575,-7455.735,11007.585
1764434348.606378,30701.475,17840.565,60391.71,-6840.179999999999,-34150.815,-45769.68,-7454.88,11005.38
1764434348.606378,30697.965,17840.835,60393.285,-6839.865,-34151.13,-45769.725,-7447.455,11006.685
1764434348.6068623,30695.13,17842.68,60396.165,-6839.37,-34152.48,-45772.065,-7436.88,11009.61
1764434348.6068623,30687.615,17838.135,60393.015,-6844.815,-34158.915,-45780.12,-7431.929999999999,11007.945
1764434348.6068623,30688.56,17839.665,60394.545,-6844.365,-34158.465,-45780.345,-7427.79,11010.42
1764434348.6068623,30689.37,17838.045,60392.16,-6845.759999999999,-34158.735,-45781.065,-7431.165,11008.665
1764434348.607386,30690.63,17836.649999999998,60389.19,-6846.795,-34159.41,-45780.615,-7439.309999999999,11006.055
1764434348.607386,30691.98,17834.399999999998,60385.635,-6848.009999999999,-34159.005,-45779.22,-7450.92,11002.725
1764434348.607386,30698.235,17836.92,60386.49,-6844.455,-34154.055,-45773.19,-7457.894999999999,11002.77
1764434348.607386,30700.845,17839.8,60389.46,-6841.395,-34152.48,-45771.93,-7458.84,11003.355
1764434348.607386,30703.005,17843.309999999998,60394.005,-6837.795,-34149.69,-45768.915,-7452.09,11007.225
1764434348.607386,30696.255,17838.135,60391.62,-6840.495,-34153.38,-45773.46,-7447.995,11004.975
1764434348.607386,30692.205,17837.46,60392.16,-6843.554999999999,-34156.485,-45777.645,-7439.985,11005.92
1764434348.607386,30688.155,17839.17,60397.02,-6841.304999999999,-34156.395,-45778.68,-7429.32,11008.305
1764434348.607386,30691.89,17843.219999999998,60400.935,-6837.255,-34152.48,-45776.16,-7422.66,11013.885
1764434348.607386,30693.015,17841.78,60396.75,-6840.045,-34154.82,-45777.42,-7426.62,11012.985
1764434348.607386,30692.295,17836.02,60389.28,-6848.19,-34160.895,-45780.525,-7437.33,11007.54
1764434348.607386,30697.245,17838.36,60390.495,-6843.96,-34156.845,-45775.755,-7445.7,11006.73
1764434348.607386,30705.75,17844.66,60397.515,-6831.99,-34145.28,-45765.09,-7448.58,11009.205
1764434348.607386,30706.29,17843.715,60396.21,-6831.719999999999,-34143.48,-45762.66,-7451.099999999999,11007.72
1764434348.607386,30700.98,17839.44,60391.755,-6836.219999999999,-34148.52,-45767.925,-7451.009999999999,11004.345
1764434348.6503878,30701.16,17842.005,60394.905,-6836.67,-34149.105,-45768.42,-7441.514999999999,11008.395
1764434348.6503878,30694.545,17840.969999999998,60396.93,-6837.884999999999,-34151.94,-45773.19,-7435.17,11007.54
1764434348.6503878,30690.585,17840.61,60398.325,-6837.615,-34153.515,-45776.88,-7425.99,11010.33
1764434348.6503878,30695.31,17844.434999999998,60399.72,-6838.2,-34152.93,-45775.395,-7418.79,11016.495
1764434348.6503878,30696.84,17846.864999999998,60402.96,-6834.195,-34148.34,-45771.795,-7420.5,11017.08
1764434348.6503878,30697.695,17844.434999999998,60399.72,-6835.815,-34148.97,-45772.245,-7430.174999999999,11012.715
1764434348.6503878,30705.255,17847.18,60400.17,-6833.025,-34144.785,-45766.395,-7436.115,11014.11
1764434348.6503878,30708.36,17846.91,60398.37,-6832.125,-34142.94,-45762.66,-7445.295,11011.275
1764434348.6503878,30713.805,17851.68,60403.59,-6826.32,-34137.045,-45756.135,-7443.36,11014.875
1764434348.6503878,30708.945,17848.8,60401.655,-6828.84,-34140.24,-45759.645,-7442.73,11012.445
1764434348.6503878,30703.815,17846.1,60399.765,-6831.179999999999,-34144.244999999995,-45764.73,-7437.915,11011.77
1764434348.6503878,30699.72,17846.235,60401.745,-6831.99,-34147.17,-45767.835,-7428.825,11014.065
1764434348.6503878,30698.145,17849.61,60406.695,-6831.09,-34147.035,-45768.24,-7417.44,11019.33
1764434348.6503878,30695.85,17847.675,60404.58,-6833.295,-34148.79,-45770.22,-7416.269999999999,11019.285
1764434348.6503878,30698.505,17848.575,60404.445,-6831.855,-34146.675,-45767.52,-7417.98,11019.735
1764434348.6503878,30697.92,17845.38,60398.91,-6835.455,-34149.24,-45770.04,-7428.78,11014.785
1764434348.6503878,30703.68,17846.73,60398.01,-6833.745,-34146.54,-45765.99,-7436.88,11014.515
1764434348.6503878,30708.81,17848.305,60398.64,-6830.145,-34142.13,-45760.365,-7443.54,11014.92
1764434348.6503878,30711.735,17851.005,60403.095,-6825.78,-34138.665,-45756.72,-7442.505,11016.36
1764434348.6503878,30715.335,17856.045,60408.99,-6820.514999999999,-34133.76,-45751.725,-7434.315,11022.075
1764434348.6503878,30712.59,17855.864999999998,60410.295,-6821.46,-34136.1,-45754.605,-7428.195,11022.885
1764434348.6503878,30703.635,17851.005,60407.28,-6827.13,-34142.715,-45762.39,-7423.29,11019.87
1764434348.7002056,30699.585,17849.61,60407.325,-6829.29,-34146.18,-45766.575,-7415.505,11021.31
1764434348.7002056,30703.59,17853.975,60410.835,-6826.905,-34144.02,-45764.19,-7409.519999999999,11026.485
1764434348.7002056,30705.345,17853.795,60408.855,-6826.905,-34144.065,-45763.965,-7412.804999999999,11026.71
1764434348.7002056,30704.355,17850.735,60404.535,-6829.02,-34145.235,-45765.315,-7422.705,11021.76
1764434348.7002056,30712.95,17856.135,60408.63,-6822.675,-34136.64,-45755.595,-7426.215,11024.64
1764434348.7002056,30720.285,17860.32,60411.06,-6817.995,-34130.61,-45748.215,-7431.434999999999,11026.71
1764434348.7002056,30722.58,17861.535,60412.005,-6815.07,-34128.315,-45745.47,-7432.155,11027.115
1764434348.7002056,30720.15,17861.085,60413.445,-6814.665,-34128.27,-45746.28,-7428.87,11027.655
1764434348.7002056,30713.76,17857.934999999998,60410.88,-6819.21,-34132.815,-45752.355,-7424.82,11025.855
1764434348.7002056,30708.675,17857.62,60411.195,-6822.36,-34137.765,-45757.845,-7416.405,11026.08
1764434348.7002056,30703.275,17856.18,60411.33,-6824.969999999999,-34141.815,-45763.155,-7408.934999999999,11027.025
1764434348.7002056,30703.455,17857.89,60412.905,-6822.675,-34138.619999999995,-45760.095,-7403.264999999999,11029.77
1764434348.7002056,30706.785,17858.295,60411.78,-6822.945,-34138.17,-45759.015,-7406.82,11030.445
1764434348.7002056,30708.36,17855.82,60407.505,-6825.375,-34139.744999999995,-45760.005,-7416.54,11028.33
1764434348.7002056,30711.24,17854.695,60405.345,-6826.275,-34138.575,-45757.305,-7426.98,11025.36
1764434348.7002056,30718.71,17861.13,60412.86,-6816.24,-34128.765,-45747.63,-7430.4,11027.52
1764434348.7002056,30721.59,17863.02,60414.48,-6813.945,-34126.2,-45745.155,-7430.219999999999,11028.87
1764434348.7002056,30721.86,17864.1,60417.045,-6812.775,-34125.255,-45744.075,-7424.37,11030.76
1764434348.7002056,30720.465,17865.45,60419.07,-6812.19,-34126.2,-45745.425,-7416.54,11033.505
1764434348.7002056,30715.515,17864.01,60419.43,-6814.125,-34130.07,-45750.465,-7409.519999999999,11033.91
1764434348.7012217,30706.38,17858.61,60415.785,-6819.57,-34136.73,-45758.115,-7404.299999999999,11030.985
1764434348.7012217,30708.45,17861.309999999998,60418.305,-6817.86,-34135.425,-45756.09,-7398.945,11034.81
1764434348.7012217,30713.085,17864.505,60419.34,-6815.7,-34132.59,-45752.67,-7400.474999999999,11036.745
1764434348.7012217,30714.795,17863.245,60416.145,-6817.05,-34132.275,-45752.13,-7408.755,11034.585
1764434348.7012217,30715.56,17858.88,60410.43,-6819.48,-34133.49,-45752.4,-7421.49,11029.185
1764434348.7012217,30721.005,17860.094999999998,60409.26,-6818.67,-34130.925,-45748.755,-7429.049999999999,11028.285
1764434348.7443254,30721.185,17861.445,60412.365,-6815.34,-34128.494999999995,-45746.505,-7430.804999999999,11026.935
1764434348.7443254,30718.8,17862.75,60415.83,-6812.775,-34127.775,-45745.785,-7426.799999999999,11027.34
1764434348.7443254,30715.83,17862.57,60415.605,-6814.889999999999,-34129.98,-45748.62,-7420.365,11028.735
1764434348.7443254,30713.805,17864.64,60419.385,-6813.63,-34129.71,-45749.79,-7408.755,11032.515
1764434348.7443254,30707.01,17860.41,60416.145,-6820.155,-34135.965,-45757.395,-7404.344999999999,11030.67
1764434348.7443254,30707.91,17860.5,60415.605,-6821.325,-34136.55,-45757.755,-7401.644999999999,11031.885
1764434348.7443254,30713.67,17864.01,60417.405,-6819.344999999999,-34133.58,-45754.155,-7401.105,11035.62
1764434348.7443254,30712.905,17860.545,60412.23,-6823.395,-34137.765,-45757.215,-7412.58,11030.76
1764434348.7443254,30720.645,17865.809999999998,60415.65,-6817.005,-34129.89,-45748.35,-7416.764999999999,11032.92
1764434348.7443254,30724.515,17866.079999999998,60415.47,-6813.315,-34125.705,-45744.57,-7424.73,11031.66
1764434348.7443254,30725.28,17865.045,60414.345,-6812.955,-34124.04,-45743.085,-7427.205,11031.255
1764434348.7443254,30722.58,17866.755,60419.025,-6809.4,-34122.51,-45741.87,-7422.84,11030.13
1764434348.7443254,30716.955,17864.684999999998,60419.88,-6809.445,-34124.895,-45745.875,-7417.665,11028.87
1764434348.7443254,30715.38,17866.485,60420.87,-6811.74,-34127.01,-45747.855,-7406.054999999999,11032.92
1764434348.7443254,30711.195,17865.45,60421.905,-6815.474999999999,-34131.735,-45752.355,-7399.304999999999,11034.36
1764434348.7443254,30709.665,17863.785,60420.51,-6817.59,-34134.03,-45754.515,-7397.684999999999,11034.675
1764434348.7443254,30710.52,17861.895,60416.73,-6818.895,-34135.065,-45756.18,-7403.985,11031.795
1764434348.7443254,30709.035,17856.54,60410.25,-6822.81,-34138.08,-45758.115,-7415.639999999999,11025.63
1764434348.7443254,30715.47,17858.655,60410.205,-6820.38,-34134.57,-45753.165,-7422.884999999999,11026.08
1764434348.7443254,30724.155,17865.27,60415.74,-6812.505,-34126.065,-45744.165,-7426.349999999999,11029.68
1764434348.7443254,30723.66,17864.505,60416.73,-6810.255,-34122.735,-45741.24,-7427.16,11028.735
1764434348.7443254,30720.24,17862.524999999998,60416.37,-6812.73,-34126.515,-45745.2,-7424.594999999999,11027.565
1764434348.7443254,30713.67,17859.329999999998,60414.66,-6815.7,-34130.565,-45751.23,-7421.535,11025.36
1764434348.7443254,30709.17,17858.79,60415.92,-6815.79,-34131.285,-45754.38,-7412.13,11027.07
1764434348.7901497,30709.035,17860.815,60419.61,-6815.474999999999,-34131.78,-45755.46,-7401.195,11032.515
1764434348.7901497,30708.495,17860.725,60418.62,-6816.645,-34131.825,-45756.945,-7399.44,11033.01
1764434348.7901497,30711.42,17861.175,60417.585,-6816.69,-34130.565,-45754.92,-7402.995,11033.19
1764434348.7901497,30713.58,17860.41,60415.515,-6816.69,-34130.295,-45752.985,-7410.42,11031.255
1764434348.7901497,30717.27,17860.14,60413.985,-6815.61,-34127.775,-45749.79,-7419.69,11029.185
1764434348.7901497,30719.07,17858.475,60411.195,-6815.88,-34127.145,-45748.215,-7429.724999999999,11025.135
1764434348.7901497,30720.555,17858.88,60411.87,-6814.215,-34125.119999999995,-45746.415,-7429.995,11024.865
1764434348.7901497,30719.7,17859.645,60412.815,-6814.665,-34126.38,-45747.045,-7424.91,11025.63
1764434348.7901497,30716.73,17860.905,60415.155,-6815.115,-34128.54,-45749.205,-7417.44,11027.52
1764434348.7901497,30714.345,17864.19,60421.32,-6809.94,-34126.244999999995,-45749.475,-7405.38,11031.255
1764434348.7901497,30708.585,17861.13,60418.53,-6814.665,-34130.744999999995,-45754.515,-7398.585,11032.245
1764434348.7901497,30704.085,17856.809999999998,60413.13,-6820.38,-34135.38,-45759.555,-7400.519999999999,11029.095
1764434348.7901497,30708.045,17857.89,60413.67,-6818.49,-34133.76,-45757.17,-7403.04,11030.76
1764434348.7901497,30706.83,17853.255,60408.225,-6822.045,-34136.955,-45758.925,-7414.605,11025.585
1764434348.7939222,30714.21,17856.809999999998,60410.835,-6817.455,-34131.285,-45751.455,-7420.815,11026.395
1764434348.7939222,30715.695,17855.684999999998,60408.27,-6817.59,-34129.44,-45749.025,-7431.12,11022.93
1764434348.7939222,30717.675,17857.89,60410.205,-6814.62,-34126.065,-45746.1,-7431.57,11023.245
1764434348.7939222,30718.53,17860.59,60414.57,-6811.83,-34125.57,-45745.65,-7424.144999999999,11026.26
1764434348.7939222,30713.31,17858.52,60413.805,-6814.889999999999,-34128.72,-45749.52,-7418.655,11025.855
1764434348.7939222,30709.71,17858.7,60416.145,-6815.115,-34129.395,-45751.68,-7408.71,11028.69
1764434348.837392,30702.555,17853.344999999998,60411.555,-6821.955,-34136.955,-45760.905,-7404.165,11026.89
1764434348.837392,30706.155,17856.719999999998,60413.31,-6821.91,-34136.46,-45759.915,-7399.844999999999,11031.165
1764434348.837392,30708.09,17858.385,60415.83,-6817.545,-34132.77,-45756.765,-7403.49,11030.94
1764434348.837392,30706.785,17854.065,60409.035,-6820.605,-34134.795,-45758.07,-7415.415,11024.955
1764434348.837392,30714.21,17857.53,60410.25,-6817.679999999999,-34130.835,-45753.075,-7422.03,11025.855
1764434348.837392,30715.605,17855.055,60407.955,-6817.139999999999,-34129.215,-45750.825,-7431.21,11022.39
1764434348.837392,30715.785,17855.055,60407.28,-6816.465,-34129.619999999995,-45750.555,-7433.594999999999,11021.67
1764434348.837392,30715.875,17858.07,60410.88,-6814.889999999999,-34128.494999999995,-45749.295,-7427.655,11023.785
1764434348.837392,30712.365,17857.125,60411.06,-6815.88,-34132.14,-45753.93,-7421.715,11024.01
1764434348.8383982,30704.13,17853.434999999998,60411.825,-6817.41,-34134.66,-45758.43,-7414.245,11022.795
1764434348.8383982,30701.385,17854.92,60414.255,-6817.86,-34135.47,-45760.14,-7404.615,11025.045
1764434348.8383982,30697.47,17850.96,60406.92,-6826.59,-34141.68,-45764.685,-7406.775,11022.66
1764434348.8383982,30704.355,17855.505,60408.585,-6824.295,-34139.34,-45761.04,-7407.809999999999,11026.395
1764434348.8383982,30706.47,17854.335,60408.27,-6821.775,-34137.45,-45760.005,-7416.269999999999,11023.515
1764434348.8383982,30705.66,17849.565,60402.735,-6823.17,-34136.415,-45758.43,-7429.815,11017.26
1764434348.8383982,30710.34,17850.555,60403.185,-6820.65,-34133.715,-45754.74,-7437.42,11016.09
1764434348.8383982,30715.56,17856.09,60408.72,-6814.259999999999,-34127.865,-45749.115,-7433.19,11020.905
1764434348.8383982,30713.76,17856.945,60410.655,-6814.395,-34128.54,-45749.205,-7427.79,11021.94
1764434348.8383982,30708.36,17853.885,60409.26,-6818.445,-34132.77,-45754.245,-7422.48,11020.68
1764434348.8383982,30705.795,17854.739999999998,60411.555,-6818.804999999999,-34134.615,-45757.08,-7412.58,11023.515
1764434348.8383982,30700.26,17851.68,60409.71,-6822.495,-34139.565,-45763.695,-7407.54,11022.39
1764434348.8383982,30697.92,17849.385,60407.01,-6826.005,-34142.085,-45766.89,-7409.16,11021.355
1764434348.8383982,30702.51,17851.68,60408.72,-6823.215,-34138.755,-45762.75,-7411.275,11023.695
1764434348.8383982,30702.78,17849.565,60404.985,-6824.429999999999,-34138.845,-45761.67,-7420.41,11020.68
1764434348.88746,30708.405,17851.274999999998,60403.815,-6822.134999999999,-34136.46,-45757.53,-7428.69,11019.555
1764434348.88746,30716.28,17856.585,60407.955,-6816.42,-34129.755,-45749.34,-7431.884999999999,11021.76
1764434348.88746,30714.21,17854.785,60406.785,-6817.95,-34130.79,-45750.105,-7434.54,11019.42
1764434348.88746,30715.74,17858.114999999998,60410.97,-6815.52,-34128.765,-45748.44,-7426.844999999999,11022.93
1764434348.88746,30712.77,17857.485,60410.655,-6817.32,-34131.6,-45751.635,-7420.769999999999,11023.83
1764434348.88746,30707.64,17855.594999999998,60410.295,-6818.085,-34133.535,-45756.135,-7412.13,11025.63
1764434348.88746,30702.51,17853.344999999998,60408.045,-6825.599999999999,-34141.05,-45763.47,-7406.73,11025.81
1764434348.88746,30700.53,17855.01,60413.355,-6821.009999999999,-34138.8,-45762.795,-7405.559999999999,11025.045
1764434348.88746,30702.195,17852.895,60410.52,-6822.675,-34140.285,-45763.83,-7411.365,11022.975
1764434348.88746,30700.935,17847.045,60402.465,-6827.895,-34143.75,-45765.99,-7423.514999999999,11017.62
1764434348.88746,30706.785,17849.07,60403.815,-6823.215,-34138.44,-45760.05,-7430.94,11017.53
1764434348.88746,30715.92,17855.145,60409.26,-6815.79,-34129.755,-45750.465,-7432.92,11022.03
1764434348.88746,30718.125,17857.305,60411.24,-6813.719999999999,-34127.685,-45747.675,-7432.245,11023.65
1764434348.888465,30716.145,17857.755,60411.96,-6813.945,-34128.99,-45749.205,-7427.835,11024.37
1764434348.888465,30711.51,17856.405,60411.78,-6815.25,-34131.24,-45752.805,-7421.804999999999,11024.145
1764434348.888465,30706.245,17855.28,60412.455,-6817.365,-34135.065,-45757.89,-7413.57,11024.46
1764434348.888465,30700.035,17851.86,60409.575,-6821.91,-34140.105,-45763.83,-7408.304999999999,11023.785
1764434348.888465,30702.51,17853.93,60411.195,-6820.514999999999,-34138.215,-45762.66,-7404.929999999999,11027.07
1764434348.888465,30704.76,17853.48,60409.395,-6820.38,-34137.72,-45762.075,-7409.835,11025.63
1764434348.888465,30706.02,17851.184999999998,60405.705,-6821.865,-34138.17,-45761.58,-7419.599999999999,11021.67
1764434348.888465,30711.105,17851.05,60404.22,-6820.469999999999,-34135.605,-45757.17,-7428.195,11020.635
1764434348.888465,30715.605,17852.355,60403.545,-6820.514999999999,-34133.67,-45753.84,-7434.224999999999,11020.005
1764434348.9314578,30711.375,17851.094999999998,60403.86,-6819.929999999999,-34133.805,-45755.145,-7438.455,11015.46
1764434348.9314578,30710.07,17853.795,60407.64,-6817.815,-34133.175,-45755.505,-7433.144999999999,11016.945
1764434348.9314578,30710.025,17855.505,60411.42,-6817.139999999999,-34133.67,-45755.865,-7423.335,11021.355
1764434348.9314578,30702.24,17851.41,60409.8,-6819.84,-34137.18,-45759.87,-7415.505,11020.59
1764434348.9314578,30698.145,17850.375,60409.305,-6821.865,-34139.25,-45763.47,-7407.269999999999,11021.625
1764434348.9314578,30702.465,17854.469999999998,60412.005,-6820.514999999999,-34137.405,-45761.355,-7403.355,11026.125
1764434348.9314578,30704.31,17854.2,60410.385,-6820.92,-34137.63,-45760.77,-7409.295,11025.135
1764434348.9314578,30702.555,17849.52,60404.22,-6824.79,-34139.835,-45762.66,-7421.4,11018.97
1764434348.9314578,30708.405,17851.545,60403.77,-6822.179999999999,-34135.695,-45758.07,-7429.275,11018.745
1764434348.9314578,30715.92,17856.45,60407.685,-6816.24,-34129.395,-45749.745,-7432.245,11020.905
1764434348.9314578,30714.12,17854.695,60406.92,-6817.634999999999,-34130.744999999995,-45750.69,-7434.495,11017.575
1764434348.932469,30712.005,17855.01,60408.63,-6815.835,-34130.52,-45751.23,-7429.365,11018.385
1764434348.932469,30708.495,17854.425,60409.935,-6816.33,-34132.815,-45755.01,-7422.48,11020.23
1764434348.932469,30704.31,17854.829999999998,60410.16,-6818.895,-34135.92,-45759.465,-7411.724999999999,11022.12
1764434348.932469,30703.185,17856.135,60412.14,-6819.03,-34136.28,-45759.87,-7402.455,11025.72
1764434348.932469,30703.995,17855.91,60412.005,-6819.66,-34136.415,-45759.735,-7401.78,11027.205
1764434348.932469,30706.155,17855.325,60410.205,-6820.514999999999,-34136.46,-45759.195,-7405.965,11026.89
1764434348.932469,30706.38,17851.995,60406.74,-6821.37,-34136.64,-45758.88,-7416.269999999999,11022.03
1764434348.932469,30715.47,17857.215,60410.97,-6814.08,-34129.08,-45749.43,-7421.445,11024.73
1764434348.932469,30721.23,17860.094999999998,60412.68,-6810.705,-34123.905,-45743.085,-7426.53,11026.17
1764434348.932469,30722.355,17861.535,60414.885,-6809.04,-34122.465,-45742.185,-7426.08,11026.89
1764434348.932469,30720.78,17861.76,60416.91,-6808.365,-34123.23,-45742.635,-7420.049999999999,11028.33
1764434348.932469,30716.82,17861.895,60418.35,-6809.13,-34124.445,-45745.335,-7412.804999999999,11028.87
1764434348.932469,30713.22,17863.245,60421.185,-6810.165,-34125.885,-45748.08,-7401.96,11031.66
1764434348.9781528,30709.26,17860.995,60420.285,-6813.09,-34131.195,-45752.895,-7396.019999999999,11032.515
1764434348.9781528,30708.0,17858.52,60417.765,-6814.755,-34131.24,-45753.795,-7396.514999999999,11032.155
1764434348.9781528,30709.62,17857.665,60414.435,-6816.15,-34131.69,-45753.75,-7402.815,11031.525
1764434348.9781528,30707.955,17852.805,60407.19,-6821.685,-34137.09,-45756.81,-7415.82,11024.595
1764434348.9781528,30712.455,17854.92,60409.755,-6816.509999999999,-34131.105,-45751.14,-7424.505,11022.975
1764434348.9781528,30718.08,17857.26,60411.195,-6813.36,-34126.244999999995,-45745.2,-7429.545,11023.605
1764434348.9781528,30717.72,17856.585,60410.745,-6812.91,-34125.66,-45744.165,-7429.049999999999,11023.245
1764434348.9781528,30715.38,17856.855,60411.42,-6813.315,-34127.145,-45746.415,-7424.099999999999,11023.605
1764434348.9781528,30710.97,17855.774999999998,60412.86,-6813.855,-34129.619999999995,-45750.42,-7418.115,11023.74
1764434348.979176,30706.155,17854.92,60413.445,-6815.205,-34132.32,-45753.84,-7408.215,11026.17
1764434348.979176,30705.3,17857.485,60416.37,-6813.719999999999,-34131.105,-45753.93,-7397.775,11031.12
1764434348.979176,30705.615,17858.204999999998,60415.65,-6814.44,-34131.69,-45755.1,-7397.144999999999,11031.57
1764434348.979176,30709.125,17858.655,60414.975,-6813.495,-34130.295,-45753.075,-7401.915,11031.885
1764434348.9801774,30710.655,17856.809999999998,60411.555,-6814.755,-34129.845,-45751.14,-7411.32,11029.635
1764434348.9801774,30711.645,17853.66,60406.335,-6817.365,-34131.15,-45751.995,-7425.045,11023.785
1764434348.980699,30715.695,17854.245,60407.55,-6814.17,-34127.19,-45747.765,-7430.849999999999,11022.705
1764434348.9811878,30715.83,17853.885,60406.56,-6815.25,-34127.19,-45746.64,-7430.49,11022.525
1764434348.9811878,30713.67,17854.245,60406.02,-6820.74,-34133.265,-45751.455,-7426.62,11022.57
1764434348.9811878,30710.295,17857.755,60413.58,-6814.17,-34131.42,-45752.265,-7419.915,11022.435
1764434348.9817128,30707.145,17859.059999999998,60417.36,-6810.165,-34127.055,-45752.49,-7408.035,11026.08
1764434348.9817128,30699.45,17852.355,60411.33,-6817.77,-34133.265,-45758.745,-7403.804999999999,11024.415
1764434348.9817128,30703.185,17855.235,60413.94,-6815.115,-34130.97,-45756.045,-7399.98,11028.42
1764434348.9817128,30708.225,17857.395,60415.38,-6813.764999999999,-34128.855,-45753.345,-7402.905,11030.13
1764434348.9817128,30710.385,17857.035,60412.68,-6814.98,-34128.99,-45752.805,-7412.085,11027.835
1764434349.0215542,30715.47,17857.17,60410.16,-6814.44,-34127.19,-45749.43,-7421.535,11025.675
1764434349.0215542,30716.595,17855.505,60408.045,-6814.17,-34126.47,-45748.26,-7430.67,11021.49
1764434349.0215542,30717.27,17856.405,60410.52,-6810.165,-34123.365,-45744.84,-7428.69,11022.12
1764434349.022571,30718.845,17860.905,60416.235,-6805.755,-34119.72,-45742.32,-7419.105,11026.755
1764434349.022571,30713.625,17858.88,60415.605,-6810.12,-34124.445,-45747.63,-7414.155,11025.99
1764434349.022571,30705.615,17854.335,60412.23,-6815.07,-34131.33,-45754.65,-7408.215,11024.235
1764434349.022571,30703.59,17854.559999999998,60413.265,-6816.195,-34132.86,-45757.485,-7400.384999999999,11027.655
1764434349.022571,30700.98,17852.265,60409.17,-6821.325,-34137.405,-45761.67,-7402.769999999999,11025.81
1764434349.022571,30707.145,17857.934999999998,60415.695,-6812.73,-34128.945,-45753.705,-7402.59,11028.6
1764434349.022571,30712.32,17858.385,60414.66,-6812.325,-34126.65,-45750.915,-7409.474999999999,11028.33
1764434349.022571,30718.26,17859.645,60414.435,-6810.3,-34123.005,-45745.74,-7417.349999999999,11028.645
1764434349.022571,30721.545,17860.635,60415.155,-6807.42,-34119.54,-45742.14,-7423.74,11027.97
1764434349.022571,30718.395,17857.53,60412.725,-6809.445,-34122.105,-45743.805,-7426.62,11024.235
1764434349.022571,30719.475,17860.995,60416.955,-6806.925,-34119.27,-45741.555,-7417.394999999999,11028.51
1764434349.022571,30715.29,17859.42,60417.18,-6809.895,-34122.555,-45745.605,-7411.23,11028.6
1764434349.022571,30713.31,17862.12,60421.185,-6808.86,-34123.005,-45746.73,-7399.394999999999,11033.415
1764434349.022571,30708.045,17860.77,60421.68,-6810.57,-34127.145,-45751.815,-7393.905,11033.28
1764434349.022571,30705.525,17857.755,60417.99,-6813.764999999999,-34129.44,-45754.695,-7396.155,11030.76
1764434349.022571,30711.195,17861.175,60419.34,-6811.875,-34124.94,-45750.15,-7398.719999999999,11033.55
1764434349.022571,30713.4,17858.925,60416.01,-6811.83,-34123.545,-45748.665,-7407.585,11030.625
1764434349.022571,30718.26,17858.745,60413.4,-6811.92,-34123.545,-45745.785,-7418.295,11028.06
1764434349.0250833,30719.025,17858.16,60412.23,-6812.19,-34122.69,-45744.525,-7426.799999999999,11024.19
1764434349.0735028,30721.77,17862.93,60418.98,-6803.91,-34115.58,-45738.405,-7421.58,11027.475
1764434349.0735028,30718.71,17862.165,60418.53,-6805.755,-34118.595,-45741.285,-7417.62,11027.16
1764434349.0735028,30711.6,17858.024999999998,60416.055,-6810.21,-34123.815,-45747.405,-7413.884999999999,11024.91
1764434349.0735028,30710.835,17860.77,60419.745,-6809.355,-34123.545,-45748.845,-7400.924999999999,11029.41
1764434349.0735028,30707.685,17859.285,60418.305,-6812.19,-34126.47,-45752.94,-7394.58,11030.58
1764434349.0735028,30708.18,17859.105,60417.405,-6813.36,-34127.46,-45753.345,-7393.95,11032.38
1764434349.0735028,30712.23,17860.14,60417.045,-6811.335,-34125.255,-45750.78,-7398.674999999999,11033.145
1764434349.0735028,30714.75,17859.239999999998,60414.705,-6811.335,-34122.915,-45747.72,-7406.73,11030.625
1764434349.0735028,30718.485,17859.42,60411.735,-6812.009999999999,-34123.994999999995,-45746.145,-7418.565,11027.52
1764434349.0735028,30723.12,17861.895,60415.02,-6805.71,-34118.82,-45741.24,-7422.48,11028.51
1764434349.0735028,30727.08,17865.989999999998,60418.98,-6801.255,-34113.06,-45735.03,-7416.045,11031.66
1764434349.0735028,30725.235,17868.735,60423.435,-6798.96,-34112.52,-45735.255,-7409.61,11032.83
1764434349.0735028,30722.13,17869.32,60425.595,-6799.32,-34114.545,-45738.945,-7403.085,11034.63
1764434349.0735028,30715.83,17866.125,60424.38,-6802.92,-34119.27,-45744.12,-7394.67,11035.035
1764434349.0735028,30709.845,17862.165,60421.545,-6806.745,-34123.59,-45749.61,-7390.53,11033.28
1764434349.0735028,30707.145,17858.25,60417.405,-6811.695,-34127.505,-45754.155,-7394.13,11031.165
1764434349.0735028,30712.23,17860.5,60417.585,-6809.4,-34123.905,-45750.285,-7396.469999999999,11032.335
1764434349.0735028,30711.96,17856.495,60412.455,-6813.134999999999,-34126.425,-45751.68,-7408.575,11027.295
1764434349.0735028,30717.495,17858.16,60412.635,-6810.929999999999,-34123.23,-45746.82,-7417.665,11026.125
1764434349.0735028,30720.735,17859.87,60413.355,-6808.094999999999,-34119.18,-45742.455,-7422.255,11025.405
1764434349.0735028,30720.195,17859.87,60414.84,-6807.06,-34118.325,-45742.275,-7421.849999999999,11025.72
1764434349.0750136,30719.295,17861.355,60417.495,-6805.349999999999,-34117.47,-45741.825,-7415.054999999999,11028.105
1764434349.0750136,30718.575,17863.92,60421.545,-6802.785,-34115.94,-45741.42,-7403.625,11032.74
1764434349.0750136,30711.645,17860.68,60420.24,-6807.06,-34121.79,-45748.44,-7396.695,11032.02
1764434349.1154644,30712.275,17863.92,60422.49,-6806.925,-34121.655,-45748.26,-7387.38,11037.15
1764434349.1154644,30713.085,17864.28,60421.86,-6806.655,-34121.88,-45748.35,-7387.785,11037.735
1764434349.1154644,30714.705,17863.785,60420.33,-6807.42,-34121.565,-45746.82,-7393.815,11036.565
1764434349.1154644,30713.67,17860.23,60414.57,-6810.929999999999,-34124.04,-45748.62,-7405.92,11031.345
1764434349.1154644,30719.88,17862.39,60415.155,-6807.78,-34119.225,-45742.86,-7413.974999999999,11030.895
1764434349.1154644,30724.245,17863.425,60415.47,-6807.105,-34116.39,-45738.405,-7418.924999999999,11030.805
1764434349.1154644,30724.47,17864.01,60417.045,-6805.395,-34116.84,-45739.08,-7418.745,11030.895
1764434349.1154644,30721.185,17863.335,60419.295,-6802.245,-34114.86,-45739.755,-7413.795,11030.355
1764434349.1167648,30717.09,17862.704999999998,60420.33,-6802.469999999999,-34116.39,-45741.195,-7405.29,11031.615
1764434349.1167648,30713.355,17862.704999999998,60421.23,-6805.304999999999,-34120.485,-45745.695,-7395.884999999999,11033.955
1764434349.1167648,30710.07,17861.85,60420.555,-6807.33,-34123.68,-45749.565,-7390.304999999999,11034.99
1764434349.1167648,30711.6,17863.065,60420.78,-6807.24,-34122.555,-45748.665,-7389.54,11037.105
1764434349.1167648,30718.395,17866.305,60422.58,-6803.865,-34117.47,-45743.625,-7391.429999999999,11039.67
1764434349.1167648,30718.305,17862.57,60418.26,-6806.52,-34120.17,-45744.255,-7402.139999999999,11034.405
1764434349.1167648,30726.27,17866.98,60421.23,-6801.344999999999,-34113.465,-45736.695,-7408.44,11036.205
1764434349.1167648,30726.945,17865.18,60418.575,-6802.29,-34112.88,-45735.57,-7416.63,11033.505
1764434349.1167648,30727.305,17866.395,60419.61,-6800.175,-34111.08,-45734.355,-7414.695,11034.18
1764434349.1167648,30723.795,17865.405,60419.88,-6801.795,-34115.625,-45737.505,-7409.88,11033.955
1764434349.1167648,30721.635,17867.16,60424.155,-6799.905,-34114.815,-45737.865,-7399.98,11037.015
1764434349.1167648,30714.03,17863.29,60423.75,-6802.065,-34118.73,-45743.67,-7393.455,11035.17
1764434349.1167648,30711.645,17860.905,60420.735,-6806.474999999999,-34122.96,-45748.08,-7388.415,11036.7
1764434349.1177757,30717.27,17866.17,60425.55,-6804.0,-34119.72,-45744.705,-7383.644999999999,11042.37
1764434349.1177757,30718.89,17867.835,60428.43,-6798.375,-34114.725,-45740.34,-7388.28,11041.065
1764434349.1177757,30720.825,17864.954999999998,60422.715,-6801.57,-34115.58,-45740.205,-7398.719999999999,11037.33
