Timestamp,Channel1,Channel2,Channel3,Channel4,Channel5,Channel6,Channel7,Channel8
1764434268.8865883,31524.48,18855.495,61308.9,-6481.889999999999,-33647.445,-45829.53,-6829.605,11434.545
1764434268.8865883,31524.705,18852.93,61304.94,-6485.4,-33649.515,-45831.87,-6836.04,11433.015
1764434268.8865883,31527.27,18852.21,61302.735,-6485.04,-33648.615,-45831.195,-6842.88,11431.935
1764434268.8865883,31533.075,18854.685,61302.87,-6482.295,-33645.195,-45826.2,-6849.27,11431.935
1764434268.8865883,31537.98,18856.89,61304.22,-6479.37,-33641.145,-45822.195,-6857.19,11430.945
1764434268.8865883,31540.5,18859.05,61307.055,-6476.13,-33637.77,-45817.965,-6856.605,11432.385
1764434268.8865883,31541.58,18861.435,61311.15,-6472.62,-33634.125,-45812.43,-6847.965,11435.76
1764434268.8865883,31535.145,18857.745,61308.495,-6476.895,-33640.335,-45819.855,-6845.804999999999,11433.42
1764434268.8865883,31535.28,18862.245,61315.335,-6472.304999999999,-33637.68,-45819.045,-6831.54,11438.82
1764434268.8865883,31532.265,18863.235,61318.035,-6471.63,-33637.23,-45819.99,-6822.315,11440.98
1764434268.8865883,31528.755,18861.3,61315.875,-6474.69,-33640.02,-45823.815,-6821.46,11440.98
1764434268.8875875,31528.755,18858.42,61311.645,-6478.065,-33642.45,-45825.615,-6827.264999999999,11438.595
1764434268.8875875,31533.12,18858.915,61310.16,-6478.425,-33641.505,-45824.175,-6835.545,11437.695
1764434268.8875875,31533.795,18855.36,61305.3,-6480.63,-33642.135,-45824.04,-6850.17,11431.215
1764434268.8875875,31533.66,18850.725,61299.09,-6484.139999999999,-33643.8,-45823.995,-6859.755,11427.3
1764434268.8875875,31536.81,18853.785,61302.51,-6480.0,-33640.02,-45819.45,-6856.155,11429.685
1764434268.8875875,31539.51,18859.365,61310.205,-6473.79,-33635.43,-45815.13,-6845.849999999999,11434.95
1764434268.8875875,31533.705,18857.88,61309.53,-6476.715,-33640.11,-45820.89,-6844.545,11432.205
1764434268.8875875,31531.995,18861.345,61314.885,-6473.79,-33638.94,-45821.07,-6835.5,11435.085
1764434268.8875875,31527.585,18859.05,61314.39,-6475.365,-33640.38,-45824.04,-6828.389999999999,11435.67
1764434268.8875875,31526.64,18856.845,61311.24,-6480.09,-33643.8,-45828.225,-6828.75,11435.67
1764434268.8875875,31527.765,18855.36,61308.18,-6483.014999999999,-33646.275,-45829.215,-6835.139999999999,11434.725
1764434268.8875875,31528.035,18853.425,61305.345,-6483.78,-33646.23,-45827.865,-6842.295,11431.53
1764434268.8875875,31530.915,18851.76,61302.735,-6484.185,-33645.915,-45826.92,-6853.005,11427.255
1764434268.932076,31539.42,18856.845,61305.57,-6479.19,-33640.425,-45821.07,-6858.945,11430.135
1764434268.932076,31537.845,18854.685,61302.555,-6480.99,-33642.72,-45823.59,-6861.195,11429.235
1764434268.932076,31539.24,18859.455,61309.575,-6474.87,-33637.23,-45817.965,-6849.81,11434.59
1764434268.932076,31537.62,18862.245,61314.03,-6471.495,-33635.925,-45818.505,-6844.185,11434.95
1764434268.932076,31538.385,18866.655,61319.475,-6468.66,-33633.765,-45816.345,-6831.99,11441.07
1764434268.932076,31531.77,18863.01,61316.73,-6473.52,-33638.715,-45819.225,-6823.889999999999,11441.835
1764434268.932076,31528.935,18862.02,61315.425,-6476.264999999999,-33641.369999999995,-45822.285,-6821.865,11440.845
1764434268.932076,31528.62,18860.31,61313.715,-6476.49,-33640.29,-45823.635,-6829.335,11436.93
1764434268.932076,31534.695,18862.47,61313.265,-6475.275,-33638.04,-45821.79,-6837.795,11436.795
1764434268.932076,31540.905,18864.675,61312.05,-6474.33,-33635.79,-45818.505,-6845.94,11437.605
1764434268.932076,31543.11,18862.425,61308.63,-6475.77,-33635.88,-45817.92,-6855.57,11435.085
1764434268.933076,31542.12,18861.12,61307.325,-6476.355,-33637.275,-45816.75,-6854.625,11433.87
1764434268.933076,31542.435,18865.62,61313.58,-6471.495,-33632.505,-45811.215,-6845.04,11437.155
1764434268.933076,31540.68,18867.06,61316.415,-6470.55,-33632.415,-45813.33,-6840.0,11438.685
1764434268.933076,31532.31,18861.12,61312.86,-6477.344999999999,-33640.065,-45822.24,-6834.915,11436.255
1764434268.933076,31526.55,18859.32,61312.32,-6480.495,-33643.755,-45827.145,-6829.425,11436.39
1764434268.933076,31528.035,18861.615,61314.345,-6479.46,-33644.205,-45827.37,-6826.905,11438.01
1764434268.933076,31533.03,18864.09,61315.425,-6476.31,-33639.705,-45822.42,-6828.03,11440.575
1764434268.933076,31536.045,18863.235,61313.535,-6476.355,-33638.13,-45820.215,-6835.545,11439.135
1764434268.933076,31536.63,18859.005,61307.055,-6479.685,-33641.595,-45822.69,-6850.395,11433.105
1764434268.9771788,31538.61,18858.015,61305.255,-6478.605,-33638.715,-45818.91,-6857.639999999999,11431.845
1764434268.9771788,31542.12,18861.795,61309.035,-6474.195,-33634.08,-45813.645,-6856.065,11433.69
1764434268.9771788,31545.27,18866.52,61315.155,-6469.02,-33629.355,-45809.91,-6847.11,11437.605
1764434268.9771788,31538.385,18862.56,61312.995,-6473.16,-33635.34,-45815.94,-6842.295,11435.49
1764434268.9771788,31528.62,18857.97,61309.62,-6478.83,-33643.17,-45823.815,-6835.094999999999,11432.88
1764434268.9771788,31528.08,18861.345,61314.795,-6476.58,-33641.865,-45824.355,-6825.554999999999,11437.02
1764434268.9781816,31526.505,18858.96,61312.185,-6480.179999999999,-33645.285,-45829.89,-6831.315,11434.77
1764434268.9781816,31527.18,18855.765,61306.83,-6483.105,-33647.895,-45831.69,-6842.16,11431.71
1764434268.9781816,31528.98,18854.73,61304.22,-6484.23,-33646.815,-45828.63,-6846.21,11429.73
1764434268.9781816,31533.255,18854.82,61303.86,-6483.105,-33644.205,-45825.165,-6853.77,11428.92
1764434268.9781816,31536.0,18854.775,61302.78,-6481.17,-33641.19,-45820.845,-6861.105,11427.21
1764434268.9781816,31538.16,18857.565,61305.57,-6477.12,-33637.23,-45816.57,-6860.34,11428.02
1764434268.9781816,31538.385,18859.545,61308.54,-6476.94,-33639.119999999995,-45817.38,-6854.4,11429.91
1764434268.9781816,31533.255,18857.475,61307.82,-6479.639999999999,-33644.655,-45822.825,-6849.54,11429.01
1764434268.978706,31526.325,18855.45,61307.73,-6480.99,-33646.635,-45827.055,-6840.81,11429.595
1764434268.978706,31522.905,18855.045,61308.45,-6481.98,-33649.11,-45831.105,-6833.969999999999,11430.675
1764434268.978706,31518.81,18851.175,61304.355,-6487.695,-33653.655,-45836.055,-6835.634999999999,11427.39
1764434268.978706,31519.98,18850.545,61302.195,-6488.325,-33652.89,-45834.705,-6839.37,11426.67
1764434268.978706,31526.685,18853.47,61304.895,-6483.825,-33647.49,-45828.225,-6841.44,11429.73
1764434268.978706,31532.67,18855.045,61305.03,-6482.34,-33645.24,-45824.715,-6850.485,11429.235
1764434268.978706,31535.595,18855.18,61303.86,-6482.474999999999,-33644.565,-45824.175,-6862.905,11425.905
1764434268.978706,31531.95,18850.68,61298.91,-6486.165,-33649.02,-45827.91,-6866.639999999999,11422.8
1764434268.9797132,31532.895,18854.145,61304.085,-6482.79,-33648.075,-45825.795,-6858.54,11426.985
1764434268.9797132,31526.415,18852.03,61302.33,-6486.48,-33651.36,-45829.08,-6853.5,11424.735
1764434269.0228667,31520.745,18851.625,61304.085,-6484.995,-33649.244999999995,-45832.23,-6846.84,11423.025
1764434269.0228667,31517.1,18851.67,61306.74,-6483.465,-33649.02,-45832.41,-6836.67,11425.59
1764434269.0228667,31515.435,18849.645,61304.4,-6485.804999999999,-33651.27,-45833.67,-6834.105,11425.545
1764434269.0228667,31521.96,18853.425,61306.47,-6482.16,-33647.895,-45829.98,-6835.995,11428.65
1764434269.0228667,31523.76,18850.455,61300.665,-6485.849999999999,-33651.945,-45833.085,-6847.695,11424.69
1764434269.0244117,31533.885,18857.745,61305.615,-6479.91,-33644.25,-45824.805,-6854.715,11428.11
1764434269.0244117,31537.53,18857.43,61305.705,-6478.605,-33641.55,-45820.845,-6860.25,11427.885
1764434269.0244117,31537.935,18856.17,61304.31,-6478.065,-33641.865,-45820.755,-6862.275,11427.75
1764434269.0244117,31537.125,18858.87,61308.405,-6473.745,-33637.905,-45817.29,-6853.545,11429.91
1764434269.0244117,31534.02,18860.4,61312.545,-6470.865,-33635.97,-45816.84,-6845.625,11431.215
1764434269.0244117,31530.285,18860.31,61313.355,-6473.115,-33640.515,-45822.645,-6838.74,11433.15
1764434269.0244117,31520.745,18852.57,61306.83,-6482.565,-33650.955,-45832.41,-6836.58,11430.135
1764434269.0244117,31521.105,18852.705,61306.245,-6484.365,-33652.395,-45834.03,-6835.275,11431.395
1764434269.0244117,31520.52,18849.78,61302.15,-6487.469999999999,-33655.23,-45836.28,-6843.24,11427.21
1764434269.0244117,31522.68,18850.095,61300.395,-6486.75,-33654.24,-45834.39,-6850.395,11425.41
1764434269.0254345,31530.375,18853.92,61302.87,-6481.349999999999,-33646.14,-45825.84,-6855.255,11427.21
1764434269.0264254,31535.64,18855.945,61304.67,-6476.849999999999,-33640.695,-45820.575,-6860.61,11426.58
1764434269.0264254,31537.71,18857.61,61307.46,-6474.645,-33638.175,-45817.515,-6859.44,11427.795
1764434269.0264254,31531.905,18853.38,61304.94,-6478.11,-33642.18,-45820.98,-6857.594999999999,11426.175
1764434269.0264254,31521.51,18846.855,61299.81,-6485.58,-33651.405,-45830.16,-6857.639999999999,11419.875
1764434269.0264254,31518.99,18848.79,61302.555,-6486.03,-33654.375,-45833.04,-6844.95,11423.43
1764434269.0264254,31517.145,18849.33,61304.4,-6486.48,-33655.455,-45835.695,-6839.37,11424.6
1764434269.0264254,31519.395,18851.31,61305.795,-6484.995,-33653.925,-45835.47,-6839.099999999999,11426.22
1764434269.0264254,31523.445,18854.01,61306.785,-6482.565,-33650.64,-45832.95,-6842.745,11426.58
1764434269.0717986,31527.135,18853.605,61304.535,-6482.655,-33649.47,-45829.935,-6849.179999999999,11425.815
1764434269.0733056,31530.06,18851.895,61300.935,-6483.645,-33648.345,-45827.505,-6859.755,11423.97
1764434269.0733056,31531.185,18849.915,61298.055,-6484.815,-33649.244999999995,-45826.56,-6867.719999999999,11420.505
1764434269.0733056,31535.235,18854.19,61303.185,-6479.639999999999,-33642.945,-45820.845,-6863.355,11423.34
1764434269.0733056,31534.65,18856.125,61306.695,-6478.02,-33642.135,-45821.025,-6857.955,11425.77
1764434269.0733056,31530.51,18855.27,61307.37,-6479.009999999999,-33645.24,-45823.815,-6852.96,11425.77
1764434269.0733056,31525.02,18854.64,61308.18,-6480.09,-33647.625,-45826.92,-6844.5,11426.985
1764434269.0733056,31519.755,18852.525,61308.045,-6481.71,-33650.19,-45831.06,-6837.075,11427.48
1764434269.0733056,31514.445,18847.26,61303.5,-6486.344999999999,-33654.555,-45835.83,-6840.27,11422.44
1764434269.0733056,31520.925,18851.76,61306.47,-6482.295,-33648.795,-45829.89,-6841.395,11426.22
1764434269.0733056,31524.885,18852.615,61305.57,-6481.889999999999,-33646.905,-45828.315,-6850.665,11424.78
1764434269.0733056,31527.405,18849.645,61300.035,-6484.05,-33647.76,-45827.955,-6862.23,11421.855
1764434269.0733056,31529.565,18847.485,61295.76,-6485.715,-33649.83,-45828.315,-6872.31,11419.11
1764434269.0733056,31527.045,18845.145,61293.69,-6488.685,-33653.43,-45831.465,-6876.315,11416.5
1764434269.0733056,31529.25,18850.32,61301.385,-6482.07,-33647.4,-45826.38,-6862.995,11422.62
1764434269.0733056,31524.3,18849.645,61302.87,-6482.655,-33648.75,-45828.27,-6855.3,11423.43
1764434269.0733056,31519.98,18849.915,61304.895,-6483.195,-33650.955,-45831.645,-6846.615,11424.87
1764434269.0733056,31517.775,18851.31,61307.415,-6482.025,-33650.595,-45832.005,-6839.594999999999,11425.455
1764434269.0733056,31516.56,18851.04,61306.695,-6483.014999999999,-33651.72,-45834.525,-6840.945,11423.925
1764434269.0733056,31515.705,18847.17,61301.43,-6486.344999999999,-33653.835,-45837.27,-6850.17,11420.01
1764434269.0733056,31520.385,18847.215,61300.17,-6487.245,-33653.34,-45835.02,-6856.514999999999,11420.64
1764434269.0733056,31529.97,18851.085,61301.61,-6483.915,-33648.705,-45828.045,-6862.23,11423.97
1764434269.0733056,31533.705,18850.815,61300.35,-6481.98,-33645.869999999995,-45825.48,-6869.34,11422.8
1764434269.0733056,31535.55,18853.065,61302.555,-6479.594999999999,-33643.395,-45822.285,-6865.83,11424.06
1764434269.118336,31534.605,18854.055,61304.535,-6479.28,-33644.16,-45823.365,-6859.349999999999,11425.59
1764434269.118336,31529.835,18853.515,61306.02,-6479.82,-33645.555,-45826.515,-6853.094999999999,11426.445
1764434269.118336,31523.94,18852.345,61307.505,-6481.395,-33648.615,-45830.79,-6844.185,11426.355
1764434269.118336,31516.47,18848.745,61304.895,-6485.985,-33655.185,-45838.98,-6842.52,11423.655
1764434269.118336,31515.345,18847.35,61302.555,-6489.405,-33658.695,-45841.455,-6842.88,11422.485
1764434269.118336,31518.36,18847.98,61301.655,-6489.36,-33657.255,-45837.54,-6845.804999999999,11422.035
1764434269.118336,31522.095,18848.97,61301.61,-6487.335,-33653.115,-45832.005,-6852.15,11420.325
1764434269.118336,31526.505,18848.7,61299.765,-6485.13,-33648.795,-45828.09,-6861.465,11420.19
1764434269.118336,31529.295,18848.475,61298.145,-6484.094999999999,-33647.715,-45826.245,-6869.115,11418.93
1764434269.118336,31533.39,18853.605,61304.31,-6478.245,-33641.865,-45820.17,-6861.915,11424.6
1764434269.118336,31532.985,18855.72,61308.135,-6475.77,-33641.055,-45819.9,-6858.27,11426.535
1764434269.118336,31530.645,18856.62,61310.655,-6475.5,-33642.09,-45822.6,-6855.12,11426.445
1764434269.118336,31522.185,18851.76,61306.83,-6481.53,-33649.065,-45830.475,-6846.795,11425.545
1764434269.118336,31517.955,18849.24,61306.29,-6484.365,-33653.295,-45834.615,-6840.855,11426.085
1764434269.118336,31518.675,18849.735,61306.74,-6484.995,-33653.7,-45836.055,-6842.565,11426.13
1764434269.118336,31519.215,18847.71,61303.095,-6487.65,-33654.825,-45836.37,-6846.795,11424.645
1764434269.118336,31524.84,18849.42,61303.635,-6485.49,-33651.855,-45832.545,-6852.78,11425.635
1764434269.118336,31526.595,18846.675,61298.505,-6487.785,-33652.755,-45833.265,-6867.9,11420.055
1764434269.118336,31527.945,18845.505,61296.57,-6486.974999999999,-33651.0,-45830.115,-6874.425,11417.355
1764434269.118336,31529.52,18848.115,61299.18,-6484.59,-33648.21,-45826.02,-6870.33,11419.38
1764434269.118336,31534.335,18855.63,61308.36,-6477.21,-33642.54,-45821.295,-6859.349999999999,11426.31
1764434269.118336,31531.005,18855.585,61309.665,-6478.335,-33645.24,-45825.12,-6854.67,11426.76
1764434269.118336,31524.525,18852.975,61308.18,-6481.665,-33650.73,-45830.295,-6845.67,11427.435
1764434269.118336,31521.015,18852.66,61309.035,-6481.8,-33650.865,-45832.365,-6838.695,11428.155
1764434269.1633742,31517.685,18849.24,61305.21,-6485.94,-33654.105,-45836.055,-6842.205,11425.14
1764434269.1633742,31520.835,18850.185,61305.165,-6484.365,-33651.675,-45832.59,-6845.264999999999,11425.95
1764434269.1633742,31529.52,18856.71,61309.26,-6478.83,-33644.88,-45824.265,-6846.884999999999,11430.045
1764434269.1633742,31532.31,18855.54,61305.84,-6478.425,-33643.53,-45822.015,-6858.09,11427.345
1764434269.1633742,31531.14,18850.14,61299.495,-6482.205,-33646.994999999995,-45824.445,-6869.835,11421.0
1764434269.1633742,31533.255,18853.245,61303.545,-6477.525,-33642.63,-45820.26,-6868.08,11422.755
1764434269.1633742,31535.64,18857.025,61308.315,-6475.139999999999,-33641.19,-45819.045,-6858.179999999999,11428.155
1764434269.1633742,31527.405,18851.94,61304.31,-6481.349999999999,-33649.11,-45826.83,-6855.03,11424.51
1764434269.1633742,31523.94,18854.145,61307.955,-6479.73,-33649.515,-45828.315,-6843.78,11426.4
1764434269.1633742,31524.21,18857.97,61312.455,-6477.389999999999,-33648.615,-45828.045,-6835.185,11431.08
1764434269.1633742,31521.78,18854.91,61309.62,-6480.179999999999,-33650.82,-45829.845,-6836.219999999999,11429.82
1764434269.1633742,31522.41,18853.875,61307.01,-6480.495,-33650.325,-45830.025,-6844.545,11427.345
1764434269.1633742,31523.265,18850.95,61302.42,-6483.554999999999,-33651.855,-45830.655,-6852.42,11424.915
1764434269.1633742,31526.28,18848.385,61297.785,-6485.355,-33652.395,-45829.71,-6866.505,11419.785
1764434269.1643963,31532.445,18851.355,61300.395,-6481.304999999999,-33648.48,-45824.625,-6873.615,11420.01
1764434269.1643963,31532.355,18851.715,61301.52,-6480.405,-33645.869999999995,-45820.98,-6867.045,11422.17
1764434269.1643963,31536.945,18859.005,61310.61,-6472.53,-33639.03,-45815.22,-6853.634999999999,11429.01
1764434269.1643963,31535.685,18860.895,61314.345,-6471.99,-33639.885,-45818.955,-6849.585,11430.36
1764434269.1643963,31527.675,18855.72,61309.935,-6478.469999999999,-33647.4,-45827.82,-6844.365,11429.685
1764434269.1643963,31522.455,18851.76,61307.1,-6483.195,-33653.744999999995,-45832.86,-6840.764999999999,11428.83
1764434269.1643963,31518.63,18849.735,61304.535,-6486.03,-33657.705,-45834.795,-6840.315,11427.12
1764434269.1643963,31523.13,18853.83,61307.55,-6481.8,-33651.135,-45828.405,-6841.44,11429.46
1764434269.1643963,31529.295,18855.585,61308.45,-6479.054999999999,-33646.77,-45824.805,-6851.61,11428.875
1764434269.1643963,31533.975,18855.0,61305.975,-6477.974999999999,-33644.565,-45821.97,-6861.509999999999,11428.065
1764434269.2090552,31532.67,18851.085,61300.395,-6481.035,-33646.14,-45821.745,-6868.98,11423.88
1764434269.2090552,31533.93,18852.705,61303.185,-6478.425,-33645.24,-45821.295,-6871.275,11423.295
1764434269.2090552,31533.66,18855.72,61307.325,-6475.95,-33644.295,-45820.665,-6864.344999999999,11425.77
1764434269.2090552,31527.045,18852.21,61305.48,-6480.045,-33650.325,-45826.785,-6858.585,11425.095
1764434269.2090552,31526.415,18856.485,61312.275,-6474.78,-33646.68,-45825.255,-6844.094999999999,11431.035
1764434269.2090552,31521.105,18854.46,61310.295,-6478.11,-33650.369999999995,-45830.835,-6840.405,11429.235
1764434269.2090552,31519.575,18851.895,61307.235,-6481.08,-33652.935,-45832.545,-6840.764999999999,11428.605
1764434269.2090552,31522.95,18851.625,61305.975,-6480.405,-33651.72,-45830.475,-6846.12,11428.38
1764434269.2090552,31528.215,18853.875,61306.74,-6479.37,-33648.93,-45826.605,-6853.41,11428.65
1764434269.2090552,31537.35,18858.195,61308.81,-6474.465,-33642.81,-45818.865,-6858.405,11431.71
1764434269.2090552,31540.455,18858.825,61308.27,-6473.115,-33640.425,-45815.895,-6863.4,11431.305
1764434269.2090552,31538.925,18859.455,61309.35,-6471.585,-33639.48,-45814.95,-6862.545,11430.405
1764434269.2090552,31539.42,18863.46,61314.165,-6468.344999999999,-33636.915,-45813.15,-6853.905,11432.97
1764434269.2090552,31534.65,18861.93,61315.56,-6469.38,-33638.895,-45815.715,-6848.505,11431.44
1764434269.2090552,31529.43,18859.95,61316.775,-6469.38,-33640.74,-45818.37,-6838.965,11433.285
1764434269.2090552,31526.145,18857.16,61314.12,-6474.599999999999,-33647.04,-45825.66,-6835.32,11434.41
1764434269.2090552,31523.535,18854.145,61310.385,-6478.38,-33651.72,-45830.205,-6838.605,11432.835
1764434269.2090552,31525.92,18855.63,61310.61,-6476.849999999999,-33649.11,-45827.82,-6843.33,11432.52
1764434269.2090552,31525.92,18851.535,61304.625,-6481.485,-33651.855,-45830.79,-6857.28,11426.31
1764434269.2090552,31533.93,18854.46,61305.165,-6478.514999999999,-33646.455,-45824.895,-6863.804999999999,11428.38
1764434269.2568138,31538.34,18856.395,61305.795,-6475.59,-33643.395,-45820.395,-6868.98,11428.38
1764434269.2568138,31536.09,18855.045,61306.065,-6475.724999999999,-33644.025,-45820.98,-6868.08,11426.895
1764434269.2568138,31534.605,18855.81,61307.955,-6475.365,-33643.485,-45819.495,-6858.63,11430.18
1764434269.2568138,31528.44,18854.145,61307.235,-6477.705,-33647.22,-45823.95,-6851.655,11428.92
1764434269.2568138,31528.305,18859.41,61314.3,-6472.8,-33643.395,-45821.43,-6839.19,11434.41
1764434269.2568138,31522.77,18855.765,61311.645,-6477.389999999999,-33647.58,-45827.325,-6839.955,11431.53
1764434269.2568138,31522.455,18854.955,61310.295,-6479.19,-33650.145,-45829.8,-6842.295,11430.36
1764434269.2568138,31524.255,18853.38,61307.145,-6480.9,-33650.595,-45829.215,-6847.965,11429.145
1764434269.2568138,31523.76,18849.33,61301.835,-6484.77,-33652.619999999995,-45830.07,-6858.134999999999,11424.78
1764434269.2568138,31527.54,18849.105,61299.945,-6483.87,-33651.18,-45827.37,-6869.07,11421.855
1764434269.2568138,31534.155,18852.975,61303.185,-6478.605,-33646.095,-45821.205,-6871.005,11423.655
1764434269.2568138,31531.32,18850.815,61302.195,-6478.83,-33646.545,-45820.89,-6872.849999999999,11420.73
1764434269.2568138,31534.335,18856.26,61308.135,-6474.509999999999,-33643.17,-45818.595,-6861.33,11427.12
1764434269.2568138,31530.285,18857.34,61310.79,-6473.474999999999,-33643.89,-45819.225,-6849.179999999999,11429.055
1764434269.2568138,31524.345,18857.475,61314.165,-6472.44,-33644.43,-45820.17,-6835.455,11430.36
1764434269.2583208,31520.385,18856.62,61313.895,-6473.52,-33646.635,-45823.32,-6834.105,11429.415
1764434269.2583208,31524.39,18856.755,61312.545,-6476.264999999999,-33648.345,-45826.875,-6842.7,11429.91
1764434269.2583208,31519.935,18848.61,61302.375,-6485.085,-33655.32,-45833.265,-6853.724999999999,11424.51
1764434269.2583208,31526.37,18851.085,61303.14,-6483.15,-33653.205,-45828.855,-6858.63,11425.77
1764434269.2583208,31531.545,18849.645,61299.63,-6484.545,-33653.61,-45827.37,-6870.465,11423.295
1764434269.2583208,31531.635,18848.16,61297.515,-6483.825,-33651.45,-45825.3,-6875.91,11421.18
1764434269.2583208,31531.185,18848.655,61300.17,-6480.179999999999,-33650.325,-45823.725,-6873.84,11420.595
1764434269.2583208,31533.39,18854.505,61307.82,-6474.42,-33646.23,-45819.63,-6862.32,11425.995
1764434269.2583208,31526.865,18851.76,61306.965,-6477.66,-33651.0,-45824.49,-6856.965,11424.42
1764434269.3050077,31523.535,18852.57,61309.665,-6478.38,-33652.935,-45827.37,-6846.12,11426.94
1764434269.3050077,31525.785,18856.89,61314.12,-6475.365,-33650.145,-45826.065,-6836.04,11432.16
1764434269.3050077,31526.505,18856.44,61312.995,-6477.21,-33651.494999999995,-45827.73,-6839.865,11431.71
1764434269.3050077,31525.335,18853.56,61308.81,-6479.685,-33652.035,-45826.83,-6846.84,11429.235
1764434269.3050077,31527.315,18852.12,61305.48,-6481.53,-33651.855,-45824.67,-6855.3,11427.03
1764434269.3050077,31531.5,18852.165,61303.455,-6480.719999999999,-33649.875,-45822.015,-6866.28,11422.62
1764434269.3050077,31538.43,18856.395,61307.55,-6475.32,-33644.115,-45816.075,-6866.685,11426.175
1764434269.3050077,31539.51,18857.835,61309.485,-6472.17,-33642.675,-45814.725,-6865.245,11428.155
1764434269.3050077,31534.245,18854.91,61308.495,-6474.465,-33645.51,-45819.135,-6863.31,11426.715
1764434269.3050077,31525.155,18848.835,61303.905,-6480.945,-33652.619999999995,-45827.415,-6861.014999999999,11422.35
1764434269.3050077,31522.635,18850.995,61307.46,-6480.315,-33654.015,-45829.305,-6848.505,11425.41
1764434269.3050077,31523.535,18855.45,61312.905,-6477.12,-33651.09,-45827.145,-6839.145,11430.135
1764434269.3050077,31520.835,18853.38,61311.105,-6477.57,-33650.685,-45827.235,-6842.7,11428.335
1764434269.3050077,31518.135,18845.955,61301.88,-6486.03,-33658.155,-45834.48,-6854.04,11422.89
1764434269.3064897,31523.49,18846.855,61300.665,-6486.84,-33657.885,-45832.5,-6860.565,11423.025
1764434269.3064897,31529.205,18848.745,61301.745,-6482.655,-33652.17,-45825.345,-6866.639999999999,11422.53
1764434269.3064897,31528.71,18846.72,61298.91,-6482.969999999999,-33651.315,-45824.58,-6872.804999999999,11418.435
1764434269.3064897,31534.92,18854.325,61306.785,-6474.915,-33644.295,-45817.92,-6867.0,11424.105
1764434269.3064897,31539.42,18860.895,61315.155,-6468.75,-33640.065,-45814.77,-6860.88,11429.685
1764434269.3064897,31530.6,18855.36,61310.88,-6475.679999999999,-33647.895,-45821.385,-6854.49,11427.255
1764434269.3064897,31521.78,18850.635,61308.315,-6480.27,-33653.34,-45828.18,-6845.264999999999,11426.58
1764434269.3064897,31520.07,18850.545,61308.675,-6480.63,-33654.105,-45831.015,-6843.645,11426.625
1764434269.3064897,31520.745,18849.96,61307.955,-6481.844999999999,-33655.005,-45831.195,-6845.219999999999,11426.76
1764434269.3064897,31520.7,18846.945,61302.96,-6485.264999999999,-33657.345,-45831.96,-6853.634999999999,11423.43
1764434269.3505666,31526.685,18850.545,61304.13,-6482.52,-33652.845,-45827.73,-6860.52,11424.87
1764434269.3505666,31531.635,18851.715,61304.175,-6479.955,-33647.67,-45822.015,-6866.73,11423.97
1764434269.351074,31535.505,18853.425,61304.67,-6477.21,-33645.465,-45819.63,-6872.445,11422.89
1764434269.351074,31538.07,18856.035,61307.73,-6474.735,-33644.295,-45818.64,-6870.105,11425.455
1764434269.351074,31534.155,18855.72,61308.99,-6474.33,-33644.7,-45818.505,-6862.905,11426.895
1764434269.351074,31525.38,18851.355,61307.145,-6477.389999999999,-33648.75,-45823.68,-6858.764999999999,11422.395
1764434269.351074,31521.645,18850.905,61308.81,-6478.02,-33650.46,-45826.29,-6849.945,11424.555
1764434269.351074,31519.035,18850.14,61308.585,-6481.08,-33653.655,-45829.89,-6845.849999999999,11424.51
1764434269.351074,31519.755,18850.185,61307.505,-6481.889999999999,-33654.42,-45830.52,-6846.525,11425.185
1764434269.351074,31525.38,18852.345,61307.55,-6480.495,-33651.9,-45826.38,-6850.08,11427.975
1764434269.351074,31524.93,18849.285,61302.195,-6482.429999999999,-33652.8,-45827.505,-6861.465,11422.71
1764434269.351074,31528.215,18848.475,61299.36,-6481.755,-33651.18,-45825.57,-6873.03,11418.885
1764434269.351074,31532.31,18850.23,61300.575,-6479.955,-33648.3,-45822.645,-6877.17,11419.38
1764434269.351074,31531.41,18850.005,61300.53,-6479.639999999999,-33648.615,-45822.555,-6876.224999999999,11419.335
1764434269.351074,31529.205,18852.03,61304.265,-6479.28,-33648.57,-45823.005,-6868.44,11421.495
1764434269.351074,31518.945,18846.18,61301.25,-6483.87,-33654.465,-45828.81,-6864.615,11416.995
1764434269.351074,31516.02,18846.405,61304.085,-6483.195,-33655.275,-45830.88,-6853.365,11419.155
1764434269.351074,31515.75,18847.53,61306.02,-6483.42,-33655.86,-45832.725,-6847.065,11421.63
1764434269.351074,31517.73,18848.61,61305.705,-6483.825,-33656.085,-45832.815,-6849.09,11422.485
1764434269.3520875,31522.725,18850.23,61305.3,-6481.844999999999,-33652.89,-45829.755,-6853.185,11423.745
1764434269.3520875,31523.67,18847.395,61300.845,-6484.005,-33652.98,-45828.855,-6864.57,11420.055
1764434269.3520875,31528.08,18847.98,61299.72,-6483.24,-33650.91,-45825.03,-6873.255,11418.165
1764434269.3520875,31532.31,18850.32,61301.655,-6479.415,-33648.165,-45820.89,-6878.205,11417.625
1764434269.3520875,31532.175,18850.815,61302.33,-6478.38,-33647.805,-45819.72,-6876.54,11418.885
1764434269.4001276,31531.815,18852.84,61305.93,-6477.389999999999,-33648.66,-45819.72,-6867.495,11423.295
1764434269.4001276,31524.03,18849.06,61303.905,-6480.63,-33653.655,-45825.57,-6862.545,11420.28
1764434269.4001276,31521.195,18850.455,61307.145,-6480.224999999999,-33654.915,-45828.27,-6851.34,11422.395
1764434269.4001276,31522.41,18853.29,61310.385,-6478.83,-33653.565,-45827.82,-6843.599999999999,11426.445
1764434269.4001276,31519.395,18849.285,61305.39,-6483.645,-33657.255,-45832.59,-6847.56,11423.385
1764434269.4001276,31520.43,18848.07,61303.095,-6483.24,-33655.41,-45830.25,-6851.34,11422.755
1764434269.4001276,31522.77,18847.395,61302.105,-6481.215,-33651.945,-45825.84,-6857.46,11420.73
1764434269.4001276,31528.485,18848.79,61301.43,-6479.594999999999,-33648.975,-45821.025,-6867.495,11420.37
1764434269.4001276,31538.88,18855.9,61307.1,-6473.025,-33642.54,-45814.095,-6872.264999999999,11424.645
1764434269.4001276,31537.17,18853.425,61304.85,-6474.465,-33644.97,-45817.515,-6876.179999999999,11423.7
1764434269.4001276,31533.66,18851.985,61304.31,-6475.995,-33647.76,-45820.44,-6868.304999999999,11424.645
1764434269.4001276,31529.745,18852.705,61307.235,-6475.905,-33649.244999999995,-45821.205,-6858.405,11425.86
1764434269.4001276,31524.48,18853.56,61310.295,-6477.389999999999,-33652.44,-45824.49,-6849.719999999999,11426.31
1764434269.4001276,31523.49,18854.73,61312.68,-6475.679999999999,-33650.28,-45825.3,-6843.15,11428.29
1764434269.4001276,31524.03,18853.335,61310.16,-6478.469999999999,-33652.395,-45828.27,-6846.255,11427.66
1764434269.4001276,31525.92,18851.445,61307.28,-6479.82,-33653.385,-45828.765,-6854.4,11426.355
1764434269.4001276,31527.945,18850.545,61304.265,-6480.315,-33652.08,-45826.965,-6863.264999999999,11422.845
1764434269.4001276,31527.81,18846.135,61298.055,-6482.969999999999,-33653.52,-45826.65,-6877.215,11416.545
1764434269.4001276,31529.565,18845.505,61297.11,-6482.835,-33652.17,-45824.85,-6881.625,11415.195
1764434269.4001276,31530.555,18849.15,61302.015,-6478.335,-33648.3,-45820.44,-6875.054999999999,11418.48
1764434269.4001276,31534.02,18856.845,61311.555,-6470.145,-33642.225,-45815.04,-6860.52,11425.23
1764434269.4001276,31532.625,18859.995,61316.46,-6467.849999999999,-33641.145,-45814.77,-6848.955,11428.965
1764434269.4001276,31528.845,18858.645,61316.91,-6470.325,-33644.744999999995,-45819.63,-6841.62,11431.035
1764434269.4011395,31521.645,18850.68,61308.585,-6479.19,-33655.005,-45830.97,-6849.63,11425.005
1764434269.445176,31516.785,18844.11,61300.71,-6486.255,-33661.35,-45837.495,-6857.865,11419.11
1764434269.445176,31517.73,18843.795,61300.035,-6486.03,-33659.595,-45833.895,-6860.655,11418.12
1764434269.445176,31525.11,18848.385,61303.725,-6479.505,-33652.17,-45825.39,-6863.04,11420.415
1764434269.445176,31532.58,18852.12,61305.21,-6475.365,-33647.58,-45820.305,-6872.31,11419.965
1764434269.445176,31529.925,18846.675,61298.37,-6480.495,-33652.35,-45823.185,-6881.13,11415.645
1764434269.445176,31527.27,18844.155,61296.435,-6482.07,-33654.015,-45824.31,-6879.465,11414.7
1764434269.445176,31533.12,18852.3,61305.57,-6475.365,-33649.695,-45821.115,-6868.53,11422.8
1764434269.445176,31529.385,18852.48,61307.055,-6477.03,-33652.53,-45824.445,-6861.78,11424.42
1764434269.445176,31523.895,18850.635,61307.955,-6478.965,-33655.68,-45828.765,-6852.285,11424.87
1764434269.445176,31521.375,18850.095,61308.27,-6479.19,-33655.59,-45829.53,-6847.56,11425.5
1764434269.4461954,31520.295,18848.43,61305.795,-6481.53,-33657.165,-45830.7,-6850.08,11423.16
1764434269.4461954,31521.78,18847.35,61303.005,-6482.34,-33657.345,-45830.61,-6856.29,11421.72
1764434269.4461954,31526.595,18848.925,61303.41,-6479.955,-33653.295,-45827.28,-6864.48,11420.55
1764434269.4461954,31533.345,18850.77,61303.905,-6476.219999999999,-33649.74,-45822.105,-6873.795,11420.01
1764434269.4461954,31534.29,18848.34,61300.485,-6479.19,-33652.17,-45822.6,-6879.735,11419.785
1764434269.4461954,31533.12,18848.97,61301.7,-6477.795,-33650.1,-45819.99,-6876.179999999999,11420.685
1764434269.4461954,31529.07,18849.105,61304.13,-6476.219999999999,-33650.055,-45819.945,-6868.17,11420.955
1764434269.4481945,31520.205,18844.605,61301.79,-6480.405,-33656.04,-45826.47,-6865.2,11416.635
1764434269.4481945,31515.255,18843.795,61302.555,-6482.16,-33659.595,-45832.365,-6857.91,11417.22
1764434269.4481945,31512.33,18843.705,61302.375,-6484.275,-33661.98,-45836.64,-6853.86,11417.58
1764434269.4481945,31516.38,18846.63,61303.635,-6482.969999999999,-33660.09,-45834.615,-6851.969999999999,11421.405
1764434269.4481945,31520.565,18846.63,61303.005,-6483.195,-33658.02,-45832.455,-6855.929999999999,11422.845
1764434269.4481945,31520.97,18843.12,61298.46,-6486.389999999999,-33658.74,-45832.095,-6869.07,11417.04
1764434269.4481945,31525.245,18843.84,61297.02,-6483.465,-33655.005,-45827.37,-6883.29,11413.17
1764434269.4933348,31530.465,18846.045,61298.235,-6481.08,-33652.845,-45825.165,-6887.88,11415.375
1764434269.4933348,31528.485,18846.315,61299.09,-6480.134999999999,-33652.305,-45823.905,-6881.4,11416.455
1764434269.4933348,31525.065,18847.305,61302.375,-6477.974999999999,-33650.82,-45823.59,-6870.87,11417.67
1764434269.4933348,31519.26,18845.325,61301.88,-6480.045,-33655.005,-45828.855,-6864.929999999999,11416.095
1764434269.4943547,31522.455,18851.445,61309.08,-6475.995,-33651.09,-45827.145,-6852.69,11422.62
1764434269.4943547,31518.63,18848.295,61305.435,-6480.045,-33655.32,-45832.32,-6853.5,11421.675
1764434269.4943547,31517.01,18845.865,61301.97,-6483.15,-33657.39,-45832.995,-6853.365,11421.405
1764434269.4943547,31515.03,18841.41,61296.3,-6487.605,-33660.855,-45835.29,-6862.995,11416.095
1764434269.4943547,31519.305,18842.58,61295.67,-6487.38,-33659.91,-45832.995,-6869.969999999999,11415.195
1764434269.4943547,31525.785,18845.505,61296.435,-6483.645,-33655.23,-45825.885,-6876.045,11415.33
1764434269.4943547,31532.265,18850.005,61300.485,-6478.29,-33649.695,-45820.17,-6880.679999999999,11416.365
1764434269.4943547,31536.135,18853.425,61304.445,-6475.23,-33646.32,-45817.875,-6877.665,11420.505
1764434269.4943547,31534.785,18855.27,61307.685,-6473.025,-33646.095,-45817.74,-6867.179999999999,11424.33
1764434269.4943547,31526.775,18851.67,61306.11,-6476.67,-33651.18,-45823.545,-6862.275,11421.63
1764434269.4943547,31526.01,18854.91,61312.095,-6473.79,-33649.605,-45823.23,-6848.639999999999,11426.85
1764434269.4943547,31525.47,18856.035,61313.94,-6473.925,-33650.91,-45824.58,-6842.61,11428.83
1764434269.4943547,31525.11,18854.595,61312.185,-6474.96,-33651.585,-45824.535,-6844.679999999999,11427.3
1764434269.4943547,31526.55,18853.56,61309.71,-6475.724999999999,-33651.494999999995,-45824.94,-6856.245,11424.015
1764434269.4943547,31528.17,18851.265,61305.345,-6476.94,-33651.585,-45824.04,-6866.594999999999,11421.36
1764434269.4943547,31530.375,18849.15,61301.07,-6478.74,-33651.27,-45821.79,-6876.81,11418.75
1764434269.4943547,31535.19,18852.84,61304.31,-6473.655,-33645.51,-45815.49,-6876.315,11421.27
1764434269.4943547,31533.48,18853.47,61307.01,-6470.415,-33642.405,-45812.43,-6871.094999999999,11421.81
1764434269.539521,31534.47,18856.755,61310.7,-6469.155,-33642.45,-45813.195,-6863.355,11426.13
1764434269.539521,31530.825,18856.89,61311.735,-6471.09,-33646.05,-45817.785,-6855.344999999999,11427.66
1764434269.539521,31524.75,18854.145,61310.925,-6476.355,-33653.295,-45824.715,-6848.415,11426.85
1764434269.539521,31524.39,18854.91,61312.32,-6476.759999999999,-33654.915,-45826.83,-6847.605,11426.67
1764434269.539521,31524.075,18853.02,61309.125,-6477.12,-33653.205,-45827.37,-6851.969999999999,11426.175
1764434269.539521,31524.255,18848.88,61302.915,-6480.495,-33655.68,-45827.865,-6857.19,11424.195
1764434269.539521,31525.065,18846.81,61298.865,-6481.889999999999,-33656.94,-45828.315,-6868.889999999999,11418.795
1764434269.539521,31528.935,18846.765,61297.335,-6480.09,-33653.475,-45823.14,-6878.969999999999,11417.13
1764434269.539521,31533.345,18849.195,61299.765,-6477.57,-33649.605,-45818.055,-6879.645,11417.085
1764434269.539521,31540.545,18857.475,61308.765,-6469.965,-33642.18,-45811.62,-6871.139999999999,11424.06
1764434269.539521,31539.105,18858.06,61311.33,-6469.11,-33643.935,-45813.915,-6863.94,11426.805
1764434269.539521,31530.06,18852.48,61307.955,-6474.645,-33651.0,-45821.385,-6857.82,11423.52
1764434269.539521,31521.105,18848.115,61305.12,-6479.37,-33657.03,-45828.54,-6853.139999999999,11420.685
1764434269.539521,31521.735,18850.23,61308.54,-6476.985,-33654.645,-45826.74,-6846.57,11424.105
1764434269.539521,31520.7,18847.98,61305.345,-6480.405,-33657.255,-45830.34,-6854.445,11420.145
1764434269.539521,31521.24,18843.93,61298.955,-6484.41,-33660.09,-45832.815,-6866.054999999999,11417.895
1764434269.539521,31525.56,18843.39,61296.12,-6485.219999999999,-33659.64,-45831.96,-6875.054999999999,11416.14
1764434269.539521,31529.475,18843.705,61295.535,-6482.61,-33656.175,-45827.19,-6882.57,11414.385
1764434269.539521,31533.57,18848.07,61299.63,-6476.625,-33649.695,-45819.585,-6881.31,11417.445
1764434269.539521,31531.23,18847.89,61300.17,-6476.13,-33649.605,-45818.595,-6878.925,11416.41
1764434269.539521,31535.325,18854.37,61307.64,-6471.224999999999,-33645.33,-45815.31,-6867.63,11423.025
1764434269.539521,31530.06,18852.12,61306.515,-6474.465,-33650.055,-45820.935,-6860.969999999999,11422.305
1764434269.5876286,31521.51,18847.845,61304.895,-6479.73,-33657.75,-45829.62,-6856.065,11419.605
1764434269.5876286,31517.505,18845.73,61303.995,-6483.285,-33660.72,-45833.085,-6852.465,11420.415
1764434269.5876286,31517.82,18845.055,61301.925,-6484.05,-33659.955,-45832.77,-6854.219999999999,11419.155
1764434269.5876286,31523.31,18847.035,61302.96,-6479.82,-33655.05,-45828.045,-6859.17,11418.75
1764434269.5876286,31528.305,18847.89,61302.555,-6479.28,-33653.97,-45824.58,-6868.844999999999,11418.39
1764434269.5876286,31533.39,18847.845,61300.305,-6479.054999999999,-33652.755,-45821.925,-6880.32,11418.57
1764434269.5876286,31535.055,18848.88,61301.025,-6477.12,-33650.64,-45820.35,-6882.795,11417.67
1764434269.5876286,31533.03,18850.455,61303.455,-6474.06,-33648.165,-45818.415,-6877.035,11417.895
1764434269.5876286,31528.935,18850.185,61306.515,-6472.125,-33648.119999999995,-45817.29,-6867.99,11418.12
1764434269.5876286,31524.885,18848.745,61306.92,-6474.105,-33651.315,-45820.575,-6862.139999999999,11418.525
1764434269.5876286,31521.51,18848.655,61307.64,-6476.58,-33654.645,-45824.13,-6852.105,11421.945
1764434269.5876286,31515.165,18843.165,61302.33,-6483.69,-33661.755,-45831.465,-6856.155,11417.31
1764434269.5876286,31517.01,18843.345,61300.935,-6485.219999999999,-33662.295,-45832.59,-6858.719999999999,11417.895
1764434269.5876286,31524.03,18847.62,61303.635,-6480.36,-33657.3,-45826.65,-6858.63,11421.855
1764434269.5876286,31525.245,18845.235,61299.18,-6482.745,-33656.985,-45826.155,-6870.375,11417.355
1764434269.5876286,31529.97,18844.74,61297.65,-6482.16,-33655.455,-45824.58,-6882.57,11414.655
1764434269.5876286,31531.59,18844.65,61296.975,-6481.889999999999,-33655.095,-45823.95,-6886.8,11413.845
1764434269.5876286,31530.78,18846.27,61299.585,-6480.09,-33654.24,-45822.87,-6882.705,11414.88
1764434269.5876286,31534.56,18854.235,61309.665,-6471.675,-33646.815,-45815.715,-6867.0,11422.935
1764434269.5876286,31531.455,18855.225,61312.455,-6470.955,-33646.905,-45816.39,-6856.92,11425.365
1764434269.5876286,31520.79,18847.935,61306.83,-6478.65,-33654.555,-45826.605,-6852.96,11420.955
1764434269.5876286,31516.38,18843.795,61302.915,-6483.375,-33659.369999999995,-45832.59,-6857.415,11417.625
1764434269.5876286,31516.785,18841.995,61300.62,-6485.13,-33662.07,-45833.265,-6860.474999999999,11417.13
1764434269.5889213,31520.61,18843.12,61300.26,-6484.995,-33661.53,-45829.215,-6862.139999999999,11418.21
1764434269.6335692,31528.62,18849.195,61304.445,-6477.705,-33652.98,-45820.98,-6863.13,11421.495
1764434269.6335692,31538.43,18856.08,61309.71,-6469.425,-33643.53,-45812.745,-6871.32,11422.71
1764434269.6335692,31537.935,18853.065,61306.515,-6471.99,-33646.635,-45814.77,-6883.29,11419.335
1764434269.6335692,31535.82,18850.455,61304.175,-6474.465,-33649.335,-45816.705,-6879.195,11421.0
1764434269.6335692,31533.795,18852.21,61307.1,-6473.25,-33649.065,-45817.56,-6872.58,11421.495
1764434269.6335692,31526.865,18849.24,61307.055,-6475.23,-33651.81,-45820.62,-6864.66,11420.055
1764434269.6335692,31518.945,18845.82,61304.76,-6480.315,-33658.695,-45829.035,-6858.179999999999,11418.615
1764434269.634583,31516.695,18844.155,61303.995,-6483.509999999999,-33662.07,-45832.815,-6855.705,11418.525
1764434269.634583,31518.45,18843.795,61302.96,-6484.32,-33661.26,-45832.5,-6858.675,11418.795
1764434269.634583,31521.645,18843.39,61301.16,-6484.365,-33659.775,-45830.745,-6865.425,11417.445
1764434269.634583,31525.11,18844.11,61300.125,-6482.565,-33656.535,-45826.29,-6872.445,11416.185
1764434269.634583,31529.295,18845.325,61299.99,-6479.37,-33652.845,-45821.43,-6880.094999999999,11415.555
1764434269.634583,31532.49,18847.53,61302.735,-6476.58,-33651.09,-45819.135,-6881.985,11416.365
1764434269.634583,31533.795,18849.42,61305.3,-6474.78,-33650.235,-45818.37,-6877.44,11418.705
1764434269.634583,31535.73,18853.065,61310.07,-6472.035,-33647.805,-45816.615,-6867.585,11423.205
1764434269.634583,31526.64,18849.105,61308.0,-6476.085,-33652.395,-45821.295,-6861.15,11420.145
1764434269.634583,31520.745,18847.89,61307.685,-6478.2,-33655.545,-45825.255,-6850.665,11421.18
1764434269.634583,31522.545,18850.95,61310.07,-6475.23,-33653.52,-45824.715,-6849.764999999999,11424.105
1764434269.634583,31523.085,18849.645,61307.145,-6476.94,-33654.375,-45826.38,-6856.695,11423.16
1764434269.634583,31524.255,18845.865,61302.42,-6481.62,-33657.21,-45828.405,-6864.03,11420.145
1764434269.634583,31531.95,18849.42,61304.22,-6477.795,-33651.765,-45821.115,-6867.764999999999,11423.07
1764434269.634583,31533.57,18847.08,61300.62,-6478.695,-33651.405,-45819.63,-6878.205,11418.525
1764434269.634583,31536.36,18849.69,61303.635,-6474.915,-33646.994999999995,-45815.94,-6880.275,11418.12
1764434269.634583,31537.035,18851.715,61306.155,-6472.485,-33645.96,-45815.13,-6878.7,11419.38
1764434269.6792011,31538.52,18855.855,61312.455,-6468.974999999999,-33644.43,-45814.23,-6868.844999999999,11424.6
1764434269.6792011,31529.205,18850.05,61308.495,-6475.185,-33651.81,-45821.7,-6862.23,11422.44
1764434269.6792011,31525.335,18850.455,61310.61,-6475.679999999999,-33653.52,-45824.13,-6852.014999999999,11424.285
1764434269.6792011,31522.635,18849.33,61309.305,-6477.435,-33655.59,-45827.145,-6851.295,11423.025
1764434269.6792011,31519.17,18844.245,61302.42,-6483.014999999999,-33660.135,-45832.095,-6860.565,11417.67
1764434269.6792011,31522.185,18844.47,61301.43,-6483.014999999999,-33658.11,-45829.395,-6866.73,11416.995
1764434269.6792011,31528.71,18847.035,61302.42,-6480.63,-33655.365,-45824.76,-6872.49,11418.345
1764434269.6792011,31529.745,18844.83,61298.91,-6480.405,-33654.015,-45822.645,-6883.514999999999,11413.845
1764434269.6792011,31529.88,18844.92,61299.135,-6478.965,-33652.395,-45820.935,-6885.99,11412.495
1764434269.6792011,31530.465,18846.99,61303.095,-6476.04,-33650.055,-45819.09,-6880.094999999999,11415.105
1764434269.6792011,31531.59,18849.78,61307.37,-6473.205,-33649.02,-45818.505,-6870.645,11419.515
1764434269.6792011,31523.76,18845.82,61304.625,-6479.37,-33655.815,-45826.38,-6866.775,11416.68
1764434269.6792011,31519.44,18845.37,61305.75,-6480.945,-33658.425,-45830.565,-6856.965,11418.03
1764434269.6792011,31521.465,18848.61,61309.35,-6477.84,-33655.365,-45827.55,-6847.875,11423.88
1764434269.6792011,31524.12,18849.285,61307.865,-6477.21,-33654.69,-45825.48,-6850.665,11424.285
1764434269.6792011,31524.885,18846.0,61304.085,-6479.639999999999,-33654.645,-45825.84,-6863.264999999999,11420.28
1764434269.6792011,31526.01,18842.67,61299.135,-6482.474999999999,-33655.455,-45825.48,-6874.65,11415.96
1764434269.6792011,31533.885,18846.18,61301.52,-6477.75,-33650.325,-45819.405,-6881.175,11416.545
1764434269.6792011,31535.235,18845.82,61301.61,-6476.58,-33649.785,-45818.64,-6883.335,11415.87
1764434269.6792011,31531.32,18844.605,61300.71,-6477.84,-33652.305,-45821.79,-6882.344999999999,11414.295
1764434269.6801972,31532.085,18849.33,61306.335,-6473.52,-33649.29,-45819.315,-6871.95,11419.155
1764434269.6801972,31522.32,18844.605,61303.905,-6477.84,-33654.78,-45825.84,-6866.145,11416.545
1764434269.6801972,31517.955,18843.93,61306.02,-6479.37,-33657.93,-45829.935,-6856.155,11417.535
1764434269.6801972,31518.45,18845.01,61307.01,-6479.73,-33657.975,-45830.88,-6855.795,11417.22
1764434269.7272174,31517.865,18842.355,61302.915,-6482.52,-33658.515,-45832.14,-6862.365,11414.835
1764434269.7272174,31522.23,18841.905,61300.395,-6483.195,-33658.02,-45830.25,-6866.594999999999,11417.355
1764434269.7272174,31523.985,18839.385,61296.21,-6484.679999999999,-33659.055,-45830.205,-6876.945,11414.205
1764434269.7272174,31526.37,18837.72,61293.915,-6485.085,-33659.145,-45828.99,-6886.98,11409.255
1764434269.7272174,31528.08,18839.385,61295.22,-6482.969999999999,-33658.155,-45825.795,-6889.634999999999,11409.525
1764434269.7272174,31532.85,18846.81,61303.68,-6474.105,-33649.515,-45818.91,-6881.49,11414.925
1764434269.7272174,31536.135,18851.985,61309.44,-6471.179999999999,-33648.345,-45816.84,-6869.7,11422.125
1764434269.7272174,31524.93,18845.235,61305.12,-6477.974999999999,-33656.085,-45824.895,-6865.335,11417.265
1764434269.7272174,31519.26,18844.785,61306.29,-6478.605,-33657.48,-45828.99,-6857.594999999999,11417.04
1764434269.7272174,31520.205,18846.72,61308.09,-6478.875,-33658.244999999995,-45830.88,-6854.355,11419.56
1764434269.7272174,31521.96,18846.135,61306.92,-6478.514999999999,-33656.535,-45827.955,-6854.759999999999,11421.09
1764434269.7272174,31522.905,18844.515,61303.635,-6478.65,-33654.6,-45825.84,-6861.465,11418.885
1764434269.7272174,31526.82,18844.605,61302.33,-6478.425,-33653.52,-45824.67,-6873.57,11415.555
1764434269.7272174,31528.35,18842.355,61298.865,-6480.945,-33654.869999999995,-45823.455,-6885.045,11411.235
1764434269.7272174,31532.31,18845.19,61301.655,-6476.94,-33651.405,-45819.765,-6885.54,11412.585
1764434269.7272174,31532.58,18846.54,61303.995,-6475.139999999999,-33650.64,-45819.045,-6880.59,11416.77
1764434269.7272174,31532.085,18847.395,61306.83,-6473.88,-33650.64,-45819.135,-6873.57,11420.46
1764434269.7272174,31524.885,18844.965,61305.975,-6475.679999999999,-33653.52,-45823.32,-6865.02,11418.66
1764434269.7272174,31520.16,18844.56,61306.425,-6477.57,-33657.48,-45827.73,-6857.415,11418.705
1764434269.7272174,31518.495,18844.065,61305.345,-6479.415,-33659.82,-45830.07,-6856.469999999999,11418.255
1764434269.7272174,31515.975,18838.665,61298.415,-6485.219999999999,-33665.04,-45835.02,-6864.57,11413.89
1764434269.7272174,31520.115,18838.89,61297.02,-6484.95,-33662.835,-45832.545,-6869.565,11414.295
1764434269.7272174,31526.55,18842.895,61299.18,-6480.27,-33656.445,-45824.985,-6873.48,11415.96
1764434269.7272174,31527.405,18841.5,61298.1,-6479.145,-33654.51,-45820.98,-6881.849999999999,11412.18
1764434269.7710495,31533.39,18846.54,61303.41,-6473.655,-33647.715,-45814.5,-6881.849999999999,11415.555
1764434269.7710495,31534.47,18848.475,61305.795,-6472.035,-33647.355,-45813.78,-6877.08,11418.57
1764434269.7710495,31533.885,18851.355,61310.295,-6469.83,-33647.22,-45814.995,-6870.645,11420.64
1764434269.7710495,31528.26,18848.565,61310.205,-6472.395,-33650.865,-45819.225,-6866.054999999999,11419.695
1764434269.77207,31521.645,18845.055,61307.505,-6476.94,-33656.535,-45825.39,-6858.54,11419.11
1764434269.77207,31518.315,18842.58,61304.13,-6481.53,-33661.44,-45830.925,-6858.719999999999,11417.58
1764434269.77207,31522.905,18845.19,61305.345,-6479.37,-33658.11,-45828.045,-6859.215,11419.83
1764434269.77207,31527.495,18847.26,61305.39,-6477.57,-33654.96,-45824.895,-6863.985,11420.235
1764434269.77207,31529.52,18845.235,61301.835,-6478.29,-33654.015,-45822.375,-6874.065,11417.895
1764434269.77207,31530.06,18842.535,61298.19,-6479.594999999999,-33653.744999999995,-45820.305,-6884.594999999999,11413.26
1764434269.77207,31533.03,18844.425,61300.485,-6477.525,-33651.945,-45817.875,-6885.0,11414.205
1764434269.77207,31537.035,18850.77,61307.73,-6471.045,-33646.95,-45814.275,-6876.405,11419.83
1764434269.77207,31530.735,18848.565,61307.46,-6472.575,-33649.38,-45818.055,-6873.705,11418.12
1764434269.77207,31521.87,18844.47,61305.93,-6475.5,-33652.755,-45821.565,-6865.02,11416.05
1764434269.77207,31521.105,18847.08,61310.43,-6474.69,-33654.015,-45823.23,-6855.974999999999,11419.02
1764434269.77207,31523.67,18848.835,61311.15,-6476.13,-33655.95,-45825.255,-6855.255,11422.53
1764434269.77207,31523.22,18845.1,61305.12,-6480.99,-33658.74,-45828.27,-6860.61,11421.0
1764434269.77207,31526.505,18844.425,61302.555,-6481.08,-33657.345,-45827.055,-6866.639999999999,11420.55
1764434269.77207,31530.06,18845.37,61302.645,-6477.929999999999,-33652.755,-45821.205,-6873.12,11419.155
1764434269.77207,31532.535,18845.775,61302.33,-6476.04,-33648.84,-45816.345,-6880.094999999999,11416.815
1764434269.7730703,31530.78,18842.895,61298.73,-6479.37,-33652.89,-45819.945,-6886.53,11412.135
1764434269.7730703,31530.51,18843.75,61299.585,-6478.965,-33653.61,-45822.555,-6885.855,11413.035
1764434269.7730703,31530.51,18846.81,61305.075,-6474.825,-33650.01,-45820.35,-6873.615,11418.255
1764434269.7730703,31525.65,18846.18,61307.505,-6475.005,-33651.99,-45824.085,-6867.315,11417.22
1764434269.8202505,31520.97,18845.28,61307.505,-6478.155,-33655.815,-45828.945,-6861.33,11418.795
1764434269.8202505,31521.375,18845.415,61306.155,-6479.955,-33658.244999999995,-45830.745,-6857.37,11421.81
1764434269.8202505,31521.915,18843.84,61303.32,-6482.52,-33660.855,-45831.555,-6861.78,11420.01
1764434269.8202505,31529.88,18849.33,61308.18,-6474.915,-33652.125,-45823.545,-6863.31,11423.61
1764434269.8202505,31531.59,18847.845,61304.49,-6475.545,-33651.54,-45821.745,-6872.535,11420.91
1764434269.8202505,31535.595,18848.025,61303.68,-6474.24,-33648.84,-45817.92,-6880.905,11419.56
1764434269.8202505,31539.87,18851.715,61307.955,-6470.054999999999,-33644.655,-45814.185,-6881.355,11421.225
1764434269.8202505,31538.385,18851.355,61309.26,-6470.099999999999,-33646.095,-45814.815,-6876.99,11421.72
1764434269.8202505,31536.63,18853.425,61312.32,-6467.49,-33643.89,-45812.97,-6867.764999999999,11424.825
1764434269.8202505,31530.735,18851.67,61312.14,-6469.335,-33646.14,-45817.02,-6858.09,11425.41
1764434269.8202505,31521.96,18846.945,61310.295,-6473.565,-33652.755,-45824.715,-6853.545,11423.655
1764434269.8202505,31522.995,18848.61,61311.555,-6474.69,-33653.744999999995,-45825.705,-6853.545,11424.78
1764434269.8202505,31523.805,18845.955,61307.73,-6479.099999999999,-33658.065,-45827.145,-6858.134999999999,11423.07
1764434269.8202505,31530.375,18849.375,61309.305,-6475.545,-33653.07,-45821.745,-6860.429999999999,11426.49
1764434269.8202505,31534.965,18849.33,61307.235,-6474.915,-33650.685,-45818.55,-6871.32,11424.51
1764434269.8202505,31539.105,18850.32,61307.73,-6472.395,-33647.22,-45813.87,-6879.69,11423.655
1764434269.8202505,31540.86,18852.885,61310.07,-6468.344999999999,-33642.945,-45809.91,-6878.16,11424.78
1764434269.8202505,31535.145,18850.275,61309.44,-6469.514999999999,-33644.34,-45811.53,-6874.469999999999,11422.71
1764434269.821265,31536.27,18854.415,61315.74,-6465.375,-33641.325,-45809.955,-6864.795,11425.455
1764434269.821265,31532.58,18853.38,61315.695,-6469.245,-33647.04,-45818.055,-6860.52,11426.22
1764434269.821265,31523.58,18846.495,61309.305,-6477.255,-33656.985,-45827.46,-6855.795,11424.69
1764434269.821265,31524.66,18847.98,61311.06,-6476.49,-33655.815,-45826.47,-6853.59,11427.3
1764434269.821265,31526.145,18848.565,61311.285,-6474.96,-33652.26,-45823.95,-6856.74,11427.21
1764434269.821265,31530.375,18849.96,61311.015,-6473.115,-33648.345,-45821.07,-6862.139999999999,11426.535
1764434269.867862,31537.395,18852.21,61311.285,-6470.594999999999,-33645.645,-45816.66,-6871.139999999999,11426.355
1764434269.867862,31535.505,18845.82,61305.165,-6474.014999999999,-33647.13,-45815.22,-6882.03,11419.83
1764434269.867862,31537.665,18847.485,61306.785,-6472.215,-33645.015,-45813.105,-6881.985,11421.27
1764434269.867862,31541.265,18853.335,61312.815,-6467.13,-33641.19,-45809.595,-6872.715,11427.165
1764434269.867862,31540.365,18855.9,61316.91,-6464.52,-33640.38,-45808.965,-6865.065,11429.01
1764434269.867862,31531.365,18851.76,61314.57,-6469.065,-33647.445,-45817.11,-6862.32,11426.445
1764434269.867862,31527.18,18850.77,61314.66,-6471.134999999999,-33650.505,-45820.485,-6851.295,11429.01
1764434269.867862,31526.1,18850.995,61314.075,-6472.44,-33651.54,-45821.34,-6849.405,11428.245
1764434269.867862,31529.97,18851.895,61313.715,-6471.585,-33649.83,-45819.0,-6853.32,11430.45
1764434269.867862,31531.275,18849.555,61309.305,-6473.295,-33651.54,-45820.935,-6864.884999999999,11426.31
1764434269.867862,31538.835,18853.56,61311.015,-6469.605,-33645.375,-45814.905,-6870.645,11427.93
1764434269.867862,31544.01,18854.1,61311.015,-6467.58,-33641.325,-45809.775,-6876.99,11428.47
1764434269.867862,31546.035,18855.495,61312.23,-6465.645,-33640.02,-45807.12,-6876.945,11429.415
1764434269.8692782,31544.37,18857.25,61315.605,-6462.81,-33637.905,-45804.78,-6868.215,11431.035
1764434269.8692782,31541.355,18858.195,61319.07,-6461.505,-33638.67,-45805.14,-6859.17,11432.655
1764434269.8692782,31534.245,18855.045,61317.945,-6464.565,-33644.34,-45813.465,-6857.91,11429.685
1764434269.8692782,31529.61,18852.57,61316.685,-6468.48,-33649.56,-45820.8,-6855.57,11428.695
1764434269.8692782,31525.425,18848.43,61312.05,-6474.465,-33655.32,-45826.47,-6854.175,11427.12
1764434269.8692782,31526.91,18847.845,61309.89,-6475.32,-33655.905,-45825.57,-6858.81,11426.04
1764434269.8692782,31535.145,18851.49,61312.77,-6469.965,-33650.28,-45817.11,-6861.599999999999,11428.785
1764434269.91314,31538.655,18850.455,61309.215,-6470.865,-33648.03,-45814.05,-6872.49,11426.985
1764434269.91314,31540.23,18848.385,61306.785,-6470.955,-33645.645,-45813.06,-6880.23,11423.745
1764434269.9141612,31540.455,18849.33,61307.82,-6468.57,-33643.98,-45810.855,-6880.724999999999,11422.755
1764434269.9141612,31540.815,18852.885,61312.185,-6464.88,-33641.369999999995,-45808.515,-6875.325,11424.645
1764434269.9141612,31542.705,18857.205,61317.72,-6461.46,-33640.335,-45808.515,-6866.145,11429.73
1764434269.9151633,31532.58,18850.905,61313.31,-6468.48,-33648.119999999995,-45817.29,-6860.115,11427.21
1764434269.9151633,31533.57,18855.45,61319.43,-6464.52,-33645.51,-45816.21,-6850.304999999999,11432.295
1764434269.9151633,31531.05,18852.84,61316.685,-6467.849999999999,-33648.84,-45820.44,-6852.465,11431.305
1764434269.9151633,31527.45,18847.395,61309.305,-6473.655,-33652.935,-45823.59,-6859.665,11425.68
1764434269.9151633,31530.735,18847.665,61307.37,-6473.07,-33651.9,-45821.025,-6866.054999999999,11423.97
1764434269.9151633,31536.585,18848.925,61307.01,-6472.8,-33650.28,-45817.245,-6873.57,11424.96
1764434269.9151633,31539.42,18847.98,61305.345,-6471.81,-33647.715,-45815.49,-6884.73,11421.675
1764434269.9151633,31540.095,18848.295,61305.39,-6471.405,-33647.625,-45814.545,-6887.16,11421.45
1764434269.916177,31537.17,18847.98,61306.605,-6471.315,-33649.2,-45816.795,-6882.974999999999,11421.27
1764434269.917173,31537.305,18852.66,61313.67,-6466.094999999999,-33643.26,-45811.62,-6868.665,11426.76
1764434269.917173,31532.445,18851.67,61313.76,-6468.705,-33646.365,-45815.49,-6860.115,11428.245
1764434269.917173,31528.62,18850.185,61312.86,-6472.889999999999,-33652.17,-45821.97,-6853.905,11428.605
1764434269.917173,31522.5,18844.65,61307.55,-6478.695,-33657.615,-45827.955,-6856.965,11423.79
1764434269.9181724,31525.2,18845.055,61306.965,-6478.514999999999,-33656.265,-45826.56,-6861.465,11423.52
1764434269.9181724,31532.985,18849.15,61309.305,-6474.105,-33651.225,-45820.665,-6867.54,11425.815
1764434269.9181724,31532.94,18845.28,61302.87,-6477.795,-33653.43,-45822.465,-6881.085,11420.235
1764434269.9181724,31533.48,18842.985,61299.72,-6479.054999999999,-33653.07,-45822.105,-6890.58,11416.635
1764434269.9181724,31533.795,18843.75,61301.16,-6477.705,-33651.36,-45819.72,-6891.48,11416.275
1764434269.9181724,31534.785,18847.035,61305.48,-6473.429999999999,-33648.345,-45815.94,-6884.73,11419.605
1764434269.96451,31535.46,18850.545,61310.43,-6470.235,-33645.555,-45813.825,-6872.219999999999,11424.24
1764434269.96451,31526.325,18846.225,61307.91,-6476.31,-33653.744999999995,-45822.735,-6867.63,11421.045
1764434269.96451,31524.345,18846.81,61309.845,-6476.895,-33656.04,-45825.975,-6859.62,11423.835
1764434269.96451,31519.035,18840.78,61303.275,-6483.33,-33663.105,-45832.455,-6863.58,11420.46
1764434269.96451,31522.005,18840.645,61302.42,-6483.825,-33662.52,-45831.195,-6868.98,11420.235
1764434269.96451,31528.485,18844.92,61305.93,-6478.155,-33653.835,-45822.645,-6871.139999999999,11421.585
1764434269.96451,31528.17,18840.51,61300.485,-6480.99,-33655.32,-45822.465,-6882.435,11416.275
1764434269.96451,31532.04,18841.905,61299.945,-6478.469999999999,-33651.494999999995,-45818.865,-6890.355,11414.88
1764434269.96451,31538.52,18847.53,61304.715,-6473.429999999999,-33646.455,-45815.22,-6891.165,11418.3
1764434269.96451,31538.79,18848.97,61307.91,-6471.45,-33645.869999999995,-45814.23,-6884.19,11422.935
1764434269.96451,31534.605,18847.125,61307.37,-6473.79,-33649.515,-45817.02,-6876.945,11422.395
1764434269.96451,31524.435,18841.86,61303.95,-6479.28,-33657.21,-45826.065,-6874.02,11417.67
1764434269.9655242,31519.755,18841.5,61305.3,-6479.28,-33658.56,-45828.36,-6865.245,11419.2
1764434269.9655242,31522.77,18844.92,61308.855,-6476.13,-33655.095,-45825.12,-6858.495,11423.16
1764434269.9655242,31524.21,18845.055,61307.865,-6475.905,-33654.42,-45823.545,-6860.969999999999,11422.755
1764434269.9655242,31527.315,18845.28,61306.56,-6475.815,-33652.755,-45821.79,-6870.465,11420.91
1764434269.9655242,31532.13,18844.875,61303.455,-6476.985,-33652.755,-45822.69,-6889.005,11417.13
1764434269.9655242,31536.585,18844.02,61300.53,-6477.66,-33651.72,-45819.27,-6891.84,11419.56
1764434269.9655242,31536.135,18843.435,61300.62,-6477.57,-33652.26,-45818.46,-6892.155,11418.705
1764434269.9655242,31535.19,18846.045,61305.345,-6474.014999999999,-33650.775,-45816.12,-6883.83,11420.595
1764434269.9655242,31535.685,18849.6,61311.195,-6470.685,-33648.84,-45814.86,-6875.955,11423.52
1764434269.9655242,31529.88,18848.25,61311.015,-6472.395,-33652.215,-45821.07,-6871.455,11422.125
1764434269.9655242,31528.71,18849.105,61311.735,-6473.7,-33655.05,-45822.735,-6860.88,11426.85
1764434269.9655242,31524.57,18844.335,61306.83,-6478.83,-33659.73,-45827.325,-6862.094999999999,11424.195
1764434270.0107973,31526.55,18845.055,61307.235,-6477.389999999999,-33656.715,-45824.445,-6864.57,11424.465
1764434270.0107973,31522.815,18838.26,61299.945,-6482.474999999999,-33660.315,-45827.28,-6877.844999999999,11417.13
1764434270.0107973,31526.145,18836.73,61296.705,-6483.554999999999,-33660.72,-45827.055,-6889.679999999999,11413.98
1764434270.0107973,31533.12,18841.005,61299.9,-6478.74,-33655.77,-45820.44,-6893.054999999999,11416.005
1764434270.0107973,31531.365,18839.34,61300.08,-6478.245,-33655.32,-45819.09,-6893.594999999999,11413.665
1764434270.0107973,31527.27,18838.395,61300.26,-6477.344999999999,-33655.185,-45819.855,-6889.815,11412.855
1764434270.0107973,31529.025,18843.48,61306.38,-6472.889999999999,-33652.575,-45817.92,-6879.735,11416.905
1764434270.0107973,31521.105,18838.53,61302.735,-6479.955,-33661.08,-45827.955,-6877.44,11413.62
1764434270.0107973,31518.225,18839.25,61304.085,-6480.945,-33663.15,-45831.285,-6870.014999999999,11415.96
1764434270.0107973,31520.88,18840.645,61305.705,-6478.83,-33660.765,-45828.99,-6865.155,11419.92
1764434270.0107973,31522.815,18839.88,61303.05,-6480.945,-33661.98,-45829.485,-6869.745,11419.65
1764434270.0107973,31525.47,18839.745,61301.79,-6480.63,-33660.405,-45827.28,-6875.19,11418.705
1764434270.0107973,31528.035,18838.755,61299.675,-6480.315,-33658.155,-45823.545,-6885.224999999999,11415.735
1764434270.0107973,31530.195,18837.675,61296.93,-6481.98,-33659.91,-45824.4,-6898.77,11412.09
1764434270.0107973,31532.355,18839.835,61298.91,-6478.83,-33657.57,-45822.105,-6897.87,11413.53
1764434270.0107973,31534.11,18844.74,61305.3,-6472.215,-33651.09,-45815.94,-6886.215,11418.66
1764434270.0107973,31531.86,18846.81,61308.765,-6470.639999999999,-33650.235,-45815.535,-6877.125,11420.46
1764434270.0107973,31526.37,18846.225,61309.935,-6472.98,-33653.34,-45819.99,-6869.34,11420.235
1764434270.0107973,31522.005,18844.785,61308.315,-6477.165,-33657.615,-45825.885,-6861.33,11421.135
1764434270.0107973,31517.955,18839.79,61303.455,-6481.755,-33662.385,-45830.925,-6863.445,11417.67
1764434270.0107973,31522.455,18841.32,61304.85,-6478.605,-33659.369999999995,-45828.0,-6869.745,11417.31
1764434270.0107973,31529.565,18845.01,61306.11,-6475.455,-33655.14,-45823.14,-6876.045,11419.38
1764434270.0107973,31531.95,18842.355,61301.295,-6477.48,-33654.24,-45821.205,-6884.505,11417.49
1764434270.0107973,31534.83,18841.455,61298.37,-6479.865,-33656.49,-45820.845,-6892.02,11416.86
1764434270.0556045,31535.64,18843.12,61300.485,-6476.94,-33654.6,-45820.53,-6895.44,11415.915
1764434270.0556045,31532.895,18843.03,61301.88,-6476.085,-33653.25,-45821.43,-6890.355,11416.32
1764434270.0556045,31531.05,18845.82,61306.335,-6472.665,-33650.01,-45817.92,-6878.295,11419.56
1764434270.0556045,31525.74,18844.83,61308.18,-6472.98,-33651.63,-45820.35,-6869.07,11420.37
1764434270.0556045,31520.745,18842.625,61306.65,-6476.67,-33656.895,-45826.245,-6862.365,11420.64
1764434270.0556045,31521.15,18842.76,61306.65,-6478.469999999999,-33659.505,-45828.27,-6861.87,11421.63
1764434270.0556045,31521.645,18841.455,61304.13,-6479.235,-33658.47,-45827.145,-6868.17,11419.47
1764434270.0556045,31521.96,18839.43,61300.935,-6480.179999999999,-33657.84,-45825.57,-6876.675,11415.96
1764434270.0556045,31527.135,18839.205,61298.955,-6479.054999999999,-33655.32,-45821.16,-6886.44,11413.62
1764434270.0556045,31531.23,18839.745,61298.64,-6476.94,-33652.89,-45818.01,-6897.24,11412.54
1764434270.0556045,31528.17,18836.73,61296.435,-6479.73,-33656.04,-45819.9,-6899.49,11410.335
1764434270.0556045,31527.36,18839.475,61300.845,-6477.12,-33654.78,-45818.82,-6890.445,11413.215
1764434270.0556045,31524.345,18840.465,61303.77,-6475.634999999999,-33654.825,-45820.53,-6884.37,11413.845
1764434270.0576017,31516.65,18836.37,61300.755,-6481.98,-33662.25,-45828.585,-6878.25,11412.855
1764434270.0576017,31515.39,18837.18,61302.015,-6484.23,-33665.04,-45832.005,-6872.49,11414.295
1764434270.0576017,31512.96,18833.895,61298.01,-6487.605,-33668.369999999995,-45835.155,-6873.165,11413.665
1764434270.0576017,31513.995,18832.005,61294.815,-6489.405,-33668.64,-45835.155,-6878.88,11412.18
1764434270.0576017,31517.145,18832.32,61294.095,-6488.37,-33666.57,-45832.725,-6886.125,11410.785
1764434270.0576017,31523.895,18835.965,61295.715,-6484.77,-33660.945,-45826.47,-6892.83,11411.91
1764434270.0576017,31523.355,18832.455,61290.675,-6486.344999999999,-33662.43,-45826.155,-6903.45,11406.465
1764434270.0576017,31526.505,18836.415,61295.22,-6481.755,-33657.84,-45822.06,-6900.389999999999,11408.76
1764434270.0576017,31521.825,18835.2,61295.67,-6483.014999999999,-33659.415,-45823.725,-6896.655,11407.995
1764434270.0576017,31517.82,18835.335,61297.29,-6483.33,-33661.395,-45826.155,-6888.24,11409.165
1764434270.0576017,31509.495,18830.655,61295.265,-6487.38,-33666.345,-45833.265,-6883.38,11406.33
1764434270.1017694,31508.955,18833.31,61298.505,-6486.12,-33666.48,-45834.615,-6874.875,11409.66
1764434270.1017694,31511.205,18835.065,61299.54,-6486.344999999999,-33666.165,-45834.615,-6870.554999999999,11413.845
1764434270.1017694,31512.33,18832.725,61296.435,-6487.469999999999,-33667.244999999995,-45834.885,-6877.215,11412.27
1764434270.1017694,31513.725,18831.69,61293.555,-6487.514999999999,-33667.11,-45833.76,-6890.94,11407.455
1764434270.1017694,31519.71,18831.42,61291.17,-6487.695,-33665.13,-45830.43,-6900.344999999999,11406.735
1764434270.1017694,31520.52,18828.855,61286.895,-6491.34,-33666.93,-45830.565,-6908.49,11404.17
1764434270.1017694,31522.815,18832.05,61291.035,-6487.56,-33663.285,-45825.975,-6906.69,11405.925
1764434270.1017694,31523.76,18835.695,61296.795,-6481.71,-33659.1,-45822.645,-6899.04,11409.615
1764434270.1027837,31521.555,18837.9,61301.025,-6479.37,-33658.515,-45823.005,-6889.005,11412.36
1764434270.1027837,31513.68,18834.75,61299.945,-6482.969999999999,-33663.96,-45829.935,-6881.94,11411.145
1764434270.1027837,31511.745,18834.705,61301.07,-6484.365,-33666.03,-45832.86,-6874.74,11413.845
1764434270.1027837,31507.56,18831.06,61296.3,-6489.045,-33670.35,-45837.945,-6878.205,11409.39
1764434270.1027837,31512.51,18833.31,61296.255,-6488.82,-33668.73,-45836.01,-6880.77,11410.785
1764434270.1027837,31518.81,18836.91,61297.56,-6485.31,-33664.32,-45829.26,-6884.009999999999,11411.91
1764434270.1027837,31522.41,18836.01,61294.815,-6485.264999999999,-33663.015,-45827.91,-6897.735,11407.905
1764434270.1027837,31525.965,18835.47,61293.42,-6484.139999999999,-33661.035,-45826.785,-6909.615,11406.78
1764434270.1043131,31520.43,18829.845,61288.425,-6489.09,-33666.03,-45830.475,-6910.92,11403.09
1764434270.1043131,31522.905,18836.505,61296.75,-6483.195,-33660.99,-45824.265,-6896.295,11408.985
1764434270.105317,31521.825,18840.96,61303.41,-6477.884999999999,-33656.895,-45823.32,-6885.945,11412.945
1764434270.105317,31519.035,18842.715,61306.83,-6477.165,-33658.38,-45827.64,-6883.605,11413.17
1764434270.10594,31513.41,18838.485,61303.095,-6482.52,-33664.095,-45832.545,-6878.655,11413.08
1764434270.10594,31513.32,18836.01,61300.305,-6485.13,-33665.805,-45832.815,-6874.245,11415.78
1764434270.1519983,31517.82,18836.505,61298.955,-6486.66,-33666.165,-45833.4,-6878.61,11416.995
1764434270.1519983,31519.98,18836.37,61297.785,-6486.21,-33663.33,-45829.89,-6886.53,11414.745
1764434270.1519983,31519.575,18832.635,61292.16,-6488.639999999999,-33665.31,-45830.34,-6900.344999999999,11409.21
1764434270.1519983,31524.525,18836.505,61294.095,-6483.735,-33659.595,-45823.545,-6902.505,11410.245
1764434270.1519983,31527.945,18840.51,61298.865,-6479.505,-33655.815,-45820.17,-6897.87,11412.36
1764434270.1535144,31523.22,18837.045,61296.57,-6482.969999999999,-33660.494999999995,-45825.66,-6896.88,11409.84
1764434270.1535144,31525.245,18842.31,61303.635,-6477.705,-33657.255,-45824.58,-6890.219999999999,11413.755
1764434270.1535144,31520.745,18842.31,61305.66,-6478.514999999999,-33660.63,-45828.585,-6881.175,11415.105
1764434270.1535144,31511.16,18834.705,61298.685,-6486.795,-33668.865,-45835.92,-6878.925,11411.82
1764434270.1535144,31509.585,18832.77,61295.535,-6488.865,-33670.035,-45836.37,-6879.69,11411.055
1764434270.1535144,31515.93,18837.27,61298.91,-6485.355,-33665.58,-45831.555,-6880.59,11414.925
1764434270.1535144,31515.39,18833.22,61294.095,-6489.224999999999,-33667.92,-45833.13,-6891.165,11409.705
1764434270.1535144,31519.125,18833.22,61291.935,-6488.82,-33665.715,-45829.845,-6901.65,11407.635
1764434270.1535144,31522.095,18834.975,61291.035,-6486.165,-33662.34,-45826.38,-6908.175,11406.735
1764434270.1535144,31521.285,18834.12,61291.035,-6485.67,-33662.115,-45825.975,-6905.7,11406.735
1764434270.1535144,31518.945,18835.11,61293.96,-6485.355,-33662.52,-45826.2,-6898.86,11407.23
1764434270.1535144,31520.655,18840.195,61300.71,-6480.764999999999,-33660.045,-45825.03,-6890.535,11412.27
1764434270.1535144,31518.09,18840.33,61302.195,-6482.79,-33663.78,-45830.115,-6882.03,11415.33
1764434270.1535144,31513.86,18838.53,61300.98,-6486.389999999999,-33668.325,-45835.29,-6876.045,11415.285
1764434270.1535144,31511.61,18837.405,61298.865,-6486.929999999999,-33668.595,-45835.515,-6876.99,11414.205
1764434270.1535144,31508.82,18832.05,61292.79,-6491.205,-33671.925,-45839.115,-6885.719999999999,11409.57
1764434270.1535144,31515.255,18834.66,61294.32,-6488.639999999999,-33666.345,-45833.535,-6890.445,11410.695
1764434270.1535144,31524.48,18840.42,61298.37,-6480.495,-33657.615,-45822.735,-6895.575,11412.81
1764434270.1535144,31523.58,18835.785,61291.935,-6483.78,-33659.369999999995,-45822.375,-6906.375,11408.355
1764434270.1535144,31526.595,18837.72,61294.23,-6484.32,-33660.99,-45822.915,-6907.995,11411.19
1764434270.1535144,31523.085,18837.63,61296.21,-6484.679999999999,-33661.98,-45824.445,-6900.705,11411.685
1764434270.1937146,31524.66,18842.49,61302.42,-6479.639999999999,-33659.145,-45822.6,-6889.23,11415.915
1764434270.1937146,31516.47,18838.71,61300.305,-6484.724999999999,-33665.355,-45830.52,-6885.585,11412.54
1764434270.1937146,31512.33,18837.855,61300.485,-6486.705,-33667.83,-45833.49,-6878.565,11413.71
1764434270.1947334,31513.86,18838.305,61300.845,-6485.445,-33666.39,-45832.05,-6876.585,11416.545
1764434270.1947334,31515.48,18837.45,61298.28,-6487.155,-33666.705,-45831.87,-6882.66,11414.61
1764434270.1957388,31516.425,18834.255,61293.555,-6490.349999999999,-33667.56,-45832.095,-6892.605,11410.38
1764434270.1957388,31525.245,18839.16,61295.535,-6483.69,-33660.63,-45824.13,-6898.32,11412.855
1764434270.1957388,31528.08,18840.015,61294.77,-6482.115,-33659.1,-45822.915,-6908.49,11411.325
1764434270.1957388,31523.715,18835.29,61290.945,-6486.929999999999,-33663.6,-45827.37,-6911.73,11407.23
1764434270.1957388,31521.915,18837.135,61294.455,-6484.275,-33661.619999999995,-45825.84,-6902.775,11408.805
1764434270.1957388,31522.32,18840.645,61300.44,-6480.719999999999,-33659.595,-45824.175,-6891.03,11413.575
1764434270.1957388,31513.635,18836.685,61299.0,-6484.905,-33666.03,-45832.41,-6885.9,11410.38
1764434270.1957388,31509.99,18835.155,61296.93,-6489.224999999999,-33669.54,-45837.225,-6878.115,11412.27
1764434270.1957388,31514.67,18839.88,61300.935,-6485.31,-33665.58,-45833.13,-6873.66,11416.815
1764434270.1957388,31518.855,18841.095,61301.07,-6485.085,-33666.3,-45832.365,-6883.65,11415.825
1764434270.1957388,31513.59,18830.52,61289.28,-6495.435,-33675.705,-45838.485,-6900.389999999999,11407.545
1764434270.1957388,31518.495,18832.815,61290.495,-6490.71,-33668.595,-45831.87,-6907.95,11405.97
1764434270.1957388,31523.625,18836.19,61293.87,-6485.04,-33662.52,-45825.84,-6910.02,11407.14
1764434270.1972492,31528.935,18841.455,61299.585,-6479.955,-33656.31,-45820.125,-6903.9,11412.63
1764434270.1972492,31528.8,18843.975,61302.015,-6478.02,-33654.78,-45819.09,-6897.465,11414.97
1764434270.240502,31521.915,18841.185,61299.945,-6481.259999999999,-33659.82,-45824.22,-6892.695,11413.44
1764434270.240502,31514.76,18837.27,61298.145,-6485.895,-33666.57,-45832.185,-6885.99,11412.405
1764434270.240502,31510.755,18835.83,61298.1,-6488.73,-33670.305,-45837.045,-6882.389999999999,11411.505
1764434270.240502,31505.805,18831.24,61293.555,-6494.04,-33675.66,-45842.355,-6887.655,11407.23
1764434270.240502,31508.505,18831.195,61291.71,-6494.895,-33675.57,-45842.895,-6894.99,11406.645
1764434270.240502,31515.93,18834.885,61292.52,-6491.474999999999,-33670.935,-45836.865,-6898.32,11408.985
1764434270.240502,31516.02,18830.745,61287.255,-6492.554999999999,-33670.755,-45833.985,-6908.49,11403.495
1764434270.240502,31519.305,18832.365,61289.1,-6489.09,-33665.94,-45829.17,-6913.44,11401.785
1764434270.240502,31520.025,18833.76,61291.98,-6487.74,-33664.68,-45828.495,-6912.315,11402.505
1764434270.240502,31518.585,18835.38,61294.095,-6487.2,-33665.31,-45829.305,-6908.13,11404.44
1764434270.240502,31518.405,18838.845,61298.775,-6483.915,-33663.6,-45828.765,-6896.565,11410.155
1764434270.240502,31513.86,18838.17,61299.945,-6486.12,-33667.875,-45833.67,-6888.06,11410.2
1764434270.240502,31507.425,18833.085,61294.815,-6492.554999999999,-33674.805,-45841.86,-6885.764999999999,11407.68
1764434270.240502,31508.82,18834.66,61296.255,-6491.025,-33671.07,-45839.385,-6884.145,11409.615
1764434270.240502,31510.53,18833.76,61294.32,-6491.88,-33670.665,-45837.63,-6892.02,11407.455
1764434270.240502,31510.17,18829.395,61287.48,-6496.29,-33674.625,-45840.24,-6904.259999999999,11402.775
1764434270.240502,31514.31,18829.485,61285.635,-6495.57,-33672.6,-45837.495,-6913.844999999999,11400.435
1764434270.240502,31515.705,18829.305,61285.455,-6493.275,-33669.765,-45833.805,-6919.605,11398.095
1764434270.240502,31517.01,18831.735,61288.83,-6490.62,-33667.515,-45831.69,-6915.465,11400.57
1764434270.240502,31518.135,18835.65,61294.635,-6486.255,-33665.04,-45828.72,-6905.25,11404.485
1764434270.240502,31519.575,18841.23,61301.43,-6482.025,-33661.665,-45826.47,-6894.855,11410.29
1764434270.240502,31509.405,18835.065,61296.345,-6489.045,-33668.775,-45835.47,-6890.625,11407.725
1764434270.240502,31510.125,18838.26,61299.09,-6488.099999999999,-33668.64,-45836.415,-6883.245,11412.585
1764434270.240502,31506.3,18832.815,61294.005,-6493.185,-33672.78,-45841.23,-6887.745,11408.535
1764434270.2894142,31508.46,18832.41,61292.7,-6493.41,-33672.33,-45839.52,-6892.065,11407.68
1764434270.2894142,31509.945,18832.455,61291.71,-6491.115,-33667.785,-45834.48,-6898.455,11406.42
1764434270.2894142,31524.12,18842.625,61300.035,-6481.215,-33656.805,-45822.24,-6900.12,11412.675
1764434270.2894142,31529.385,18843.48,61299.09,-6480.855,-33655.815,-45820.485,-6907.41,11412.63
1764434270.2894142,31522.23,18836.01,61292.79,-6487.065,-33662.835,-45826.83,-6913.665,11406.78
1764434270.2894142,31525.38,18841.995,61299.945,-6481.665,-33659.82,-45824.49,-6906.645,11411.055
1764434270.290415,31522.23,18842.4,61301.565,-6482.7,-33662.52,-45827.865,-6897.69,11413.08
1764434270.290415,31512.105,18835.695,61296.885,-6490.17,-33671.115,-45836.82,-6891.795,11409.705
1764434270.290415,31509.72,18836.595,61298.865,-6489.585,-33670.215,-45837.945,-6884.865,11411.955
1764434270.290415,31507.38,18834.03,61295.85,-6492.285,-33672.645,-45841.095,-6889.95,11408.445
1764434270.290415,31508.01,18831.465,61292.25,-6493.815,-33673.95,-45841.095,-6897.735,11406.33
1764434270.290415,31509.63,18829.215,61289.145,-6495.48,-33673.95,-45839.385,-6905.16,11404.215
1764434270.290415,31517.685,18833.535,61291.17,-6491.115,-33667.785,-45833.13,-6912.27,11405.115
1764434270.290415,31517.505,18830.43,61286.175,-6494.13,-33670.845,-45834.615,-6920.505,11400.57
1764434270.290415,31519.035,18833.4,61290.18,-6491.25,-33668.82,-45831.645,-6917.4,11402.19
1764434270.290415,31520.97,18838.845,61297.29,-6484.77,-33662.88,-45827.19,-6906.645,11408.535
1764434270.290415,31518.9,18838.575,61298.595,-6486.57,-33665.04,-45830.97,-6897.87,11410.83
1764434270.290415,31509.855,18834.435,61295.31,-6491.88,-33671.385,-45839.835,-6894.405,11407.005
1764434270.290415,31508.415,18835.335,61297.02,-6490.53,-33670.665,-45840.645,-6888.375,11410.02
1764434270.290415,31504.68,18829.665,61291.485,-6495.795,-33675.57,-45844.515,-6892.38,11406.285
1764434270.290415,31508.955,18830.52,61290.945,-6495.12,-33674.355,-45841.545,-6895.125,11407.365
1764434270.290415,31508.955,18827.235,61285.41,-6499.215,-33677.145,-45842.76,-6905.925,11402.46
1764434270.3338623,31512.87,18827.82,61284.42,-6496.11,-33672.375,-45838.845,-6916.139999999999,11400.345
1764434270.3338623,31519.755,18832.995,61288.74,-6490.08,-33666.345,-45832.14,-6917.715,11403.315
1764434270.3338623,31518.27,18833.265,61290.135,-6490.035,-33666.795,-45832.68,-6916.23,11402.82
1764434270.3338623,31517.64,18835.65,61293.555,-6487.56,-33665.85,-45832.41,-6908.13,11405.61
1764434270.3338623,31518.18,18839.16,61298.235,-6483.915,-33664.23,-45831.06,-6895.08,11411.505
1764434270.3338623,31511.655,18835.38,61296.615,-6488.19,-33668.865,-45837.27,-6889.185,11409.39
1764434270.3338623,31505.58,18830.61,61292.52,-6494.264999999999,-33675.705,-45844.65,-6887.88,11406.555
1764434270.3338623,31509.54,18833.58,61295.265,-6491.565,-33672.42,-45841.185,-6884.685,11409.255
1764434270.3338623,31509.855,18831.06,61291.08,-6494.264999999999,-33673.905,-45842.895,-6896.115,11405.565
1764434270.3338623,31510.17,18826.56,61285.095,-6498.315,-33677.1,-45845.1,-6910.38,11400.84
1764434270.3338623,31512.735,18825.795,61283.43,-6497.009999999999,-33673.455,-45840.015,-6919.02,11398.275
1764434270.3338623,31517.235,18829.08,61286.85,-6491.474999999999,-33667.47,-45833.13,-6918.84,11400.975
1764434270.3338623,31515.48,18826.965,61284.825,-6494.715,-33671.025,-45835.695,-6918.525,11399.985
1764434270.3338623,31515.255,18829.8,61289.055,-6492.285,-33669.855,-45835.29,-6912.764999999999,11402.73
1764434270.3338623,31518.045,18835.38,61296.705,-6487.11,-33666.57,-45833.49,-6901.469999999999,11408.805
1764434270.3338623,31509.45,18831.78,61295.445,-6491.34,-33671.565,-45839.925,-6894.405,11407.005
1764434270.3338623,31502.07,18827.775,61291.98,-6495.974999999999,-33676.11,-45845.01,-6892.469999999999,11403.09
1764434270.3338623,31503.15,18827.865,61290.36,-6496.29,-33675.795,-45844.83,-6893.685,11403.495
1764434270.3353927,31507.695,18830.115,61290.405,-6494.715,-33672.42,-45841.635,-6897.06,11405.88
1764434270.3353927,31507.83,18826.2,61285.59,-6497.73,-33674.04,-45842.22,-6906.24,11401.56
1764434270.3353927,31517.505,18832.86,61291.125,-6490.44,-33665.895,-45832.77,-6908.49,11404.935
1764434270.3353927,31523.535,18837.945,61295.175,-6484.59,-33660.225,-45826.335,-6911.594999999999,11406.78
1764434270.3353927,31521.06,18833.895,61291.17,-6488.505,-33664.77,-45831.42,-6917.94,11404.08
1764434270.3353927,31517.91,18832.68,61291.98,-6489.179999999999,-33666.345,-45833.76,-6912.855,11405.295
1764434270.3818436,31516.245,18835.155,61295.805,-6488.054999999999,-33666.615,-45834.435,-6902.325,11407.905
1764434270.3818436,31508.73,18832.455,61294.77,-6492.78,-33673.095,-45840.375,-6896.115,11405.79
1764434270.3818436,31504.86,18829.485,61292.7,-6495.884999999999,-33676.2,-45845.145,-6893.82,11406.06
1764434270.3818436,31509.135,18832.005,61295.175,-6492.87,-33672.015,-45842.04,-6890.985,11410.38
1764434270.3818436,31514.58,18835.965,61297.56,-6489.045,-33667.875,-45837.18,-6896.07,11411.505
1764434270.3818436,31514.31,18831.42,61291.08,-6493.094999999999,-33670.125,-45838.44,-6906.42,11407.995
1764434270.3818436,31513.77,18825.48,61283.745,-6497.955,-33674.085,-45841.5,-6920.37,11402.28
1764434270.3818436,31517.46,18828.0,61286.175,-6494.58,-33670.17,-45837.315,-6923.52,11402.73
1764434270.3818436,31522.68,18835.155,61293.69,-6487.83,-33663.6,-45830.565,-6914.969999999999,11408.265
1764434270.3818436,31521.33,18837.18,61298.1,-6485.04,-33661.17,-45828.225,-6907.094999999999,11410.92
1764434270.3818436,31516.695,18836.37,61298.73,-6485.895,-33662.34,-45830.115,-6901.469999999999,11410.785
1764434270.383495,31510.215,18834.795,61298.145,-6488.91,-33666.119999999995,-45834.705,-6893.28,11411.235
1764434270.383495,31504.14,18830.52,61294.68,-6494.175,-33672.285,-45842.31,-6891.795,11408.76
1764434270.383495,31503.06,18828.135,61292.07,-6497.19,-33674.265,-45845.19,-6894.99,11406.195
1764434270.383495,31507.875,18828.63,61291.53,-6495.929999999999,-33672.24,-45841.995,-6899.625,11407.185
1764434270.383495,31511.025,18827.82,61289.145,-6496.065,-33671.385,-45840.78,-6909.03,11405.16
1764434270.383495,31517.73,18831.195,61288.335,-6494.13,-33668.73,-45836.415,-6916.905,11405.745
1764434270.383495,31524.255,18836.1,61292.97,-6488.505,-33661.89,-45829.44,-6914.745,11409.795
1764434270.383495,31520.97,18834.255,61293.42,-6488.28,-33662.43,-45830.205,-6913.304999999999,11408.31
1764434270.383495,31519.17,18836.145,61297.47,-6486.165,-33660.99,-45829.71,-6907.275,11409.975
1764434270.383495,31517.01,18837.045,61300.53,-6485.445,-33661.665,-45831.915,-6900.929999999999,11412.045
1764434270.383495,31508.955,18832.635,61297.11,-6493.455,-33671.97,-45841.635,-6897.195,11408.67
1764434270.383495,31503.915,18830.25,61295.58,-6495.344999999999,-33674.49,-45844.11,-6893.46,11407.05
1764434270.383495,31509.405,18834.795,61300.035,-6489.179999999999,-33666.84,-45837.72,-6889.95,11411.55
1764434270.429051,31512.51,18833.535,61295.805,-6492.014999999999,-33669.135,-45839.34,-6897.105,11411.595
1764434270.429051,31514.355,18831.51,61291.485,-6493.95,-33669.135,-45838.44,-6905.61,11409.705
1764434270.429051,31515.705,18829.485,61288.38,-6494.219999999999,-33667.38,-45835.965,-6915.465,11405.385
1764434270.429051,31517.595,18829.845,61289.235,-6491.88,-33665.355,-45831.87,-6918.12,11403.81
1764434270.429051,31517.73,18829.35,61288.155,-6493.86,-33670.17,-45834.795,-6921.99,11402.73
1764434270.430065,31521.105,18835.38,61295.445,-6488.775,-33664.994999999995,-45831.78,-6912.855,11408.625
1764434270.430065,31515.21,18833.4,61296.03,-6490.71,-33666.75,-45835.695,-6907.95,11408.58
1764434270.430065,31506.03,18828.405,61291.845,-6497.37,-33674.355,-45843.75,-6901.469999999999,11406.06
1764434270.430065,31507.785,18833.31,61296.885,-6493.5,-33670.665,-45840.825,-6891.389999999999,11410.47
1764434270.430065,31510.125,18835.425,61298.46,-6491.429999999999,-33669.54,-45838.395,-6891.525,11411.28
1764434270.430065,31514.13,18835.695,61298.145,-6490.304999999999,-33667.515,-45836.325,-6897.645,11411.19
1764434270.430065,31518.855,18836.1,61297.2,-6489.09,-33664.635,-45832.77,-6904.8,11411.235
1764434270.430065,31519.845,18833.22,61291.485,-6491.474999999999,-33665.22,-45832.05,-6915.33,11408.13
1764434270.430065,31518.945,18830.835,61289.37,-6491.16,-33664.59,-45831.195,-6920.28,11404.35
1764434270.430065,31523.535,18837.045,61297.11,-6484.815,-33658.515,-45825.75,-6914.295,11408.895
1764434270.430065,31522.77,18838.62,61299.27,-6484.995,-33659.955,-45827.775,-6908.13,11410.245
1764434270.430065,31520.43,18838.98,61301.25,-6486.03,-33662.565,-45831.105,-6903.27,11411.595
1764434270.430065,31509.405,18832.095,61295.445,-6494.085,-33672.869999999995,-45840.51,-6898.679999999999,11408.445
1764434270.430065,31505.985,18830.43,61293.96,-6496.425,-33675.57,-45844.38,-6893.37,11409.525
1764434270.430065,31511.025,18834.795,61297.065,-6493.59,-33672.285,-45842.22,-6893.009999999999,11412.585
1764434270.430065,31513.68,18835.155,61295.805,-6493.094999999999,-33670.89,-45840.195,-6898.32,11411.685
1764434270.430065,31513.365,18831.015,61291.035,-6495.435,-33669.99,-45838.485,-6909.344999999999,11406.555
1764434270.4757268,31520.16,18833.625,61291.26,-6493.139999999999,-33665.445,-45832.725,-6918.165,11406.195
1764434270.4757268,31523.535,18836.325,61292.61,-6490.17,-33662.07,-45828.45,-6921.719999999999,11407.185
1764434270.4757268,31521.285,18835.245,61291.71,-6491.295,-33663.42,-45829.845,-6918.929999999999,11407.05
1764434270.476726,31518.99,18835.74,61293.915,-6489.9,-33662.565,-45829.395,-6911.054999999999,11409.615
1764434270.476726,31519.8,18841.185,61301.025,-6486.21,-33661.215,-45828.63,-6901.02,11414.745
1764434270.476726,31510.485,18835.785,61297.65,-6492.645,-33668.73,-45837.72,-6897.87,11410.83
1764434270.476726,31506.975,18834.885,61296.48,-6492.554999999999,-33669.72,-45840.42,-6893.235,11410.785
1764434270.476726,31510.17,18837.27,61298.055,-6490.665,-33666.84,-45837.135,-6892.514999999999,11413.17
1764434270.476726,31510.395,18834.39,61293.195,-6494.4,-33669.765,-45837.81,-6900.929999999999,11409.93
1764434270.476726,31515.93,18835.155,61292.655,-6492.15,-33666.48,-45832.995,-6906.465,11410.605
1764434270.476726,31518.81,18834.21,61290.99,-6491.07,-33663.869999999995,-45829.98,-6915.465,11407.86
1764434270.476726,31519.35,18832.815,61289.1,-6492.105,-33665.265,-45831.555,-6924.509999999999,11405.565
1764434270.476726,31521.06,18836.82,61293.735,-6488.415,-33662.925,-45829.8,-6920.594999999999,11408.715
1764434270.476726,31516.65,18836.28,61295.985,-6487.335,-33662.744999999995,-45830.25,-6912.224999999999,11408.265
1764434270.476726,31513.05,18837.405,61298.73,-6485.445,-33662.295,-45829.845,-6898.634999999999,11411.37
1764434270.476726,31505.31,18833.22,61295.985,-6490.98,-33669.315,-45838.575,-6894.045,11408.265
1764434270.476726,31509.135,18837.045,61300.035,-6488.865,-33667.29,-45838.485,-6891.165,11412.585
1764434270.476726,31506.57,18830.745,61292.025,-6497.594999999999,-33675.345,-45847.215,-6900.57,11409.255
1764434270.476726,31507.47,18828.18,61287.975,-6499.844999999999,-33676.29,-45846.72,-6904.349999999999,11408.445
1764434270.476726,31516.605,18834.93,61292.7,-6492.825,-33668.415,-45838.53,-6910.245,11410.65
1764434270.476726,31522.77,18836.415,61292.52,-6490.304999999999,-33664.59,-45834.48,-6921.9,11409.03
1764434270.476726,31524.03,18835.2,61291.035,-6490.17,-33663.195,-45830.925,-6921.675,11410.02
1764434270.476726,31522.905,18836.91,61294.095,-6486.929999999999,-33661.44,-45828.315,-6915.645,11411.145
1764434270.476726,31524.255,18843.345,61303.005,-6480.134999999999,-33655.77,-45824.31,-6906.87,11415.24
1764434270.5232153,31525.02,18847.17,61308.405,-6478.02,-33655.05,-45825.075,-6898.23,11419.965
1764434270.5232153,31515.435,18840.015,61301.61,-6486.705,-33664.905,-45834.12,-6892.335,11418.705
1764434270.5232153,31510.26,18836.91,61299.18,-6491.25,-33669.405,-45838.845,-6890.04,11416.68
1764434270.523726,31510.035,18836.01,61297.56,-6491.925,-33670.08,-45839.97,-6892.83,11415.33
1764434270.523726,31516.335,18838.215,61298.505,-6489.134999999999,-33667.02,-45835.47,-6895.98,11416.905
1764434270.523726,31519.26,18836.685,61295.22,-6489.945,-33666.165,-45833.535,-6907.95,11413.98
1764434270.523726,31520.16,18833.85,61289.91,-6493.724999999999,-33667.695,-45833.265,-6920.28,11410.11
1764434270.523726,31527.135,18840.285,61295.895,-6486.255,-33658.155,-45825.39,-6917.985,11414.97
1764434270.523726,31527.18,18842.13,61299.495,-6483.06,-33655.86,-45823.455,-6912.63,11416.095
1764434270.523726,31524.705,18843.3,61302.285,-6482.34,-33656.94,-45824.13,-6904.62,11417.22
1764434270.523726,31519.8,18842.355,61302.195,-6484.365,-33660.36,-45827.865,-6897.24,11417.355
1764434270.524745,31513.23,18839.295,61301.385,-6486.12,-33664.005,-45834.21,-6892.56,11415.96
1764434270.524745,31510.44,18838.575,61300.485,-6488.82,-33666.75,-45839.745,-6894.495,11413.62
1764434270.524745,31511.97,18837.225,61298.73,-6490.665,-33667.02,-45839.475,-6895.98,11415.42
1764434270.524745,31513.05,18834.39,61294.86,-6494.31,-33669.225,-45839.34,-6901.065,11414.025
1764434270.524745,31516.11,18833.895,61292.835,-6495.389999999999,-33668.865,-45837.225,-6909.974999999999,11411.775
1764434270.524745,31517.46,18831.465,61288.605,-6496.514999999999,-33669.225,-45836.28,-6924.645,11406.33
1764434270.524745,31519.53,18832.275,61289.55,-6493.905,-33665.94,-45834.165,-6928.155,11405.205
1764434270.524745,31521.555,18835.605,61293.87,-6489.63,-33661.845,-45830.745,-6921.36,11408.625
1764434270.524745,31516.74,18834.615,61294.545,-6490.215,-33662.16,-45831.24,-6913.98,11408.895
1764434270.524745,31518.945,18840.735,61302.105,-6484.905,-33659.145,-45828.405,-6897.78,11416.68
1764434270.524745,31513.77,18840.06,61301.925,-6487.38,-33663.69,-45835.02,-6892.02,11416.59
1764434270.5648477,31513.32,18840.51,61302.33,-6487.469999999999,-33664.68,-45836.865,-6889.59,11417.895
1764434270.5648477,31513.23,18837.27,61298.235,-6491.565,-33667.965,-45839.655,-6893.325,11417.985
1764434270.5648477,31510.62,18831.42,61291.935,-6495.705,-33670.98,-45840.33,-6903.675,11411.46
1764434270.5648477,31513.095,18829.665,61288.29,-6496.155,-33670.08,-45838.575,-6916.365,11407.095
1764434270.5648477,31520.43,18832.005,61289.64,-6493.59,-33666.57,-45834.48,-6923.52,11408.58
1764434270.5648477,31518.765,18829.89,61288.245,-6493.679999999999,-33665.94,-45832.905,-6927.974999999999,11405.61
1764434270.5648477,31520.07,18833.31,61293.06,-6489.764999999999,-33662.79,-45830.07,-6921.315,11408.535
1764434270.5648477,31518.36,18835.155,61296.3,-6488.865,-33663.015,-45831.915,-6913.08,11409.885
1764434270.5648477,31514.535,18836.055,61298.505,-6490.215,-33665.715,-45835.515,-6903.54,11411.055
1764434270.5648477,31504.545,18830.385,61294.05,-6496.38,-33673.635,-45844.155,-6898.455,11407.455
1764434270.5648477,31501.17,18828.585,61292.205,-6498.855,-33675.975,-45847.53,-6897.69,11406.465
1764434270.5648477,31502.745,18828.315,61291.71,-6498.945,-33674.715,-45847.035,-6903.495,11404.53
1764434270.5648477,31508.775,18831.6,61293.645,-6495.48,-33671.115,-45842.49,-6906.195,11407.005
1764434270.5648477,31514.04,18832.455,61292.385,-6494.175,-33667.2,-45837.315,-6910.56,11409.885
1764434270.5678678,31517.46,18830.745,61288.605,-6494.985,-33666.66,-45837.495,-6924.195,11404.485
1764434270.5678678,31516.92,18826.92,61284.87,-6497.009999999999,-33668.82,-45839.07,-6935.175,11399.805
1764434270.5678678,31515.705,18826.83,61284.78,-6497.91,-33669.855,-45839.295,-6931.349999999999,11400.345
1764434270.5678678,31515.525,18830.205,61289.37,-6495.66,-33669.494999999995,-45838.575,-6920.775,11403.855
1764434270.5678678,31520.025,18839.745,61301.565,-6485.49,-33662.07,-45832.005,-6903.45,11413.26
1764434270.5678678,31511.43,18834.66,61298.37,-6491.25,-33668.055,-45840.105,-6899.13,11410.695
1764434270.5678678,31509.18,18832.275,61295.985,-6494.4,-33670.89,-45842.22,-6894.045,11412.135
1764434270.5678678,31508.145,18830.925,61293.195,-6496.425,-33672.825,-45844.515,-6899.355,11408.985
1764434270.5678678,31509.0,18830.25,61290.99,-6497.46,-33671.88,-45842.985,-6907.05,11406.465
1764434270.5678678,31513.05,18830.835,61289.37,-6496.29,-33668.73,-45839.295,-6916.139999999999,11404.035
1764434270.6159694,31517.595,18830.52,61288.2,-6495.48,-33666.255,-45836.415,-6926.175,11402.73
1764434270.6159694,31518.405,18830.7,61288.2,-6494.13,-33664.5,-45833.67,-6927.3,11403.405
1764434270.6159694,31519.53,18833.76,61292.43,-6490.44,-33662.52,-45831.69,-6920.28,11405.7
1764434270.6159694,31518.18,18834.66,61295.355,-6489.675,-33664.005,-45833.625,-6915.42,11406.285
1764434270.6159694,31519.71,18838.395,61300.35,-6486.705,-33662.025,-45833.535,-6905.25,11412.585
1764434270.6159694,31509.81,18831.375,61294.95,-6494.219999999999,-33670.71,-45843.21,-6901.065,11409.255
1764434270.6159694,31506.93,18830.565,61293.87,-6496.065,-33673.365,-45846.27,-6899.31,11409.525
1764434270.6159694,31507.785,18830.025,61292.475,-6498.179999999999,-33675.119999999995,-45845.73,-6903.495,11408.085
1764434270.6159694,31509.945,18829.98,61291.485,-6495.929999999999,-33670.71,-45842.67,-6907.995,11405.88
1764434270.6159694,31515.39,18831.375,61291.53,-6492.375,-33665.895,-45837.36,-6913.98,11406.96
1764434270.616964,31524.075,18835.245,61293.555,-6488.55,-33660.27,-45831.015,-6921.27,11409.345
1764434270.616964,31524.12,18834.705,61291.755,-6488.73,-33660.18,-45831.51,-6926.895,11406.915
1764434270.616964,31518.99,18831.15,61289.235,-6491.295,-33666.03,-45835.605,-6926.355,11404.08
1764434270.616964,31517.82,18833.535,61292.52,-6489.99,-33665.67,-45834.075,-6916.905,11406.69
1764434270.616964,31520.43,18841.32,61302.51,-6482.61,-33658.38,-45829.71,-6900.57,11415.24
1764434270.616964,31514.985,18839.295,61302.645,-6485.445,-33662.565,-45835.065,-6892.065,11415.375
1764434270.616964,31511.205,18836.505,61299.315,-6489.179999999999,-33666.21,-45839.205,-6890.264999999999,11413.44
1764434270.616964,31507.56,18832.77,61294.635,-6492.24,-33668.64,-45842.355,-6897.78,11409.03
1764434270.616964,31510.575,18833.04,61293.87,-6491.295,-33666.165,-45838.755,-6902.685,11409.795
1764434270.616964,31514.895,18831.6,61291.035,-6492.42,-33666.57,-45838.98,-6917.759999999999,11405.835
1764434270.616964,31517.325,18829.26,61286.04,-6495.615,-33668.055,-45839.565,-6930.179999999999,11401.515
1764434270.616964,31518.585,18828.18,61283.43,-6497.28,-33669.72,-45839.565,-6931.485,11402.28
1764434270.616964,31520.43,18831.825,61288.74,-6492.33,-33666.84,-45836.64,-6925.05,11405.115
1764434270.616964,31523.13,18838.665,61298.235,-6484.005,-33659.775,-45830.43,-6913.755,11410.065
1764434270.6607158,31519.08,18839.43,61300.98,-6483.509999999999,-33659.505,-45831.915,-6904.98,11411.595
1764434270.6607158,31508.235,18833.445,61297.11,-6490.665,-33668.325,-45840.645,-6898.679999999999,11408.715
1764434270.6607158,31504.635,18831.69,61295.535,-6493.815,-33670.89,-45841.68,-6895.935,11408.13
1764434270.6607158,31507.11,18831.465,61293.465,-6494.58,-33670.619999999995,-45841.365,-6900.255,11407.635
1764434270.6607158,31511.835,18831.6,61292.16,-6494.13,-33669.18,-45840.78,-6906.69,11408.355
1764434270.6607158,31513.995,18829.62,61287.66,-6496.469999999999,-33670.665,-45842.4,-6919.2,11404.305
1764434270.6607158,31519.485,18830.295,61286.355,-6495.255,-33667.965,-45838.98,-6928.83,11402.91
1764434270.6607158,31520.61,18830.79,61286.805,-6493.32,-33663.915,-45833.535,-6930.315,11403.45
1764434270.6607158,31524.48,18836.685,61294.185,-6486.84,-33658.965,-45828.36,-6921.224999999999,11408.715
1764434270.6607158,31522.545,18838.62,61297.695,-6485.804999999999,-33659.19,-45829.89,-6912.764999999999,11411.46
1764434270.6607158,31522.23,18842.76,61303.185,-6483.375,-33658.065,-45829.89,-6901.695,11415.375
1764434270.6607158,31513.905,18837.945,61300.26,-6488.009999999999,-33663.825,-45836.505,-6895.304999999999,11413.575
1764434270.6607158,31506.3,18830.79,61293.15,-6494.94,-33671.43,-45844.83,-6900.165,11407.95
1764434270.6607158,31508.91,18831.735,61292.52,-6495.255,-33671.115,-45844.38,-6902.054999999999,11408.985
1764434270.6607158,31513.275,18833.355,61292.655,-6493.139999999999,-33668.1,-45841.365,-6906.105,11409.795
1764434270.6607158,31511.835,18828.36,61285.995,-6497.325,-33671.61,-45843.075,-6919.83,11403.09
1764434270.6607158,31515.345,18829.125,61285.635,-6494.895,-33667.515,-45838.44,-6928.965,11400.885
1764434270.6607158,31521.735,18835.02,61291.53,-6487.83,-33660.0,-45829.89,-6928.065,11404.845
1764434270.6607158,31518.225,18832.68,61290.225,-6490.215,-33662.34,-45831.915,-6925.95,11403.045
1764434270.6607158,31515.3,18833.265,61291.53,-6490.08,-33664.32,-45834.345,-6921.27,11403.27
1764434270.6607158,31514.535,18836.595,61296.255,-6487.245,-33663.33,-45834.615,-6909.12,11408.805
1764434270.6607158,31509.27,18835.56,61296.57,-6489.09,-33666.885,-45839.79,-6901.605,11408.67
1764434270.705148,31505.31,18832.005,61292.835,-6494.219999999999,-33672.24,-45845.37,-6902.73,11405.79
1764434270.705148,31507.335,18832.095,61291.485,-6494.67,-33671.7,-45843.795,-6903.36,11406.645
1764434270.705148,31506.255,18828.675,61287.66,-6497.009999999999,-33671.385,-45843.615,-6910.605,11403.045
1764434270.705148,31509.315,18827.595,61284.555,-6497.594999999999,-33670.845,-45842.805,-6921.855,11400.12
1764434270.705148,31518.765,18832.185,61287.75,-6491.835,-33665.355,-45836.64,-6931.17,11401.38
1764434270.7061706,31522.86,18834.3,61289.01,-6488.685,-33662.744999999995,-45832.23,-6929.37,11405.745
1764434270.7061706,31519.53,18832.23,61289.235,-6489.54,-33663.735,-45832.59,-6924.825,11405.97
1764434270.7061706,31513.23,18829.62,61288.785,-6492.42,-33667.74,-45837.54,-6921.315,11403.225
1764434270.7061706,31514.4,18835.875,61296.3,-6488.28,-33665.13,-45836.64,-6909.075,11409.12
1764434270.7061706,31506.705,18830.88,61292.43,-6494.085,-33670.619999999995,-45844.38,-6905.79,11407.005
1764434270.7061706,31504.86,18829.53,61290.63,-6496.245,-33673.5,-45848.07,-6903.54,11407.14
1764434270.7061706,31504.23,18827.145,61286.625,-6498.99,-33676.02,-45850.005,-6909.705,11404.845
1764434270.7061706,31510.08,18830.43,61288.92,-6495.66,-33670.44,-45843.3,-6911.775,11408.085
1764434270.7061706,31511.97,18828.81,61286.085,-6496.065,-33669.99,-45841.725,-6922.98,11404.035
1764434270.7061706,31516.47,18829.62,61285.05,-6495.255,-33668.82,-45839.97,-6932.07,11403.63
1764434270.7061706,31520.16,18833.085,61288.245,-6490.889999999999,-33664.77,-45836.775,-6932.295,11404.98
1764434270.7061706,31524.21,18839.07,61294.77,-6485.04,-33660.09,-45831.87,-6922.395,11410.605
1764434270.7061706,31519.845,18837.405,61295.085,-6486.795,-33663.465,-45832.905,-6916.139999999999,11410.335
1764434270.7061706,31516.47,18837.36,61297.02,-6488.775,-33666.345,-45835.155,-6906.78,11411.685
1764434270.7061706,31508.415,18832.455,61293.735,-6491.655,-33669.36,-45843.39,-6904.08,11408.265
1764434270.706687,31506.21,18831.375,61292.205,-6492.915,-33669.494999999995,-45844.92,-6902.82,11408.04
1764434270.706687,31506.12,18830.025,61290.045,-6496.11,-33671.655,-45844.965,-6905.745,11405.745
1764434270.7531643,31509.18,18830.88,61289.28,-6495.12,-33670.53,-45842.94,-6910.02,11405.295
1764434270.7531643,31508.91,18826.11,61283.115,-6499.08,-33672.33,-45843.615,-6920.639999999999,11401.02
1764434270.7531643,31516.2,18830.16,61285.86,-6493.679999999999,-33666.119999999995,-45836.64,-6928.83,11401.74
1764434270.7531643,31522.185,18835.335,61291.305,-6486.84,-33659.82,-45831.465,-6931.935,11404.44
1764434270.7531643,31516.425,18830.835,61285.95,-6492.465,-33665.805,-45836.145,-6931.17,11401.785
1764434270.7531643,31512.42,18830.88,61287.165,-6492.96,-33667.065,-45838.62,-6925.23,11401.92
1764434270.7531643,31509.9,18833.895,61292.475,-6490.485,-33666.165,-45839.34,-6914.384999999999,11405.475
1764434270.7531643,31503.735,18830.385,61291.035,-6495.03,-33672.51,-45845.55,-6906.06,11406.06
1764434270.7531643,31501.17,18828.765,61288.785,-6497.82,-33675.03,-45849.33,-6905.384999999999,11404.305
1764434270.7531643,31505.04,18831.24,61289.01,-6496.155,-33672.42,-45847.35,-6910.605,11405.655
1764434270.7531643,31503.735,18826.155,61282.305,-6501.014999999999,-33676.965,-45851.22,-6921.45,11400.885
1764434270.7531643,31507.605,18826.335,61280.235,-6499.575,-33674.535,-45846.765,-6928.29,11401.515
1764434270.7536716,31512.06,18827.46,61280.01,-6497.865,-33670.53,-45841.95,-6934.905,11400.12
1764434270.7536716,31514.49,18829.71,61282.98,-6494.67,-33667.244999999995,-45838.17,-6934.77,11400.93
1764434270.7536716,31517.82,18835.74,61290.18,-6488.775,-33661.619999999995,-45832.725,-6924.599999999999,11406.735
1764434270.7536716,31517.595,18838.17,61294.545,-6486.075,-33660.54,-45831.78,-6916.005,11409.705
1764434270.7536716,31511.385,18836.235,61294.725,-6487.469999999999,-33664.41,-45837.045,-6910.02,11408.895
1764434270.7536716,31499.685,18827.55,61287.885,-6497.009999999999,-33675.525,-45848.79,-6911.37,11402.505
1764434270.7536716,31499.145,18827.595,61286.85,-6498.764999999999,-33678.045,-45851.94,-6910.065,11403.315
1764434270.7536716,31500.27,18827.235,61285.455,-6498.764999999999,-33677.145,-45849.6,-6913.62,11402.595
1764434270.7536716,31500.045,18822.735,61280.73,-6501.465,-33677.369999999995,-45848.745,-6921.179999999999,11398.68
1764434270.7536716,31505.535,18824.355,61279.92,-6499.304999999999,-33674.085,-45845.73,-6929.505,11398.95
1764434270.7536716,31514.04,18829.98,61283.385,-6493.815,-33668.055,-45837.855,-6932.61,11401.92
1764434270.7536716,31515.66,18830.97,61285.77,-6490.755,-33665.445,-45833.94,-6931.665,11402.235
1764434270.797768,31515.57,18834.705,61291.17,-6486.795,-33662.295,-45831.87,-6925.094999999999,11404.305
1764434270.797768,31511.565,18833.085,61290.36,-6490.304999999999,-33666.48,-45836.865,-6924.554999999999,11404.125
1764434270.797768,31508.685,18831.645,61289.73,-6493.094999999999,-33670.98,-45841.68,-6916.815,11406.915
1764434270.797768,31499.775,18826.425,61286.13,-6499.17,-33677.82,-45849.645,-6911.099999999999,11403.315
1764434270.797768,31498.2,18825.795,61286.625,-6499.8,-33677.73,-45851.04,-6907.86,11403.315
1764434270.797768,31499.505,18824.94,61284.105,-6500.969999999999,-33678.54,-45851.04,-6912.27,11401.92
1764434270.797768,31502.52,18823.95,61281.135,-6502.365,-33678.315,-45850.32,-6919.065,11400.66
1764434270.797768,31510.845,18828.18,61283.16,-6498.045,-33672.645,-45843.75,-6925.094999999999,11402.685
1764434270.797768,31515.885,18830.025,61283.295,-6494.759999999999,-33668.73,-45839.43,-6934.679999999999,11401.83
1764434270.797768,31514.58,18829.215,61282.575,-6495.12,-33668.1,-45838.755,-6938.099999999999,11398.905
1764434270.797768,31515.39,18832.185,61287.525,-6490.665,-33664.185,-45835.74,-6930.09,11402.145
1764434270.797768,31509.81,18830.745,61287.75,-6490.98,-33665.58,-45839.385,-6923.52,11401.245
1764434270.797768,31508.955,18833.895,61292.16,-6489.179999999999,-33665.04,-45840.555,-6913.575,11404.755
1764434270.797768,31499.235,18827.1,61286.22,-6496.965,-33673.905,-45849.78,-6912.045,11401.065
1764434270.797768,31498.155,18824.85,61283.88,-6501.554999999999,-33678.045,-45853.065,-6911.46,11401.11
1764434270.797768,31500.99,18825.84,61283.835,-6501.014999999999,-33676.065,-45851.265,-6914.88,11402.28
1764434270.797768,31507.38,18829.755,61287.12,-6495.929999999999,-33669.63,-45845.055,-6917.4,11404.485
1764434270.797768,31510.98,18829.395,61284.51,-6495.075,-33668.28,-45842.985,-6927.389999999999,11402.19
1764434270.797768,31512.06,18826.965,61281.36,-6496.514999999999,-33668.369999999995,-45841.905,-6937.695,11398.77
1764434270.797768,31518.09,18831.96,61285.995,-6491.34,-33662.07,-45835.605,-6934.139999999999,11403.585
1764434270.797768,31516.695,18833.85,61288.11,-6489.179999999999,-33660.99,-45835.11,-6929.19,11404.305
1764434270.797768,31511.43,18832.365,61288.29,-6490.8,-33664.905,-45839.655,-6924.33,11403.09
1764434270.797768,31509.495,18834.885,61293.195,-6488.55,-33664.095,-45839.16,-6909.974999999999,11408.355
1764434270.797768,31502.835,18832.05,61292.88,-6491.115,-33666.39,-45842.445,-6901.11,11408.49
1764434270.846512,31501.035,18831.15,61290.9,-6493.05,-33668.235,-45845.82,-6904.215,11405.7
1764434270.846512,31507.335,18832.23,61289.235,-6493.815,-33668.19,-45845.595,-6913.62,11406.69
1764434270.846512,31506.255,18826.2,61281.045,-6499.844999999999,-33673.005,-45849.24,-6925.545,11402.505
1764434270.846512,31509.585,18826.11,61279.38,-6499.08,-33670.619999999995,-45845.505,-6931.8,11400.705
1764434270.846512,31512.15,18825.93,61278.57,-6497.505,-33668.595,-45842.625,-6940.8,11396.925
1764434270.846512,31515.39,18828.405,61282.035,-6493.23,-33664.5,-45838.215,-6940.62,11398.095
1764434270.846512,31513.185,18827.91,61283.205,-6492.78,-33665.49,-45838.44,-6934.815,11399.805
1764434270.846512,31513.23,18830.88,61287.615,-6490.844999999999,-33665.265,-45838.17,-6925.32,11404.035
1764434270.846512,31514.085,18836.01,61294.77,-6486.12,-33661.71,-45836.505,-6911.594999999999,11410.425
1764434270.846512,31504.005,18830.295,61290.135,-6491.655,-33667.605,-45843.255,-6908.355,11405.7
1764434270.846512,31502.16,18829.305,61288.245,-6493.77,-33670.08,-45845.145,-6906.87,11404.485
1764434270.846512,31506.12,18831.24,61289.505,-6491.25,-33666.615,-45842.985,-6907.679999999999,11406.33
1764434270.846512,31506.705,18828.675,61284.825,-6493.679999999999,-33668.369999999995,-45844.38,-6916.995,11403.0
1764434270.846512,31514.76,18832.275,61286.985,-6489.09,-33662.43,-45837.045,-6922.215,11405.295
1764434270.846512,31519.755,18833.13,61286.355,-6489.36,-33661.53,-45834.57,-6933.465,11402.91
1764434270.846512,31518.495,18831.465,61284.42,-6491.925,-33664.23,-45836.505,-6938.73,11399.895
1764434270.846512,31519.845,18834.12,61288.245,-6488.82,-33661.395,-45834.795,-6931.844999999999,11404.035
1764434270.846512,31515.57,18832.545,61288.65,-6490.08,-33663.69,-45837.72,-6923.295,11405.025
1764434270.846512,31514.085,18836.055,61294.68,-6486.615,-33661.619999999995,-45837.495,-6910.74,11410.11
1764434270.846512,31504.95,18830.97,61289.73,-6494.264999999999,-33670.125,-45846.81,-6910.2,11406.78
1764434270.846512,31505.355,18833.31,61291.935,-6491.115,-33666.255,-45842.58,-6905.52,11408.49
1764434270.846512,31510.035,18835.245,61293.375,-6489.179999999999,-33662.97,-45840.015,-6908.49,11409.48
1764434270.89053,31512.06,18832.995,61288.605,-6492.87,-33666.119999999995,-45842.4,-6918.435,11407.095
1764434270.89053,31513.5,18828.9,61282.08,-6496.605,-33668.145,-45842.445,-6929.054999999999,11403.045
1764434270.89053,31512.51,18824.13,61275.735,-6500.429999999999,-33669.765,-45842.76,-6941.429999999999,11396.16
1764434270.89053,31513.635,18826.245,61278.705,-6496.29,-33665.535,-45838.125,-6940.71,11396.7
1764434270.89053,31516.47,18831.915,61286.67,-6489.719999999999,-33659.055,-45832.905,-6929.639999999999,11402.595
1764434270.89053,31513.41,18832.32,61289.01,-6489.315,-33659.865,-45834.705,-6921.179999999999,11403.81
1764434270.8910422,31509.54,18832.23,61290.81,-6489.764999999999,-33662.52,-45838.53,-6912.675,11405.34
1764434270.8910422,31503.42,18828.765,61287.255,-6495.389999999999,-33670.44,-45847.62,-6911.505,11403.54
1764434270.8910422,31499.685,18825.03,61282.98,-6500.295,-33675.66,-45852.57,-6912.855,11402.37
1764434270.8910422,31500.225,18824.085,61280.73,-6501.735,-33676.155,-45853.155,-6917.445,11401.605
1764434270.8910422,31503.78,18824.58,61279.245,-6501.87,-33674.49,-45850.95,-6924.105,11401.02
1764434270.8910422,31507.47,18823.32,61276.32,-6502.679999999999,-33673.77,-45848.52,-6934.59,11398.5
1764434270.8910422,31514.67,18828.045,61280.28,-6497.099999999999,-33667.605,-45838.62,-6937.335,11400.345
1764434270.8910422,31515.255,18829.485,61283.205,-6492.915,-33663.555,-45833.31,-6936.84,11400.21
1764434270.8910422,31511.07,18827.46,61282.485,-6493.995,-33666.03,-45836.55,-6934.77,11398.905
1764434270.8910422,31510.62,18830.835,61287.03,-6490.62,-33663.105,-45835.245,-6924.87,11403.315
1764434270.8910422,31507.425,18831.195,61288.92,-6492.014999999999,-33665.805,-45839.205,-6915.87,11404.935
1764434270.8910422,31500.585,18826.695,61286.085,-6497.955,-33672.645,-45847.98,-6913.98,11401.56
1764434270.8910422,31500.405,18826.02,61285.41,-6499.08,-33673.994999999995,-45849.375,-6912.9,11402.55
1764434270.8910422,31505.22,18829.305,61288.335,-6495.21,-33668.865,-45841.86,-6911.19,11405.88
1764434270.8910422,31511.205,18832.005,61289.1,-6493.094999999999,-33665.04,-45838.8,-6917.58,11407.545
1764434270.8910422,31514.58,18830.97,61285.545,-6493.094999999999,-33663.825,-45836.73,-6926.715,11405.16
1764434270.8925824,31514.22,18827.955,61281.945,-6494.58,-33663.6,-45835.605,-6935.445,11399.985
1764434270.8925824,31518.81,18832.77,61285.815,-6490.215,-33660.315,-45831.735,-6935.264999999999,11403.495
1764434270.9362905,31514.76,18830.43,61284.87,-6492.87,-33664.14,-45836.19,-6935.804999999999,11401.47
1764434270.9362905,31513.68,18832.59,61288.335,-6490.62,-33664.095,-45835.83,-6923.52,11405.16
1764434270.9378138,31513.635,18838.305,61295.22,-6486.75,-33661.035,-45834.345,-6907.005,11411.82
1764434270.9378138,31505.22,18833.265,61291.53,-6492.105,-33667.47,-45841.32,-6901.965,11408.31
1764434270.9378138,31502.655,18831.555,61290.045,-6493.365,-33668.955,-45843.93,-6906.105,11404.845
1764434270.9378138,31507.155,18833.355,61290.27,-6492.24,-33666.93,-45842.49,-6914.474999999999,11405.16
1764434270.9378138,31504.995,18826.11,61281.18,-6498.675,-33672.285,-45846.405,-6924.69,11401.155
1764434270.9378138,31512.06,18829.62,61282.98,-6494.085,-33666.03,-45839.07,-6929.054999999999,11402.64
1764434270.9378138,31518.54,18833.895,61286.49,-6488.46,-33658.74,-45832.545,-6936.3,11401.38
1764434270.9378138,31518.495,18831.33,61284.69,-6489.719999999999,-33659.505,-45832.14,-6934.545,11403.54
1764434270.9378138,31516.11,18830.79,61283.88,-6491.655,-33663.24,-45835.875,-6932.835,11404.215
1764434270.9378138,31513.905,18832.635,61287.03,-6490.304999999999,-33663.69,-45837.765,-6927.525,11404.305
1764434270.9378138,31508.28,18831.645,61289.1,-6491.34,-33667.29,-45841.005,-6916.905,11404.71
1764434270.9378138,31499.19,18826.56,61285.995,-6496.245,-33673.095,-45847.395,-6912.0,11401.11
1764434270.9393375,31503.51,18831.825,61292.34,-6489.855,-33666.03,-45841.815,-6904.395,11406.645
1764434270.9393375,31508.055,18833.94,61292.745,-6489.27,-33664.68,-45841.545,-6910.02,11407.77
1764434270.9393375,31506.03,18826.965,61282.89,-6497.594999999999,-33671.43,-45846.495,-6925.005,11401.785
1764434270.9393375,31511.295,18827.235,61282.26,-6494.759999999999,-33666.705,-45840.87,-6933.554999999999,11400.885
1764434270.9393375,31511.655,18823.365,61276.68,-6498.54,-33669.675,-45842.535,-6944.219999999999,11396.835
1764434270.9393375,31513.545,18824.085,61277.895,-6497.55,-33668.91,-45841.275,-6944.13,11397.465
1764434270.9393375,31511.88,18826.74,61281.27,-6494.94,-33666.975,-45839.79,-6937.155,11398.725
1764434270.9393375,31510.08,18829.395,61285.185,-6492.645,-33666.3,-45839.205,-6928.11,11401.83
1764434270.9393375,31511.475,18835.02,61293.015,-6487.605,-33662.744999999995,-45837.225,-6913.44,11408.355
1764434270.9393375,31505.67,18831.42,61290.135,-6492.105,-33668.145,-45844.74,-6910.74,11406.375
1764434270.987187,31498.92,18824.805,61283.88,-6498.179999999999,-33674.04,-45851.355,-6914.25,11401.56
1764434270.987187,31500.72,18824.535,61282.665,-6498.63,-33673.005,-45849.915,-6918.48,11400.66
1764434270.987187,31510.26,18829.8,61285.905,-6493.139999999999,-33666.119999999995,-45842.13,-6921.495,11405.025
1764434270.987187,31512.24,18827.505,61281.27,-6494.804999999999,-33665.94,-45840.24,-6932.88,11401.605
1764434270.987187,31511.16,18823.23,61275.645,-6499.08,-33669.27,-45842.085,-6945.389999999999,11395.53
1764434270.987187,31514.58,18827.82,61279.92,-6494.804999999999,-33665.04,-45837.945,-6941.969999999999,11398.995
1764434270.987187,31518.495,18834.255,61287.93,-6487.38,-33659.28,-45833.265,-6929.91,11405.655
1764434270.987187,31512.285,18831.555,61286.715,-6490.53,-33663.15,-45838.755,-6926.219999999999,11403.855
1764434270.987187,31508.01,18831.06,61288.065,-6492.06,-33665.13,-45843.39,-6918.525,11404.935
1764434270.987187,31498.11,18825.03,61283.115,-6500.025,-33672.69,-45851.49,-6915.78,11400.795
1764434270.987187,31496.985,18823.5,61281.36,-6502.365,-33674.49,-45853.02,-6915.014999999999,11400.57
1764434270.987187,31500.54,18824.58,61280.955,-6501.24,-33672.195,-45850.59,-6918.884999999999,11401.605
1764434270.987187,31506.525,18827.685,61282.26,-6497.55,-33667.56,-45845.055,-6922.8,11403.405
1764434270.987187,31505.13,18822.96,61276.635,-6501.105,-33669.99,-45845.955,-6935.67,11396.295
1764434270.987187,31509.585,18823.995,61275.285,-6501.915,-33670.08,-45842.67,-6941.025,11395.62
1764434270.987187,31510.98,18825.75,61277.76,-6497.865,-33666.165,-45840.105,-6941.79,11396.16
1764434270.987187,31513.095,18831.105,61285.545,-6490.349999999999,-33659.28,-45835.425,-6936.525,11399.805
1764434270.987187,31512.915,18834.615,61290.765,-6487.74,-33657.39,-45836.865,-6931.889999999999,11401.875
1764434270.987187,31506.84,18832.635,61289.505,-6492.105,-33663.33,-45843.615,-6921.045,11402.955
1764434270.9881842,31495.41,18823.23,61280.775,-6502.5,-33675.48,-45853.695,-6916.365,11398.545
1764434270.9881842,31495.32,18823.635,61281.9,-6501.014999999999,-33674.535,-45850.32,-6914.07,11399.22
1764434270.9881842,31499.01,18825.66,61282.935,-6498.45,-33669.855,-45847.44,-6922.98,11398.005
1764434271.030854,31503.96,18825.075,61279.92,-6499.62,-33670.08,-45846.45,-6930.224999999999,11398.905
1764434271.030854,31507.83,18823.995,61276.5,-6500.565,-33670.035,-45845.28,-6940.62,11395.98
1764434271.0313687,31514.085,18827.865,61278.57,-6496.02,-33664.14,-45839.025,-6945.795,11397.015
1764434271.0313687,31515.345,18829.17,61280.685,-6493.455,-33661.53,-45835.02,-6942.195,11399.805
1764434271.0313687,31510.08,18826.47,61279.785,-6496.02,-33664.905,-45838.575,-6939.945,11397.735
1764434271.0313687,31510.17,18830.88,61286.445,-6492.24,-33663.105,-45838.89,-6930.63,11400.66
1764434271.0313687,31509.495,18833.85,61292.205,-6489.63,-33661.98,-45838.62,-6916.679999999999,11406.465
1764434271.0313687,31501.935,18829.035,61287.885,-6495.525,-33668.505,-45844.965,-6911.639999999999,11405.475
1764434271.0313687,31496.85,18824.445,61283.97,-6497.865,-33671.61,-45848.295,-6914.7,11401.38
1764434271.0313687,31500.225,18825.615,61283.16,-6498.09,-33670.08,-45846.27,-6921.045,11400.57
1764434271.0313687,31508.145,18829.575,61285.455,-6495.075,-33665.445,-45840.6,-6925.455,11403.765
1764434271.031884,31510.125,18826.425,61280.64,-6497.145,-33666.165,-45839.25,-6935.849999999999,11400.48
1764434271.031884,31511.835,18824.58,61277.355,-6498.54,-33667.11,-45838.08,-6944.535,11397.465
1764434271.031884,31518.315,18831.6,61285.59,-6490.575,-33659.91,-45831.195,-6940.53,11402.28
1764434271.031884,31515.075,18831.285,61286.175,-6490.53,-33660.494999999995,-45832.23,-6934.32,11402.235
1764434271.031884,31515.57,18835.02,61291.8,-6486.84,-33658.155,-45830.205,-6921.945,11407.23
1764434271.031884,31513.23,18837.225,61295.4,-6485.625,-33658.92,-45833.535,-6913.575,11409.795
1764434271.031884,31504.32,18830.205,61289.145,-6493.995,-33667.92,-45843.66,-6913.08,11407.005
1764434271.031884,31498.605,18823.86,61282.62,-6500.88,-33674.49,-45850.185,-6916.59,11401.785
1764434271.031884,31501.575,18824.805,61283.025,-6498.27,-33671.25,-45846.99,-6921.0,11401.245
1764434271.031884,31504.905,18825.21,61281.945,-6497.145,-33668.055,-45842.175,-6927.389999999999,11400.795
1764434271.031884,31508.865,18824.22,61279.11,-6497.28,-33666.615,-45839.115,-6937.02,11398.95
1764434271.0334167,31514.265,18827.28,61280.19,-6494.219999999999,-33663.735,-45835.38,-6942.645,11400.255
1764434271.0334167,31518.495,18832.5,61285.815,-6488.639999999999,-33658.515,-45830.025,-6938.145,11403.855
1764434271.0818624,31513.23,18830.295,61285.095,-6490.215,-33659.955,-45832.905,-6935.219999999999,11401.785
1764434271.0818624,31514.625,18834.12,61291.17,-6487.38,-33658.47,-45832.86,-6925.094999999999,11406.195
1764434271.0818624,31513.77,18836.01,61294.815,-6486.435,-33659.64,-45834.615,-6912.945,11411.37
1764434271.0818624,31504.41,18830.295,61289.28,-6494.535,-33669.315,-45843.48,-6910.83,11408.265
1764434271.083369,31503.06,18829.89,61288.65,-6495.165,-33669.494999999995,-45844.155,-6909.75,11408.22
1764434271.083369,31500.945,18825.795,61282.215,-6498.719999999999,-33671.34,-45846.81,-6917.04,11403.36
1764434271.083369,31506.66,18827.685,61282.575,-6496.02,-33667.875,-45842.355,-6923.295,11404.08
1764434271.083369,31510.53,18826.425,61279.92,-6495.795,-33666.615,-45840.015,-6937.02,11399.985
1764434271.083369,31511.925,18825.57,61278.885,-6494.849999999999,-33664.365,-45836.775,-6942.87,11397.375
1764434271.083369,31508.775,18822.87,61276.14,-6498.0,-33666.615,-45839.79,-6947.639999999999,11393.595
1764434271.083369,31508.01,18823.905,61277.265,-6498.315,-33669.225,-45844.02,-6943.679999999999,11394.72
1764434271.083369,31508.775,18828.09,61283.205,-6494.445,-33666.255,-45841.995,-6932.429999999999,11400.255
1764434271.083369,31508.91,18831.51,61288.47,-6492.42,-33665.895,-45842.67,-6919.245,11406.105
1764434271.083369,31498.92,18823.095,61281.63,-6501.195,-33675.255,-45851.49,-6919.605,11400.48
1764434271.083369,31497.93,18821.385,61279.65,-6503.085,-33675.705,-45850.995,-6918.974999999999,11399.535
1764434271.083369,31503.465,18825.615,61282.845,-6498.495,-33669.315,-45845.865,-6920.91,11402.685
1764434271.083369,31503.195,18822.78,61278.255,-6501.42,-33671.07,-45846.9,-6931.62,11397.555
1764434271.083369,31506.975,18821.43,61275.78,-6500.925,-33669.405,-45843.705,-6940.17,11396.52
1764434271.083369,31513.095,18823.905,61277.445,-6497.955,-33665.445,-45838.935,-6943.905,11398.005
1764434271.083369,31517.46,18828.81,61283.52,-6492.15,-33659.91,-45833.265,-6940.395,11401.02
1764434271.083369,31512.735,18825.435,61282.08,-6495.03,-33664.095,-45837.585,-6940.485,11398.14
1764434271.083369,31513.23,18829.08,61287.3,-6492.105,-33662.61,-45837.18,-6929.19,11403.855
1764434271.083369,31508.28,18828.585,61288.65,-6493.23,-33665.715,-45840.87,-6918.974999999999,11405.61
1764434271.083369,31500.315,18824.625,61285.005,-6499.259999999999,-33672.33,-45847.17,-6915.42,11402.01
1764434271.128291,31504.68,18829.53,61289.28,-6495.165,-33667.92,-45843.075,-6911.865,11406.285
1764434271.128291,31508.01,18829.305,61287.795,-6495.66,-33667.695,-45843.3,-6919.065,11405.43
1764434271.128291,31507.245,18824.31,61281.225,-6500.34,-33670.89,-45845.37,-6929.28,11400.93
1764434271.128291,31515.705,18829.935,61285.23,-6493.995,-33663.24,-45836.1,-6934.545,11403.63
1764434271.128291,31518.27,18830.295,61285.455,-6492.24,-33661.485,-45833.13,-6939.36,11403.27
1764434271.128291,31519.98,18832.185,61287.57,-6489.719999999999,-33660.27,-45831.825,-6938.235,11404.305
1764434271.128291,31514.67,18830.34,61288.785,-6488.955,-33659.73,-45832.41,-6933.15,11403.09
1764434271.128291,31506.525,18825.21,61285.41,-6494.13,-33664.05,-45836.055,-6928.965,11400.885
1764434271.128291,31505.67,18827.685,61289.01,-6494.13,-33664.59,-45838.395,-6917.13,11404.935
1764434271.128291,31502.16,18826.02,61288.335,-6496.2,-33668.235,-45843.84,-6916.32,11403.63
1764434271.128291,31500.27,18822.645,61284.105,-6500.34,-33671.52,-45847.8,-6917.849999999999,11402.64
1764434271.128291,31505.445,18824.805,61284.195,-6499.485,-33669.54,-45844.29,-6918.389999999999,11405.97
1764434271.128291,31509.27,18825.84,61283.34,-6497.594999999999,-33667.29,-45840.825,-6924.42,11404.935
1764434271.128291,31514.04,18826.605,61283.385,-6494.715,-33663.465,-45836.19,-6933.645,11403.045
1764434271.128291,31515.885,18826.155,61282.035,-6495.03,-33662.7,-45834.84,-6943.724999999999,11399.445
1764434271.128291,31514.085,18823.995,61280.01,-6496.245,-33664.05,-45836.685,-6945.795,11397.825
1764434271.128291,31512.15,18824.94,61282.395,-6494.715,-33663.555,-45836.82,-6938.415,11400.705
1764434271.128291,31510.89,18828.54,61287.435,-6491.474999999999,-33661.755,-45836.685,-6928.245,11404.62
1764434271.128291,31511.07,18833.085,61294.095,-6487.56,-33659.91,-45834.975,-6912.315,11410.02
1764434271.128291,31506.39,18831.015,61292.745,-6491.429999999999,-33664.815,-45840.15,-6907.23,11409.255
1764434271.128291,31504.23,18829.35,61290.135,-6493.995,-33667.02,-45842.445,-6908.4,11408.4
1764434271.128291,31504.635,18827.01,61286.895,-6495.66,-33667.47,-45843.21,-6915.014999999999,11405.25
1764434271.128291,31512.195,18830.205,61288.515,-6492.33,-33662.88,-45837.99,-6920.775,11407.635
1764434271.1292918,31515.21,18827.1,61283.745,-6494.715,-33663.825,-45837.855,-6936.3,11404.71
1764434271.1770463,31515.975,18824.76,61280.91,-6496.065,-33664.32,-45836.055,-6943.679999999999,11400.75
1764434271.1770463,31521.375,18830.835,61287.03,-6489.315,-33658.065,-45829.665,-6936.705,11405.88
1764434271.1788192,31520.295,18832.23,61289.73,-6487.469999999999,-33658.065,-45831.33,-6931.665,11407.995
1764434271.1788192,31516.605,18832.995,61292.655,-6486.21,-33656.985,-45831.285,-6921.99,11409.795
1764434271.1788192,31510.26,18831.555,61292.835,-6488.91,-33661.395,-45836.37,-6913.935,11408.895
1764434271.1788192,31503.195,18826.47,61288.605,-6495.435,-33668.64,-45845.01,-6912.81,11405.115
1764434271.1788192,31501.395,18823.95,61286.085,-6496.245,-33669.315,-45846.675,-6914.115,11403.45
1764434271.1788192,31502.835,18821.97,61282.08,-6497.46,-33669.54,-45846.855,-6919.425,11402.28
1764434271.1788192,31509.225,18824.31,61281.765,-6496.605,-33667.74,-45842.94,-6926.4,11405.34
1764434271.1803827,31513.14,18823.635,61278.255,-6498.9,-33668.82,-45840.645,-6940.755,11402.73
1764434271.1803827,31515.12,18823.68,61277.76,-6497.865,-33667.605,-45838.935,-6947.91,11399.58
1764434271.1803827,31515.705,18825.93,61282.395,-6492.195,-33661.619999999995,-45836.055,-6944.49,11399.715
1764434271.1803827,31511.07,18824.49,61283.025,-6492.24,-33662.16,-45836.955,-6937.29,11399.445
1764434271.1813962,31507.2,18824.625,61285.095,-6492.014999999999,-33663.6,-45838.395,-6928.335,11399.445
1764434271.1813962,31512.465,18834.93,61296.93,-6483.06,-33656.625,-45832.275,-6911.505,11408.985
1764434271.1813962,31501.305,18826.47,61289.73,-6492.195,-33665.13,-45841.545,-6911.099999999999,11404.035
1764434271.1813962,31497.165,18820.845,61283.475,-6498.179999999999,-33670.665,-45847.17,-6915.509999999999,11400.885
1764434271.1813962,31506.075,18825.48,61285.86,-6495.21,-33668.055,-45844.965,-6921.99,11404.08
1764434271.1813962,31511.745,18826.335,61283.79,-6495.48,-33667.065,-45843.84,-6930.764999999999,11404.62
1764434271.182395,31517.685,18826.785,61282.17,-6494.264999999999,-33662.88,-45836.28,-6934.95,11406.51
1764434271.182395,31522.32,18830.07,61285.14,-6489.63,-33657.435,-45829.98,-6938.415,11406.33
1764434271.182395,31520.79,18830.43,61287.03,-6486.57,-33655.455,-45828.54,-6936.795,11405.7
1764434271.2199807,31519.035,18830.97,61288.65,-6486.705,-33657.165,-45830.07,-6930.54,11406.87
1764434271.2199807,31517.91,18833.805,61293.015,-6484.724999999999,-33656.85,-45831.375,-6922.665,11409.255
1764434271.2199807,31510.17,18830.16,61291.17,-6489.54,-33663.645,-45839.115,-6917.04,11407.005
1764434271.2199807,31499.46,18821.88,61283.385,-6499.17,-33673.905,-45850.59,-6917.58,11400.84
1764434271.2199807,31500.135,18822.285,61283.925,-6498.495,-33673.05,-45849.555,-6916.545,11402.28
1764434271.2199807,31507.65,18827.145,61287.885,-6492.375,-33666.165,-45840.915,-6916.95,11406.78
1764434271.2199807,31514.085,18829.845,61288.785,-6489.99,-33662.79,-45837.09,-6924.554999999999,11407.86
1764434271.2199807,31516.695,18827.46,61284.285,-6491.115,-33662.025,-45835.56,-6936.705,11404.98
1764434271.2199807,31517.415,18826.425,61283.25,-6491.25,-33660.855,-45834.075,-6942.78,11402.505
1764434271.2199807,31516.155,18826.38,61284.42,-6490.889999999999,-33660.27,-45832.905,-6941.25,11401.875
1764434271.2199807,31511.745,18824.715,61283.34,-6493.32,-33663.69,-45836.64,-6935.49,11400.66
1764434271.2199807,31510.755,18828.045,61288.155,-6490.304999999999,-33662.475,-45836.505,-6925.365,11404.71
1764434271.2199807,31512.915,18833.715,61295.22,-6485.94,-33659.505,-45834.795,-6913.395,11412.045
1764434271.2199807,31507.56,18829.26,61290.765,-6491.16,-33665.715,-45840.645,-6910.785,11409.525
1764434271.2199807,31503.285,18823.86,61284.735,-6496.695,-33670.845,-45846.36,-6915.69,11404.305
1764434271.2199807,31504.5,18822.15,61283.07,-6497.775,-33669.9,-45845.145,-6921.045,11402.73
1764434271.2199807,31508.91,18823.14,61282.62,-6496.469999999999,-33666.795,-45841.545,-6926.219999999999,11402.955
1764434271.2199807,31515.885,18826.92,61284.735,-6491.969999999999,-33660.315,-45833.895,-6932.295,11404.485
1764434271.2199807,31515.975,18825.03,61282.17,-6492.33,-33660.405,-45834.705,-6943.815,11399.58
1764434271.2199807,31515.03,18824.805,61281.675,-6493.275,-33661.845,-45835.56,-6944.58,11399.85
1764434271.2648232,31517.91,18830.565,61288.74,-6488.145,-33657.165,-45830.745,-6930.945,11406.33
1764434271.2648232,31516.2,18832.725,61291.98,-6485.849999999999,-33657.57,-45832.365,-6921.405,11407.23
1764434271.2648232,31511.43,18830.565,61291.395,-6488.55,-33662.655,-45838.44,-6913.215,11408.535
1764434271.265844,31505.49,18826.83,61289.01,-6492.645,-33666.93,-45843.255,-6909.705,11408.04
1764434271.265844,31500.63,18822.735,61284.15,-6498.36,-33671.655,-45848.43,-6916.59,11402.685
1764434271.265844,31506.03,18825.12,61284.915,-6496.695,-33668.369999999995,-45844.785,-6920.325,11404.17
