Timestamp,Channel1,Channel2,Channel3,Channel4,Channel5,Channel6,Channel7,Channel8
1764435595.0435507,20914.875,5702.535,51074.73,-8855.775,-38126.745,-44127.81,-7722.495,7176.42
1764435595.0435507,20910.465,5704.38,51077.835,-8854.425,-38127.78,-44130.33,-7711.965,7178.535
1764435595.0435507,20903.085,5703.929999999999,51079.5,-8855.055,-38131.245,-44134.47,-7696.889999999999,7181.955
1764435595.0435507,20892.42,5700.96,51077.565,-8860.545,-38138.22,-44142.705,-7683.389999999999,7181.91
1764435595.044565,20893.275,5705.46,51082.47,-8858.52,-38136.24,-44141.67,-7671.554999999999,7187.445
1764435595.044565,20893.185,5703.21,51078.6,-8861.58,-38137.14,-44142.615,-7675.514999999999,7185.87
1764435595.044565,20895.705,5699.025,51073.695,-8863.875,-38137.14,-44141.31,-7687.125,7182.315
1764435595.044565,20906.775,5701.95,51075.09,-8859.33,-38130.705,-44133.705,-7699.365,7183.125
1764435595.044565,20914.065,5701.32,51072.57,-8859.06,-38128.365,-44130.6,-7720.019999999999,7177.679999999999
1764435595.044565,20920.455,5704.065,51074.91,-8856.09,-38125.215,-44125.02,-7724.61,7178.625
1764435595.044565,20921.445,5707.485,51079.23,-8851.949999999999,-38122.155,-44121.465,-7717.049999999999,7182.27
1764435595.044565,20912.58,5704.605,51078.78,-8853.66,-38126.475,-44126.865,-7709.085,7180.65
1764435595.044565,20905.695,5706.045,51081.39,-8853.255,-38128.5,-44130.825,-7693.83,7183.98
1764435595.044565,20897.775,5705.685,51081.93,-8855.91,-38132.28,-44136.54,-7677.99,7186.679999999999
1764435595.044565,20892.6,5703.165,51079.095,-8860.005,-38136.87,-44141.715,-7672.455,7186.545
1764435595.044565,20890.08,5698.935,51073.245,-8864.955,-38140.155,-44145.765,-7679.79,7182.27
1764435595.044565,20892.87,5696.054999999999,51069.78,-8866.125,-38140.245,-44145.495,-7692.615,7177.455
1764435595.044565,20904.885,5700.195,51072.795,-8861.805,-38133.0,-44137.08,-7703.28,7179.255
1764435595.044565,20909.88,5698.08,51068.745,-8862.795,-38131.74,-44132.67,-7720.335,7175.205
1764435595.044565,20914.47,5700.42,51071.76,-8858.565,-38127.555,-44127.225,-7723.53,7175.88
1764435595.044565,20913.39,5702.67,51075.315,-8854.244999999999,-38125.08,-44124.57,-7717.59,7177.23
1764435595.044565,20911.005,5704.875,51078.915,-8852.31,-38125.26,-44125.155,-7706.565,7181.505
1764435595.0827856,20905.875,5706.0,51080.31,-8854.244999999999,-38129.49,-44131.59,-7695.224999999999,7183.844999999999
1764435595.0827856,20893.68,5701.545,51077.52,-8860.095,-38138.04,-44141.805,-7683.615,7182.224999999999
1764435595.0827856,20889.675,5701.32,51076.845,-8861.625,-38140.29,-44144.19,-7672.815,7185.554999999999
1764435595.0827856,20887.965,5697.135,51071.31,-8866.8,-38143.44,-44147.97,-7681.455,7180.605
1764435595.0827856,20894.085,5696.505,51070.41,-8865.945,-38140.065,-44143.965,-7692.66,7178.175
1764435595.0827856,20902.275,5697.405,51069.42,-8864.19,-38136.915,-44137.98,-7706.745,7177.545
1764435595.0827856,20910.87,5697.855,51068.25,-8861.67,-38132.82,-44132.805,-7722.315,7175.205
1764435595.0827856,20916.405,5700.915,51071.085,-8857.215,-38127.735,-44127.045,-7725.42,7176.509999999999
1764435595.0827856,20916.045,5703.344999999999,51074.325,-8854.695,-38125.935,-44125.155,-7719.57,7178.31
1764435595.0827856,20913.435,5706.719999999999,51079.905,-8851.095,-38125.17,-44124.57,-7706.429999999999,7182.405
1764435595.0827856,20904.12,5705.37,51080.265,-8854.289999999999,-38130.165,-44131.41,-7694.054999999999,7183.125
1764435595.0827856,20892.735,5701.679999999999,51077.655,-8860.185,-38137.545,-44141.04,-7681.32,7182.81
1764435595.0827856,20892.06,5703.435,51078.96,-8860.635,-38138.04,-44143.155,-7672.139999999999,7186.679999999999
1764435595.0827856,20893.365,5702.49,51076.53,-8863.38,-38138.805,-44143.965,-7677.63,7184.969999999999
1764435595.0827856,20897.235,5700.78,51072.93,-8864.279999999999,-38137.365,-44141.715,-7689.195,7182.63
1764435595.0827856,20903.445,5698.755,51070.86,-8863.965,-38133.945,-44136.81,-7703.37,7179.165
1764435595.0827856,20911.725,5699.385,51071.4,-8860.5,-38128.995,-44130.015,-7718.085,7175.925
1764435595.0827856,20916.0,5702.13,51073.65,-8857.35,-38124.405,-44126.595,-7725.78,7174.485
1764435595.0837977,20912.76,5701.275,51073.56,-8858.475,-38126.205,-44128.44,-7722.809999999999,7174.304999999999
1764435595.0837977,20907.18,5700.78,51075.045,-8859.195,-38128.815,-44131.77,-7712.099999999999,7176.014999999999
1764435595.0837977,20898.675,5701.23,51076.98,-8859.779999999999,-38131.965,-44136.63,-7698.465,7177.23
1764435595.0837977,20890.665,5700.285,51077.07,-8862.57,-38137.05,-44142.705,-7682.49,7180.965
1764435595.1311774,20890.17,5702.4,51078.78,-8862.029999999999,-38137.32,-44143.965,-7673.715,7185.42
1764435595.1311774,20889.405,5698.395,51073.56,-8866.664999999999,-38140.29,-44146.755,-7680.33,7181.73
1764435595.1311774,20896.11,5699.655,51072.795,-8865.63,-38137.455,-44142.705,-7689.375,7181.505
1764435595.1311774,20903.085,5699.52,51071.085,-8864.64,-38133.99,-44138.745,-7702.92,7179.48
1764435595.1311774,20909.07,5697.495,51068.745,-8864.369999999999,-38131.245,-44133.525,-7719.12,7175.07
1764435595.1311774,20914.92,5701.275,51073.335,-8857.619999999999,-38124.945,-44126.28,-7721.91,7176.509999999999
1764435595.1311774,20913.255,5702.4,51076.305,-8855.414999999999,-38123.64,-44125.2,-7717.724999999999,7177.995
1764435595.1311774,20907.495,5702.219999999999,51078.06,-8856.045,-38125.755,-44128.395,-7708.455,7179.389999999999
1764435595.1311774,20896.02,5698.349999999999,51075.495,-8860.904999999999,-38133.72,-44137.485,-7697.79,7177.679999999999
1764435595.1311774,20888.73,5698.844999999999,51077.385,-8860.994999999999,-38136.555,-44141.67,-7682.04,7180.605
1764435595.1311774,20883.645,5695.695,51074.37,-8866.619999999999,-38142.72,-44148.105,-7677.179999999999,7180.92
1764435595.1311774,20883.645,5693.219999999999,51070.455,-8869.949999999999,-38145.24,-44149.995,-7683.57,7178.895
1764435595.1311774,20892.51,5695.92,51070.995,-8867.43,-38140.74,-44145.09,-7691.985,7179.66
1764435595.1311774,20899.755,5694.705,51067.17,-8868.105,-38138.58,-44141.805,-7709.13,7175.655
1764435595.1311774,20910.195,5698.08,51070.41,-8862.3,-38130.66,-44132.22,-7722.495,7175.295
1764435595.1311774,20910.555,5697.63,51070.545,-8860.23,-38128.68,-44129.07,-7727.445,7172.955
1764435595.1311774,20907.81,5698.485,51073.02,-8858.205,-38128.32,-44127.99,-7720.29,7173.99
1764435595.1311774,20902.995,5699.295,51075.765,-8857.215,-38129.625,-44130.285,-7707.554999999999,7176.195
1764435595.1311774,20897.01,5700.735,51078.285,-8857.845,-38132.37,-44134.29,-7692.615,7179.84
1764435595.1311774,20888.28,5699.07,51077.43,-8862.21,-38138.58,-44143.38,-7683.299999999999,7180.11
1764435595.1321828,20886.21,5698.485,51076.935,-8864.279999999999,-38140.92,-44146.395,-7676.415,7182.36
1764435595.1321828,20886.615,5695.245,51072.84,-8867.34,-38142.315,-44147.295,-7680.69,7180.695
1764435595.1321828,20890.935,5693.355,51069.69,-8867.52,-38140.56,-44144.64,-7691.58,7178.445
1764435595.1321828,20898.27,5692.77,51067.98,-8867.295,-38136.87,-44140.05,-7708.275,7175.16
1764435595.1321828,20908.485,5695.469999999999,51069.285,-8863.199999999999,-38130.075,-44131.14,-7720.74,7174.215
1764435595.1321828,20914.38,5700.014999999999,51075.405,-8856.585,-38123.865,-44123.355,-7721.91,7176.554999999999
1764435595.1758573,20908.62,5697.81,51074.685,-8858.52,-38126.79,-44126.91,-7719.84,7173.719999999999
1764435595.1758573,20903.985,5698.08,51076.17,-8859.33,-38129.94,-44130.105,-7708.815,7176.42
1764435595.1758573,20898.945,5700.51,51079.545,-8859.6,-38131.2,-44134.065,-7692.389999999999,7181.325
1764435595.1758573,20891.16,5700.15,51080.67,-8861.13,-38134.98,-44140.185,-7677.045,7183.98
1764435595.1758573,20887.245,5699.969999999999,51080.22,-8862.93,-38137.41,-44143.92,-7672.995,7184.52
1764435595.1758573,20888.73,5697.54,51075.945,-8865.81,-38138.715,-44144.865,-7679.655,7182.495
1764435595.1758573,20894.535,5696.37,51073.29,-8865.945,-38137.275,-44142.615,-7690.634999999999,7180.425
1764435595.1758573,20900.835,5694.705,51070.455,-8865.539999999999,-38134.53,-44139.105,-7706.34,7176.78
1764435595.1758573,20908.44,5694.389999999999,51068.43,-8863.965,-38131.425,-44133.84,-7720.695,7174.395
1764435595.1758573,20915.37,5699.565,51073.875,-8857.71,-38124.72,-44125.335,-7721.639999999999,7177.365
1764435595.1758573,20909.205,5697.179999999999,51072.84,-8859.779999999999,-38127.915,-44129.025,-7719.57,7174.08
1764435595.1758573,20903.94,5697.315,51075.63,-8859.375,-38129.175,-44132.22,-7707.96,7175.969999999999
1764435595.1758573,20897.775,5698.935,51079.68,-8858.97,-38130.345,-44135.775,-7692.57,7179.389999999999
1764435595.1763914,20889.765,5697.719999999999,51079.86,-8861.49,-38136.015,-44142.975,-7679.7,7180.965
1764435595.1763914,20884.995,5695.469999999999,51076.575,-8865.539999999999,-38140.29,-44147.34,-7675.469999999999,7181.145
1764435595.1763914,20881.53,5688.9,51069.24,-8871.93,-38144.025,-44151.885,-7684.245,7175.205
1764435595.1763914,20886.255,5687.73,51066.36,-8873.055,-38143.035,-44149.77,-7696.08,7172.685
1764435595.1763914,20897.595,5691.645,51067.305,-8869.32,-38138.13,-44143.785,-7711.065,7172.415
1764435595.1763914,20905.605,5692.995,51068.475,-8864.55,-38131.875,-44136.45,-7724.295,7170.03
1764435595.1763914,20908.755,5694.344999999999,51070.545,-8861.58,-38128.365,-44131.725,-7727.355,7170.21
1764435595.1763914,20909.655,5698.485,51076.035,-8857.08,-38126.07,-44129.385,-7718.49,7174.53
1764435595.1763914,20905.11,5701.094999999999,51080.445,-8854.875,-38126.745,-44130.465,-7704.09,7177.995
1764435595.2189307,20895.39,5698.26,51080.085,-8858.654999999999,-38132.865,-44136.045,-7690.139999999999,7178.849999999999
1764435595.2189307,20883.285,5691.285,51073.875,-8866.845,-38142.405,-44147.34,-7681.32,7176.78
1764435595.2189307,20884.23,5695.245,51076.755,-8865.09,-38141.955,-44149.23,-7678.665,7179.929999999999
1764435595.2189307,20885.85,5693.4,51073.875,-8867.295,-38142.585,-44150.04,-7684.65,7177.995
1764435595.2189307,20891.07,5692.5,51071.355,-8867.52,-38140.92,-44147.295,-7694.594999999999,7176.285
1764435595.2189307,20897.28,5691.105,51068.205,-8867.88,-38138.94,-44143.38,-7709.715,7173.0
1764435595.2189307,20905.83,5692.679999999999,51068.43,-8864.279999999999,-38133.315,-44135.955,-7721.865,7172.415
1764435595.2201743,20910.78,5696.594999999999,51072.795,-8858.43,-38128.005,-44129.88,-7723.394999999999,7174.53
1764435595.2201743,20906.325,5696.099999999999,51073.92,-8858.34,-38128.995,-44131.23,-7720.92,7172.415
1764435595.2201743,20904.12,5699.925,51080.31,-8854.965,-38127.51,-44130.96,-7708.5,7176.42
1764435595.2201743,20893.32,5696.775,51078.69,-8858.88,-38134.755,-44139.33,-7695.9,7176.599999999999
1764435595.2201743,20887.83,5698.08,51080.94,-8858.97,-38136.915,-44143.245,-7678.934999999999,7182.675
1764435595.2201743,20882.07,5693.58,51076.89,-8863.199999999999,-38141.775,-44148.825,-7676.054999999999,7180.245
1764435595.2201743,20878.695,5687.145,51069.735,-8869.095,-38146.455,-44152.92,-7686.495,7174.17
1764435595.2201743,20887.47,5688.585,51069.555,-8867.43,-38142.045,-44148.06,-7696.08,7174.53
1764435595.2201743,20901.375,5693.895,51072.615,-8862.345,-38135.07,-44138.34,-7706.88,7177.094999999999
1764435595.2211692,20909.07,5693.895,51071.445,-8860.725,-38131.245,-44132.265,-7720.514999999999,7175.655
1764435595.2211692,20910.015,5693.985,51071.895,-8859.33,-38129.625,-44130.465,-7725.87,7173.945
1764435595.2221682,20906.505,5694.525,51073.38,-8858.07,-38130.345,-44131.68,-7721.37,7173.675
1764435595.2221682,20899.98,5693.76,51076.305,-8857.395,-38132.1,-44135.595,-7711.92,7174.304999999999
1764435595.2221682,20891.025,5693.085,51078.015,-8859.33,-38137.185,-44141.94,-7697.115,7175.835
1764435595.2221682,20881.935,5690.835,51076.98,-8862.615,-38142.765,-44148.78,-7682.67,7177.32
1764435595.265928,20879.055,5689.035,51074.01,-8865.315,-38145.645,-44151.615,-7677.315,7177.634999999999
1764435595.265928,20883.645,5690.34,51073.245,-8864.955,-38144.205,-44150.895,-7683.434999999999,7176.42
1764435595.265928,20890.395,5691.51,51072.885,-8863.83,-38141.37,-44147.43,-7696.62,7174.395
1764435595.265928,20898.945,5691.554999999999,51071.805,-8861.984999999999,-38136.195,-44140.905,-7708.455,7175.295
1764435595.265928,20903.805,5689.485,51069.33,-8861.445,-38133.045,-44136.36,-7723.215,7170.57
1764435595.265928,20908.755,5692.77,51072.435,-8857.935,-38130.39,-44131.95,-7726.455,7172.009999999999
1764435595.265928,20910.78,5699.655,51080.445,-8851.725,-38126.43,-44127.765,-7715.969999999999,7177.455
1764435595.265928,20903.67,5699.16,51081.12,-8853.255,-38129.22,-44131.59,-7705.08,7178.804999999999
1764435595.265928,20889.495,5691.87,51076.62,-8860.635,-38139.345,-44142.795,-7695.0,7174.98
1764435595.265928,20883.195,5692.5,51078.195,-8862.84,-38144.385,-44149.005,-7680.24,7178.445
1764435595.265928,20883.06,5694.389999999999,51078.69,-8862.3,-38143.305,-44150.085,-7676.144999999999,7181.235
1764435595.265928,20880.315,5688.0,51070.545,-8868.779999999999,-38147.22,-44154.405,-7688.565,7174.62
1764435595.265928,20885.265,5686.965,51067.71,-8868.734999999999,-38145.6,-44151.075,-7699.184999999999,7172.594999999999
1764435595.265928,20895.66,5689.755,51068.655,-8864.505,-38139.165,-44142.705,-7710.705,7172.505
1764435595.265928,20902.095,5688.495,51066.9,-8864.369999999999,-38136.6,-44138.925,-7727.04,7167.96
1764435595.265928,20905.38,5690.565,51069.555,-8861.22,-38134.08,-44136.135,-7729.965,7167.69
1764435595.2669406,20905.065,5695.11,51074.955,-8856.81,-38131.38,-44133.615,-7720.605,7172.099999999999
1764435595.2669406,20899.755,5696.46,51077.97,-8856.27,-38132.64,-44135.37,-7707.014999999999,7175.384999999999
1764435595.2669406,20889.36,5694.075,51077.61,-8858.654999999999,-38136.915,-44141.13,-7694.144999999999,7174.485
1764435595.2669406,20878.38,5689.53,51073.965,-8864.64,-38144.565,-44150.49,-7684.83,7173.045
1764435595.2669406,20878.47,5690.025,51074.145,-8866.305,-38146.14,-44152.605,-7679.34,7176.825
1764435595.2669406,20879.505,5686.92,51069.375,-8869.904999999999,-38148.84,-44155.125,-7688.25,7173.27
1764435595.2669406,20885.265,5685.84,51066.585,-8870.175,-38147.355,-44151.84,-7699.995,7172.46
1764435595.2669406,20898.18,5690.925,51069.96,-8863.244999999999,-38138.985,-44141.58,-7711.965,7174.755
1764435595.314195,20905.245,5692.094999999999,51069.96,-8859.779999999999,-38133.54,-44134.425,-7725.33,7172.28
1764435595.31521,20906.82,5692.815,51070.68,-8858.16,-38132.37,-44132.445,-7728.48,7171.245
1764435595.31521,20905.83,5696.235,51075.63,-8854.56,-38129.625,-44130.555,-7719.48,7173.81
1764435595.31521,20898.045,5694.48,51075.0,-8857.44,-38134.305,-44136.36,-7710.48,7173.495
1764435595.31521,20890.845,5695.469999999999,51077.385,-8857.845,-38137.635,-44141.265,-7695.045,7176.554999999999
1764435595.31521,20881.845,5693.4,51076.17,-8862.525,-38144.16,-44149.275,-7682.804999999999,7176.96
1764435595.31521,20880.36,5693.31,51075.9,-8863.92,-38145.375,-44151.12,-7677.405,7179.255
1764435595.31521,20880.54,5690.295,51070.905,-8866.529999999999,-38147.175,-44151.525,-7685.28,7175.655
1764435595.31521,20883.33,5686.965,51066.495,-8869.095,-38147.265,-44151.345,-7699.365,7170.929999999999
1764435595.31521,20894.715,5690.16,51067.755,-8865.0,-38140.92,-44143.605,-7711.38,7171.83
1764435595.31521,20905.38,5694.885,51070.23,-8859.465,-38132.505,-44134.245,-7720.92,7173.134999999999
1764435595.31521,20907.27,5696.054999999999,51072.345,-8857.664999999999,-38130.39,-44131.185,-7722.269999999999,7173.134999999999
1764435595.31521,20900.16,5692.95,51071.13,-8860.23,-38133.99,-44135.01,-7718.309999999999,7170.795
1764435595.31521,20897.145,5696.82,51077.16,-8857.305,-38133.72,-44135.865,-7706.565,7173.36
1764435595.31621,20890.62,5697.764999999999,51079.095,-8857.935,-38136.645,-44140.86,-7692.84,7176.42
1764435595.31621,20882.295,5695.56,51077.07,-8861.94,-38142.27,-44146.845,-7677.719999999999,7179.48
1764435595.31621,20882.835,5696.955,51077.88,-8861.895,-38142.405,-44147.79,-7674.344999999999,7180.74
1764435595.31621,20884.77,5694.435,51074.325,-8864.279999999999,-38142.99,-44149.32,-7685.73,7176.87
1764435595.31621,20887.83,5690.745,51068.79,-8867.475,-38143.98,-44148.87,-7698.42,7173.675
1764435595.31621,20895.795,5689.035,51065.595,-8868.465,-38141.865,-44144.955,-7713.855,7171.469999999999
1764435595.31621,20899.89,5687.235,51063.03,-8867.699999999999,-38139.615,-44140.905,-7728.389999999999,7166.79
1764435595.31621,20904.93,5692.41,51069.195,-8860.545,-38132.55,-44132.985,-7726.32,7169.67
1764435595.31621,20904.03,5695.605,51073.245,-8857.845,-38131.47,-44132.67,-7718.355,7171.92
1764435595.31621,20899.755,5697.405,51076.26,-8856.945,-38132.55,-44135.685,-7705.98,7174.62
1764435595.35734,20890.08,5694.57,51075.54,-8860.545,-38138.895,-44143.065,-7692.84,7175.07
1764435595.35734,20880.945,5691.87,51074.01,-8865.27,-38144.565,-44149.77,-7680.465,7176.599999999999
1764435595.35734,20877.66,5690.295,51071.895,-8868.33,-38147.49,-44154.0,-7678.844999999999,7175.52
1764435595.35734,20879.91,5688.719999999999,51068.205,-8870.805,-38148.165,-44155.305,-7687.53,7173.585
1764435595.3593583,20886.165,5688.09,51066.495,-8870.49,-38146.05,-44152.155,-7698.375,7171.65
1764435595.3593583,20894.265,5687.775,51064.515,-8869.41,-38141.91,-44145.36,-7712.235,7169.4
1764435595.3593583,20905.02,5692.005,51068.295,-8863.199999999999,-38133.675,-44134.245,-7721.505,7170.795
1764435595.3593583,20906.775,5693.804999999999,51070.905,-8860.365,-38130.975,-44132.13,-7724.565,7170.21
1764435595.3603556,20901.195,5692.32,51071.085,-8862.164999999999,-38133.99,-44135.415,-7719.974999999999,7168.77
1764435595.3603556,20898.945,5695.56,51076.485,-8859.15,-38132.82,-44135.505,-7705.08,7174.44
1764435595.3603556,20889.765,5695.605,51077.565,-8860.859999999999,-38137.365,-44141.76,-7690.455,7176.465
1764435595.3603556,20881.44,5693.535,51076.035,-8864.91,-38144.115,-44149.59,-7678.17,7177.815
1764435595.3613558,20877.66,5690.61,51072.12,-8869.095,-38148.03,-44154.315,-7676.46,7176.465
1764435595.3613558,20876.76,5685.705,51065.64,-8873.64,-38150.325,-44155.755,-7685.099999999999,7171.425
1764435595.3613558,20883.105,5685.389999999999,51063.84,-8873.234999999999,-38146.77,-44152.065,-7697.79,7169.94
1764435595.3613558,20895.66,5689.755,51066.405,-8867.88,-38138.58,-44143.11,-7710.57,7171.29
1764435595.3623586,20909.7,5697.045,51072.435,-8859.465,-38128.005,-44131.77,-7719.929999999999,7174.62
1764435595.3623586,20911.32,5696.775,51072.885,-8859.15,-38127.465,-44130.24,-7721.775,7174.755
1764435595.3623586,20906.37,5696.46,51074.55,-8858.88,-38128.59,-44131.23,-7714.44,7174.98
1764435595.3623586,20898.27,5695.29,51075.18,-8860.365,-38132.235,-44136.09,-7704.54,7174.215
1764435595.363357,20889.99,5696.01,51077.16,-8860.725,-38134.845,-44140.815,-7688.25,7177.679999999999
1764435595.363357,20880.81,5692.23,51074.46,-8866.8,-38142.315,-44149.68,-7677.99,7177.41
1764435595.4037347,20882.385,5694.075,51075.225,-8866.215,-38141.73,-44150.22,-7672.724999999999,7181.28
1764435595.4042473,20885.58,5692.815,51072.075,-8867.475,-38142.225,-44150.355,-7681.545,7179.974999999999
1764435595.4042473,20892.195,5693.219999999999,51070.32,-8867.205,-38139.975,-44147.205,-7692.795,7177.815
1764435595.4042473,20899.08,5691.735,51067.71,-8867.385,-38136.33,-44142.345,-7708.995,7173.45
1764435595.4042473,20907.135,5693.895,51069.33,-8862.119999999999,-38129.805,-44134.02,-7720.335,7173.179999999999
1764435595.4042473,20913.255,5699.88,51076.62,-8854.965,-38122.92,-44125.605,-7716.825,7177.86
1764435595.4042473,20909.475,5700.06,51078.735,-8854.965,-38124.045,-44127.54,-7710.389999999999,7178.445
1764435595.4042473,20902.995,5699.205,51079.905,-8856.315,-38127.15,-44131.545,-7698.24,7179.48
1764435595.4042473,20890.8,5694.974999999999,51077.52,-8861.94,-38135.16,-44141.49,-7687.304999999999,7177.275
1764435595.4042473,20883.96,5696.054999999999,51078.465,-8862.615,-38137.41,-44145.36,-7672.365,7181.145
1764435595.4042473,20879.955,5692.995,51075.135,-8865.9,-38140.29,-44149.05,-7670.79,7180.605
1764435595.4042473,20878.965,5688.27,51069.15,-8870.445,-38142.405,-44151.39,-7680.735,7175.295
1764435595.4042473,20886.255,5687.82,51066.675,-8871.21,-38140.965,-44149.005,-7692.705,7173.134999999999
1764435595.4042473,20898.81,5691.06,51067.305,-8867.789999999999,-38136.105,-44143.2,-7708.769999999999,7172.594999999999
1764435595.4042473,20905.695,5690.07,51066.36,-8866.529999999999,-38133.09,-44138.655,-7722.99,7170.344999999999
1764435595.4042473,20907.27,5691.554999999999,51068.97,-8863.92,-38130.165,-44134.245,-7721.594999999999,7171.245
1764435595.4042473,20904.12,5693.58,51072.66,-8861.76,-38129.13,-44134.29,-7713.63,7172.73
1764435595.4042473,20898.945,5695.335,51075.945,-8861.31,-38130.705,-44137.395,-7702.83,7174.665
1764435595.4042473,20890.89,5695.56,51077.79,-8862.119999999999,-38133.99,-44141.265,-7685.549999999999,7178.13
1764435595.4042473,20880.63,5691.195,51073.47,-8867.654999999999,-38141.37,-44150.22,-7675.38,7177.365
1764435595.4042473,20879.325,5690.655,51071.985,-8869.545,-38142.18,-44152.38,-7673.264999999999,7178.804999999999
1764435595.4042473,20878.92,5686.065,51066.63,-8873.279999999999,-38143.8,-44153.955,-7683.795,7174.17
1764435595.4042473,20884.23,5684.985,51064.74,-8873.685,-38141.505,-44150.13,-7694.73,7171.875
1764435595.4042473,20897.46,5689.844999999999,51067.395,-8867.97,-38133.36,-44140.59,-7707.195,7173.585
1764435595.452552,20901.825,5687.55,51063.93,-8867.609999999999,-38132.415,-44138.655,-7724.115,7168.275
1764435595.452552,20902.32,5687.639999999999,51064.56,-8866.08,-38131.155,-44137.215,-7725.915,7167.87
1764435595.452552,20901.015,5690.429999999999,51069.105,-8863.38,-38129.895,-44137.125,-7715.924999999999,7170.929999999999
1764435595.452552,20899.98,5696.28,51076.8,-8858.654999999999,-38127.195,-44135.55,-7699.545,7177.05
1764435595.452552,20890.755,5695.56,51077.16,-8861.67,-38132.505,-44142.615,-7685.144999999999,7179.12
1764435595.452552,20882.295,5692.005,51074.685,-8866.395,-38139.03,-44149.59,-7673.715,7179.929999999999
1764435595.452552,20880.315,5689.844999999999,51072.66,-8869.05,-38141.37,-44152.38,-7672.679999999999,7178.58
1764435595.4535537,20880.495,5685.84,51067.17,-8873.145,-38143.08,-44154.27,-7682.4,7174.035
1764435595.4535537,20885.22,5684.58,51063.57,-8874.404999999999,-38142.225,-44152.335,-7695.09,7171.155
1764435595.4535537,20892.51,5684.264999999999,51061.905,-8872.515,-38139.255,-44146.89,-7713.134999999999,7167.195
1764435595.4535537,20901.15,5686.83,51064.02,-8868.105,-38133.945,-44140.005,-7725.554999999999,7166.52
1764435595.4535537,20903.58,5689.08,51067.485,-8864.505,-38130.345,-44136.765,-7724.295,7167.78
1764435595.4555542,20900.205,5690.969999999999,51071.085,-8861.94,-38128.905,-44135.73,-7713.719999999999,7170.344999999999
1764435595.4555542,20891.835,5689.935,51071.535,-8864.01,-38132.82,-44140.41,-7702.019999999999,7171.2
1764435595.4555542,20883.96,5688.63,51072.3,-8867.205,-38139.48,-44149.68,-7691.174999999999,7171.469999999999
1764435595.4555542,20881.98,5692.005,51075.405,-8866.619999999999,-38141.55,-44153.055,-7676.82,7177.545
1764435595.4555542,20876.76,5686.56,51069.375,-8872.965,-38147.175,-44158.23,-7676.639999999999,7175.34
1764435595.4555542,20874.87,5681.61,51063.39,-8877.69,-38149.47,-44159.715,-7687.17,7169.49
1764435595.4555542,20885.175,5684.445,51065.865,-8873.414999999999,-38142.54,-44152.245,-7695.674999999999,7171.65
1764435595.4555542,20896.425,5686.785,51065.955,-8869.545,-38135.115,-44144.415,-7710.21,7170.929999999999
1764435595.4555542,20903.895,5688.224999999999,51067.125,-8866.395,-38129.67,-44137.485,-7723.485,7168.86
1764435595.4555542,20905.245,5689.26,51069.105,-8863.83,-38127.6,-44134.92,-7724.07,7169.175
1764435595.4990273,20900.745,5690.115,51071.13,-8863.785,-38128.32,-44136.72,-7715.835,7170.075
1764435595.4990273,20890.935,5687.594999999999,51070.14,-8866.619999999999,-38133.9,-44143.335,-7706.519999999999,7169.355
1764435595.4990273,20880.0,5684.76,51068.52,-8870.67,-38140.155,-44151.795,-7692.48,7170.075
1764435595.4990273,20873.88,5684.175,51067.98,-8873.414999999999,-38144.835,-44157.645,-7679.969999999999,7173.0
1764435595.5000224,20875.815,5685.66,51069.42,-8873.369999999999,-38143.62,-44157.735,-7675.965,7175.429999999999
1764435595.5000224,20877.615,5683.455,51066.225,-8875.845,-38143.98,-44157.735,-7684.38,7172.775
1764435595.5000224,20882.565,5682.105,51063.255,-8875.71,-38142.135,-44154.405,-7696.665,7169.715
1764435595.5000224,20890.44,5680.485,51060.06,-8876.115,-38138.85,-44150.13,-7713.99,7166.025
1764435595.5000224,20899.98,5683.905,51063.255,-8870.805,-38132.28,-44142.75,-7725.915,7166.34
1764435595.5000224,20900.52,5684.76,51066.18,-8867.97,-38130.615,-44139.645,-7724.924999999999,7166.429999999999
1764435595.50102,20900.16,5689.215,51071.13,-8864.279999999999,-38128.32,-44137.89,-7713.585,7170.705
1764435595.50102,20893.005,5689.44,51073.02,-8864.73,-38131.65,-44142.21,-7702.514999999999,7171.605
1764435595.50102,20880.765,5685.165,51070.95,-8870.22,-38140.245,-44152.74,-7692.21,7169.535
1764435595.50102,20875.5,5684.58,51070.23,-8872.785,-38144.88,-44159.22,-7681.365,7171.38
1764435595.50102,20876.76,5685.12,51069.78,-8874.045,-38145.15,-44159.76,-7677.495,7174.485
1764435595.5020823,20879.235,5682.06,51065.91,-8876.34,-38145.24,-44158.455,-7685.144999999999,7172.009999999999
1764435595.5020823,20883.645,5679.495,51062.535,-8878.32,-38143.395,-44155.125,-7697.565,7168.05
1764435595.5020823,20896.515,5684.4,51065.685,-8871.615,-38134.53,-44145.09,-7709.49,7170.255
1764435595.5030837,20902.95,5684.76,51065.595,-8868.69,-38130.345,-44139.735,-7720.469999999999,7167.645
1764435595.5030837,20900.835,5682.96,51065.055,-8868.42,-38130.705,-44139.96,-7722.855,7164.45
1764435595.5030837,20897.595,5684.31,51068.565,-8867.475,-38131.38,-44141.265,-7714.799999999999,7166.835
1764435595.5030837,20895.66,5689.44,51074.595,-8864.324999999999,-38131.065,-44141.58,-7701.075,7172.009999999999
1764435595.5030837,20884.23,5685.255,51072.345,-8869.32,-38139.705,-44150.85,-7687.62,7171.155
1764435595.504088,20879.775,5686.2,51073.56,-8870.265,-38142.18,-44154.855,-7673.625,7175.429999999999
1764435595.5470178,20879.145,5685.929999999999,51072.57,-8872.515,-38143.125,-44156.565,-7672.32,7176.42
1764435595.5470178,20882.43,5684.175,51069.06,-8873.865,-38142.405,-44155.485,-7681.184999999999,7174.259999999999
1764435595.5470178,20889.99,5684.804999999999,51068.835,-8871.48,-38137.23,-44150.175,-7692.795,7172.37
1764435595.5480328,20899.125,5686.514999999999,51068.475,-8868.42,-38132.145,-44143.785,-7706.745,7171.425
1764435595.5480328,20905.245,5688.045,51068.79,-8865.585,-38127.915,-44138.025,-7717.769999999999,7169.355
1764435595.548432,20904.525,5687.505,51069.24,-8865.494999999999,-38128.5,-44137.71,-7719.795,7167.509999999999
1764435595.548432,20901.96,5689.125,51073.335,-8863.56,-38128.815,-44138.565,-7710.299999999999,7170.075
1764435595.548432,20898.27,5692.23,51077.52,-8861.31,-38129.445,-44139.735,-7695.315,7174.44
1764435595.548432,20886.795,5689.71,51075.135,-8866.619999999999,-38137.05,-44149.095,-7681.95,7173.99
1764435595.548432,20882.07,5689.755,51077.115,-8867.385,-38139.57,-44153.01,-7667.82,7178.13
1764435595.548432,20881.08,5688.719999999999,51076.08,-8868.779999999999,-38140.155,-44154.18,-7666.74,7178.355
1764435595.5490327,20884.365,5686.514999999999,51072.3,-8871.029999999999,-38140.065,-44153.91,-7678.215,7175.655
1764435595.5490327,20887.695,5682.465,51067.035,-8873.73,-38140.515,-44153.145,-7693.2,7170.884999999999
1764435595.5490327,20896.92,5683.41,51066.18,-8871.119999999999,-38135.655,-44146.8,-7708.094999999999,7168.679999999999
1764435595.5490327,20905.56,5686.785,51068.925,-8865.765,-38130.615,-44140.32,-7718.67,7168.41
1764435595.5490327,20910.51,5691.735,51074.955,-8859.06,-38124.495,-44133.84,-7713.045,7173.27
1764435595.5490327,20905.785,5691.42,51075.945,-8859.195,-38125.08,-44135.19,-7704.54,7173.81
1764435595.5490327,20899.935,5691.96,51079.095,-8859.465,-38127.465,-44139.015,-7692.21,7175.835
1764435595.5490327,20890.53,5690.88,51079.545,-8862.3,-38133.045,-44146.215,-7679.07,7176.285
1764435595.5490327,20879.145,5684.849999999999,51073.335,-8869.59,-38141.415,-44155.755,-7671.87,7174.17
1764435595.5490327,20881.035,5685.795,51073.605,-8869.14,-38140.965,-44156.43,-7669.62,7177.41
1764435595.5490327,20884.005,5683.77,51070.68,-8870.895,-38140.605,-44156.52,-7678.53,7175.16
1764435595.5490327,20890.305,5684.264999999999,51068.745,-8870.265,-38137.41,-44151.705,-7689.69,7172.955
1764435595.5490327,20899.98,5686.11,51068.925,-8867.43,-38132.415,-44144.28,-7704.9,7171.155
1764435595.589981,20905.74,5685.48,51067.665,-8865.72,-38129.805,-44140.365,-7717.95,7167.78
1764435595.589981,20907.495,5687.91,51070.86,-8863.199999999999,-38127.33,-44136.945,-7715.34,7169.58
1764435595.589981,20906.28,5692.275,51076.8,-8859.645,-38125.215,-44135.325,-7703.775,7174.53
1764435595.589981,20898.135,5691.42,51077.025,-8861.67,-38128.95,-44140.23,-7693.155,7174.755
1764435595.589981,20887.11,5688.585,51074.955,-8865.9,-38136.33,-44148.96,-7679.429999999999,7175.115
1764435595.589981,20878.335,5684.67,51071.94,-8871.525,-38142.63,-44157.24,-7670.7,7174.8
1764435595.589981,20879.19,5685.615,51071.985,-8872.02,-38142.54,-44156.925,-7668.719999999999,7177.005
1764435595.589981,20882.025,5684.04,51068.43,-8873.505,-38142.18,-44155.215,-7677.9,7174.71
1764435595.5910044,20887.335,5682.645,51065.1,-8874.9,-38140.155,-44152.245,-7691.849999999999,7171.2
1764435595.5910044,20900.835,5688.0,51067.98,-8868.015,-38131.2,-44141.85,-7703.144999999999,7173.179999999999
1764435595.5910044,20909.52,5691.105,51070.455,-8862.75,-38125.215,-44135.46,-7712.054999999999,7173.0
1764435595.5910044,20909.25,5690.565,51072.345,-8861.4,-38123.775,-44133.705,-7712.594999999999,7172.28
1764435595.5910044,20902.995,5689.485,51072.84,-8862.705,-38127.24,-44137.44,-7706.565,7171.469999999999
1764435595.5910044,20894.085,5687.325,51071.985,-8866.664999999999,-38133.18,-44143.65,-7696.71,7171.245
1764435595.5910044,20882.295,5683.77,51070.185,-8871.66,-38141.37,-44152.56,-7684.155,7170.48
1764435595.5910044,20872.755,5679.719999999999,51066.18,-8877.465,-38148.57,-44160.39,-7675.065,7170.255
1764435595.5910044,20875.545,5682.645,51067.395,-8875.98,-38146.32,-44158.725,-7670.7,7174.575
1764435595.5910044,20876.76,5679.27,51063.3,-8879.039999999999,-38147.58,-44159.67,-7681.005,7170.21
1764435595.5910044,20883.33,5679.63,51062.985,-8876.789999999999,-38142.855,-44153.91,-7694.639999999999,7168.05
1764435595.5910044,20895.03,5682.24,51063.705,-8872.56,-38136.24,-44145.54,-7710.57,7167.599999999999
1764435595.5910044,20901.645,5683.32,51064.38,-8869.77,-38131.695,-44140.05,-7719.255,7166.969999999999
1764435595.5910044,20902.59,5684.76,51067.755,-8866.215,-38129.58,-44137.665,-7717.275,7168.005
1764435595.6382687,20898.99,5686.11,51070.455,-8865.27,-38130.885,-44139.33,-7708.365,7168.545
1764435595.6382687,20890.305,5684.535,51070.14,-8867.88,-38136.375,-44146.395,-7699.094999999999,7167.465
1764435595.6392689,20880.45,5682.42,51069.96,-8871.93,-38143.08,-44155.17,-7684.92,7169.219999999999
1764435595.6392689,20874.33,5681.07,51068.565,-8875.845,-38147.22,-44158.77,-7672.769999999999,7171.605
1764435595.6392689,20877.21,5682.15,51069.24,-8874.81,-38145.06,-44155.755,-7669.98,7174.08
1764435595.6392689,20876.355,5677.245,51062.76,-8880.21,-38148.525,-44158.815,-7683.75,7167.105
1764435595.6392689,20883.375,5678.55,51061.95,-8878.77,-38144.745,-44154.45,-7695.674999999999,7166.429999999999
1764435595.6392689,20892.15,5678.415,51059.97,-8876.97,-38140.47,-44148.555,-7712.955,7162.38
1764435595.6392689,20903.58,5684.76,51066.09,-8869.005,-38130.3,-44137.89,-7717.634999999999,7165.575
1764435595.6392689,20902.77,5685.21,51067.125,-8868.15,-38129.805,-44137.395,-7717.32,7165.844999999999
1764435595.640787,20894.76,5683.139999999999,51066.18,-8870.85,-38134.35,-44141.94,-7711.29,7164.224999999999
1764435595.640787,20888.73,5683.455,51068.745,-8870.58,-38136.555,-44145.405,-7698.014999999999,7167.285
1764435595.6417997,20879.46,5682.105,51068.115,-8874.0,-38142.18,-44153.01,-7683.705,7168.634999999999
1764435595.6423106,20874.15,5681.655,51067.26,-8877.645,-38146.815,-44158.275,-7673.174999999999,7171.02
1764435595.6426475,20877.885,5683.679999999999,51068.88,-8876.25,-38144.07,-44155.755,-7669.349999999999,7175.52
1764435595.6426475,20881.845,5682.33,51065.955,-8877.824999999999,-38142.855,-44154.945,-7678.755,7173.36
1764435595.6426475,20888.505,5682.554999999999,51064.47,-8876.925,-38139.48,-44150.85,-7690.634999999999,7171.74
1764435595.6426475,20897.19,5683.32,51063.48,-8873.595,-38134.395,-44143.965,-7706.115,7169.58
1764435595.6426475,20902.59,5684.264999999999,51063.525,-8870.984999999999,-38130.525,-44139.105,-7716.375,7167.375
1764435595.6426475,20902.95,5685.615,51065.82,-8868.69,-38129.31,-44136.945,-7714.665,7167.554999999999
1764435595.6426475,20893.77,5681.429999999999,51063.75,-8872.154999999999,-38135.025,-44142.975,-7709.894999999999,7165.395
1764435595.643324,20883.465,5677.56,51062.445,-8875.755,-38140.29,-44150.49,-7699.724999999999,7164.45
1764435595.643324,20875.185,5677.38,51063.885,-8878.275,-38144.79,-44157.33,-7684.875,7166.52
1764435595.643324,20872.935,5680.71,51065.91,-8878.185,-38146.005,-44159.715,-7672.365,7171.2
1764435595.6837327,20870.865,5678.46,51062.4,-8881.02,-38147.805,-44162.37,-7673.355,7169.49
1764435595.6837327,20872.305,5674.995,51057.855,-8884.484999999999,-38147.94,-44161.965,-7683.57,7166.115
1764435595.6837327,20879.595,5674.635,51055.605,-8883.72,-38145.42,-44157.465,-7695.945,7164.179999999999
1764435595.6837327,20888.37,5674.724999999999,51053.715,-8882.685,-38142.63,-44153.28,-7715.384999999999,7160.4
1764435595.6837327,20900.745,5683.23,51061.725,-8873.055,-38131.695,-44141.715,-7718.13,7165.349999999999
1764435595.6837327,20903.49,5686.83,51064.875,-8869.095,-38127.555,-44138.34,-7714.62,7167.285
1764435595.6837327,20895.705,5683.185,51062.67,-8872.244999999999,-38132.325,-44143.065,-7706.88,7166.835
1764435595.684734,20885.67,5679.63,51060.555,-8876.205,-38138.805,-44150.535,-7698.105,7165.08
1764435595.684734,20876.535,5678.01,51061.77,-8877.96,-38143.035,-44157.6,-7685.099999999999,7166.07
1764435595.684734,20873.88,5680.53,51064.245,-8876.654999999999,-38143.44,-44158.365,-7671.014999999999,7170.929999999999
1764435595.684734,20873.34,5678.46,51061.545,-8879.49,-38145.24,-44160.525,-7671.915,7170.3
1764435595.684734,20875.455,5675.085,51057.495,-8881.83,-38145.24,-44160.345,-7680.735,7166.745
1764435595.684734,20881.26,5673.51,51053.535,-8882.73,-38144.43,-44158.5,-7693.514999999999,7164.09
1764435595.684734,20889.27,5672.745,51051.96,-8881.515,-38141.145,-44152.83,-7712.37,7160.175
1764435595.684734,20900.205,5680.08,51058.89,-8873.19,-38132.055,-44142.75,-7720.469999999999,7162.02
1764435595.684734,20899.08,5679.945,51059.61,-8873.234999999999,-38132.955,-44143.65,-7720.605,7161.48
1764435595.684734,20895.66,5681.385,51062.715,-8872.02,-38133.45,-44144.235,-7708.679999999999,7165.08
1764435595.684734,20886.48,5679.63,51063.345,-8872.83,-38136.105,-44149.14,-7695.719999999999,7165.485
1764435595.684734,20876.445,5677.92,51062.58,-8877.465,-38143.125,-44158.14,-7681.455,7166.34
1764435595.684734,20869.74,5675.67,51059.88,-8882.279999999999,-38148.93,-44165.565,-7673.219999999999,7166.835
1764435595.684734,20870.37,5675.535,51059.43,-8883.09,-38148.435,-44165.835,-7672.769999999999,7168.005
1764435595.684734,20869.245,5669.145,51051.195,-8888.805,-38152.395,-44169.795,-7689.24,7160.804999999999
1764435595.7286944,20876.535,5669.054999999999,51048.81,-8887.859999999999,-38149.245,-44165.25,-7702.965,7158.554999999999
1764435595.7286944,20887.83,5671.889999999999,51049.395,-8883.81,-38142.765,-44156.07,-7715.655,7157.88
1764435595.7286944,20895.615,5674.77,51051.915,-8879.49,-38136.645,-44148.105,-7722.855,7158.42
1764435595.7286944,20899.125,5680.395,51058.44,-8873.46,-38130.975,-44142.75,-7716.735,7163.37
1764435595.7286944,20894.76,5680.349999999999,51061.05,-8873.324999999999,-38133.09,-44145.27,-7707.059999999999,7164.945
1764435595.7286944,20887.29,5680.17,51062.13,-8874.945,-38136.42,-44150.265,-7694.235,7166.474999999999
1764435595.7286944,20873.745,5674.95,51058.035,-8881.605,-38146.41,-44162.055,-7683.389999999999,7163.955
1764435595.7286944,20866.5,5671.935,51056.1,-8885.295,-38151.72,-44169.165,-7676.37,7163.685
1764435595.7286944,20869.38,5673.69,51057.18,-8884.215,-38149.47,-44168.085,-7674.929999999999,7166.79
1764435595.7286944,20871.45,5669.505,51051.96,-8887.095,-38150.775,-44168.265,-7687.62,7162.56
1764435595.7286944,20881.26,5672.295,51053.085,-8883.765,-38144.565,-44160.615,-7696.98,7164.0
1764435595.7286944,20892.015,5674.77,51054.48,-8879.265,-38137.77,-44152.02,-7711.469999999999,7163.28
1764435595.7286944,20898.18,5676.21,51056.775,-8875.395,-38133.09,-44145.99,-7718.67,7161.705
1764435595.7286944,20897.37,5677.425,51059.205,-8874.315,-38132.37,-44145.045,-7716.87,7161.48
1764435595.7286944,20890.755,5676.165,51059.79,-8875.89,-38135.97,-44148.96,-7709.715,7161.12
1764435595.7286944,20885.085,5678.099999999999,51063.48,-8874.855,-38137.455,-44151.39,-7694.28,7165.53
1764435595.7286944,20873.655,5675.04,51062.31,-8879.805,-38144.34,-44160.525,-7678.98,7166.295
1764435595.7286944,20868.525,5674.95,51062.355,-8881.065,-38144.835,-44162.685,-7668.54,7168.77
1764435595.7286944,20870.28,5674.635,51061.005,-8882.64,-38145.06,-44163.27,-7671.24,7168.679999999999
1764435595.7286944,20874.06,5671.17,51055.38,-8886.375,-38147.04,-44164.98,-7682.715,7165.755
1764435595.7286944,20881.305,5671.44,51053.58,-8884.215,-38144.07,-44161.38,-7695.495,7163.099999999999
1764435595.7286944,20889.405,5672.295,51052.41,-8882.055,-38139.75,-44154.765,-7711.424999999999,7160.13
1764435595.7771485,20898.45,5676.66,51055.83,-8876.565,-38132.865,-44146.305,-7718.04,7162.02
1764435595.7771485,20898.18,5677.92,51058.665,-8874.81,-38132.055,-44145.045,-7713.764999999999,7163.145
1764435595.7771485,20892.42,5678.325,51060.735,-8874.945,-38134.125,-44147.925,-7705.394999999999,7164.179999999999
1764435595.7771485,20884.68,5677.605,51061.455,-8876.88,-38138.355,-44154.18,-7695.855,7163.55
1764435595.7771485,20879.64,5679.81,51065.55,-8876.25,-38140.02,-44158.05,-7677.09,7168.41
1764435595.7771485,20874.87,5678.415,51064.38,-8879.265,-38143.845,-44162.91,-7668.945,7169.985
1764435595.7771485,20874.42,5675.219999999999,51060.105,-8883.18,-38146.23,-44165.655,-7672.769999999999,7168.59
1764435595.7771485,20875.77,5670.45,51053.175,-8888.22,-38149.47,-44168.625,-7686.134999999999,7163.415
1764435595.7771485,20884.95,5672.925,51054.345,-8885.34,-38143.98,-44162.28,-7696.665,7163.505
1764435595.7771485,20892.015,5671.53,51051.87,-8884.17,-38140.65,-44157.24,-7713.855,7159.77
1764435595.7771485,20898.315,5674.139999999999,51054.705,-8879.535,-38135.52,-44149.68,-7720.065,7160.535
1764435595.7771485,20897.82,5676.344999999999,51058.26,-8876.52,-38131.515,-44144.28,-7714.665,7162.65
1764435595.7771485,20890.26,5675.085,51058.35,-8878.23,-38134.485,-44148.285,-7707.059999999999,7160.94
1764435595.7781632,20887.335,5679.135,51062.805,-8876.205,-38136.24,-44151.615,-7691.804999999999,7165.935
1764435595.7781632,20875.68,5675.985,51061.23,-8880.84,-38144.115,-44160.795,-7678.665,7166.25
1764435595.7781632,20866.095,5670.585,51056.01,-8887.5,-38152.08,-44169.795,-7674.344999999999,7163.28
1764435595.7781632,20869.74,5672.61,51056.775,-8886.69,-38149.47,-44167.14,-7673.13,7165.844999999999
1764435595.7781632,20874.42,5672.115,51054.48,-8887.32,-38147.76,-44164.44,-7681.59,7165.08
1764435595.7781632,20879.28,5669.235,51050.16,-8888.445,-38146.815,-44163.405,-7695.764999999999,7160.804999999999
1764435595.7781632,20892.51,5672.61,51052.86,-8882.279999999999,-38137.59,-44153.55,-7709.264999999999,7160.94
1764435595.7781632,20897.865,5674.05,51054.075,-8879.805,-38135.07,-44150.22,-7722.495,7158.014999999999
1764435595.7781632,20901.06,5679.36,51060.465,-8874.494999999999,-38130.66,-44145.675,-7715.205,7162.56
1764435595.7781632,20893.005,5677.335,51059.655,-8876.789999999999,-38134.98,-44150.31,-7705.755,7162.155
1764435595.7781632,20886.705,5678.46,51062.67,-8876.565,-38136.78,-44152.335,-7690.59,7166.115
1764435595.8233273,20873.61,5673.06,51059.925,-8882.64,-38144.43,-44161.83,-7678.485,7164.54
1764435595.8233273,20867.58,5671.395,51058.26,-8885.925,-38148.75,-44167.32,-7671.33,7165.035
1764435595.8233273,20870.235,5672.16,51057.18,-8885.565,-38148.21,-44167.14,-7671.644999999999,7166.655
1764435595.8233273,20873.295,5668.335,51051.375,-8890.02,-38150.775,-44168.265,-7685.144999999999,7163.009999999999
1764435595.8233273,20881.305,5669.01,51050.97,-8888.58,-38147.13,-44163.945,-7698.33,7160.804999999999
1764435595.8233273,20893.095,5673.51,51054.3,-8881.74,-38138.22,-44153.28,-7709.58,7162.245
1764435595.8233273,20895.84,5672.969999999999,51054.255,-8881.065,-38136.195,-44149.59,-7718.535,7159.679999999999
1764435595.8233273,20896.605,5674.95,51057.405,-8878.904999999999,-38134.53,-44147.925,-7715.025,7161.344999999999
1764435595.8233273,20894.895,5678.594999999999,51063.075,-8875.215,-38133.99,-44147.835,-7703.009999999999,7165.08
1764435595.8233273,20884.5,5675.67,51061.41,-8879.715,-38140.83,-44156.25,-7693.514999999999,7163.82
1764435595.8233273,20874.87,5674.86,51061.905,-8881.965,-38144.295,-44162.325,-7676.235,7167.465
1764435595.8233273,20869.785,5672.88,51060.735,-8883.855,-38148.12,-44166.33,-7667.91,7168.634999999999
1764435595.8233273,20868.345,5670.09,51056.91,-8887.275,-38150.865,-44169.12,-7672.679999999999,7166.16
1764435595.8233273,20869.2,5665.41,51050.52,-8891.234999999999,-38153.565,-44170.695,-7686.719999999999,7159.86
1764435595.8243492,20880.63,5668.695,51052.095,-8886.42,-38146.95,-44162.19,-7695.719999999999,7161.435
1764435595.8243492,20891.385,5670.495,51052.365,-8882.414999999999,-38140.335,-44153.865,-7708.995,7161.255
1764435595.8243492,20893.635,5669.91,51052.095,-8880.93,-38138.445,-44151.075,-7717.815,7158.014999999999
1764435595.8243492,20893.905,5672.745,51056.37,-8877.195,-38135.79,-44148.465,-7715.565,7159.275
1764435595.8243492,20889.09,5674.185,51059.7,-8875.664999999999,-38136.915,-44150.355,-7705.125,7161.21
1764435595.8243492,20883.555,5675.49,51062.67,-8875.35,-38139.165,-44153.55,-7688.205,7164.45
1764435595.8243492,20875.005,5675.76,51064.2,-8876.43,-38143.08,-44158.5,-7669.665,7168.094999999999
1764435595.8243492,20865.42,5670.495,51059.16,-8882.865,-38149.605,-44166.015,-7663.455,7166.429999999999
1764435595.8243492,20867.94,5670.315,51058.17,-8882.82,-38149.2,-44165.925,-7667.73,7165.755
1764435595.8243492,20877.705,5673.87,51059.835,-8879.445,-38144.565,-44161.92,-7679.205,7166.295
1764435595.8695097,20883.375,5671.035,51054.705,-8881.74,-38145.465,-44160.705,-7695.405,7162.56
1764435595.8695097,20891.655,5670.224999999999,51051.6,-8881.199999999999,-38142.405,-44155.98,-7712.28,7159.77
1764435595.8695097,20899.755,5675.13,51056.235,-8875.395,-38135.97,-44147.97,-7714.665,7163.054999999999
1764435595.8695097,20899.035,5677.469999999999,51059.61,-8872.56,-38133.855,-44145.675,-7709.445,7164.945
1764435595.8695097,20890.08,5674.59,51058.845,-8875.08,-38138.76,-44151.435,-7702.74,7162.83
1764435595.8695097,20881.035,5672.88,51058.935,-8876.97,-38143.035,-44157.15,-7690.23,7163.235
1764435595.8695097,20873.07,5672.429999999999,51060.555,-8878.23,-38147.49,-44163.27,-7673.894999999999,7166.429999999999
1764435595.8695097,20868.21,5671.17,51059.61,-8881.605,-38151.315,-44168.31,-7667.955,7166.205
1764435595.8695097,20872.755,5672.88,51060.42,-8880.75,-38149.02,-44165.565,-7668.495,7168.634999999999
1764435595.8695097,20872.89,5666.895,51052.455,-8886.24,-38153.07,-44167.68,-7682.13,7163.054999999999
1764435595.8695097,20878.38,5665.139999999999,51048.81,-8886.734999999999,-38151.45,-44165.07,-7697.07,7159.86
1764435595.8695097,20889.585,5668.425,51050.115,-8882.055,-38144.07,-44156.25,-7710.21,7159.094999999999
1764435595.8695097,20897.82,5673.51,51055.695,-8875.215,-38137.005,-44147.43,-7713.63,7161.435
1764435595.8695097,20893.68,5672.385,51055.515,-8876.115,-38139.255,-44150.175,-7712.549999999999,7159.23
1764435595.8695097,20887.965,5672.745,51057.495,-8875.619999999999,-38141.415,-44152.74,-7701.615,7161.03
1764435595.8695097,20883.06,5675.219999999999,51061.995,-8873.279999999999,-38142.135,-44154.045,-7684.83,7165.889999999999
1764435595.8695097,20873.925,5674.139999999999,51062.355,-8875.98,-38147.85,-44161.425,-7672.139999999999,7167.42
1764435595.8695097,20868.255,5673.195,51060.735,-8879.265,-38152.17,-44167.365,-7668.36,7166.745
1764435595.8695097,20867.535,5668.605,51056.055,-8883.585,-38154.915,-44169.705,-7672.545,7164.224999999999
1764435595.8695097,20869.785,5663.7,51049.485,-8889.119999999999,-38158.11,-44171.415,-7686.36,7159.185
1764435595.8695097,20878.47,5665.545,51049.575,-8886.285,-38153.475,-44164.98,-7697.969999999999,7158.554999999999
1764435595.8695097,20888.505,5668.785,51051.69,-8881.065,-38146.5,-44155.17,-7710.48,7158.509999999999
1764435595.9131382,20895.48,5671.844999999999,51054.705,-8875.71,-38141.145,-44148.69,-7715.61,7159.275
1764435595.913653,20896.155,5674.679999999999,51058.44,-8872.199999999999,-38138.895,-44146.485,-7710.12,7162.02
1764435595.913653,20887.65,5672.655,51058.26,-8874.359999999999,-38142.63,-44150.535,-7700.49,7161.389999999999
1764435595.913653,20881.755,5674.094999999999,51061.545,-8874.27,-38144.43,-44153.505,-7684.065,7165.259999999999
1764435595.913653,20870.46,5670.81,51060.015,-8878.725,-38151.045,-44161.29,-7670.295,7165.08
1764435595.913653,20865.78,5668.335,51057.225,-8882.73,-38156.49,-44167.995,-7668.224999999999,7164.675
1764435595.913653,20864.025,5664.105,51050.88,-8888.039999999999,-38160.18,-44171.775,-7675.38,7160.759999999999
1764435595.913653,20865.87,5660.19,51045.525,-8890.74,-38160.315,-44171.055,-7687.934999999999,7155.99
1764435595.913653,20876.85,5664.554999999999,51048.18,-8885.43,-38152.845,-44162.235,-7696.17,7158.42
1764435595.913653,20888.28,5668.695,51050.97,-8880.029999999999,-38144.925,-44152.02,-7706.924999999999,7158.96
1764435595.91607,20895.975,5673.195,51055.785,-8874.315,-38137.5,-44143.92,-7710.75,7160.31
1764435595.91607,20898.675,5676.12,51059.97,-8871.255,-38135.97,-44142.165,-7707.915,7162.785
1764435595.91607,20892.69,5675.264999999999,51060.42,-8873.055,-38139.165,-44146.71,-7698.554999999999,7164.179999999999
1764435595.91607,20880.495,5671.349999999999,51058.44,-8878.05,-38145.645,-44154.99,-7686.495,7162.92
1764435595.91607,20873.205,5671.935,51061.185,-8879.265,-38148.39,-44159.175,-7669.215,7165.98
1764435595.91607,20868.39,5670.405,51059.07,-8882.955,-38152.845,-44164.26,-7662.24,7166.745
1764435595.91607,20868.93,5668.695,51055.74,-8885.52,-38154.42,-44165.475,-7666.514999999999,7165.62
1764435595.91607,20873.07,5666.445,51051.87,-8887.32,-38154.33,-44164.575,-7679.205,7162.469999999999
1764435595.91607,20883.78,5669.37,51052.635,-8883.72,-38147.13,-44157.06,-7689.195,7164.134999999999
1764435595.91607,20891.655,5669.91,51052.5,-8881.154999999999,-38141.73,-44150.49,-7706.205,7160.31
1764435595.91607,20893.995,5670.63,51052.77,-8879.039999999999,-38139.84,-44147.745,-7714.08,7157.205
1764435595.91607,20897.28,5675.985,51059.16,-8872.875,-38135.34,-44142.975,-7706.519999999999,7161.57
1764435595.9170575,20890.53,5673.69,51057.945,-8875.574999999999,-38140.245,-44148.375,-7699.32,7162.155
1764435595.9170575,20883.285,5673.33,51058.755,-8878.05,-38144.565,-44153.82,-7684.74,7165.575
1764435595.9614666,20868.615,5666.985,51054.885,-8885.205,-38153.52,-44164.665,-7673.355,7163.235
1764435595.9614666,20864.16,5665.455,51054.12,-8887.815,-38155.59,-44167.77,-7666.29,7163.55
1764435595.9614666,20869.47,5668.695,51056.28,-8885.34,-38151.765,-44164.44,-7667.009999999999,7166.34
1764435595.9614666,20874.285,5666.175,51051.78,-8887.815,-38152.845,-44164.8,-7680.105,7163.685
1764435595.9614666,20880.81,5664.87,51048.72,-8888.22,-38150.865,-44161.155,-7694.775,7161.165
1764435595.9614666,20887.875,5664.51,51047.46,-8886.6,-38147.13,-44154.855,-7709.13,7158.96
1764435595.9614666,20893.77,5667.795,51050.16,-8882.055,-38141.865,-44147.925,-7712.28,7159.86
1764435595.9614666,20895.885,5673.285,51056.91,-8875.98,-38136.24,-44143.245,-7705.71,7163.37
1764435595.9614666,20890.935,5673.96,51059.61,-8875.619999999999,-38137.365,-44145.405,-7696.485,7164.36
1764435595.9614666,20883.105,5674.365,51061.32,-8876.88,-38140.695,-44149.5,-7681.365,7166.7
1764435595.9614666,20871.585,5671.755,51058.485,-8882.91,-38148.255,-44159.13,-7668.495,7166.07
1764435595.9640195,20866.545,5669.145,51055.875,-8887.365,-38152.8,-44164.53,-7662.15,7166.16
1764435595.9640195,20870.055,5669.01,51054.66,-8887.455,-38152.17,-44162.73,-7663.59,7168.05
1764435595.9640195,20874.645,5667.255,51051.87,-8887.68,-38150.37,-44160.345,-7675.74,7164.81
1764435595.9640195,20881.71,5667.48,51050.97,-8886.42,-38145.915,-44155.755,-7691.219999999999,7162.11
1764435595.9640195,20890.35,5668.65,51050.295,-8884.89,-38141.505,-44149.59,-7705.259999999999,7159.995
1764435595.9640195,20896.245,5671.665,51053.04,-8881.244999999999,-38137.32,-44144.775,-7712.37,7159.995
1764435595.9640195,20893.185,5670.63,51052.59,-8881.965,-38139.48,-44147.655,-7710.84,7159.545
1764435595.9640195,20886.795,5669.91,51053.355,-8882.73,-38142.045,-44151.12,-7699.59,7160.264999999999
1764435595.9640195,20877.39,5668.92,51053.895,-8884.215,-38145.42,-44155.575,-7685.865,7160.895
1764435595.9640195,20866.86,5667.12,51053.085,-8888.625,-38151.18,-44162.955,-7671.285,7162.38
1764435595.9640195,20863.485,5667.03,51052.41,-8889.795,-38153.52,-44166.78,-7664.309999999999,7164.36
1764435595.9640195,20869.56,5669.73,51054.03,-8887.365,-38150.37,-44164.845,-7665.705,7166.205
1764435595.9640195,20875.725,5668.155,51051.375,-8889.164999999999,-38149.29,-44163.09,-7676.594999999999,7164.179999999999
1764435596.008355,20882.745,5667.21,51048.63,-8889.66,-38146.41,-44158.725,-7690.995,7161.12
1764435596.008355,20892.915,5669.325,51050.16,-8884.125,-38138.49,-44149.05,-7703.37,7161.255
1764435596.008865,20893.86,5668.469999999999,51051.42,-8882.46,-38136.15,-44146.17,-7710.255,7158.554999999999
1764435596.008865,20889.405,5666.535,51050.34,-8885.295,-38140.38,-44150.85,-7711.74,7155.134999999999
1764435596.008865,20883.735,5666.355,51050.88,-8886.51,-38143.53,-44154.495,-7701.615,7156.935
1764435596.008865,20876.04,5666.31,51052.41,-8887.455,-38146.455,-44159.04,-7686.585,7159.5
1764435596.008865,20867.805,5665.679999999999,51052.635,-8890.065,-38150.325,-44164.98,-7671.599999999999,7162.245
1764435596.008865,20867.625,5667.929999999999,51054.3,-8889.345,-38150.19,-44165.88,-7662.915,7166.16
1764435596.008865,20870.055,5666.985,51052.005,-8891.145,-38150.865,-44166.105,-7666.29,7165.98
1764435596.008865,20874.105,5665.679999999999,51048.81,-8891.865,-38149.515,-44164.395,-7677.405,7163.505
1764435596.008865,20881.395,5665.679999999999,51047.235,-8890.425,-38145.915,-44158.905,-7690.455,7161.57
1764435596.008865,20888.865,5665.77,51046.11,-8888.13,-38141.145,-44152.2,-7705.844999999999,7157.969999999999
1764435596.008865,20896.515,5671.125,51052.095,-8881.244999999999,-38133.765,-44144.145,-7709.58,7160.355
1764435596.008865,20893.14,5671.485,51053.445,-8880.615,-38133.27,-44143.785,-7704.719999999999,7160.13
1764435596.008865,20885.445,5670.224999999999,51053.175,-8882.595,-38137.14,-44149.23,-7696.755,7159.455
1764435596.008865,20882.655,5673.96,51058.53,-8880.615,-38138.895,-44151.885,-7681.41,7166.429999999999
1764435596.008865,20868.165,5665.905,51052.005,-8890.605,-38152.215,-44165.565,-7671.554999999999,7163.37
1764435596.008865,20865.06,5665.679999999999,51051.825,-8891.73,-38153.16,-44167.23,-7662.42,7165.17
1764435596.008865,20869.38,5668.11,51052.86,-8889.795,-38149.155,-44163.585,-7664.085,7166.52
1764435596.008865,20876.985,5669.505,51053.04,-8887.365,-38144.835,-44158.725,-7674.884999999999,7166.205
1764435596.008865,20884.185,5668.695,51050.34,-8887.635,-38143.17,-44154.99,-7690.365,7163.235
1764435596.008865,20889.72,5665.32,51045.57,-8889.66,-38143.44,-44153.415,-7708.724999999999,7158.195
1764435596.057184,20894.535,5667.389999999999,51047.685,-8886.96,-38139.615,-44148.735,-7713.045,7158.014999999999
1764435596.057184,20893.365,5669.639999999999,51051.825,-8883.494999999999,-38138.04,-44147.115,-7707.42,7159.86
1764435596.057184,20887.695,5670.675,51054.48,-8882.82,-38139.21,-44149.5,-7695.855,7162.155
1764435596.057184,20882.7,5672.745,51058.62,-8881.83,-38140.515,-44152.245,-7678.17,7166.655
1764435596.057184,20870.595,5668.425,51055.38,-8887.994999999999,-38148.705,-44162.505,-7666.74,7165.53
1764435596.057184,20865.825,5666.535,51052.05,-8891.82,-38152.62,-44167.68,-7662.509999999999,7165.304999999999
1764435596.057184,20870.01,5667.705,51052.545,-8890.335,-38150.055,-44164.8,-7664.535,7166.925
1764435596.057184,20873.7,5665.275,51048.585,-8891.91,-38150.19,-44164.17,-7679.205,7162.74
1764435596.057184,20881.26,5664.735,51047.415,-8889.795,-38145.78,-44159.175,-7694.325,7160.445
1764435596.057184,20893.095,5668.83,51050.61,-8884.17,-38137.545,-44149.05,-7705.485,7161.075
1764435596.057184,20895.57,5669.099999999999,51050.79,-8882.505,-38136.555,-44145.855,-7711.2,7158.599999999999
1764435596.057184,20893.41,5670.179999999999,51053.535,-8881.154999999999,-38135.655,-44144.775,-7704.134999999999,7160.58
1764435596.057184,20889.945,5672.7,51058.08,-8878.815,-38135.52,-44145.495,-7690.23,7165.17
1764435596.057184,20883.51,5673.96,51060.33,-8878.994999999999,-38138.13,-44150.895,-7677.405,7166.88
1764435596.057184,20873.97,5671.62,51058.305,-8884.26,-38145.33,-44161.065,-7667.235,7167.285
1764435596.057184,20868.93,5668.514999999999,51055.2,-8888.76,-38150.28,-44166.465,-7662.195,7167.105
1764435596.057184,20869.245,5665.905,51051.825,-8891.91,-38151.405,-44167.995,-7668.63,7163.91
1764435596.057184,20871.135,5661.585,51045.48,-8895.914999999999,-38153.7,-44168.67,-7683.705,7158.96
1764435596.057184,20883.42,5666.355,51048.135,-8889.255,-38145.42,-44158.995,-7692.615,7161.48
1764435596.057184,20894.085,5670.27,51050.745,-8883.539999999999,-38136.645,-44147.97,-7703.235,7162.29
1764435596.057184,20896.02,5671.395,51052.95,-8881.065,-38132.55,-44143.11,-7707.599999999999,7160.67
1764435596.057184,20894.04,5672.16,51054.57,-8882.055,-38134.665,-44145.63,-7703.505,7160.625
1764435596.057184,20886.165,5670.585,51053.985,-8884.664999999999,-38140.155,-44150.67,-7694.684999999999,7160.804999999999
1764435596.057184,20874.645,5666.67,51051.33,-8890.065,-38147.4,-44160.48,-7685.37,7158.06
1764435596.1008449,20865.06,5664.645,51051.105,-8894.025,-38152.575,-44167.815,-7672.995,7159.545
1764435596.1008449,20864.61,5666.4,51052.815,-8892.135,-38150.955,-44166.33,-7663.634999999999,7164.0
1764435596.1008449,20869.245,5667.705,51052.005,-8892.855,-38150.145,-44164.935,-7667.505,7165.62
1764435596.1008449,20873.07,5664.735,51047.955,-8894.88,-38150.505,-44163.9,-7680.78,7162.74
1764435596.1008449,20880.135,5664.06,51046.605,-8893.44,-38146.5,-44157.915,-7694.82,7159.905
1764435596.1008449,20888.82,5665.679999999999,51046.47,-8889.975,-38141.505,-44150.49,-7709.49,7157.969999999999
1764435596.1008449,20891.79,5667.075,51047.91,-8886.96,-38138.445,-44147.385,-7713.855,7157.025
1764435596.1008449,20892.105,5670.09,51052.68,-8882.64,-38135.07,-44145.405,-7704.809999999999,7160.219999999999
1764435596.1008449,20883.285,5667.66,51051.96,-8885.565,-38140.425,-44151.795,-7696.665,7158.96
1764435596.1008449,20878.02,5670.045,51055.83,-8884.395,-38142.315,-44155.35,-7682.445,7162.56
1764435596.1008449,20867.58,5666.535,51053.985,-8889.525,-38148.705,-44163.18,-7670.025,7163.235
1764435596.1008449,20863.755,5664.42,51052.185,-8892.99,-38151.495,-44166.42,-7664.219999999999,7164.045
1764435596.1008449,20865.105,5662.485,51049.26,-8895.24,-38152.17,-44166.6,-7670.07,7162.11
1764435596.1008449,20866.275,5657.625,51042.87,-8899.154999999999,-38154.15,-44167.815,-7685.099999999999,7155.36
1764435596.1018596,20879.685,5663.025,51047.415,-8892.315,-38144.97,-44157.825,-7695.269999999999,7158.105
1764435596.1018596,20890.035,5665.95,51048.675,-8886.869999999999,-38138.4,-44150.175,-7708.815,7157.745
1764435596.1018596,20887.56,5661.36,51044.58,-8889.795,-38140.29,-44150.625,-7715.924999999999,7153.695
1764435596.1018596,20882.835,5660.55,51045.75,-8889.84,-38142.27,-44151.48,-7711.019999999999,7153.92
1764435596.1018596,20881.44,5665.185,51052.275,-8885.295,-38140.38,-44150.895,-7697.295,7157.79
1764435596.1018596,20876.895,5666.985,51055.02,-8885.205,-38142.945,-44155.305,-7682.174999999999,7162.02
1764435596.1018596,20867.535,5664.554999999999,51052.68,-8890.92,-38149.74,-44163.63,-7668.54,7163.955
1764435596.1018596,20862.27,5661.675,51049.755,-8894.654999999999,-38153.16,-44167.86,-7666.019999999999,7163.19
1764435596.1492586,20862.63,5658.615,51045.705,-8897.49,-38155.095,-44170.245,-7675.335,7158.915
1764435596.1492586,20868.48,5658.435,51043.68,-8896.904999999999,-38153.52,-44167.23,-7685.865,7157.115
1764435596.1492586,20873.115,5655.87,51039.405,-8897.67,-38152.215,-44163.72,-7701.84,7152.255
1764435596.1492586,20882.295,5656.905,51040.035,-8894.97,-38147.625,-44156.205,-7715.025,7150.59
1764435596.1492586,20888.01,5661.54,51044.805,-8888.895,-38141.955,-44149.905,-7716.96,7152.884999999999
1764435596.1492586,20887.92,5665.275,51049.53,-8884.98,-38140.245,-44148.015,-7707.554999999999,7156.935
1764435596.1492586,20876.94,5660.145,51046.29,-8889.795,-38147.4,-44155.98,-7700.894999999999,7153.335
1764435596.1492586,20866.68,5658.21,51046.695,-8891.955,-38152.665,-44162.55,-7687.62,7153.83
1764435596.1492586,20859.435,5657.804999999999,51046.155,-8894.88,-38158.38,-44169.975,-7673.04,7157.205
1764435596.1492586,20860.92,5659.83,51048.36,-8893.664999999999,-38158.38,-44169.84,-7665.705,7161.12
1764435596.1492586,20864.475,5660.01,51046.875,-8894.43,-38157.165,-44170.02,-7673.67,7159.95
1764435596.1492586,20868.93,5657.895,51042.87,-8896.095,-38156.31,-44168.4,-7685.19,7156.71
1764435596.1492586,20875.86,5657.58,51041.34,-8894.16,-38152.53,-44162.19,-7699.094999999999,7153.92
1764435596.1492586,20884.41,5659.56,51042.015,-8890.154999999999,-38145.87,-44154.135,-7711.065,7152.75
1764435596.1492586,20887.74,5661.9,51045.435,-8886.015,-38141.73,-44148.645,-7712.505,7153.65
1764435596.1492586,20887.38,5664.24,51050.07,-8882.91,-38140.47,-44148.6,-7706.969999999999,7154.594999999999
1764435596.1492586,20882.025,5664.599999999999,51050.52,-8884.98,-38145.69,-44154.27,-7698.24,7155.63
1764435596.1492586,20870.37,5659.605,51047.145,-8890.785,-38153.835,-44163.945,-7687.62,7154.054999999999
1764435596.1492586,20862.495,5658.929999999999,51047.955,-8892.72,-38157.435,-44169.12,-7672.59,7157.384999999999
1764435596.1492586,20857.095,5655.06,51044.085,-8896.994999999999,-38161.98,-44174.34,-7670.429999999999,7155.585
1764435596.1492586,20862.585,5656.86,51044.67,-8895.69,-38158.695,-44170.29,-7673.264999999999,7156.71
1764435596.1492586,20865.555,5654.205,51040.485,-8897.625,-38159.505,-44169.705,-7686.405,7152.525
1764435596.1492586,20876.13,5656.455,51041.61,-8893.71,-38153.475,-44161.515,-7698.195,7152.57
1764435596.1492586,20883.105,5656.23,51040.71,-8892.449999999999,-38149.56,-44157.24,-7713.764999999999,7149.24
1764435596.1937158,20888.37,5659.65,51045.57,-8886.914999999999,-38144.385,-44151.345,-7714.575,7151.804999999999
1764435596.1937158,20884.185,5659.92,51047.19,-8885.52,-38145.195,-44152.245,-7708.365,7153.245
1764435596.1937158,20874.96,5657.76,51046.11,-8888.039999999999,-38150.685,-44158.095,-7700.67,7151.625
1764435596.1937158,20867.4,5657.67,51047.19,-8889.39,-38154.42,-44163.495,-7686.36,7152.84
1764435596.1937158,20859.345,5655.375,51047.1,-8891.955,-38159.235,-44169.255,-7671.509999999999,7156.08
1764435596.1937158,20859.975,5656.679999999999,51048.045,-8891.73,-38159.595,-44169.165,-7664.715,7160.445
1764435596.1937158,20863.215,5656.59,51045.39,-8892.315,-38159.37,-44167.995,-7670.34,7159.455
1764435596.1937158,20866.41,5653.53,51042.105,-8894.88,-38160.0,-44167.14,-7686.269999999999,7154.054999999999
1764435596.1937158,20873.655,5652.27,51039.315,-8894.699999999999,-38156.265,-44162.595,-7701.075,7152.48
1764435596.1937158,20883.78,5656.905,51041.7,-8889.885,-38149.2,-44154.27,-7711.335,7152.435
1764435596.1937158,20891.07,5662.304999999999,51047.73,-8883.539999999999,-38143.08,-44147.25,-7711.965,7155.405
1764435596.1937158,20881.845,5657.264999999999,51043.905,-8887.545,-38148.39,-44152.02,-7708.95,7151.13
1764435596.1937158,20873.61,5655.915,51044.535,-8887.904999999999,-38151.765,-44155.8,-7698.96,7151.355
1764435596.1937158,20871.81,5662.26,51052.095,-8883.765,-38151.045,-44157.24,-7683.255,7156.98
1764435596.1937158,20862.99,5659.38,51049.26,-8889.57,-38158.965,-44167.185,-7673.174999999999,7156.98
1764435596.1937158,20859.345,5655.42,51044.445,-8895.015,-38163.825,-44172.135,-7668.495,7158.33
1764435596.1937158,20863.395,5655.645,51044.31,-8894.295,-38161.89,-44169.885,-7673.219999999999,7158.42
1764435596.1937158,20869.065,5655.554999999999,51042.15,-8894.115,-38159.505,-44166.735,-7684.74,7156.259999999999
1764435596.1937158,20876.58,5655.195,51039.36,-8894.385,-38157.255,-44162.505,-7699.815,7153.38
1764435596.1937158,20884.905,5656.41,51040.53,-8890.515,-38150.955,-44154.36,-7712.415,7151.219999999999
1764435596.1937158,20887.56,5658.344999999999,51043.23,-8887.545,-38147.895,-44149.77,-7715.34,7150.95
1764435596.1937158,20884.77,5659.875,51045.345,-8885.97,-38148.165,-44149.455,-7709.535,7152.795
1764435596.1937158,20876.895,5658.3,51045.48,-8887.005,-38152.71,-44154.135,-7699.905,7152.974999999999
1764435596.1952436,20865.915,5655.014999999999,51044.22,-8892.0,-38159.595,-44162.775,-7688.34,7152.21
1764435596.242125,20859.255,5654.474999999999,51044.4,-8894.97,-38165.13,-44169.435,-7675.514999999999,7154.009999999999
1764435596.242125,20858.895,5655.06,51044.805,-8894.34,-38165.13,-44169.66,-7668.99,7156.98
1764435596.242125,20859.345,5652.719999999999,51042.015,-8894.654999999999,-38163.24,-44168.265,-7675.065,7154.955
1764435596.242125,20862.81,5649.57,51036.39,-8898.164999999999,-38164.815,-44168.76,-7689.735,7150.995
1764435596.242125,20870.1,5647.635,51032.52,-8899.965,-38164.545,-44166.06,-7707.554999999999,7146.495
1764435596.242125,20879.955,5650.56,51034.77,-8895.375,-38158.065,-44157.645,-7719.03,7146.045
1764435596.242125,20883.375,5653.844999999999,51038.19,-8890.83,-38153.295,-44152.92,-7720.155,7147.755
1764435596.242125,20879.91,5654.925,51040.755,-8889.3,-38152.89,-44152.47,-7713.764999999999,7149.465
1764435596.242125,20873.475,5655.105,51042.735,-8890.335,-38155.005,-44156.475,-7702.559999999999,7150.545
1764435596.242125,20865.15,5654.835,51044.22,-8891.505,-38159.19,-44162.055,-7687.62,7152.48
1764435596.242125,20858.04,5653.62,51043.905,-8894.34,-38164.725,-44169.66,-7674.66,7154.37
1764435596.2431393,20858.76,5655.33,51044.67,-8894.565,-38164.365,-44169.75,-7669.08,7158.195
1764435596.2431393,20862.135,5655.51,51043.545,-8895.33,-38162.88,-44167.995,-7675.245,7158.195
1764435596.2431393,20865.69,5652.63,51039.135,-8897.895,-38163.015,-44166.375,-7689.644999999999,7153.695
1764435596.2431393,20873.88,5653.575,51037.92,-8895.24,-38157.84,-44160.03,-7703.639999999999,7151.804999999999
1764435596.2431393,20882.16,5655.42,51039.63,-8891.55,-38152.62,-44153.28,-7715.969999999999,7150.185
1764435596.2431393,20885.85,5657.31,51042.735,-8888.265,-38148.39,-44147.475,-7716.014999999999,7151.085
1764435596.2431393,20883.42,5658.344999999999,51044.985,-8887.32,-38148.57,-44147.97,-7708.049999999999,7153.605
1764435596.2431393,20877.21,5659.335,51046.38,-8887.14,-38150.775,-44151.75,-7695.36,7155.9
1764435596.2431393,20866.365,5657.219999999999,51046.56,-8889.615,-38155.545,-44157.915,-7679.745,7156.62
1764435596.2431393,20860.425,5657.58,51049.125,-8890.199999999999,-38158.02,-44162.055,-7665.615,7160.219999999999
1764435596.2431393,20861.55,5659.155,51049.8,-8890.065,-38157.705,-44163.09,-7663.95,7161.884999999999
1764435596.285952,20863.89,5657.175,51045.435,-8892.99,-38157.885,-44162.28,-7670.7,7160.175
1764435596.285952,20865.87,5651.235,51037.785,-8898.705,-38161.665,-44164.53,-7687.799999999999,7153.785
1764435596.285952,20876.13,5654.429999999999,51038.505,-8895.375,-38156.31,-44158.68,-7704.495,7152.389999999999
1764435596.285952,20885.22,5656.59,51039.72,-8891.414999999999,-38150.46,-44151.12,-7716.195,7152.344999999999
1764435596.285952,20890.71,5661.045,51045.48,-8885.07,-38144.07,-44143.605,-7713.0,7155.945
1764435596.285952,20884.905,5659.38,51045.345,-8887.005,-38146.815,-44147.025,-7707.195,7154.775
1764435596.285952,20877.57,5658.885,51046.56,-8887.365,-38150.145,-44151.66,-7695.855,7156.035
1764435596.285952,20867.355,5656.77,51045.435,-8890.785,-38155.68,-44159.895,-7684.469999999999,7155.945
1764435596.285952,20858.94,5654.7,51044.31,-8895.51,-38161.71,-44167.95,-7675.514999999999,7156.215
1764435596.285952,20857.23,5652.855,51043.32,-8898.119999999999,-38164.185,-44170.92,-7671.87,7157.52
1764435596.285952,20863.71,5656.185,51043.815,-8895.465,-38160.63,-44166.24,-7674.48,7160.804999999999
1764435596.285952,20868.57,5655.33,51041.16,-8895.33,-38157.615,-44162.505,-7685.955,7158.42
1764435596.285952,20875.275,5653.755,51038.46,-8895.06,-38154.78,-44159.04,-7702.065,7154.415
1764435596.285952,20886.975,5659.02,51042.42,-8888.13,-38146.455,-44149.23,-7712.009999999999,7155.36
1764435596.2869718,20887.245,5658.705,51042.96,-8888.355,-38146.59,-44148.015,-7715.655,7153.695
1764435596.2869718,20883.735,5659.02,51044.985,-8887.68,-38147.445,-44149.5,-7708.815,7154.91
1764435596.2869718,20872.755,5654.745,51042.69,-8892.045,-38153.97,-44156.835,-7700.13,7152.57
1764435596.2869718,20866.995,5656.86,51046.11,-8890.965,-38156.445,-44160.21,-7681.815,7157.384999999999
1764435596.2869718,20858.76,5655.06,51045.66,-8893.89,-38161.665,-44167.5,-7670.295,7158.554999999999
1764435596.2869718,20851.875,5649.255,51039.54,-8900.64,-38166.435,-44173.215,-7670.745,7154.73
1764435596.2869718,20862.855,5656.86,51045.255,-8893.305,-38158.605,-44165.205,-7672.679999999999,7158.87
1764435596.2869718,20871.675,5657.76,51044.085,-8892.359999999999,-38156.22,-44162.82,-7684.965,7158.599999999999
1764435596.287484,20878.11,5655.285,51039.765,-8892.765,-38153.7,-44158.095,-7700.67,7156.53
1764435596.287484,20886.255,5656.905,51040.305,-8890.289999999999,-38149.425,-44152.47,-7713.405,7154.099999999999
1764435596.3342092,20889.135,5659.11,51042.78,-8887.32,-38147.085,-44149.095,-7715.34,7154.28
1764435596.3342092,20883.69,5658.84,51043.95,-8887.365,-38148.525,-44151.345,-7709.309999999999,7154.054999999999
1764435596.3342092,20876.13,5657.94,51045.345,-8888.22,-38151.18,-44154.765,-7698.554999999999,7153.83
1764435596.3342092,20863.44,5654.34,51043.68,-8893.35,-38157.885,-44163.405,-7686.405,7153.11
1764435596.3342092,20857.815,5654.925,51045.525,-8894.609999999999,-38160.72,-44168.22,-7671.69,7157.295
1764435596.3342092,20856.645,5653.485,51043.095,-8897.4,-38163.555,-44171.19,-7671.24,7156.98
1764435596.3342092,20860.245,5652.36,51039.495,-8898.435,-38163.33,-44170.965,-7679.295,7155.09
1764435596.3342092,20865.33,5651.685,51037.11,-8898.48,-38160.72,-44167.68,-7691.67,7152.435
1764435596.3342092,20874.87,5652.405,51038.145,-8896.05,-38155.095,-44160.93,-7705.575,7150.455
1764435596.3342092,20879.955,5651.01,51036.525,-8895.914999999999,-38152.44,-44156.07,-7719.615,7146.585
1764435596.3342092,20881.845,5652.135,51039.36,-8893.395,-38149.56,-44152.515,-7720.92,7146.27
1764435596.3342092,20880.72,5655.014999999999,51044.355,-8889.119999999999,-38148.03,-44150.49,-7710.389999999999,7150.545
1764435596.3342092,20877.57,5658.929999999999,51049.215,-8885.88,-38147.625,-44150.13,-7694.37,7156.485
1764435596.3342092,20864.835,5653.755,51045.885,-8891.595,-38156.22,-44160.795,-7682.804999999999,7154.82
1764435596.3352215,20854.485,5649.48,51042.42,-8897.039999999999,-38164.365,-44169.48,-7672.545,7154.37
1764435596.3352215,20857.14,5652.0,51043.32,-8896.904999999999,-38164.14,-44171.1,-7670.16,7156.485
1764435596.3352215,20862.765,5653.08,51042.735,-8896.59,-38161.98,-44168.085,-7675.83,7157.79
1764435596.3352215,20866.32,5650.245,51038.46,-8898.345,-38161.215,-44166.465,-7689.285,7153.83
1764435596.3352215,20877.03,5652.81,51040.035,-8893.845,-38153.88,-44157.645,-7701.974999999999,7153.56
1764435596.3352215,20883.69,5653.98,51039.9,-8889.975,-38149.245,-44151.03,-7712.235,7151.625
1764435596.3352215,20886.03,5656.545,51043.455,-8886.24,-38145.78,-44147.52,-7716.33,7151.04
1764435596.3352215,20881.08,5656.139999999999,51044.22,-8887.365,-38147.85,-44150.805,-7712.775,7150.005
1764435596.3785083,20877.57,5658.615,51047.955,-8886.24,-38148.84,-44152.92,-7698.465,7154.235
1764435596.3785083,20866.185,5655.06,51045.48,-8891.19,-38156.76,-44162.235,-7685.639999999999,7154.099999999999
1764435596.3790238,20858.58,5652.54,51045.12,-8894.88,-38162.475,-44168.715,-7672.995,7156.08
1764435596.3790238,20858.94,5653.889999999999,51045.39,-8894.654999999999,-38161.98,-44168.265,-7668.855,7158.375
1764435596.3790238,20863.71,5654.16,51043.815,-8894.789999999999,-38160.495,-44166.24,-7674.795,7158.375
1764435596.3790238,20866.095,5649.929999999999,51039.18,-8897.265,-38160.72,-44165.97,-7689.78,7152.795
1764435596.3790238,20874.42,5650.785,51038.235,-8894.565,-38155.77,-44159.31,-7704.045,7151.085
1764435596.3790238,20882.25,5652.405,51039.63,-8889.93,-38150.28,-44153.19,-7715.429999999999,7148.835
1764435596.3790238,20887.335,5656.86,51045.12,-8884.71,-38145.87,-44148.06,-7715.565,7150.95
1764435596.3790238,20885.265,5658.795,51047.145,-8883.675,-38145.645,-44148.375,-7706.924999999999,7153.965
1764435596.3805635,20878.605,5659.245,51049.845,-8882.91,-38147.22,-44150.13,-7694.054999999999,7156.62
1764435596.3805635,20867.355,5655.33,51048.495,-8888.039999999999,-38155.05,-44160.435,-7682.49,7155.315
1764435596.3805635,20862.81,5656.139999999999,51048.72,-8890.065,-38159.325,-44166.375,-7669.665,7159.32
1764435596.3805635,20859.525,5652.855,51045.525,-8894.205,-38162.655,-44170.02,-7669.035,7158.285
1764435596.3805635,20866.545,5655.78,51047.91,-8890.875,-38157.525,-44165.16,-7672.545,7159.95
1764435596.3805635,20867.13,5650.335,51041.43,-8894.565,-38159.55,-44165.655,-7688.79,7152.705
1764435596.3805635,20876.22,5651.505,51040.035,-8892.18,-38154.825,-44158.77,-7702.875,7152.255
1764435596.3805635,20884.005,5652.719999999999,51040.305,-8889.795,-38151.225,-44153.28,-7715.34,7149.24
1764435596.3805635,20888.415,5657.985,51046.29,-8883.81,-38146.005,-44146.755,-7714.575,7151.985
1764435596.3805635,20884.68,5659.56,51049.08,-8882.279999999999,-38145.69,-44146.665,-7705.035,7154.73
1764435596.3805635,20875.23,5655.735,51046.785,-8887.5,-38153.565,-44155.17,-7696.98,7153.335
1764435596.3805635,20867.535,5656.185,51048.54,-8888.76,-38157.795,-44160.705,-7680.69,7157.205
1764435596.38158,20856.06,5650.335,51044.085,-8895.69,-38166.345,-44170.515,-7673.625,7154.594999999999
1764435596.38158,20855.97,5649.974999999999,51042.96,-8897.355,-38167.92,-44172.54,-7673.04,7154.775
1764435596.428791,20862.945,5652.495,51044.13,-8894.34,-38163.195,-44168.13,-7676.73,7156.889999999999
1764435596.428791,20865.645,5649.795,51040.215,-8896.005,-38163.15,-44166.51,-7691.445,7151.985
1764435596.428791,20877.21,5653.755,51041.565,-8891.64,-38155.725,-44157.195,-7703.639999999999,7152.48
1764435596.428791,20882.925,5653.26,51040.755,-8889.75,-38152.575,-44151.345,-7716.195,7149.599999999999
1764435596.428791,20886.48,5657.219999999999,51045.12,-8884.935,-38147.49,-44144.325,-7712.325,7152.255
1764435596.428791,20883.645,5658.885,51048.945,-8883.135,-38147.715,-44144.955,-7703.415,7154.235
1764435596.428791,20875.14,5656.32,51048.18,-8886.645,-38153.79,-44153.19,-7694.82,7152.929999999999
1764435596.428791,20864.52,5653.8,51046.83,-8890.289999999999,-38159.64,-44160.03,-7680.24,7154.37
1764435596.428791,20858.175,5653.304999999999,51047.235,-8892.404999999999,-38163.51,-44164.44,-7667.099999999999,7157.925
1764435596.428791,20857.68,5653.17,51045.57,-8893.845,-38164.41,-44167.905,-7669.17,7157.16
1764435596.428791,20860.47,5651.37,51042.33,-8894.565,-38163.915,-44167.14,-7676.415,7155.36
1764435596.428791,20867.13,5650.245,51040.305,-8894.699999999999,-38161.665,-44163.045,-7687.62,7153.56
1764435596.428791,20876.85,5651.73,51039.9,-8892.315,-38155.59,-44156.835,-7701.84,7151.94
1764435596.428791,20884.905,5654.61,51042.33,-8888.13,-38149.83,-44149.68,-7714.665,7150.545
1764435596.428791,20885.445,5655.554999999999,51043.905,-8885.744999999999,-38148.255,-44146.665,-7714.844999999999,7150.679999999999
1764435596.428791,20879.1,5654.205,51043.455,-8887.59,-38151.54,-44150.265,-7708.094999999999,7149.554999999999
1764435596.428791,20875.77,5657.94,51048.63,-8884.664999999999,-38151.54,-44150.94,-7692.84,7154.28
1764435596.428791,20865.06,5655.24,51047.46,-8888.67,-38158.605,-44159.49,-7679.519999999999,7154.594999999999
1764435596.428791,20859.255,5653.71,51047.1,-8891.91,-38163.33,-44165.88,-7667.415,7157.565
1764435596.428791,20857.86,5651.775,51043.5,-8894.744999999999,-38165.49,-44169.57,-7669.394999999999,7155.81
1764435596.428791,20864.925,5654.07,51043.995,-8891.279999999999,-38160.315,-44164.125,-7674.075,7158.285
1764435596.428791,20869.92,5651.955,51040.845,-8892.359999999999,-38158.83,-44161.335,-7686.09,7156.08
1764435596.4298084,20876.175,5650.92,51038.415,-8892.315,-38155.815,-44156.565,-7702.38,7151.625
1764435596.4298084,20886.255,5655.96,51042.78,-8885.97,-38147.49,-44146.665,-7710.389999999999,7153.605
1764435596.4731014,20885.58,5655.33,51043.095,-8885.744999999999,-38147.895,-44147.565,-7715.429999999999,7150.995
1764435596.4731014,20880.81,5655.825,51044.445,-8885.115,-38149.56,-44149.095,-7707.195,7152.435
1764435596.4736366,20873.97,5655.285,51045.885,-8886.51,-38152.89,-44153.055,-7694.415,7154.009999999999
1764435596.4736366,20864.52,5653.844999999999,51047.055,-8888.58,-38158.695,-44160.165,-7679.115,7155.719999999999
1764435596.4736366,20861.235,5656.185,51049.935,-8887.994999999999,-38160.225,-44162.73,-7665.344999999999,7160.4
1764435596.4736366,20861.73,5655.825,51047.91,-8889.975,-38160.945,-44163.99,-7665.615,7160.895
1764435596.4736366,20864.88,5653.395,51044.67,-8891.145,-38159.64,-44162.145,-7673.67,7158.285
1764435596.4736366,20864.52,5647.455,51037.245,-8895.105,-38160.765,-44162.19,-7689.735,7150.32
1764435596.4736366,20874.87,5649.435,51037.245,-8892.99,-38157.3,-44156.34,-7704.719999999999,7149.825
1764435596.4736366,20885.535,5654.115,51041.205,-8887.815,-38151.18,-44148.87,-7713.495,7151.445
1764435596.4736366,20883.915,5653.71,51042.15,-8887.23,-38150.91,-44148.375,-7715.745,7149.105
1764435596.4736366,20880.315,5654.474999999999,51044.985,-8886.33,-38151.63,-44150.265,-7707.599999999999,7150.634999999999
1764435596.4736366,20874.06,5653.575,51045.84,-8887.365,-38154.33,-44154.63,-7694.955,7152.344999999999
1764435596.4736366,20865.06,5652.495,51045.885,-8889.84,-38159.37,-44161.515,-7680.285,7153.965
1764435596.4736366,20857.05,5650.469999999999,51044.58,-8893.8,-38164.635,-44167.905,-7670.79,7154.73
1764435596.4736366,20856.645,5650.29,51043.275,-8894.88,-38165.535,-44169.255,-7668.63,7156.349999999999
1764435596.4736366,20863.125,5652.81,51044.13,-8891.955,-38160.36,-44163.99,-7672.365,7158.105
1764435596.4736366,20868.39,5650.785,51040.62,-8893.08,-38159.505,-44161.245,-7686.179999999999,7154.28
1764435596.4736366,20878.425,5650.695,51039.585,-8890.515,-38155.725,-44155.62,-7703.505,7151.445
1764435596.4736366,20887.83,5654.745,51042.555,-8885.07,-38149.11,-44148.105,-7712.955,7152.884999999999
1764435596.4736366,20885.49,5653.71,51041.88,-8886.645,-38150.64,-44149.23,-7715.025,7150.815
1764435596.4736366,20881.665,5654.52,51043.5,-8885.925,-38151.405,-44150.715,-7706.79,7152.255
1764435596.5208535,20873.925,5655.06,51044.895,-8886.645,-38154.465,-44154.99,-7694.639999999999,7154.145
1764435596.5208535,20862.72,5652.045,51043.95,-8890.92,-38160.81,-44163.36,-7680.24,7155.045
1764435596.5208535,20857.365,5651.415,51044.94,-8892.225,-38164.185,-44167.545,-7668.719999999999,7156.755
1764435596.5208535,20858.445,5652.045,51044.445,-8891.865,-38164.095,-44168.22,-7669.62,7157.384999999999
1764435596.5208535,20863.89,5651.91,51041.97,-8892.539999999999,-38162.385,-44165.88,-7675.785,7158.285
1764435596.5208535,20867.31,5649.255,51037.065,-8895.465,-38161.89,-44164.575,-7689.69,7153.74
1764435596.5208535,20877.795,5651.955,51038.145,-8890.83,-38155.32,-44154.945,-7702.605,7153.92
1764435596.5208535,20887.515,5656.635,51042.42,-8883.765,-38146.905,-44145.045,-7711.29,7155.675
1764435596.5208535,20888.1,5658.12,51044.895,-8881.289999999999,-38145.375,-44143.245,-7713.585,7154.775
1764435596.5208535,20881.125,5656.5,51044.76,-8882.865,-38149.65,-44148.375,-7706.565,7154.82
1764435596.5208535,20875.32,5657.31,51046.65,-8883.765,-38152.44,-44152.065,-7693.559999999999,7156.844999999999
1764435596.5208535,20869.2,5658.66,51050.34,-8883.72,-38155.545,-44156.385,-7675.83,7160.804999999999
1764435596.5208535,20858.67,5652.81,51046.47,-8891.279999999999,-38163.195,-44166.015,-7668.945,7158.285
1764435596.5208535,20857.77,5650.65,51044.13,-8893.395,-38164.59,-44168.625,-7670.16,7157.88
1764435596.5208535,20866.68,5654.565,51046.155,-8889.029999999999,-38158.38,-44161.47,-7673.49,7162.11
1764435596.5208535,20872.71,5654.61,51044.04,-8888.31,-38154.96,-44156.655,-7685.505,7160.13
1764435596.5218682,20881.035,5654.88,51043.005,-8887.095,-38151.315,-44151.165,-7701.615,7156.8
1764435596.5218682,20889.27,5658.525,51046.02,-8882.055,-38145.78,-44143.605,-7710.929999999999,7156.755
1764435596.5218682,20890.71,5660.325,51048.585,-8879.13,-38143.215,-44140.77,-7709.355,7156.889999999999
1764435596.5218682,20882.52,5656.545,51047.01,-8882.46,-38148.435,-44146.395,-7703.19,7155.0
1764435596.5218682,20877.435,5658.66,51050.835,-8881.92,-38149.92,-44148.465,-7688.205,7159.77
1764435596.5218682,20867.805,5657.49,51050.97,-8885.07,-38155.455,-44154.855,-7672.545,7161.435
1764435596.5218682,20859.705,5654.52,51047.505,-8890.02,-38162.025,-44163.54,-7664.625,7160.58
1764435596.5218682,20857.455,5650.695,51042.735,-8893.664999999999,-38164.995,-44167.995,-7668.63,7158.105
1764435596.5660722,20865.285,5652.63,51043.095,-8890.83,-38160.9,-44163.405,-7675.875,7159.634999999999
1764435596.5660722,20868.03,5648.58,51037.56,-8895.015,-38162.835,-44163.45,-7691.264999999999,7153.785
1764435596.5660722,20878.47,5650.875,51037.83,-8891.19,-38156.22,-44155.44,-7705.575,7152.435
1764435596.5660722,20886.435,5653.304999999999,51040.53,-8886.105,-38149.74,-44147.79,-7713.63,7152.57
1764435596.5660722,20888.19,5656.185,51044.31,-8881.965,-38147.04,-44145.0,-7711.155,7154.775
1764435596.5660722,20887.38,5659.92,51049.485,-8878.635,-38145.15,-44144.145,-7699.724999999999,7159.139999999999
1764435596.5660722,20876.94,5656.139999999999,51048.18,-8882.955,-38151.945,-44151.345,-7690.32,7157.655
1764435596.5660722,20867.22,5654.79,51049.26,-8884.664999999999,-38156.715,-44157.51,-7674.66,7159.32
1764435596.5660722,20857.905,5650.92,51045.57,-8891.145,-38163.69,-44166.69,-7667.865,7158.15
1764435596.5660722,20859.255,5651.91,51045.75,-8891.955,-38163.15,-44166.78,-7666.559999999999,7160.804999999999
1764435596.5660722,20864.745,5652.045,51043.68,-8892.765,-38161.8,-44164.98,-7675.29,7160.04
1764435596.5660722,20868.795,5649.344999999999,51039.135,-8894.43,-38161.53,-44163.27,-7690.139999999999,7155.045
1764435596.5660722,20880.405,5652.945,51041.205,-8889.525,-38154.015,-44154.045,-7703.549999999999,7155.945
1764435596.5660722,20885.355,5652.855,51040.845,-8887.095,-38150.595,-44148.69,-7713.9,7153.875
1764435596.5670722,20885.31,5653.844999999999,51042.285,-8884.845,-38148.435,-44147.025,-7712.505,7153.875
1764435596.5670722,20880.9,5654.61,51044.085,-8884.35,-38149.92,-44148.78,-7703.415,7155.585
1764435596.5670722,20874.195,5654.969999999999,51046.29,-8884.664999999999,-38152.395,-44152.515,-7689.735,7157.52
1764435596.5670722,20865.555,5654.474999999999,51047.37,-8885.295,-38155.77,-44158.23,-7675.92,7158.96
1764435596.5670722,20861.73,5654.385,51047.91,-8887.815,-38158.92,-44163.495,-7666.965,7161.75
1764435596.5670722,20861.37,5652.945,51045.48,-8890.92,-38161.44,-44165.88,-7667.639999999999,7161.344999999999
1764435596.5670722,20864.475,5650.92,51042.105,-8892.18,-38161.08,-44164.305,-7676.82,7159.32
1764435596.5670722,20867.58,5647.679999999999,51037.065,-8894.565,-38160.855,-44163.045,-7692.84,7153.875
1764435596.613242,20878.515,5651.235,51038.46,-8890.109999999999,-38154.24,-44153.775,-7705.71,7154.009999999999
1764435596.613242,20883.465,5651.054999999999,51038.46,-8888.49,-38151.315,-44149.68,-7716.915,7151.31
1764435596.613242,20887.83,5655.105,51043.995,-8881.92,-38146.23,-44144.19,-7712.37,7155.719999999999
1764435596.613242,20883.78,5656.23,51046.515,-8879.805,-38146.68,-44145.225,-7701.884999999999,7157.969999999999
1764435596.613242,20876.535,5656.005,51047.82,-8880.705,-38150.325,-44149.905,-7689.105,7158.735
1764435596.613242,20866.23,5654.16,51047.775,-8884.17,-38155.995,-44157.195,-7674.615,7159.545
1764435596.613242,20856.51,5648.085,51042.06,-8892.135,-38165.04,-44167.14,-7670.295,7156.125
1764435596.613242,20856.825,5647.05,51039.54,-8893.755,-38166.345,-44169.075,-7671.915,7156.889999999999
1764435596.613242,20864.7,5650.335,51041.835,-8890.289999999999,-38160.495,-44162.64,-7675.424999999999,7159.77
1764435596.613242,20871.81,5650.92,51040.26,-8890.109999999999,-38157.3,-44157.87,-7687.08,7158.509999999999
1764435596.613242,20879.595,5651.46,51038.415,-8888.49,-38153.205,-44152.38,-7702.29,7155.36
1764435596.613242,20884.77,5651.73,51039.135,-8885.654999999999,-38149.155,-44147.205,-7711.065,7153.29
1764435596.613242,20885.085,5653.304999999999,51041.61,-8882.82,-38147.535,-44145.36,-7709.894999999999,7153.2
1764435596.613242,20883.015,5656.005,51045.48,-8881.02,-38147.445,-44146.755,-7702.695,7154.955
1764435596.613242,20875.095,5654.79,51046.29,-8883.18,-38151.99,-44152.065,-7692.389999999999,7155.585
1764435596.613242,20861.1,5649.57,51043.23,-8889.66,-38160.585,-44162.28,-7680.014999999999,7154.28
1764435596.613242,20854.89,5648.264999999999,51041.88,-8893.08,-38165.13,-44168.13,-7670.25,7156.259999999999
1764435596.613242,20857.995,5649.795,51043.32,-8891.055,-38162.52,-44166.42,-7667.054999999999,7159.995
1764435596.613242,20862.675,5649.974999999999,51041.88,-8890.335,-38160.225,-44163.72,-7675.29,7158.599999999999
1764435596.613242,20868.03,5647.77,51037.605,-8892.539999999999,-38159.91,-44160.705,-7692.12,7153.65
1764435596.613242,20880.945,5651.46,51039.945,-8887.14,-38152.26,-44151.525,-7704.495,7154.82
1764435596.613242,20887.92,5653.98,51042.42,-8883.404999999999,-38147.04,-44145.405,-7712.73,7154.82
1764435596.6570735,20887.605,5654.16,51043.23,-8882.324999999999,-38146.725,-44144.415,-7712.325,7154.639999999999
1764435596.6570735,20881.665,5653.349999999999,51044.355,-8882.685,-38149.2,-44147.97,-7703.91,7154.955
1764435596.6570735,20873.655,5652.99,51044.58,-8883.855,-38152.935,-44152.47,-7691.13,7156.17
1764435596.6570735,20861.325,5648.31,51041.475,-8888.984999999999,-38160.99,-44162.55,-7678.17,7154.955
1764435596.6570735,20856.285,5647.545,51042.15,-8890.605,-38164.365,-44167.455,-7667.639999999999,7157.205
1764435596.6570735,20856.15,5645.969999999999,51039.405,-8893.619999999999,-38165.985,-44169.39,-7669.889999999999,7155.855
1764435596.6570735,20864.79,5648.804999999999,51041.16,-8890.47,-38161.035,-44163.72,-7677.764999999999,7156.844999999999
1764435596.6592312,20863.845,5640.57,51032.07,-8896.904999999999,-38165.445,-44166.33,-7697.61,7148.7
1764435596.6592312,20872.53,5641.245,51030.945,-8895.195,-38160.63,-44159.445,-7712.054999999999,7146.63
1764435596.6592312,20884.23,5649.57,51039.315,-8885.699999999999,-38149.155,-44147.34,-7713.855,7151.759999999999
1764435596.6592312,20887.785,5654.16,51044.76,-8880.57,-38144.88,-44144.19,-7710.525,7154.955
1764435596.6592312,20883.51,5653.53,51045.975,-8880.84,-38147.355,-44147.025,-7703.82,7155.0
1764435596.6592312,20872.17,5649.75,51044.085,-8885.744999999999,-38154.42,-44155.08,-7692.974999999999,7152.929999999999
1764435596.6592312,20864.7,5651.145,51047.37,-8885.835,-38157.705,-44159.94,-7675.74,7157.205
1764435596.6592312,20859.03,5649.12,51045.12,-8889.84,-38163.15,-44167.14,-7668.224999999999,7157.969999999999
1764435596.6592312,20857.23,5646.014999999999,51040.71,-8893.935,-38166.165,-44170.245,-7671.87,7155.585
1764435596.6592312,20864.52,5647.86,51041.16,-8891.279999999999,-38161.53,-44165.115,-7678.035,7156.485
1764435596.6592312,20868.48,5645.205,51036.075,-8893.44,-38161.485,-44163.09,-7693.83,7150.905
1764435596.6592312,20877.93,5646.554999999999,51035.805,-8891.01,-38156.355,-44156.295,-7709.174999999999,7150.23
1764435596.6592312,20885.085,5649.255,51038.595,-8886.24,-38149.605,-44148.51,-7715.429999999999,7150.724999999999
1764435596.6592312,20887.425,5653.349999999999,51043.725,-8882.414999999999,-38144.88,-44143.785,-7710.75,7152.705
1764435596.6592312,20879.325,5650.92,51042.87,-8885.52,-38150.28,-44150.04,-7706.16,7150.59
1764435596.6592312,20871.54,5651.145,51044.355,-8885.609999999999,-38153.25,-44154.225,-7692.48,7152.21
1764435596.6592312,20866.77,5653.62,51048.045,-8884.215,-38155.5,-44157.915,-7673.13,7158.509999999999
1764435596.7081687,20858.805,5649.885,51045.21,-8888.31,-38162.025,-44165.43,-7666.965,7158.195
1764435596.7081687,20856.375,5646.285,51039.855,-8892.72,-38165.445,-44168.715,-7671.465,7155.134999999999
1764435596.7081687,20859.345,5644.575,51036.705,-8894.52,-38165.67,-44167.545,-7681.23,7151.94
1764435596.7081687,20864.16,5642.235,51032.43,-8896.23,-38165.265,-44166.51,-7697.07,7147.71
1764435596.7081687,20877.705,5647.5,51036.525,-8889.029999999999,-38156.49,-44155.665,-7707.69,7150.32
1764435596.7081687,20885.805,5650.605,51041.16,-8883.404999999999,-38149.74,-44147.745,-7713.405,7151.31
1764435596.7081687,20884.815,5651.955,51043.275,-8880.93,-38147.58,-44146.62,-7710.57,7152.57
1764435596.7081687,20878.785,5651.46,51044.13,-8881.47,-38150.28,-44149.905,-7702.514999999999,7153.335
1764435596.7081687,20870.46,5649.974999999999,51044.49,-8883.63,-38154.33,-44155.44,-7691.13,7152.884999999999
1764435596.7081687,20857.455,5644.62,51040.35,-8891.1,-38164.905,-44166.915,-7679.924999999999,7150.905
1764435596.7081687,20850.975,5641.56,51037.47,-8896.68,-38170.89,-44174.07,-7672.634999999999,7152.525
1764435596.7081687,20851.02,5640.525,51035.535,-8897.805,-38170.44,-44174.52,-7672.905,7152.435
1764435596.7081687,20857.725,5641.83,51035.895,-8895.869999999999,-38166.345,-44169.93,-7679.295,7152.705
1764435596.7081687,20860.605,5638.094999999999,51029.91,-8898.75,-38167.245,-44169.255,-7696.844999999999,7146.134999999999
1764435596.7081687,20871.765,5640.75,51031.17,-8894.205,-38160.675,-44160.93,-7712.594999999999,7144.02
1764435596.7081687,20881.215,5646.33,51036.03,-8887.32,-38153.655,-44152.605,-7719.75,7145.73
1764435596.7081687,20883.735,5650.469999999999,51041.79,-8882.685,-38149.65,-44148.15,-7713.495,7150.275
1764435596.7091837,20876.715,5648.985,51042.645,-8884.664999999999,-38152.755,-44151.615,-7705.08,7150.5
1764435596.7091837,20866.23,5646.42,51040.71,-8888.265,-38158.245,-44159.895,-7695.315,7148.969999999999
1764435596.7091837,20858.985,5647.185,51042.825,-8888.49,-38161.665,-44164.395,-7677.764999999999,7153.02
1764435596.7091837,20851.875,5643.179999999999,51039.72,-8893.98,-38167.695,-44171.1,-7671.33,7152.66
1764435596.7091837,20853.045,5641.38,51035.895,-8896.994999999999,-38169.54,-44173.215,-7674.165,7152.929999999999
1764435596.7091837,20858.985,5642.639999999999,51034.86,-8895.105,-38166.3,-44169.12,-7682.445,7153.065
1764435596.7091837,20864.475,5641.514999999999,51031.935,-8895.195,-38164.59,-44166.375,-7697.79,7148.969999999999
1764435596.7520826,20872.305,5640.3,51029.685,-8894.789999999999,-38160.765,-44161.065,-7713.63,7144.785
1764435596.7520826,20880.315,5645.205,51034.77,-8888.445,-38152.89,-44152.245,-7717.365,7146.045
1764435596.7520826,20875.68,5642.639999999999,51033.195,-8890.38,-38155.005,-44153.55,-7717.365,7143.435
1764435596.7520826,20871.045,5643.63,51035.985,-8889.39,-38156.715,-44155.71,-7708.455,7144.875
1764435596.7520826,20866.32,5645.205,51038.865,-8889.164999999999,-38159.01,-44160.39,-7698.014999999999,7147.08
1764435596.7520826,20855.97,5642.235,51036.795,-8894.565,-38166.435,-44169.48,-7683.48,7149.105
1764435596.7520826,20855.61,5646.375,51040.215,-8892.945,-38166.03,-44170.02,-7670.295,7154.37
1764435596.7520826,20853.81,5642.415,51035.895,-8896.5,-38168.73,-44172.495,-7674.21,7152.795
1764435596.7520826,20859.21,5640.974999999999,51033.285,-8897.039999999999,-38167.065,-44169.3,-7682.985,7151.895
1764435596.7520826,20862.9,5637.735,51028.38,-8899.065,-38166.66,-44168.085,-7700.085,7146.54
1764435596.7520826,20873.475,5640.389999999999,51029.28,-8895.69,-38161.665,-44160.75,-7714.08,7144.83
1764435596.7520826,20882.655,5646.51,51034.725,-8888.76,-38154.42,-44151.435,-7716.78,7147.71
1764435596.7520826,20881.98,5648.04,51037.47,-8886.015,-38151.945,-44149.77,-7715.34,7147.8
1764435596.7520826,20876.805,5647.724999999999,51039.18,-8886.33,-38154.195,-44152.92,-7705.665,7149.285
1764435596.7520826,20869.38,5647.365,51039.765,-8887.994999999999,-38158.065,-44157.915,-7692.344999999999,7150.679999999999
1764435596.7520826,20855.52,5642.639999999999,51036.885,-8893.98,-38166.705,-44168.49,-7680.33,7148.429999999999
1764435596.7520826,20851.245,5642.01,51036.57,-8896.005,-38169.675,-44172.18,-7671.42,7150.545
1764435596.7520826,20852.28,5641.83,51034.32,-8897.67,-38170.53,-44172.54,-7673.49,7150.455
1764435596.7520826,20856.735,5640.48,51031.575,-8898.615,-38169.315,-44170.92,-7684.155,7148.745
1764435596.7520826,20861.505,5638.185,51027.795,-8900.46,-38168.64,-44168.67,-7700.04,7144.56
1764435596.7520826,20871.585,5640.885,51028.92,-8896.994999999999,-38162.025,-44160.12,-7714.17,7143.884999999999
1764435596.7520826,20880.405,5645.835,51033.375,-8890.74,-38154.78,-44151.705,-7718.58,7146.585
1764435596.801399,20876.805,5643.405,51032.745,-8891.865,-38157.75,-44154.855,-7719.48,7143.03
1764435596.801399,20870.73,5643.0,51033.87,-8893.17,-38160.99,-44158.095,-7709.985,7143.344999999999
1764435596.801399,20864.61,5644.125,51036.885,-8892.63,-38162.7,-44160.615,-7693.83,7146.719999999999
1764435596.802402,20853.0,5640.705,51034.59,-8897.67,-38170.305,-44169.84,-7681.094999999999,7146.045
1764435596.802402,20849.085,5639.804999999999,51034.005,-8900.19,-38172.555,-44173.215,-7672.995,7148.384999999999
1764435596.802402,20848.59,5636.969999999999,51029.28,-8903.475,-38175.525,-44176.365,-7681.049999999999,7145.505
1764435596.802402,20854.98,5637.78,51028.83,-8902.305,-38172.96,-44172.9,-7689.554999999999,7145.28
1764435596.802402,20859.795,5635.62,51025.545,-8903.07,-38171.115,-44170.155,-7704.315,7141.41
1764435596.802402,20872.845,5641.335,51029.46,-8895.69,-38161.215,-44158.455,-7713.54,7144.29
1764435596.802402,20877.975,5642.865,51031.485,-8891.73,-38155.365,-44149.995,-7718.174999999999,7144.38
1764435596.802402,20876.175,5643.675,51033.735,-8890.335,-38153.97,-44149.68,-7716.059999999999,7143.974999999999
1764435596.802402,20870.055,5643.179999999999,51034.32,-8891.19,-38157.345,-44154.18,-7708.679999999999,7144.155
1764435596.802402,20860.515,5640.3,51032.835,-8894.835,-38164.14,-44162.64,-7698.24,7143.884999999999
1764435596.802402,20850.255,5636.969999999999,51031.62,-8899.605,-38171.025,-44171.505,-7684.965,7144.83
1764435596.802402,20844.405,5634.99,51029.595,-8902.125,-38174.49,-44175.735,-7677.405,7145.505
1764435596.802402,20846.97,5636.25,51030.27,-8900.775,-38171.79,-44173.395,-7676.82,7146.315
1764435596.802402,20850.75,5635.755,51027.885,-8900.955,-38170.305,-44171.19,-7685.37,7144.335
1764435596.802402,20855.61,5633.01,51024.06,-8903.295,-38169.405,-44168.94,-7700.264999999999,7138.889999999999
1764435596.802402,20868.48,5636.52,51026.13,-8898.164999999999,-38161.89,-44159.94,-7713.45,7139.835
1764435596.802402,20877.48,5640.795,51029.82,-8893.664999999999,-38156.94,-44153.82,-7722.45,7141.455
1764435596.802402,20875.41,5639.76,51029.235,-8895.465,-38159.37,-44157.015,-7724.745,7139.25
1764435596.802402,20869.38,5638.77,51030.675,-8895.779999999999,-38161.53,-44160.165,-7713.54,7140.825
1764435596.802402,20862.63,5640.48,51034.185,-8894.16,-38163.15,-44162.01,-7696.53,7144.605
1764435596.802402,20850.255,5636.385,51031.44,-8900.685,-38172.375,-44172.495,-7684.11,7144.335
1764435596.847311,20843.1,5632.785,51028.11,-8905.455,-38177.37,-44178.66,-7677.315,7143.525
1764435596.8483293,20845.17,5633.46,51028.38,-8904.69,-38175.57,-44177.355,-7678.53,7143.705
1764435596.8483293,20857.68,5639.31,51031.845,-8899.289999999999,-38168.28,-44170.515,-7685.415,7147.62
1764435596.849388,20861.055,5634.855,51025.41,-8903.925,-38169.045,-44169.57,-7701.84,7142.895
1764435596.849388,20871.225,5636.88,51026.085,-8899.515,-38162.43,-44161.155,-7714.394999999999,7142.759999999999
1764435596.849388,20875.905,5639.445,51028.47,-8895.51,-38158.02,-44155.89,-7721.549999999999,7141.41
1764435596.8503892,20878.56,5644.17,51034.725,-8890.289999999999,-38153.655,-44151.84,-7716.105,7144.38
1764435596.8507574,20872.755,5644.53,51035.76,-8891.55,-38155.86,-44155.71,-7704.9,7145.505
1764435596.8507574,20863.71,5642.28,51036.21,-8894.025,-38160.405,-44161.515,-7691.759999999999,7146.495
1764435596.851384,20850.795,5637.554999999999,51033.06,-8899.695,-38168.73,-44171.19,-7678.844999999999,7145.775
1764435596.851384,20843.73,5634.27,51029.01,-8904.105,-38173.815,-44176.95,-7672.545,7145.28
1764435596.851384,20847.015,5635.349999999999,51030.045,-8903.16,-38172.24,-44175.42,-7676.28,7146.045
1764435596.851384,20856.6,5638.815,51031.755,-8899.785,-38166.795,-44170.11,-7684.2,7147.17
1764435596.851384,20861.46,5636.385,51026.76,-8902.755,-38166.93,-44169.615,-7702.019999999999,7141.77
1764435596.851384,20871.855,5637.33,51026.355,-8900.145,-38162.205,-44162.685,-7717.005,7141.05
1764435596.851384,20877.435,5639.985,51028.695,-8896.14,-38157.39,-44156.43,-7721.684999999999,7141.23
1764435596.851384,20876.31,5641.74,51031.44,-8893.35,-38156.175,-44154.945,-7717.094999999999,7142.264999999999
1764435596.851384,20870.01,5641.605,51033.24,-8894.205,-38158.425,-44157.87,-7706.474999999999,7143.21
1764435596.851384,20860.02,5638.905,51032.655,-8897.94,-38164.77,-44165.7,-7695.045,7143.12
1764435596.851384,20854.44,5641.155,51036.435,-8897.715,-38166.705,-44169.66,-7676.594999999999,7148.88
1764435596.851384,20850.255,5639.849999999999,51034.545,-8900.82,-38170.71,-44174.16,-7670.79,7149.645
1764435596.851384,20851.38,5638.455,51031.305,-8903.16,-38171.745,-44175.195,-7674.705,7148.295
1764435596.8523872,20855.745,5637.554999999999,51029.1,-8904.33,-38169.81,-44173.53,-7684.83,7146.27
1764435596.8523872,20861.595,5635.889999999999,51025.635,-8905.275,-38168.19,-44170.065,-7700.174999999999,7142.535
1764435596.8523872,20874.555,5641.56,51029.64,-8898.345,-38159.82,-44159.445,-7711.875,7144.155
1764435596.8523872,20875.68,5639.985,51028.02,-8898.57,-38159.82,-44157.78,-7722.09,7140.554999999999
1764435596.8913436,20873.745,5640.255,51029.19,-8897.49,-38159.46,-44157.645,-7717.995,7141.32
1764435596.8913436,20868.84,5641.155,51032.205,-8895.195,-38159.55,-44158.77,-7705.98,7143.255
1764435596.8913436,20863.755,5643.135,51036.435,-8893.845,-38160.54,-44161.335,-7689.465,7147.844999999999
1764435596.8913436,20852.595,5639.355,51033.78,-8900.055,-38169.18,-44171.73,-7677.36,7147.98
1764435596.8913436,20846.295,5635.62,51029.595,-8904.33,-38175.345,-44177.355,-7672.41,7147.259999999999
1764435596.8913436,20848.68,5636.52,51029.055,-8904.375,-38173.5,-44175.42,-7676.19,7146.945
1764435596.8913436,20855.07,5637.105,51027.795,-8904.285,-38170.935,-44174.115,-7687.349999999999,7144.74
1764435596.8913436,20859.57,5634.0,51022.35,-8906.67,-38171.61,-44173.215,-7703.415,7140.42
1764435596.8913436,20870.64,5637.285,51024.555,-8901.0,-38164.365,-44162.91,-7714.844999999999,7141.545
1764435596.8913436,20875.95,5639.31,51027.615,-8896.365,-38159.505,-44157.33,-7720.605,7141.59
1764435596.8913436,20872.845,5638.005,51027.75,-8897.265,-38161.26,-44158.995,-7718.985,7139.969999999999
1764435596.8913436,20870.01,5641.56,51032.52,-8894.385,-38160.72,-44158.86,-7705.844999999999,7144.695
1764435596.8930914,20862.99,5641.56,51034.185,-8895.015,-38164.185,-44164.305,-7690.59,7147.304999999999
1764435596.8930914,20849.58,5636.565,51030.855,-8901.855,-38172.69,-44174.43,-7678.349999999999,7145.325
1764435596.8930914,20846.34,5635.755,51030.945,-8903.88,-38174.445,-44177.13,-7672.32,7146.179999999999
1764435596.8930914,20850.48,5636.474999999999,51030.495,-8902.89,-38172.42,-44175.33,-7675.38,7147.485
1764435596.8930914,20857.815,5636.79,51028.47,-8902.08,-38169.63,-44170.965,-7685.684999999999,7148.16
1764435596.8930914,20862.36,5633.325,51023.295,-8905.095,-38170.305,-44169.57,-7703.19,7142.715
1764435596.8930914,20874.555,5638.815,51026.985,-8898.48,-38160.855,-44158.815,-7712.91,7143.795
1764435596.8930914,20877.21,5638.77,51028.11,-8896.23,-38157.975,-44155.665,-7719.21,7142.175
1764435596.8930914,20874.6,5639.804999999999,51030.09,-8894.789999999999,-38157.255,-44155.08,-7714.08,7143.435
1764435596.8930914,20870.325,5642.01,51032.835,-8893.664999999999,-38158.56,-44157.105,-7702.065,7146.405
1764435596.9403274,20862.765,5641.605,51034.5,-8894.88,-38162.79,-44161.56,-7687.394999999999,7149.105
1764435596.9403274,20855.655,5641.56,51036.39,-8895.96,-38165.13,-44165.43,-7672.545,7151.715
1764435596.9403274,20852.685,5640.929999999999,51035.085,-8898.48,-38168.505,-44171.055,-7669.349999999999,7151.085
1764435596.9413292,20853.405,5637.78,51030.135,-8902.395,-38171.115,-44174.565,-7677.45,7148.205
1764435596.9413292,20861.505,5639.715,51030.72,-8899.695,-38166.84,-44168.715,-7683.795,7150.724999999999
1764435596.9413292,20866.635,5637.195,51026.76,-8900.775,-38166.075,-44165.34,-7698.78,7146.495
1764435596.9413292,20876.13,5638.77,51026.76,-8897.85,-38160.18,-44157.78,-7712.415,7144.65
1764435596.9413292,20882.34,5642.685,51031.485,-8893.035,-38154.645,-44150.94,-7715.34,7146.315
1764435596.9413292,20882.655,5647.05,51037.56,-8888.13,-38151.09,-44147.565,-7707.42,7149.96
1764435596.9413292,20874.645,5644.844999999999,51037.515,-8890.199999999999,-38154.87,-44152.56,-7698.96,7149.69
1764435596.9413292,20868.975,5646.735,51041.205,-8888.94,-38157.615,-44156.565,-7682.49,7153.92
1764435596.9413292,20859.615,5645.16,51040.665,-8892.045,-38162.88,-44164.215,-7667.594999999999,7155.54
1764435596.9413292,20853.585,5642.01,51037.965,-8895.69,-38166.93,-44169.345,-7662.24,7155.315
1764435596.9413292,20854.665,5641.245,51035.445,-8897.31,-38167.11,-44169.03,-7667.549999999999,7154.639999999999
1764435596.9413292,20861.37,5641.965,51034.32,-8896.994999999999,-38163.825,-44165.475,-7678.575,7153.02
1764435596.9413292,20869.695,5641.335,51032.61,-8895.69,-38160.315,-44160.255,-7692.299999999999,7151.67
1764435596.9413292,20879.37,5643.405,51032.97,-8891.955,-38154.6,-44152.515,-7705.17,7151.31
1764435596.9413292,20884.05,5646.51,51036.705,-8887.545,-38149.515,-44147.475,-7709.58,7150.86
1764435596.9413292,20883.42,5648.76,51040.395,-8884.664999999999,-38147.49,-44146.62,-7703.19,7152.884999999999
1764435596.9413292,20875.905,5646.105,51040.305,-8886.645,-38152.035,-44152.065,-7693.74,7152.795
1764435596.9413292,20865.285,5642.82,51038.91,-8890.965,-38158.695,-44159.895,-7683.84,7151.085
1764435596.9413292,20856.735,5642.37,51039.135,-8894.205,-38164.455,-44167.905,-7672.094999999999,7152.66
1764435596.9413292,20852.775,5641.02,51037.47,-8897.4,-38167.92,-44171.865,-7665.389999999999,7154.145
1764435596.9413292,20857.005,5642.505,51037.785,-8895.69,-38164.14,-44168.13,-7666.2,7156.17
1764435596.9849644,20863.305,5643.495,51036.93,-8893.8,-38160.27,-44163.315,-7675.469999999999,7155.36
1764435596.9849644,20870.595,5643.179999999999,51034.095,-8893.529999999999,-38158.155,-44159.49,-7690.005,7153.56
1764435596.9849644,20878.785,5644.215,51034.815,-8890.74,-38152.98,-44152.83,-7704.495,7151.31
1764435596.9849644,20884.23,5646.645,51038.46,-8885.97,-38147.985,-44148.15,-7708.995,7151.355
1764435596.9849644,20881.755,5647.05,51039.585,-8884.664999999999,-38148.93,-44148.6,-7704.0,7152.165
1764435596.9849644,20872.305,5643.719999999999,51038.055,-8888.13,-38155.32,-44155.125,-7696.755,7150.185
1764435596.9849644,20864.205,5642.01,51038.64,-8891.055,-38159.775,-44161.965,-7683.84,7150.679999999999
1764435596.9849644,20855.655,5641.469999999999,51038.955,-8893.845,-38164.545,-44169.345,-7669.53,7153.155
1764435596.985977,20854.26,5642.955,51039.405,-8893.935,-38165.355,-44170.605,-7661.88,7157.025
1764435596.985977,20852.37,5639.31,51034.275,-8896.815,-38167.155,-44171.055,-7667.865,7153.469999999999
1764435596.985977,20861.91,5642.82,51036.615,-8892.539999999999,-38160.855,-44163.765,-7674.795,7155.405
1764435596.985977,20870.955,5643.585,51036.03,-8891.145,-38157.975,-44159.355,-7689.465,7153.92
1764435596.985977,20877.21,5643.09,51033.69,-8890.02,-38155.005,-44155.125,-7705.755,7149.825
1764435596.985977,20882.385,5646.69,51037.65,-8884.305,-38148.795,-44147.205,-7707.285,7151.535
1764435596.985977,20878.785,5644.53,51037.56,-8885.385,-38151.18,-44149.905,-7704.585,7150.77
1764435596.985977,20872.98,5644.844999999999,51038.865,-8885.565,-38153.97,-44153.595,-7695.315,7151.759999999999
1764435596.9874873,20867.4,5647.05,51042.33,-8884.305,-38155.59,-44156.97,-7678.62,7155.585
1764435596.9874873,20856.87,5644.8,51041.565,-8888.355,-38161.53,-44164.89,-7664.894999999999,7156.71
1764435596.9874873,20849.445,5640.12,51036.345,-8895.015,-38168.55,-44172.675,-7662.78,7154.235
1764435596.9874873,20854.62,5641.92,51036.3,-8893.619999999999,-38165.445,-44169.615,-7664.4,7156.349999999999
1764435596.9885015,20862.18,5643.27,51035.94,-8891.01,-38160.675,-44163.72,-7673.13,7157.115
1764435596.9885015,20868.75,5643.135,51034.185,-8889.525,-38157.75,-44159.535,-7688.295,7153.56
1764435597.0312166,20876.265,5642.91,51033.195,-8888.22,-38153.835,-44154.27,-7703.91,7150.5
1764435597.0312166,20884.365,5648.804999999999,51039.99,-8881.83,-38146.545,-44147.025,-7707.42,7153.245
1764435597.0312166,20881.935,5649.66,51041.79,-8881.38,-38147.22,-44147.52,-7702.424999999999,7154.28
1764435597.0312166,20874.24,5647.724999999999,51041.655,-8883.63,-38151.315,-44152.02,-7691.849999999999,7153.74
1764435597.0312166,20869.2,5650.02,51045.795,-8882.865,-38153.34,-44154.855,-7674.389999999999,7158.014999999999
1764435597.0312166,20857.59,5645.25,51042.42,-8888.715,-38161.62,-44164.35,-7662.825,7157.969999999999
1764435597.0312166,20849.4,5639.31,51036.57,-8896.05,-38169.09,-44173.44,-7661.655,7154.28
1764435597.0312166,20856.69,5643.224999999999,51039.54,-8892.27,-38163.96,-44168.895,-7663.275,7157.565
1764435597.0312166,20861.91,5643.135,51038.1,-8891.64,-38160.855,-44164.89,-7673.804999999999,7156.349999999999
1764435597.0312166,20867.715,5642.145,51034.995,-8891.324999999999,-38158.155,-44160.885,-7688.474999999999,7152.075
1764435597.0322344,20877.975,5645.25,51037.38,-8885.789999999999,-38150.82,-44151.435,-7700.13,7152.03
1764435597.0322344,20879.37,5643.045,51035.085,-8887.904999999999,-38152.08,-44151.75,-7710.165,7147.98
1764435597.0322344,20880.945,5646.96,51040.215,-8883.81,-38149.38,-44149.545,-7703.28,7151.895
1764435597.0322344,20876.67,5648.58,51044.13,-8882.055,-38149.29,-44150.985,-7690.724999999999,7154.415
1764435597.0322344,20862.675,5641.11,51038.775,-8890.425,-38159.505,-44161.875,-7680.42,7152.12
1764435597.0322344,20853.63,5638.77,51037.38,-8894.654999999999,-38165.805,-44169.795,-7668.179999999999,7153.469999999999
1764435597.0322344,20853.27,5641.335,51039.045,-8893.89,-38165.085,-44171.055,-7661.61,7156.755
1764435597.0322344,20857.635,5643.27,51038.955,-8893.619999999999,-38162.34,-44167.86,-7663.905,7158.42
1764435597.0322344,20863.935,5643.36,51036.66,-8892.855,-38159.28,-44163.81,-7674.255,7157.205
1764435597.0322344,20868.3,5641.605,51033.42,-8893.215,-38157.48,-44160.84,-7691.04,7152.929999999999
1764435597.0322344,20875.14,5640.66,51031.98,-8891.82,-38154.42,-44155.665,-7706.115,7148.745
1764435597.0322344,20881.44,5645.07,51037.335,-8885.115,-38148.03,-44148.51,-7707.195,7150.995
1764435597.0322344,20876.22,5643.675,51037.425,-8885.97,-38150.1,-44151.345,-7704.45,7149.645
1764435597.0322344,20868.975,5641.605,51036.12,-8889.795,-38156.175,-44157.825,-7695.764999999999,7149.825
1764435597.0794442,20860.47,5640.929999999999,51037.11,-8891.82,-38160.585,-44163.81,-7681.23,7151.895
1764435597.0794442,20850.93,5639.31,51036.435,-8894.789999999999,-38164.77,-44169.885,-7666.83,7152.84
1764435597.0794442,20846.025,5636.655,51033.375,-8898.164999999999,-38168.73,-44173.305,-7662.644999999999,7152.21
1764435597.0794442,20852.46,5638.815,51034.5,-8894.835,-38165.265,-44170.2,-7665.03,7155.134999999999
1764435597.0794442,20859.12,5639.085,51033.285,-8894.115,-38163.24,-44166.78,-7676.684999999999,7153.83
1764435597.0794442,20866.005,5637.285,51029.28,-8895.69,-38162.43,-44164.35,-7693.019999999999,7149.735
1764435597.0794442,20876.58,5641.2,51030.945,-8890.38,-38154.195,-44154.54,-7704.179999999999,7150.365
1764435597.0794442,20876.535,5640.435,51030.405,-8890.244999999999,-38152.8,-44152.83,-7710.795,7146.63
1764435597.0794442,20874.06,5641.2,51033.105,-8888.67,-38152.845,-44152.695,-7705.215,7147.889999999999
1764435597.0794442,20869.785,5642.775,51036.66,-8886.6,-38153.835,-44153.64,-7691.174999999999,7151.804999999999
1764435597.0794442,20861.28,5641.785,51037.47,-8888.94,-38159.595,-44159.31,-7676.639999999999,7153.469999999999
1764435597.0794442,20848.725,5636.429999999999,51034.005,-8895.69,-38168.055,-44169.345,-7666.11,7151.085
1764435597.0794442,20848.365,5637.645,51034.995,-8896.32,-38167.695,-44171.55,-7662.915,7152.255
1764435597.0794442,20850.93,5636.025,51030.945,-8900.145,-38170.08,-44173.89,-7671.42,7150.275
1764435597.0794442,20859.975,5638.545,51032.07,-8896.545,-38164.725,-44167.59,-7677.405,7153.11
1764435597.0794442,20865.87,5636.61,51028.38,-8896.68,-38163.42,-44163.36,-7692.929999999999,7148.474999999999
1764435597.0794442,20876.355,5639.849999999999,51030.585,-8891.865,-38156.76,-44154.18,-7704.99,7148.295
1764435597.0794442,20876.085,5637.465,51028.605,-8892.404999999999,-38157.3,-44153.955,-7712.28,7145.054999999999
1764435597.0794442,20872.71,5637.645,51029.91,-8891.64,-38158.605,-44154.765,-7706.519999999999,7144.965
1764435597.0794442,20866.41,5637.735,51031.935,-8892.045,-38160.9,-44158.365,-7695.54,7145.73
1764435597.0794442,20857.5,5637.554999999999,51033.645,-8893.26,-38165.22,-44163.855,-7680.915,7148.16
1764435597.0794442,20851.38,5638.41,51035.355,-8894.475,-38167.47,-44167.41,-7664.49,7152.66
1764435597.1292005,20848.725,5636.969999999999,51033.87,-8897.13,-38170.17,-44170.02,-7659.315,7153.335
1764435597.1292005,20850.48,5635.8,51031.62,-8898.119999999999,-38169.225,-44169.255,-7663.545,7152.705
1764435597.1292005,20858.985,5636.969999999999,51031.485,-8896.725,-38165.13,-44164.8,-7674.255,7152.884999999999
1764435597.1292005,20865.555,5634.719999999999,51028.155,-8898.029999999999,-38163.42,-44162.19,-7692.705,7147.575
1764435597.1292005,20873.565,5635.17,51027.03,-8896.545,-38159.64,-44156.34,-7705.53,7145.955
1764435597.1292005,20879.145,5639.804999999999,51032.16,-8890.47,-38153.295,-44149.995,-7708.815,7147.259999999999
1764435597.1292005,20876.805,5641.11,51034.68,-8888.625,-38153.745,-44150.67,-7703.594999999999,7148.79
1764435597.1292005,20871.81,5642.505,51037.56,-8887.77,-38155.5,-44152.83,-7688.655,7153.245
1764435597.1292005,20861.235,5640.03,51036.3,-8890.289999999999,-38161.35,-44160.075,-7675.785,7153.335
1764435597.1292005,20848.815,5635.304999999999,51032.16,-8897.265,-38170.44,-44171.595,-7668.09,7149.645
1764435597.1292005,20845.575,5634.224999999999,51030.54,-8900.01,-38173.68,-44174.745,-7665.075,7149.105
1764435597.1292005,20848.14,5632.425,51027.885,-8901.225,-38173.725,-44174.385,-7670.88,7147.935
1764435597.1292005,20856.465,5633.91,51027.48,-8899.605,-38168.64,-44168.895,-7678.08,7149.645
1764435597.1292005,20863.26,5633.28,51025.095,-8898.705,-38165.49,-44163.9,-7692.974999999999,7146.045
1764435597.1292005,20871.18,5634.54,51025.05,-8896.365,-38161.035,-44157.06,-7706.07,7143.884999999999
1764435597.1292005,20873.97,5635.53,51025.86,-8894.88,-38159.145,-44155.485,-7710.705,7142.804999999999
1764435597.1292005,20871.81,5636.565,51029.325,-8893.44,-38159.1,-44156.385,-7706.745,7143.57
1764435597.1292005,20863.62,5635.035,51030.45,-8894.115,-38161.305,-44159.085,-7695.63,7144.155
1764435597.1292005,20856.06,5635.8,51032.025,-8894.205,-38164.41,-44163.27,-7679.115,7147.125
1764435597.1292005,20845.53,5633.054999999999,51029.46,-8899.605,-38171.97,-44173.98,-7668.719999999999,7145.775
1764435597.1302226,20844.81,5633.91,51029.46,-8901.135,-38173.365,-44176.68,-7665.48,7147.17
1764435597.1302226,20847.69,5632.514999999999,51025.005,-8904.15,-38173.77,-44176.005,-7670.61,7147.395
1764435597.1302226,20856.96,5635.304999999999,51026.22,-8901.315,-38168.28,-44168.715,-7677.495,7149.465
1764435597.1302226,20862.54,5633.01,51023.52,-8901.18,-38166.075,-44165.52,-7694.46,7143.929999999999
1764435597.170063,20871.81,5635.935,51024.78,-8896.23,-38159.505,-44157.195,-7706.115,7143.66
1764435597.170063,20879.64,5642.19,51031.8,-8889.255,-38151.855,-44149.95,-7705.349999999999,7148.52
1764435597.170063,20877.795,5643.945,51036.075,-8887.545,-38150.955,-44149.545,-7697.34,7150.77
1764435597.170063,20870.82,5644.08,51037.875,-8887.859999999999,-38154.015,-44152.965,-7685.28,7151.804999999999
1764435597.170063,20860.47,5640.795,51036.885,-8891.279999999999,-38158.65,-44160.075,-7670.745,7152.66
1764435597.170063,20849.94,5636.25,51033.375,-8897.625,-38166.795,-44169.885,-7659.674999999999,7152.03
1764435597.1710875,20849.535,5638.5,51034.32,-8896.904999999999,-38166.84,-44170.245,-7654.365,7154.19
1764435597.1710875,20851.875,5637.105,51031.26,-8898.615,-38167.47,-44171.37,-7665.48,7150.95
1764435597.1710875,20860.11,5637.78,51030.36,-8897.805,-38164.455,-44166.87,-7674.84,7151.535
1764435597.172108,20868.57,5638.32,51029.91,-8895.15,-38159.82,-44160.3,-7687.349999999999,7149.825
1764435597.172108,20873.835,5637.465,51028.335,-8894.16,-38156.22,-44155.845,-7701.884999999999,7145.505
1764435597.172108,20876.265,5639.625,51030.81,-8890.425,-38152.62,-44151.795,-7704.764999999999,7145.955
1764435597.172108,20874.645,5641.155,51032.61,-8889.119999999999,-38153.295,-44152.695,-7697.745,7148.61
1764435597.172108,20869.065,5641.425,51035.265,-8888.94,-38155.32,-44155.305,-7685.235,7150.365
1764435597.172108,20863.08,5643.27,51039.405,-8888.67,-38157.48,-44159.13,-7669.304999999999,7154.55
1764435597.172108,20852.28,5638.86,51035.445,-8894.789999999999,-38166.165,-44169.03,-7660.62,7154.009999999999
1764435597.172108,20851.425,5638.23,51034.77,-8896.815,-38168.28,-44171.37,-7656.21,7155.764999999999
1764435597.172108,20855.7,5638.86,51033.645,-8896.77,-38166.39,-44169.12,-7662.15,7155.179999999999
1764435597.1741097,20862.09,5638.995,51032.34,-8895.869999999999,-38163.96,-44165.34,-7673.13,7153.83
1764435597.1741097,20869.425,5638.5,51030.18,-8895.15,-38160.0,-44158.815,-7686.269999999999,7151.445
1764435597.1741097,20876.355,5638.32,51029.505,-8892.225,-38154.69,-44151.48,-7698.375,7148.969999999999
1764435597.1741097,20876.535,5637.78,51030.0,-8891.055,-38152.935,-44149.545,-7702.695,7146.315
1764435597.1751082,20874.015,5639.985,51033.33,-8889.074999999999,-38151.27,-44149.095,-7694.28,7149.014999999999
1764435597.1751082,20864.745,5638.139999999999,51031.845,-8892.855,-38157.435,-44156.655,-7688.34,7146.764999999999
1764435597.2182748,20857.05,5637.465,51033.105,-8895.69,-38162.52,-44163.945,-7675.605,7148.115
1764435597.2182748,20848.77,5633.82,51030.81,-8900.145,-38169.09,-44172.45,-7662.42,7149.735
1764435597.2182748,20845.485,5632.245,51028.47,-8902.755,-38171.34,-44176.5,-7659.674999999999,7149.645
1764435597.2188082,20849.985,5633.46,51027.435,-8901.99,-38169.27,-44173.62,-7664.894999999999,7149.375
1764435597.2188082,20858.58,5635.71,51028.47,-8899.335,-38164.14,-44167.68,-7672.769999999999,7150.679999999999
1764435597.2188082,20862.81,5632.245,51023.79,-8900.955,-38162.745,-44164.395,-7689.42,7145.505
1764435597.2188082,20872.08,5635.755,51027.21,-8894.385,-38154.645,-44154.72,-7697.969999999999,7146.495
1764435597.2188082,20872.8,5637.014999999999,51028.83,-8891.91,-38152.935,-44151.84,-7701.84,7144.11
1764435597.2188082,20872.485,5640.21,51032.97,-8890.065,-38153.07,-44152.515,-7697.25,7146.36
1764435597.2188082,20870.91,5642.955,51037.875,-8887.904999999999,-38152.395,-44153.64,-7684.695,7150.77
1764435597.2188082,20862.9,5641.83,51037.56,-8890.154999999999,-38157.705,-44160.795,-7671.554999999999,7152.12
1764435597.2188082,20854.17,5639.264999999999,51035.175,-8894.744999999999,-38165.13,-44168.85,-7658.73,7153.695
1764435597.2188082,20849.04,5634.63,51030.225,-8900.64,-38170.53,-44174.205,-7657.83,7151.759999999999
1764435597.2188082,20849.76,5631.165,51025.23,-8904.465,-38171.79,-44176.005,-7666.965,7147.755
1764435597.2188082,20857.185,5633.01,51025.455,-8901.9,-38166.84,-44170.74,-7676.775,7147.125
1764435597.2188082,20863.26,5631.435,51022.17,-8902.125,-38165.04,-44166.555,-7693.92,7142.445
1764435597.2188082,20872.53,5634.63,51024.33,-8897.895,-38158.965,-44158.455,-7704.54,7142.13
1764435597.2188082,20876.355,5637.915,51028.02,-8893.395,-38155.68,-44153.595,-7703.19,7143.66
1764435597.2188082,20876.31,5642.099999999999,51034.14,-8888.175,-38152.53,-44150.805,-7691.219999999999,7148.7
1764435597.2188082,20870.325,5642.415,51036.435,-8888.625,-38154.645,-44154.585,-7679.07,7150.995
1764435597.2188082,20860.785,5641.245,51036.435,-8891.369999999999,-38160.225,-44162.505,-7667.415,7151.625
1764435597.2188082,20847.51,5633.505,51029.73,-8900.145,-38170.35,-44174.115,-7660.799999999999,7147.08
1764435597.2656038,20846.43,5632.02,51027.57,-8903.205,-38172.645,-44177.715,-7659.269999999999,7146.855
1764435597.2656038,20854.35,5636.969999999999,51030.225,-8899.785,-38166.975,-44171.55,-7661.115,7150.365
1764435597.2656038,20861.37,5637.465,51029.28,-8898.48,-38164.005,-44167.5,-7671.644999999999,7149.599999999999
1764435597.2656038,20867.445,5634.855,51025.41,-8899.515,-38161.98,-44164.125,-7688.745,7145.37
1764435597.267141,20877.66,5639.085,51029.235,-8892.765,-38153.295,-44153.325,-7697.295,7146.719999999999
1764435597.267141,20877.795,5639.13,51030.945,-8890.695,-38151.27,-44150.58,-7700.264999999999,7144.695
1764435597.267141,20874.105,5639.76,51032.205,-8890.515,-38153.25,-44152.695,-7693.83,7145.73
1764435597.267141,20867.58,5640.255,51034.185,-8891.64,-38156.085,-44156.97,-7683.615,7146.179999999999
1764435597.267141,20859.435,5640.255,51036.615,-8890.965,-38157.75,-44160.705,-7665.795,7150.32
1764435597.267141,20851.74,5637.825,51034.68,-8895.645,-38164.905,-44168.58,-7653.15,7152.21
1764435597.268154,20850.84,5637.195,51033.51,-8897.265,-38167.515,-44171.64,-7650.54,7153.155
1764435597.268154,20853.855,5636.07,51031.215,-8898.39,-38165.805,-44170.11,-7656.884999999999,7153.065
1764435597.268154,20859.66,5634.719999999999,51028.47,-8899.38,-38163.915,-44166.555,-7670.429999999999,7149.509999999999
1764435597.268154,20865.825,5632.605,51024.105,-8900.82,-38163.285,-44164.125,-7690.86,7143.884999999999
1764435597.2691555,20876.805,5637.285,51027.345,-8896.365,-38156.445,-44155.305,-7699.815,7145.28
1764435597.2691555,20876.085,5636.205,51026.85,-8895.869999999999,-38155.905,-44153.865,-7703.28,7143.57
1764435597.2691555,20874.645,5640.3,51032.61,-8891.055,-38152.53,-44151.345,-7692.165,7147.304999999999
1764435597.2691555,20867.58,5640.21,51033.87,-8891.82,-38155.545,-44155.755,-7679.969999999999,7149.33
1764435597.2691555,20857.095,5637.69,51032.835,-8896.32,-38162.475,-44164.035,-7667.91,7148.88
1764435597.2691555,20854.17,5640.435,51036.12,-8895.42,-38163.87,-44167.005,-7653.014999999999,7154.145
1764435597.2691555,20851.155,5636.79,51031.395,-8900.414999999999,-38168.19,-44172.9,-7652.565,7153.65
1764435597.2691555,20851.65,5633.46,51026.445,-8903.925,-38169.54,-44174.655,-7661.205,7149.96
1764435597.2691555,20860.605,5636.52,51029.055,-8899.244999999999,-38162.205,-44166.24,-7670.07,7150.905
1764435597.2691555,20868.615,5636.295,51026.76,-8897.895,-38158.515,-44159.58,-7685.594999999999,7148.34
1764435597.3097484,20872.665,5635.304999999999,51024.42,-8897.85,-38156.04,-44154.54,-7698.105,7144.155
1764435597.3097484,20875.635,5639.04,51029.235,-8892.494999999999,-38151.63,-44150.49,-7697.07,7145.37
1764435597.3097484,20873.295,5640.615,51033.33,-8890.515,-38152.125,-44151.03,-7689.915,7146.045
1764435597.3097484,20872.62,5645.655,51038.91,-8887.23,-38151.18,-44151.525,-7675.11,7151.985
1764435597.3097484,20858.895,5638.455,51033.285,-8895.824999999999,-38162.52,-44163.99,-7664.715,7150.724999999999
1764435597.3097484,20848.95,5635.08,51031.125,-8899.92,-38168.19,-44171.415,-7653.735,7151.4
1764435597.3097484,20847.78,5635.395,51030.585,-8900.91,-38169.315,-44173.215,-7651.62,7152.21
1764435597.3097484,20854.665,5637.825,51030.45,-8898.93,-38164.905,-44168.58,-7655.94,7154.37
1764435597.3114967,20861.685,5637.42,51029.145,-8897.85,-38161.62,-44163.72,-7666.065,7153.245
1764435597.3114967,20871.36,5638.86,51029.235,-8895.51,-38157.075,-44156.925,-7679.835,7151.4
1764435597.3114967,20876.31,5638.094999999999,51027.795,-8894.34,-38154.915,-44152.74,-7692.525,7147.755
1764435597.3114967,20881.845,5643.45,51033.96,-8888.175,-38148.3,-44145.765,-7689.375,7152.03
1764435597.3114967,20878.695,5644.485,51036.48,-8887.095,-38150.055,-44148.69,-7685.639999999999,7151.31
1764435597.3114967,20870.73,5643.495,51037.065,-8888.445,-38153.52,-44153.46,-7673.264999999999,7153.11
1764435597.3114967,20860.56,5641.38,51037.155,-8891.145,-38158.335,-44160.615,-7657.695,7154.73
1764435597.3114967,20853.81,5639.715,51035.4,-8895.285,-38163.465,-44166.915,-7648.695,7155.81
1764435597.3114967,20851.155,5637.42,51032.7,-8898.255,-38165.85,-44170.695,-7650.179999999999,7154.054999999999
1764435597.3114967,20854.8,5636.25,51030.0,-8898.75,-38164.68,-44169.615,-7657.74,7152.48
1764435597.3114967,20861.775,5636.07,51029.01,-8898.57,-38161.395,-44165.25,-7668.45,7151.895
1764435597.3114967,20869.695,5635.26,51026.985,-8897.805,-38157.795,-44160.03,-7684.38,7148.25
1764435597.3114967,20875.455,5634.855,51026.4,-8896.59,-38155.275,-44156.205,-7697.565,7144.83
1764435597.3114967,20882.25,5641.02,51032.88,-8889.795,-38149.11,-44149.365,-7693.605,7149.915
1764435597.3579016,20877.75,5642.415,51035.58,-8889.119999999999,-38149.92,-44150.58,-7685.37,7151.31
1764435597.3579016,20866.59,5639.13,51033.96,-8892.18,-38155.275,-44156.43,-7676.054999999999,7149.24
1764435597.3579016,20859.93,5639.849999999999,51036.705,-8892.449999999999,-38158.29,-44160.705,-7658.19,7153.65
1764435597.3579016,20851.605,5637.24,51034.95,-8897.4,-38165.04,-44168.715,-7648.2,7154.19
1764435597.3579016,20849.805,5635.304999999999,51031.305,-8900.73,-38167.83,-44172.765,-7649.054999999999,7152.66
1764435597.3579016,20854.305,5635.8,51029.73,-8899.92,-38165.58,-44170.11,-7656.434999999999,7152.12
1764435597.3579016,20862.675,5637.69,51030.36,-8897.895,-38161.08,-44164.125,-7667.054999999999,7152.705
1764435597.3579016,20868.435,5635.125,51025.995,-8899.065,-38160.09,-44161.2,-7685.009999999999,7148.295
1764435597.358916,20871.135,5631.255,51022.485,-8901.404999999999,-38160.045,-44160.12,-7699.86,7142.219999999999
1764435597.358916,20871.585,5632.92,51025.635,-8898.345,-38157.255,-44157.6,-7699.815,7141.95
1764435597.358916,20872.62,5638.77,51032.835,-8892.315,-38153.025,-44152.695,-7686.809999999999,7148.295
1764435597.358916,20867.535,5640.12,51035.76,-8891.234999999999,-38154.105,-44155.305,-7674.57,7150.77
1764435597.358916,20854.98,5634.855,51031.98,-8897.805,-38162.745,-44166.015,-7663.86,7149.06
1764435597.358916,20849.085,5633.865,51030.765,-8901.494999999999,-38168.37,-44173.125,-7652.655,7152.48
1764435597.358916,20846.79,5632.514999999999,51028.695,-8903.295,-38169.9,-44175.78,-7651.215,7151.715
