Timestamp,Channel1,Channel2,Channel3,Channel4,Channel5,Channel6,Channel7,Channel8
1764435361.0303254,22907.295,8970.48,53784.54,-7627.769999999999,-37368.135,-45449.145,-7578.54,7999.065
1764435361.0303254,22898.16,8969.13,53785.17,-7629.434999999999,-37372.005,-45454.455,-7568.37,7998.615
1764435361.0303254,22890.285,8970.705,53787.15,-7629.615,-37374.705,-45459.54,-7551.809999999999,8000.28
1764435361.0303254,22884.75,8970.795,53787.06,-7631.009999999999,-37377.045,-45464.085,-7540.469999999999,8002.53
1764435361.0303254,22885.875,8971.109999999999,53787.15,-7630.605,-37376.55,-45464.58,-7539.03,8004.059999999999
1764435361.0303254,22887.765,8967.555,53782.875,-7633.755,-37376.865,-45465.39,-7548.75,8001.495
1764435361.0303254,22892.13,8964.494999999999,53778.42,-7636.455,-37377.45,-45463.68,-7562.79,7997.804999999999
1764435361.0303254,22897.845,8960.49,53772.75,-7638.884999999999,-37377.945,-45461.025,-7581.554999999999,7993.349999999999
1764435361.0303254,22906.485,8964.045,53775.18,-7635.825,-37374.3,-45453.78,-7589.655,7995.059999999999
1764435361.0303254,22907.97,8966.744999999999,53779.77,-7631.28,-37370.34,-45449.505,-7588.304999999999,7996.86
1764435361.0303254,22904.955,8968.859999999999,53783.19,-7628.219999999999,-37370.205,-45449.775,-7579.259999999999,7998.03
1764435361.0303254,22899.6,8970.93,53786.655,-7627.094999999999,-37371.24,-45452.34,-7565.58,7999.695
1764435361.0303254,22890.42,8971.695,53788.68,-7628.04,-37374.93,-45457.92,-7550.099999999999,8001.36
1764435361.0303254,22880.385,8967.555,53784.855,-7633.125,-37381.23,-45466.38,-7543.215,7999.335
1764435361.0303254,22879.89,8966.744999999999,53783.46,-7634.79,-37383.12,-45468.72,-7542.99,7999.605
1764435361.0303254,22881.87,8962.695,53777.835,-7639.695,-37385.64,-45470.16,-7554.465,7996.005
1764435361.0313375,22889.16,8961.525,53775.99,-7639.83,-37382.895,-45465.66,-7566.389999999999,7995.554999999999
1764435361.0313375,22899.645,8962.83,53775.045,-7636.815,-37377.63,-45458.865,-7579.889999999999,7995.42
1764435361.0313375,22911.75,8969.039999999999,53782.02,-7628.94,-37368.63,-45448.695,-7584.389999999999,8000.37
1764435361.0313375,22911.435,8969.58,53783.955,-7627.41,-37368.045,-45447.12,-7584.615,8000.505
1764435361.0313375,22906.575,8970.029999999999,53785.71,-7626.554999999999,-37369.305,-45449.1,-7577.144999999999,8000.46
1764435361.0313375,22897.485,8968.949999999999,53785.53,-7628.67,-37373.175,-45455.13,-7567.2,7998.344999999999
1764435361.0313375,22890.735,8972.055,53790.435,-7627.049999999999,-37374.93,-45459.045,-7548.84,8002.215
1764435361.0313375,22882.23,8968.815,53787.645,-7631.505,-37381.32,-45465.84,-7540.83,8001.045
1764435361.0313375,22880.115,8966.16,53783.82,-7635.285,-37384.695,-45469.35,-7543.755,7999.65
1764435361.0313375,22885.515,8964.81,53781.84,-7635.96,-37382.895,-45466.695,-7551.269999999999,7999.605
1764435361.0761087,22893.93,8965.755,53781.03,-7635.195,-37377.765,-45459.585,-7560.495,8000.46
1764435361.0761087,22900.59,8962.605,53776.035,-7636.679999999999,-37376.73,-45457.065,-7578.855,7996.32
1764435361.0761087,22909.95,8966.025,53778.195,-7632.764999999999,-37373.895,-45450.63,-7586.415,7997.849999999999
1764435361.077117,22909.545,8967.33,53781.12,-7629.344999999999,-37370.97,-45447.705,-7586.91,7997.309999999999
1764435361.077117,22905.81,8970.21,53786.475,-7623.674999999999,-37365.075,-45446.805,-7577.73,7998.884999999999
1764435361.077117,22900.05,8971.154999999999,53788.41,-7624.844999999999,-37369.395,-45450.81,-7563.509999999999,8001.674999999999
1764435361.077117,22889.385,8969.49,53787.78,-7630.65,-37379.925,-45460.395,-7549.92,8001.855
1764435361.0781302,22883.085,8968.994999999999,53788.095,-7632.315,-37382.22,-45464.715,-7539.75,8003.384999999999
1764435361.0781302,22881.735,8965.89,53785.35,-7634.7,-37383.03,-45465.975,-7541.594999999999,8002.125
1764435361.0791285,22886.145,8965.26,53783.685,-7634.474999999999,-37380.78,-45463.905,-7550.144999999999,8001.315
1764435361.0791285,22893.345,8964.135,53780.22,-7635.33,-37378.755,-45461.475,-7562.205,8000.144999999999
1764435361.0791285,22903.605,8965.484999999999,53779.14,-7633.17,-37374.345,-45454.5,-7575.705,7999.92
1764435361.0791285,22912.56,8969.13,53782.56,-7628.04,-37367.505,-45446.085,-7582.32,8001.36
1764435361.0791285,22912.38,8969.039999999999,53782.92,-7627.005,-37367.235,-45445.77,-7583.309999999999,8000.099999999999
1764435361.0801282,22907.925,8971.38,53786.655,-7625.295,-37367.73,-45447.48,-7573.995,8000.639999999999
1764435361.0801282,22901.985,8972.865,53789.985,-7624.575,-37368.855,-45450.495,-7561.035,8002.44
1764435361.0801282,22893.03,8972.82,53792.415,-7625.519999999999,-37372.185,-45455.895,-7545.014999999999,8004.644999999999
1764435361.0801282,22886.73,8972.234999999999,53791.47,-7628.174999999999,-37376.235,-45461.475,-7536.375,8005.41
1764435361.0801282,22884.435,8968.365,53786.115,-7633.08,-37379.925,-45466.965,-7539.705,8002.08
1764435361.0811276,22891.05,8969.984999999999,53785.845,-7631.235,-37376.055,-45461.97,-7545.509999999999,8004.24
1764435361.0811276,22897.575,8969.13,53783.955,-7631.144999999999,-37373.895,-45458.055,-7558.2,8003.115
1764435361.0811276,22905.18,8967.33,53780.985,-7631.28,-37371.645,-45453.375,-7575.389999999999,7999.875
1764435361.1243184,22910.22,8966.565,53780.49,-7630.424999999999,-37369.44,-45449.82,-7586.144999999999,7997.849999999999
1764435361.1243184,22905.63,8963.685,53778.105,-7633.304999999999,-37372.905,-45452.97,-7589.61,7993.304999999999
1764435361.1243184,22903.29,8967.51,53783.73,-7630.065,-37371.87,-45452.79,-7579.08,7995.96
1764435361.1243184,22894.11,8966.295,53783.73,-7632.495,-37377.09,-45459.45,-7568.19,7995.195
1764435361.1243184,22887.72,8969.085,53788.77,-7629.795,-37377.0,-45462.015,-7549.74,8000.684999999999
1764435361.1243184,22879.08,8965.71,53785.395,-7634.025,-37381.815,-45469.26,-7543.665,7999.019999999999
1764435361.1243184,22878.135,8963.73,53781.84,-7637.849999999999,-37385.235,-45471.78,-7545.014999999999,7998.434999999999
1764435361.1243184,22885.065,8964.045,53780.31,-7639.155,-37386.495,-45469.08,-7550.865,7999.605
1764435361.1243184,22889.745,8961.48,53777.475,-7639.019999999999,-37380.96,-45465.39,-7566.299999999999,7996.094999999999
1764435361.1243184,22899.735,8962.244999999999,53776.395,-7636.32,-37374.84,-45458.28,-7581.059999999999,7994.88
1764435361.1253378,22909.86,8966.925,53780.67,-7630.559999999999,-37367.775,-45450.27,-7587.09,7997.759999999999
1764435361.1253378,22909.005,8968.095,53783.55,-7629.57,-37368.09,-45448.875,-7585.875,7997.4
1764435361.1253378,22904.73,8968.994999999999,53787.285,-7627.815,-37369.8,-45450.315,-7575.929999999999,7998.615
1764435361.1253378,22897.485,8969.085,53789.445,-7627.59,-37372.815,-45454.68,-7563.599999999999,8000.054999999999
1764435361.1253378,22885.965,8966.475,53788.41,-7631.82,-37379.565,-45462.78,-7551.134999999999,7998.884999999999
1764435361.1253378,22880.16,8965.529999999999,53787.06,-7634.16,-37382.94,-45467.955,-7541.415,7999.74
1764435361.1253378,22881.42,8965.395,53785.26,-7635.375,-37382.67,-45468.9,-7542.09,8000.684999999999
1764435361.1253378,22887.99,8965.935,53784.72,-7634.655,-37379.25,-45464.67,-7548.929999999999,8001.764999999999
1764435361.1253378,22890.87,8960.895,53777.655,-7639.605,-37380.915,-45465.03,-7566.57,7995.78
1764435361.1253378,22898.835,8960.085,53775.9,-7639.11,-37377.135,-45459.09,-7582.094999999999,7993.394999999999
1764435361.1253378,22906.935,8963.82,53779.005,-7633.53,-37371.42,-45451.17,-7588.08,7995.42
1764435361.1253378,22903.335,8961.48,53777.79,-7634.565,-37374.165,-45453.15,-7590.554999999999,7992.179999999999
1764435361.169547,22901.805,8966.07,53783.505,-7630.83,-37372.005,-45450.945,-7578.54,7996.679999999999
1764435361.169547,22896.0,8968.005,53787.285,-7629.795,-37373.445,-45454.59,-7564.769999999999,7999.155
1764435361.169547,22886.37,8967.51,53788.275,-7631.19,-37377.945,-45461.88,-7549.875,7999.38
1764435361.169547,22878.45,8964.63,53785.035,-7634.295,-37380.78,-45466.47,-7542.09,7998.434999999999
1764435361.169547,22879.575,8964.359999999999,53783.82,-7635.96,-37381.59,-45467.145,-7542.09,7998.705
1764435361.169547,22881.06,8958.96,53777.835,-7642.08,-37386.675,-45470.475,-7555.86,7993.304999999999
1764435361.169547,22887.585,8957.385,53774.73,-7643.34,-37386.045,-45467.37,-7570.304999999999,7991.054999999999
1764435361.169547,22895.595,8956.125,53771.58,-7641.764999999999,-37382.49,-45460.98,-7586.054999999999,7988.894999999999
1764435361.169547,22903.515,8957.835,53773.65,-7637.4,-37377.72,-45455.85,-7593.165,7988.67
1764435361.169547,22899.51,8956.08,53773.425,-7639.065,-37379.7,-45457.47,-7594.335,7985.295
1764435361.169547,22896.18,8960.445,53778.96,-7634.835,-37377.72,-45455.175,-7582.184999999999,7989.615
1764435361.169547,22888.26,8959.545,53780.085,-7636.139999999999,-37381.68,-45460.89,-7570.575,7989.48
1764435361.169547,22880.745,8960.805,53782.56,-7635.554999999999,-37385.28,-45466.965,-7554.285,7992.36
1764435361.169547,22878.54,8963.055,53784.9,-7634.745,-37385.415,-45468.27,-7542.495,7996.95
1764435361.169547,22878.81,8961.48,53783.01,-7637.04,-37387.125,-45470.34,-7543.62,7996.679999999999
1764435361.169547,22881.78,8958.96,53778.915,-7639.92,-37386.72,-45469.8,-7554.825,7994.025
1764435361.169547,22886.46,8955.99,53774.505,-7641.224999999999,-37386.18,-45467.73,-7570.62,7991.054999999999
1764435361.169547,22891.995,8952.029999999999,53769.465,-7643.07,-37385.325,-45465.435,-7589.519999999999,7985.969999999999
1764435361.169547,22899.465,8955.315,53772.255,-7639.155,-37380.015,-45458.64,-7596.224999999999,7986.78
1764435361.169547,22898.61,8956.845,53774.955,-7636.769999999999,-37379.205,-45457.29,-7594.065,7986.78
1764435361.169547,22895.01,8958.779999999999,53778.465,-7634.474999999999,-37379.745,-45458.955,-7584.795,7988.4
1764435361.169547,22889.385,8960.49,53781.3,-7633.844999999999,-37381.14,-45462.645,-7570.755,7990.514999999999
1764435361.169547,22880.97,8960.31,53783.1,-7634.835,-37384.47,-45467.64,-7554.915,7992.405
1764435361.169547,22871.205,8955.63,53778.105,-7640.505,-37391.535,-45475.515,-7550.054999999999,7989.344999999999
1764435361.216537,22869.855,8953.154999999999,53774.505,-7644.105,-37393.29,-45477.855,-7553.429999999999,7988.04
1764435361.216537,22875.525,8952.435,53772.255,-7644.735,-37391.67,-45475.11,-7562.429999999999,7987.905
1764435361.216537,22883.94,8953.335,53771.985,-7643.474999999999,-37387.935,-45469.53,-7573.59,7988.58
1764435361.216537,22890.78,8951.13,53767.98,-7645.365,-37386.45,-45465.3,-7591.679999999999,7985.07
1764435361.216537,22899.24,8954.91,53771.49,-7640.144999999999,-37380.69,-45457.38,-7596.719999999999,7987.184999999999
1764435361.216537,22897.035,8954.685,53772.21,-7638.525,-37381.095,-45457.83,-7596.674999999999,7985.61
1764435361.216537,22889.925,8953.92,53773.065,-7639.605,-37384.605,-45462.06,-7590.105,7984.394999999999
1764435361.216537,22886.235,8957.88,53779.23,-7637.264999999999,-37385.055,-45463.14,-7572.735,7990.065
1764435361.216537,22875.39,8955.585,53778.24,-7642.98,-37393.92,-45471.825,-7559.505,7989.705
1764435361.216537,22870.305,8955.359999999999,53778.555,-7641.719999999999,-37390.05,-45473.58,-7551.269999999999,7990.245
1764435361.216537,22869.585,8952.93,53775.675,-7645.139999999999,-37393.065,-45477.0,-7553.88,7989.48
1764435361.216537,22874.625,8950.815,53772.12,-7646.715,-37393.065,-45475.2,-7563.69,7987.905
1764435361.216537,22883.85,8952.345,53771.04,-7644.915,-37388.43,-45469.62,-7575.03,7988.535
1764435361.216537,22891.68,8951.175,53768.205,-7644.644999999999,-37385.91,-45465.435,-7591.679999999999,7986.285
1764435361.216537,22899.69,8954.279999999999,53772.03,-7639.38,-37380.015,-45457.515,-7597.304999999999,7988.174999999999
1764435361.216537,22895.505,8951.67,53770.545,-7641.36,-37384.2,-45459.45,-7598.519999999999,7984.53
1764435361.217544,22890.51,8953.335,53773.605,-7639.92,-37384.74,-45460.665,-7588.215,7985.519999999999
1764435361.217544,22886.91,8958.645,53781.075,-7634.384999999999,-37381.905,-45460.26,-7570.71,7990.65
1764435361.217544,22877.82,8958.285,53782.29,-7636.32,-37386.495,-45466.92,-7555.769999999999,7991.46
1764435361.217544,22872.42,8955.81,53780.085,-7639.74,-37390.365,-45472.23,-7548.57,7992.585
1764435361.217544,22871.61,8953.109999999999,53776.395,-7643.025,-37391.985,-45474.705,-7552.98,7991.144999999999
1764435361.217544,22872.375,8946.99,53769.24,-7648.559999999999,-37395.135,-45477.0,-7566.929999999999,7984.755
1764435361.217544,22878.27,8945.19,53765.325,-7649.549999999999,-37393.965,-45473.715,-7580.07,7982.549999999999
1764435361.217544,22889.115,8946.585,53765.505,-7646.985,-37389.375,-45467.505,-7594.514999999999,7982.415
1764435361.2614636,22896.72,8949.96,53769.42,-7642.349999999999,-37384.515,-45460.935,-7599.96,7983.9
1764435361.2614636,22893.03,8948.52,53769.015,-7642.844999999999,-37385.685,-45459.675,-7599.059999999999,7981.92
1764435361.2614636,22890.645,8952.39,53775.135,-7638.884999999999,-37383.66,-45458.82,-7586.775,7985.969999999999
1764435361.2614636,22883.085,8953.47,53777.385,-7639.2,-37386.27,-45463.23,-7575.21,7987.184999999999
1764435361.2624657,22872.645,8952.255,53777.88,-7641.495,-37391.04,-45469.98,-7560.99,7986.915
1764435361.2624657,22863.645,8947.17,53773.38,-7647.48,-37397.655,-45477.945,-7556.67,7984.17
1764435361.2624657,22865.445,8945.91,53771.13,-7649.28,-37398.825,-45479.43,-7559.37,7984.259999999999
1764435361.2624657,22873.41,8947.935,53771.175,-7647.21,-37394.775,-45474.03,-7566.929999999999,7986.375
1764435361.2624657,22879.305,8945.279999999999,53767.035,-7648.605,-37393.965,-45471.555,-7581.24,7983.9
1764435361.2624657,22887.18,8943.66,53764.56,-7649.37,-37391.76,-45466.83,-7598.34,7980.12
1764435361.2624657,22895.775,8948.16,53768.925,-7643.115,-37385.64,-45459.045,-7601.445,7982.865
1764435361.2624657,22894.515,8949.96,53770.995,-7641.269999999999,-37384.785,-45458.865,-7598.88,7983.045
1764435361.2624657,22886.1,8947.98,53770.77,-7643.655,-37389.33,-45463.905,-7592.58,7981.559999999999
1764435361.2624657,22878.81,8948.385,53773.47,-7643.969999999999,-37391.895,-45467.82,-7579.485,7983.0
1764435361.2624657,22872.645,8951.76,53778.105,-7641.99,-37392.12,-45470.88,-7561.17,7987.679999999999
1764435361.2624657,22869.045,8951.355,53777.7,-7642.889999999999,-37395.99,-45474.885,-7552.44,7988.849999999999
1764435361.2624657,22868.73,8948.789999999999,53774.325,-7646.04,-37397.925,-45476.235,-7555.679999999999,7987.23
1764435361.2629745,22872.96,8947.529999999999,53772.12,-7645.815,-37393.02,-45473.355,-7566.615,7985.835
1764435361.2629745,22877.37,8943.3,53765.91,-7649.325,-37396.17,-45472.995,-7582.545,7981.65
1764435361.2629745,22883.13,8940.33,53761.32,-7651.08,-37396.08,-45469.215,-7600.634999999999,7977.15
1764435361.2629745,22890.915,8944.154999999999,53766.225,-7645.905,-37390.545,-45461.97,-7604.955,7979.355
1764435361.2629745,22889.295,8944.47,53768.655,-7643.835,-37388.7,-45461.565,-7603.38,7978.41
1764435361.305685,22881.87,8943.66,53768.61,-7645.094999999999,-37392.75,-45465.795,-7595.865,7976.835
1764435361.305685,22878.27,8948.115,53774.73,-7641.674999999999,-37392.705,-45466.425,-7578.855,7981.74
1764435361.305685,22866.885,8945.234999999999,53773.83,-7645.815,-37400.22,-45475.335,-7566.344999999999,7981.065
1764435361.305685,22864.995,8946.404999999999,53775.27,-7646.219999999999,-37401.12,-45477.765,-7556.759999999999,7983.945
1764435361.305685,22863.69,8942.94,53770.77,-7649.37,-37403.415,-45480.465,-7561.665,7981.83
1764435361.305685,22868.91,8942.22,53767.89,-7649.684999999999,-37401.03,-45477.45,-7570.889999999999,7981.38
1764435361.305685,22878.54,8943.795,53768.205,-7647.389999999999,-37396.395,-45470.43,-7581.195,7981.92
1764435361.305685,22888.665,8945.055,53767.935,-7645.545,-37391.4,-45463.455,-7595.37,7981.424999999999
1764435361.305685,22893.93,8946.359999999999,53769.195,-7643.295,-37387.44,-45459.27,-7601.94,7981.424999999999
1764435361.305685,22889.205,8944.02,53767.62,-7645.724999999999,-37390.995,-45461.52,-7602.03,7978.679999999999
1764435361.305685,22886.505,8947.98,53772.525,-7643.655,-37392.84,-45462.915,-7590.554999999999,7982.639999999999
1764435361.305685,22884.03,8954.73,53780.895,-7636.86,-37387.665,-45461.205,-7571.79,7988.804999999999
1764435361.305685,22876.02,8955.494999999999,53783.235,-7636.41,-37389.51,-45465.795,-7556.355,7990.65
1764435361.305685,22868.775,8951.535,53779.275,-7642.08,-37395.45,-45473.085,-7552.215,7988.13
1764435361.305685,22871.88,8950.904999999999,53778.06,-7642.98,-37394.64,-45472.275,-7553.565,7989.66
1764435361.305685,22876.605,8949.33,53774.28,-7645.365,-37394.595,-45470.835,-7564.32,7988.67
1764435361.305685,22882.455,8947.8,53770.41,-7646.58,-37394.01,-45467.64,-7579.62,7985.88
1764435361.305685,22891.185,8947.71,53769.15,-7643.384999999999,-37388.655,-45460.98,-7594.74,7983.719999999999
1764435361.305685,22895.91,8949.015,53771.58,-7640.46,-37384.38,-45455.22,-7600.545,7983.719999999999
1764435361.305685,22894.02,8950.185,53773.38,-7639.65,-37385.235,-45456.39,-7597.259999999999,7983.54
1764435361.305685,22890.285,8953.65,53777.475,-7636.995,-37385.55,-45458.685,-7586.28,7985.835
1764435361.305685,22881.78,8952.705,53778.78,-7637.804999999999,-37388.07,-45462.375,-7573.455,7986.78
1764435361.305685,22870.53,8949.51,53777.61,-7641.945,-37393.56,-45470.07,-7560.855,7985.384999999999
1764435361.305685,22867.155,8950.23,53778.375,-7642.035,-37395.54,-45473.67,-7553.115,7988.04
1764435361.3535376,22866.255,8946.675,53773.02,-7646.309999999999,-37399.455,-45477.09,-7558.965,7985.655
1764435361.3535376,22874.58,8948.52,53772.885,-7644.78,-37395.18,-45470.43,-7565.219999999999,7988.085
1764435361.3535376,22879.17,8944.065,53767.845,-7647.165,-37395.54,-45468.63,-7582.005,7984.08
1764435361.3535376,22886.91,8943.119999999999,53766.18,-7646.355,-37393.785,-45463.905,-7598.16,7981.83
1764435361.3535376,22895.73,8948.699999999999,53771.76,-7641.179999999999,-37388.79,-45455.715,-7600.275,7984.799999999999
1764435361.3535376,22894.695,8951.085,53775.27,-7636.905,-37384.605,-45453.735,-7596.54,7985.7
1764435361.35509,22890.42,8952.93,53778.645,-7635.014999999999,-37385.37,-45454.995,-7585.29,7987.769999999999
1764435361.35509,22883.58,8954.369999999999,53781.48,-7635.33,-37389.42,-45458.685,-7570.44,7990.29
1764435361.35509,22874.895,8954.145,53782.74,-7636.32,-37392.57,-45464.715,-7555.995,7992.045
1764435361.35509,22869.72,8951.984999999999,53780.085,-7639.695,-37396.485,-45470.52,-7550.73,7991.37
1764435361.356103,22867.695,8946.945,53773.56,-7644.735,-37400.13,-45474.255,-7556.804999999999,7987.815
1764435361.356103,22876.11,8947.529999999999,53773.11,-7643.519999999999,-37396.44,-45470.7,-7565.04,7989.12
1764435361.356103,22880.655,8944.154999999999,53767.935,-7646.13,-37396.215,-45469.035,-7581.42,7985.429999999999
1764435361.356103,22893.21,8947.98,53769.555,-7641.045,-37388.7,-45458.64,-7592.804999999999,7987.365
1764435361.3571007,22898.61,8950.41,53772.12,-7636.95,-37383.84,-45453.465,-7597.889999999999,7988.13
1764435361.3571007,22894.47,8949.285,53771.805,-7638.615,-37386.18,-45455.85,-7596.45,7985.835
1764435361.3571007,22891.68,8953.425,53777.115,-7636.545,-37387.08,-45455.445,-7583.804999999999,7989.57
1764435361.3571007,22882.68,8953.02,53778.42,-7637.4,-37390.5,-45460.53,-7571.025,7989.795
1764435361.3581057,22877.28,8955.72,53783.685,-7634.969999999999,-37389.195,-45463.635,-7552.755,7994.16
1764435361.3581057,22871.655,8952.255,53780.715,-7639.424999999999,-37394.145,-45470.205,-7548.344999999999,7992.269999999999
1764435361.3581057,22874.895,8951.805,53778.915,-7639.245,-37393.875,-45468.765,-7550.639999999999,7993.125
1764435361.3581057,22878.72,8948.88,53773.965,-7641.269999999999,-37393.74,-45467.865,-7562.429999999999,7990.245
1764435361.4021072,22882.23,8944.47,53768.61,-7645.094999999999,-37394.595,-45467.145,-7580.519999999999,7984.53
1764435361.4021072,22890.96,8944.83,53767.305,-7643.835,-37390.77,-45460.305,-7594.875,7982.19
1764435361.4021072,22899.96,8951.175,53773.83,-7637.04,-37383.3,-45452.07,-7595.009999999999,7986.96
1764435361.4021072,22898.7,8952.119999999999,53776.53,-7634.7,-37383.21,-45452.88,-7591.679999999999,7987.41
1764435361.4021072,22893.48,8952.93,53779.86,-7633.62,-37384.515,-45454.23,-7581.554999999999,7988.94
1764435361.4021072,22887.225,8954.595,53782.785,-7633.394999999999,-37386.63,-45457.245,-7566.57,7991.235
1764435361.4021072,22878.9,8954.91,53784.135,-7634.295,-37389.915,-45462.87,-7550.955,7993.349999999999
1764435361.4026158,22872.015,8950.994999999999,53780.355,-7640.054999999999,-37395.63,-45469.665,-7547.715,7990.559999999999
1764435361.4026158,22874.895,8951.76,53779.995,-7640.865,-37394.145,-45468.855,-7550.639999999999,7991.73
1764435361.4026158,22880.385,8949.734999999999,53776.71,-7642.799999999999,-37393.29,-45467.1,-7561.665,7990.559999999999
1764435361.4026158,22886.595,8947.935,53772.84,-7644.105,-37391.895,-45463.905,-7576.38,7988.174999999999
1764435361.4026158,22895.37,8948.25,53771.985,-7642.394999999999,-37388.52,-45457.74,-7591.23,7986.285
1764435361.4026158,22898.52,8947.26,53772.93,-7640.415,-37386.99,-45454.68,-7597.485,7984.755
1764435361.4026158,22892.085,8944.65,53771.67,-7642.53,-37390.14,-45458.28,-7596.945,7980.929999999999
1764435361.4026158,22886.325,8946.675,53774.685,-7640.82,-37390.32,-45459.72,-7585.469999999999,7982.28
1764435361.4026158,22883.535,8951.355,53781.21,-7637.04,-37389.555,-45459.855,-7567.38,7988.355
1764435361.4026158,22875.03,8951.355,53782.155,-7639.11,-37394.1,-45467.55,-7553.429999999999,7989.615
1764435361.4026158,22867.92,8947.17,53777.655,-7644.915,-37399.635,-45473.805,-7550.82,7986.915
1764435361.4026158,22869.09,8945.279999999999,53774.595,-7647.299999999999,-37400.265,-45474.39,-7555.679999999999,7986.42
1764435361.4026158,22875.615,8945.055,53771.85,-7647.75,-37399.77,-45471.735,-7565.355,7985.88
1764435361.4026158,22884.66,8946.09,53771.085,-7645.769999999999,-37394.46,-45464.805,-7577.73,7986.059999999999
1764435361.4026158,22893.66,8946.63,53771.22,-7641.36,-37386.09,-45457.56,-7592.13,7984.889999999999
1764435361.4026158,22897.935,8947.755,53772.255,-7639.65,-37386.54,-45455.265,-7597.259999999999,7984.485
1764435361.4026158,22894.245,8946.494999999999,53772.21,-7640.549999999999,-37388.115,-45455.355,-7594.335,7983.045
1764435361.4481995,22884.615,8943.75,53771.355,-7643.384999999999,-37393.47,-45461.205,-7587.224999999999,7980.884999999999
1764435361.4481995,22877.1,8945.55,53774.595,-7642.215,-37395.045,-45465.615,-7572.42,7983.045
1764435361.4481995,22869.585,8945.775,53776.35,-7643.79,-37398.69,-45472.365,-7557.705,7984.755
1764435361.4481995,22865.535,8943.705,53774.37,-7647.12,-37402.245,-45476.775,-7552.304999999999,7984.934999999999
1764435361.4481995,22868.1,8942.67,53772.03,-7649.144999999999,-37404.0,-45476.415,-7556.715,7984.71
1764435361.4481995,22875.12,8942.895,53770.995,-7647.57,-37399.995,-45472.095,-7566.255,7984.44
1764435361.4481995,22884.615,8944.02,53770.635,-7645.139999999999,-37395.27,-45465.885,-7579.17,7984.844999999999
1764435361.4481995,22892.985,8944.92,53768.97,-7643.745,-37391.715,-45459.72,-7593.615,7983.855
1764435361.4481995,22895.19,8944.785,53769.96,-7642.665,-37390.59,-45456.255,-7599.105,7982.46
1764435361.4481995,22890.51,8943.435,53770.32,-7643.34,-37392.345,-45458.955,-7596.63,7980.434999999999
1764435361.4481995,22887.18,8946.539999999999,53775.135,-7640.19,-37392.615,-45459.765,-7584.344999999999,7983.719999999999
1764435361.4481995,22877.415,8945.505,53775.45,-7642.394999999999,-37397.34,-45466.2,-7572.735,7982.91
1764435361.4481995,22871.205,8947.35,53778.465,-7641.315,-37398.6,-45469.62,-7555.995,7986.42
1764435361.4481995,22867.74,8946.539999999999,53777.025,-7643.25,-37401.255,-45473.04,-7551.045,7987.32
1764435361.4481995,22869.63,8944.425,53773.965,-7646.355,-37402.38,-45473.805,-7556.264999999999,7985.655
1764435361.4481995,22872.96,8940.69,53768.745,-7649.639999999999,-37403.595,-45474.75,-7569.269999999999,7981.695
1764435361.4481995,22876.605,8934.435,53761.185,-7654.455,-37405.665,-45475.065,-7587.9,7975.844999999999
1764435361.4481995,22884.57,8934.57,53760.33,-7652.115,-37400.985,-45468.225,-7602.344999999999,7974.63
1764435361.4481995,22891.725,8940.105,53765.595,-7645.005,-37394.685,-45460.17,-7602.929999999999,7978.094999999999
1764435361.4481995,22889.115,8941.68,53769.24,-7643.61,-37394.145,-45460.215,-7597.44,7979.309999999999
1764435361.4481995,22881.33,8941.005,53770.455,-7644.24,-37397.07,-45464.76,-7588.53,7978.86
1764435361.4481995,22876.515,8944.289999999999,53775.675,-7641.269999999999,-37397.115,-45465.795,-7571.655,7983.585
1764435361.4481995,22867.515,8942.984999999999,53775.27,-7643.969999999999,-37401.885,-45472.32,-7558.38,7984.259999999999
1764435361.4481995,22861.71,8939.744999999999,53772.21,-7647.84,-37406.655,-45478.71,-7556.445,7982.144999999999
1764435361.493889,22865.535,8940.06,53771.535,-7647.66,-37403.955,-45476.64,-7558.605,7983.809999999999
1764435361.493889,22869.45,8937.09,53767.26,-7650.45,-37403.82,-45475.56,-7570.125,7981.605
1764435361.493889,22877.73,8936.505,53764.065,-7650.585,-37403.37,-45471.6,-7584.03,7979.445
1764435361.493889,22883.895,8934.885,53760.69,-7650.405,-37400.4,-45465.795,-7600.634999999999,7974.945
1764435361.493889,22889.7,8939.115,53765.55,-7643.07,-37391.355,-45457.47,-7602.795,7976.969999999999
1764435361.493889,22885.245,8937.539999999999,53766.18,-7645.275,-37395.99,-45460.845,-7599.375,7976.205
1764435361.493889,22882.725,8941.949999999999,53772.48,-7641.719999999999,-37394.73,-45460.8,-7586.46,7980.389999999999
1764435361.493889,22873.095,8940.734999999999,53772.525,-7643.88,-37399.185,-45466.965,-7573.86,7980.344999999999
1764435361.493889,22865.805,8941.635,53775.225,-7644.554999999999,-37402.065,-45472.095,-7557.974999999999,7983.134999999999
1764435361.493889,22859.55,8937.539999999999,53770.545,-7649.865,-37407.195,-45478.53,-7556.04,7980.255
1764435361.493889,22860.585,8934.435,53765.46,-7653.059999999999,-37410.12,-45480.33,-7562.745,7977.78
1764435361.495401,22865.94,8934.119999999999,53763.39,-7653.195,-37407.735,-45477.18,-7572.465,7977.195
1764435361.495401,22875.705,8934.795,53762.985,-7651.215,-37403.28,-45471.375,-7585.695,7976.745
1764435361.495401,22881.375,8931.779999999999,53758.845,-7652.655,-37402.695,-45468.72,-7602.974999999999,7972.2
1764435361.495401,22887.495,8936.055,53763.705,-7645.995,-37397.475,-45463.725,-7604.099999999999,7974.719999999999
1764435361.495401,22885.92,8937.81,53767.71,-7643.474999999999,-37395.945,-45461.79,-7598.295,7975.259999999999
1764435361.495401,22881.33,8940.24,53771.22,-7641.585,-37396.215,-45462.645,-7585.605,7977.735
1764435361.495401,22873.635,8940.24,53772.795,-7643.519999999999,-37401.48,-45468.63,-7571.79,7979.219999999999
1764435361.495401,22862.61,8936.955,53770.365,-7648.785,-37409.445,-45477.135,-7560.179999999999,7978.005
1764435361.495401,22859.865,8936.055,53770.23,-7648.74,-37409.445,-45479.295,-7554.465,7979.355
1764435361.495401,22858.29,8930.25,53763.435,-7654.59,-37414.35,-45483.03,-7564.905,7974.719999999999
1764435361.495401,22864.14,8929.71,53760.375,-7655.445,-37412.28,-45480.105,-7575.705,7973.955
1764435361.5393655,22873.005,8930.295,53758.71,-7654.139999999999,-37408.095,-45474.57,-7589.205,7973.91
1764435361.5403774,22878.36,8927.279999999999,53755.245,-7655.219999999999,-37407.015,-45471.15,-7605.315,7969.905
1764435361.5403774,22882.455,8930.34,53758.395,-7651.485,-37403.19,-45466.065,-7608.42,7970.849999999999
1764435361.5403774,22877.955,8929.44,53759.205,-7652.519999999999,-37406.34,-45468.405,-7605.54,7968.644999999999
1764435361.5403774,22875.075,8933.13,53764.155,-7649.415,-37405.845,-45468.045,-7590.87,7972.559999999999
1764435361.5413752,22865.895,8932.68,53765.37,-7650.09,-37409.265,-45475.155,-7577.549999999999,7972.469999999999
1764435361.5413752,22861.17,8936.01,53770.095,-7648.155,-37409.67,-45477.945,-7560.179999999999,7977.285
1764435361.5413752,22859.1,8935.38,53769.195,-7650.63,-37411.47,-45480.465,-7555.769999999999,7978.32
1764435361.5413752,22858.47,8931.06,53762.535,-7656.165,-37414.665,-45484.425,-7564.5,7974.405
1764435361.5413752,22865.355,8931.285,53760.555,-7656.434999999999,-37411.965,-45481.005,-7573.905,7974.9
1764435361.5413752,22870.62,8928.225,53755.335,-7658.955,-37411.695,-45478.89,-7591.41,7970.985
1764435361.5423756,22881.735,8930.97,53757.36,-7653.915,-37406.61,-45470.52,-7602.66,7972.335
1764435361.5423756,22883.58,8931.24,53758.26,-7653.554999999999,-37407.51,-45467.46,-7606.755,7971.434999999999
1764435361.5423756,22876.56,8929.35,53758.35,-7652.295,-37404.405,-45468.63,-7605.269999999999,7967.565
1764435361.5423756,22870.98,8930.34,53761.32,-7651.71,-37406.565,-45472.095,-7594.65,7968.195
1764435361.5423756,22864.59,8931.96,53765.595,-7650.99,-37408.905,-45474.975,-7578.179999999999,7971.795
1764435361.5423756,22857.795,8932.545,53767.035,-7652.295,-37411.92,-45479.88,-7562.835,7974.63
1764435361.5423756,22856.31,8932.095,53765.685,-7654.5,-37413.225,-45483.345,-7558.38,7975.665
1764435361.5423756,22860.135,8931.869999999999,53764.83,-7653.96,-37411.875,-45481.68,-7562.519999999999,7975.71
1764435361.5423756,22862.835,8928.09,53758.17,-7658.054999999999,-37413.405,-45481.725,-7575.615,7972.335
1764435361.54346,22871.97,8928.0,53757.495,-7658.865,-37412.685,-45477.225,-7589.79,7971.075
1764435361.54346,22878.045,8925.885,53754.885,-7657.514999999999,-37410.075,-45473.175,-7606.125,7966.799999999999
1764435361.584653,22883.13,8929.98,53758.98,-7650.9,-37402.74,-45467.235,-7606.53,7969.049999999999
1764435361.584653,22879.755,8930.385,53760.87,-7649.684999999999,-37403.505,-45468.405,-7601.67,7969.23
1764435361.584653,22872.825,8929.98,53762.76,-7650.315,-37406.565,-45472.455,-7591.41,7969.545
1764435361.584653,22864.68,8930.205,53764.02,-7650.9,-37410.03,-45477.72,-7576.29,7971.255
1764435361.584653,22854.555,8928.135,53763.12,-7654.679999999999,-37415.07,-45484.965,-7564.905,7970.759999999999
1764435361.584653,22853.655,8928.27,53763.525,-7656.389999999999,-37416.69,-45487.62,-7560.54,7972.424999999999
1764435361.584653,22857.165,8928.09,53761.905,-7656.84,-37416.285,-45485.91,-7564.769999999999,7972.38
1764435361.584653,22859.19,8923.095,53755.155,-7660.304999999999,-37417.95,-45486.045,-7579.394999999999,7966.98
1764435361.584653,22869.27,8924.355,53754.66,-7658.594999999999,-37413.45,-45479.205,-7592.085,7967.88
1764435361.584653,22878.405,8926.199999999999,53755.515,-7655.49,-37408.59,-45471.78,-7603.965,7968.33
1764435361.584653,22880.16,8927.505,53757.54,-7652.79,-37406.205,-45468.54,-7607.565,7968.285
1764435361.584653,22874.895,8926.785,53758.035,-7653.465,-37408.5,-45471.24,-7603.11,7966.844999999999
1764435361.584653,22865.31,8924.31,53756.685,-7656.884999999999,-37413.63,-45478.44,-7595.955,7963.875
1764435361.584653,22858.56,8925.39,53759.475,-7656.21,-37416.105,-45483.84,-7581.915,7965.405
1764435361.5856657,22850.01,8924.265,53759.475,-7657.83,-37420.02,-45490.545,-7569.09,7966.035
1764435361.5856657,22846.995,8922.779999999999,53756.91,-7660.394999999999,-37421.145,-45492.12,-7565.355,7966.259999999999
1764435361.5856657,22850.505,8921.925,53754.48,-7662.285,-37420.56,-45490.77,-7571.295,7965.99
1764435361.5856657,22860.135,8924.355,53755.155,-7659.269999999999,-37415.925,-45484.83,-7579.575,7968.059999999999
1764435361.5856657,22867.47,8922.779999999999,53751.915,-7659.269999999999,-37414.08,-45480.87,-7594.785,7965.269999999999
1764435361.5856657,22875.255,8922.824999999999,53752.185,-7657.335,-37409.895,-45474.84,-7607.429999999999,7964.19
1764435361.5856657,22877.235,8923.68,53753.76,-7655.49,-37408.005,-45472.23,-7611.389999999999,7963.695
1764435361.5856657,22873.005,8924.76,53755.425,-7655.04,-37409.625,-45474.165,-7606.44,7962.884999999999
1764435361.5856657,22863.87,8922.42,53754.57,-7658.19,-37414.8,-45480.195,-7598.115,7960.275
1764435361.5856657,22855.41,8923.455,53758.125,-7657.83,-37417.59,-45484.38,-7582.815,7962.57
1764435361.6339438,22848.705,8924.355,53759.7,-7658.775,-37420.785,-45489.015,-7567.965,7965.405
1764435361.6339438,22849.2,8925.21,53758.89,-7659.764999999999,-37420.29,-45490.5,-7563.059999999999,7968.195
1764435361.6339438,22848.21,8919.27,53751.915,-7665.705,-37426.05,-45495.315,-7573.769999999999,7963.469999999999
1764435361.6339438,22854.06,8918.73,53749.17,-7666.514999999999,-37424.655,-45491.445,-7584.21,7963.065
1764435361.6339438,22865.94,8921.205,53750.97,-7660.71,-37413.495,-45480.69,-7595.28,7964.91
1764435361.6339438,22873.5,8920.215,53749.44,-7661.205,-37413.855,-45476.955,-7609.184999999999,7962.165
1764435361.6339438,22878.63,8924.355,53754.03,-7656.344999999999,-37410.615,-45471.69,-7609.59,7964.505
1764435361.6349428,22871.7,8922.6,53754.345,-7655.58,-37411.605,-45475.38,-7606.394999999999,7961.264999999999
1764435361.6349428,22865.445,8924.22,53757.45,-7654.23,-37411.65,-45478.62,-7594.785,7962.255
1764435361.6349428,22857.84,8925.345,53760.105,-7654.769999999999,-37415.295,-45482.805,-7579.304999999999,7964.415
1764435361.6349428,22849.92,8924.4,53759.88,-7657.83,-37421.415,-45489.105,-7566.12,7965.855
1764435361.6349428,22847.67,8923.095,53758.845,-7660.53,-37422.495,-45491.805,-7563.375,7966.934999999999
1764435361.6361098,22849.425,8921.16,53755.785,-7662.465,-37421.595,-45491.625,-7570.799999999999,7965.809999999999
1764435361.6361098,22855.41,8919.585,53752.905,-7662.554999999999,-37420.155,-45489.015,-7581.644999999999,7964.505
1764435361.6361098,22864.365,8918.955,53750.925,-7661.34,-37416.375,-45483.525,-7595.82,7963.514999999999
1764435361.6361098,22871.205,8918.19,53748.9,-7661.025,-37414.125,-45479.295,-7610.219999999999,7960.905
1764435361.6361098,22876.065,8922.6,53754.075,-7655.894999999999,-37409.265,-45473.535,-7609.769999999999,7963.605
1764435361.6371105,22870.35,8921.835,53754.21,-7656.389999999999,-37413.18,-45476.685,-7605.269999999999,7961.67
1764435361.6371105,22864.995,8923.365,53757.72,-7654.995,-37414.215,-45477.945,-7592.985,7963.424999999999
1764435361.6371105,22859.82,8926.92,53762.895,-7653.195,-37414.44,-45480.15,-7575.75,7967.384999999999
1764435361.6371105,22849.47,8924.13,53760.78,-7657.019999999999,-37420.515,-45488.79,-7565.04,7966.44
1764435361.6371105,22848.57,8924.085,53760.195,-7658.19,-37421.595,-45490.545,-7561.394999999999,7967.61
1764435361.6381135,22853.385,8924.085,53758.8,-7658.865,-37419.48,-45488.34,-7566.705,7968.33
1764435361.6381135,22858.65,8922.42,53755.875,-7660.304999999999,-37418.58,-45485.82,-7578.719999999999,7966.304999999999
1764435361.6807146,22864.77,8920.035,53751.105,-7662.105,-37418.04,-45482.58,-7595.73,7962.48
1764435361.6807146,22869.855,8917.875,53747.73,-7663.049999999999,-37417.23,-45479.34,-7611.075,7958.61
1764435361.6818364,22873.095,8921.295,53752.275,-7658.37,-37413.315,-45474.255,-7610.849999999999,7960.86
1764435361.6818364,22869.045,8922.33,53755.155,-7656.66,-37413.405,-45474.075,-7604.28,7961.715
1764435361.6823444,22862.61,8922.105,53756.505,-7657.514999999999,-37416.51,-45478.17,-7593.389999999999,7961.759999999999
1764435361.6823444,22853.295,8921.789999999999,53757.72,-7658.594999999999,-37420.785,-45484.965,-7579.665,7962.03
1764435361.6823444,22848.705,8924.22,53761.095,-7657.019999999999,-37421.145,-45487.08,-7564.139999999999,7966.934999999999
1764435361.6823444,22847.355,8922.645,53759.16,-7660.125,-37422.765,-45490.185,-7561.799999999999,7967.115
1764435361.6833549,22845.87,8917.154999999999,53751.78,-7666.695,-37426.86,-45493.605,-7573.634999999999,7961.94
1764435361.6833549,22853.34,8918.01,53750.655,-7666.38,-37424.565,-45488.52,-7583.264999999999,7962.48
1764435361.6833549,22865.49,8921.25,53752.41,-7661.88,-37418.355,-45480.465,-7594.155,7965.045
1764435361.6833549,22874.4,8922.6,53752.23,-7659.405,-37415.835,-45475.245,-7605.045,7964.91
1764435361.6833549,22877.955,8925.84,53756.55,-7654.094999999999,-37407.33,-45467.235,-7605.179999999999,7965.809999999999
1764435361.6833549,22874.445,8926.47,53759.43,-7652.88,-37407.465,-45467.685,-7598.655,7966.215
1764435361.6833549,22866.345,8925.57,53759.745,-7654.23,-37412.37,-45474.66,-7588.889999999999,7965.719999999999
1764435361.6833549,22856.94,8924.984999999999,53760.96,-7655.58,-37417.455,-45481.455,-7575.389999999999,7965.45
1764435361.6833549,22851.72,8927.01,53763.48,-7655.04,-37418.94,-45484.155,-7559.91,7969.5
1764435361.6833549,22848.57,8924.535,53760.42,-7657.92,-37422.36,-45488.295,-7558.605,7967.519999999999
1764435361.6843598,22850.28,8921.699999999999,53756.01,-7660.53,-37424.16,-45489.06,-7567.245,7965.719999999999
1764435361.6843598,22855.365,8918.73,53752.185,-7662.24,-37423.305,-45486.855,-7579.844999999999,7963.11
1764435361.6843598,22862.655,8916.75,53748.495,-7662.915,-37421.595,-45483.39,-7596.179999999999,7960.139999999999
1764435361.6843598,22871.16,8918.505,53749.17,-7660.71,-37418.22,-45476.955,-7608.465,7960.365
1764435361.6843598,22871.97,8919.404999999999,53750.295,-7658.955,-37417.005,-45475.065,-7610.445,7959.195
1764435361.6843598,22864.95,8916.975,53749.935,-7660.035,-37420.245,-45478.755,-7606.44,7956.269999999999
1764435361.7231803,22860.045,8918.234999999999,53754.03,-7658.28,-37420.83,-45480.06,-7593.525,7959.465
1764435361.7231803,22854.555,8921.789999999999,53759.88,-7656.03,-37420.74,-45482.445,-7575.255,7964.009999999999
1764435361.724197,22845.87,8919.945,53758.125,-7659.54,-37427.58,-45490.23,-7565.085,7964.009999999999
1764435361.724197,22847.22,8921.925,53758.98,-7659.495,-37426.68,-45489.735,-7560.495,7967.655
1764435361.724197,22848.12,8918.595,53754.48,-7662.915,-37427.13,-45489.24,-7568.415,7964.775
1764435361.724197,22851.18,8914.77,53748.405,-7667.639999999999,-37428.795,-45489.285,-7583.58,7959.735
1764435361.724197,22859.775,8913.555,53746.065,-7668.405,-37427.22,-45485.055,-7599.195,7957.53
1764435361.724197,22868.46,8915.265,53748.315,-7662.644999999999,-37420.47,-45477.09,-7609.41,7958.61
1764435361.724197,22871.835,8918.414999999999,53752.365,-7657.469999999999,-37416.42,-45472.365,-7609.679999999999,7959.78
1764435361.724197,22868.37,8919.27,53754.57,-7657.424999999999,-37416.87,-45473.22,-7602.344999999999,7960.41
1764435361.7251935,22863.285,8922.105,53758.71,-7656.165,-37417.635,-45475.245,-7589.34,7962.434999999999
1764435361.7251935,22854.375,8922.33,53761.545,-7656.525,-37421.145,-45480.465,-7573.679999999999,7964.73
1764435361.7251935,22844.385,8918.64,53758.395,-7661.16,-37427.94,-45489.33,-7564.679999999999,7962.974999999999
1764435361.725705,22843.755,8917.965,53757.27,-7661.835,-37428.705,-45490.365,-7562.384999999999,7963.605
1764435361.725705,22843.305,8912.835,53750.385,-7667.19,-37432.53,-45493.695,-7573.815,7959.375
1764435361.725705,22849.335,8911.845,53747.82,-7668.179999999999,-37430.28,-45490.86,-7585.785,7957.665
1764435361.725705,22857.03,8910.359999999999,53744.625,-7668.0,-37427.49,-45485.415,-7600.769999999999,7955.82
1764435361.725705,22865.4,8911.89,53745.345,-7664.849999999999,-37422.495,-45478.89,-7611.929999999999,7955.054999999999
1764435361.725705,22870.89,8916.345,53751.375,-7659.224999999999,-37417.455,-45474.12,-7609.905,7959.059999999999
1764435361.725705,22864.455,8914.725,53751.51,-7660.304999999999,-37420.785,-45477.765,-7604.82,7957.349999999999
1764435361.725705,22861.485,8918.46,53756.82,-7657.019999999999,-37419.165,-45478.17,-7589.745,7961.13
1764435361.725705,22854.69,8920.484999999999,53760.6,-7656.615,-37421.325,-45481.905,-7573.094999999999,7963.74
1764435361.7722428,22846.77,8919.585,53760.285,-7658.639999999999,-37424.655,-45487.44,-7561.304999999999,7964.82
1764435361.7727854,22845.15,8917.785,53758.035,-7660.53,-37426.905,-45490.815,-7561.17,7965.134999999999
1764435361.7727854,22847.85,8915.67,53753.94,-7663.184999999999,-37427.94,-45490.68,-7569.63,7963.2
1764435361.7727854,22851.36,8911.395,53747.595,-7667.594999999999,-37430.505,-45490.635,-7584.705,7958.61
1764435361.7727854,22861.665,8912.609999999999,53747.91,-7665.57,-37425.69,-45484.065,-7598.384999999999,7958.655
1764435361.7727854,22869.585,8914.815,53749.665,-7660.98,-37419.39,-45476.28,-7608.24,7958.474999999999
1764435361.7727854,22870.08,8915.31,53751.195,-7659.764999999999,-37419.03,-45475.2,-7609.049999999999,7957.755
1764435361.7727854,22860.045,8910.585,53748.09,-7663.905,-37425.87,-45482.445,-7607.07,7953.075
1764435361.7727854,22852.755,8910.449999999999,53749.575,-7663.634999999999,-37428.435,-45486.945,-7596.224999999999,7953.57
1764435361.7727854,22845.96,8913.06,53752.86,-7662.285,-37429.785,-45490.995,-7578.945,7956.405
1764435361.7727854,22840.65,8914.455,53754.57,-7662.915,-37432.98,-45494.91,-7565.445,7960.184999999999
1764435361.7727854,22837.05,8911.215,53750.16,-7668.045,-37436.445,-45499.77,-7567.38,7958.07
1764435361.7727854,22840.695,8910.539999999999,53748.09,-7667.594999999999,-37431.36,-45497.43,-7575.255,7956.63
1764435361.7727854,22849.695,8911.755,53747.955,-7666.424999999999,-37428.57,-45491.445,-7583.849999999999,7958.61
1764435361.7727854,22858.56,8911.26,53746.02,-7666.065,-37426.365,-45486.54,-7599.15,7956.719999999999
1764435361.7727854,22865.67,8911.71,53745.615,-7664.715,-37423.305,-45480.645,-7611.12,7955.415
1764435361.7727854,22865.625,8912.835,53747.505,-7662.33,-37421.01,-45478.53,-7612.695,7955.235
1764435361.7727854,22858.965,8911.484999999999,53747.91,-7662.465,-37423.845,-45482.22,-7607.655,7952.67
1764435361.7727854,22853.52,8913.375,53751.375,-7661.295,-37425.825,-45484.965,-7594.245,7955.37
1764435361.7727854,22848.885,8917.875,53757.945,-7658.235,-37425.15,-45486.405,-7574.894999999999,7961.219999999999
1764435361.7727854,22842.495,8917.335,53757.495,-7660.485,-37428.255,-45491.265,-7563.014999999999,7963.065
1764435361.7727854,22840.065,8914.545,53754.435,-7663.995,-37430.73,-45494.37,-7563.105,7961.985
1764435361.7727854,22838.67,8908.335,53747.73,-7669.934999999999,-37434.51,-45497.835,-7575.48,7956.585
1764435361.7727854,22844.385,8906.67,53743.995,-7671.285,-37433.61,-45495.585,-7588.755,7954.11
1764435361.8201284,22853.205,8906.445,53741.61,-7670.88,-37430.64,-45490.095,-7604.099999999999,7951.634999999999
1764435361.8201284,22863.285,8910.494999999999,53744.76,-7665.84,-37424.25,-45482.175,-7611.165,7953.705
1764435361.8201284,22862.25,8910.045,53744.805,-7665.525,-37424.115,-45481.95,-7614.045,7951.86
1764435361.8201284,22855.32,8908.199999999999,53744.985,-7666.92,-37427.625,-45486.315,-7608.915,7950.059999999999
1764435361.8201284,22853.88,8913.33,53751.915,-7662.509999999999,-37426.14,-45485.865,-7592.58,7955.684999999999
1764435361.8201284,22847.4,8915.22,53755.785,-7660.889999999999,-37427.13,-45487.935,-7575.12,7958.07
1764435361.8201284,22838.49,8912.07,53753.76,-7665.48,-37432.53,-45494.73,-7566.389999999999,7956.809999999999
1764435361.8206687,22841.1,8913.779999999999,53754.795,-7664.58,-37430.955,-45494.055,-7562.88,7960.41
1764435361.8206687,22844.295,8912.205,53751.735,-7666.2,-37430.37,-45493.695,-7571.429999999999,7958.969999999999
1764435361.8206687,22848.795,8909.369999999999,53747.28,-7669.17,-37430.19,-45492.57,-7585.11,7955.639999999999
1764435361.8206687,22855.635,8906.715,53743.275,-7670.205,-37428.255,-45488.7,-7602.705,7951.86
1764435361.8206687,22863.735,8908.154999999999,53743.77,-7667.19,-37424.07,-45481.86,-7611.57,7951.905
1764435361.8206687,22864.455,8909.414999999999,53746.02,-7665.66,-37423.71,-45480.42,-7612.065,7952.04
1764435361.8206687,22857.885,8908.154999999999,53746.515,-7666.65,-37427.175,-45484.425,-7606.485,7950.195
1764435361.8206687,22853.07,8911.215,53750.97,-7664.264999999999,-37426.23,-45485.46,-7592.445,7953.21
1764435361.8206687,22844.025,8911.17,53752.23,-7664.49,-37430.73,-45492.57,-7578.045,7954.605
1764435361.8206687,22838.49,8912.385,53753.445,-7664.759999999999,-37432.305,-45495.72,-7565.264999999999,7957.304999999999
1764435361.8206687,22835.7,8908.244999999999,53748.585,-7669.62,-37435.32,-45500.625,-7567.695,7954.29
1764435361.8206687,22839.345,8906.49,53744.76,-7672.545,-37435.23,-45500.445,-7576.559999999999,7953.075
1764435361.8206687,22847.175,8907.48,53744.085,-7670.88,-37432.71,-45495.27,-7587.179999999999,7953.705
1764435361.8206687,22852.26,8903.205,53737.965,-7674.255,-37434.24,-45493.155,-7605.99,7948.125
1764435361.8206687,22858.2,8903.654999999999,53737.74,-7672.724999999999,-37430.595,-45487.845,-7616.07,7946.639999999999
1764435361.8688536,22860.765,8907.48,53743.185,-7666.875,-37425.555,-45483.345,-7613.37,7948.71
1764435361.8688536,22857.03,8909.145,53746.245,-7664.264999999999,-37424.97,-45483.39,-7604.955,7950.195
1764435361.869868,22849.605,8908.92,53747.01,-7664.625,-37427.895,-45488.43,-7593.884999999999,7950.735
1764435361.869868,22838.04,8906.58,53746.92,-7668.405,-37434.465,-45496.845,-7580.969999999999,7949.745
1764435361.869868,22831.425,8905.185,53746.47,-7671.014999999999,-37439.01,-45503.055,-7571.34,7950.42
1764435361.869868,22831.785,8904.6,53744.445,-7671.915,-37438.92,-45504.135,-7570.08,7951.815
1764435361.869868,22835.79,8903.609999999999,53741.835,-7672.815,-37437.795,-45502.74,-7577.73,7951.59
1764435361.869868,22838.31,8898.3,53734.32,-7678.035,-37442.115,-45504.765,-7594.065,7946.46
1764435361.869868,22849.605,8900.91,53735.895,-7672.95,-37431.0,-45495.135,-7607.115,7946.235
1764435361.869868,22858.11,8903.52,53737.695,-7669.394999999999,-37426.95,-45487.89,-7615.304999999999,7947.224999999999
1764435361.869868,22858.11,8904.285,53739.72,-7667.549999999999,-37426.815,-45486.315,-7615.575,7946.594999999999
1764435361.869868,22849.83,8901.945,53738.82,-7670.07,-37430.28,-45490.905,-7611.075,7943.355
1764435361.869868,22842.36,8901.945,53740.485,-7670.745,-37433.565,-45495.36,-7598.88,7944.434999999999
1764435361.869868,22836.735,8905.23,53745.795,-7669.17,-37435.185,-45498.555,-7579.304999999999,7949.7
1764435361.869868,22832.415,8907.029999999999,53747.145,-7669.665,-37436.445,-45501.255,-7567.29,7952.309999999999
1764435361.869868,22834.89,8908.65,53748.135,-7668.405,-37434.195,-45500.265,-7564.139999999999,7954.875
1764435361.869868,22837.815,8905.41,53743.095,-7670.655,-37435.095,-45501.075,-7574.49,7952.445
1764435361.869868,22840.2,8900.55,53736.57,-7674.48,-37437.12,-45501.39,-7591.049999999999,7947.809999999999
1764435361.869868,22848.885,8899.605,53733.69,-7673.849999999999,-37434.195,-45496.215,-7606.755,7945.695
1764435361.869868,22859.1,8903.835,53737.56,-7669.304999999999,-37428.75,-45487.035,-7612.965,7948.035
1764435361.869868,22859.235,8904.42,53740.26,-7666.74,-37426.365,-45485.01,-7612.74,7947.224999999999
1764435361.869868,22851.945,8903.115,53740.845,-7667.054999999999,-37429.785,-45488.88,-7606.755,7945.11
1764435361.870854,22844.52,8904.015,53743.005,-7666.83,-37432.035,-45492.39,-7593.974999999999,7946.73
1764435361.870854,22840.11,8908.38,53749.215,-7663.995,-37431.855,-45494.595,-7573.995,7952.355
1764435361.910638,22834.395,8907.615,53748.72,-7666.245,-37435.68,-45499.68,-7565.13,7952.849999999999
1764435361.910638,22830.48,8903.609999999999,53743.995,-7671.105,-37439.37,-45504.09,-7568.549999999999,7950.195
1764435361.910638,22837.14,8904.51,53742.6,-7669.934999999999,-37436.22,-45500.715,-7575.03,7951.769999999999
1764435361.910638,22842.18,8901.449999999999,53738.01,-7671.644999999999,-37435.815,-45499.095,-7589.07,7948.394999999999
1764435361.910638,22851.54,8901.72,53737.29,-7670.025,-37431.405,-45492.165,-7603.2,7947.405
1764435361.9111512,22856.355,8900.775,53736.57,-7669.215,-37429.065,-45488.88,-7615.44,7944.929999999999
1764435361.9111512,22860.36,8905.455,53741.655,-7664.04,-37423.89,-45483.66,-7611.255,7948.844999999999
1764435361.9111512,22854.51,8905.904999999999,53743.545,-7664.264999999999,-37426.14,-45486.81,-7603.83,7947.63
1764435361.9111512,22846.005,8904.914999999999,53744.85,-7665.705,-37430.19,-45491.895,-7592.849999999999,7947.495
1764435361.9111512,22841.01,8908.244999999999,53750.385,-7663.455,-37430.28,-45494.055,-7574.49,7952.264999999999
1764435361.9111512,22832.64,8905.545,53747.505,-7668.134999999999,-37436.265,-45501.48,-7566.705,7950.509999999999
1764435361.9111512,22831.335,8904.285,53743.77,-7670.519999999999,-37437.705,-45503.235,-7567.965,7950.059999999999
1764435361.9111512,22839.255,8905.41,53743.095,-7668.764999999999,-37434.195,-45499.59,-7573.905,7951.769999999999
1764435361.9111512,22845.915,8904.734999999999,53741.61,-7668.179999999999,-37431.495,-45497.07,-7586.639999999999,7950.735
1764435361.9111512,22853.16,8903.385,53738.28,-7669.575,-37429.155,-45492.705,-7602.75,7948.485
1764435361.9111512,22857.93,8903.16,53738.055,-7668.495,-37427.535,-45488.25,-7613.594999999999,7946.009999999999
1764435361.9116604,22862.295,8908.92,53744.67,-7662.24,-37420.965,-45481.005,-7608.195,7950.285
1764435361.9116604,22857.885,8910.09,53747.145,-7660.53,-37422.09,-45482.67,-7598.565,7951.724999999999
1764435361.9116604,22849.83,8909.01,53748.09,-7661.61,-37426.365,-45488.34,-7587.405,7952.309999999999
1764435361.9116604,22842.675,8910.404999999999,53752.545,-7660.304999999999,-37428.21,-45492.3,-7570.349999999999,7955.19
1764435361.9116604,22840.2,8913.105,53754.615,-7659.224999999999,-37428.48,-45494.01,-7557.075,7959.33
1764435361.9116604,22839.345,8911.619999999999,53751.645,-7662.24,-37429.965,-45496.35,-7558.019999999999,7959.014999999999
1764435361.9116604,22842.18,8908.515,53747.46,-7664.445,-37429.83,-45495.855,-7567.155,7958.205
1764435361.9116604,22846.05,8904.285,53741.97,-7667.505,-37430.64,-45495.27,-7582.32,7954.29
1764435361.9591696,22855.23,8904.6,53740.08,-7668.0,-37428.93,-45490.005,-7597.259999999999,7952.985
1764435361.9597192,22865.355,8910.045,53745.66,-7660.98,-37419.525,-45479.34,-7602.57,7955.865
1764435361.9597192,22865.85,8912.07,53749.62,-7656.165,-37414.89,-45476.235,-7600.995,7956.179999999999
1764435361.9597192,22858.11,8909.865,53749.08,-7658.82,-37420.335,-45482.22,-7594.74,7953.389999999999
1764435361.9597192,22854.51,8914.275,53755.02,-7656.929999999999,-37419.57,-45483.165,-7578.945,7958.7
1764435361.9597192,22846.77,8915.805,53758.17,-7657.065,-37423.215,-45488.295,-7563.059999999999,7961.4
1764435361.9597192,22840.65,8914.32,53757.585,-7658.82,-37426.77,-45492.705,-7553.655,7962.344999999999
1764435361.9597192,22840.11,8912.52,53755.02,-7661.115,-37428.255,-45494.955,-7554.78,7961.264999999999
1764435361.9597192,22840.74,8906.039999999999,53747.28,-7666.74,-37432.035,-45498.24,-7568.144999999999,7955.37
1764435361.9597192,22848.48,8905.68,53745.03,-7666.65,-37429.2,-45494.1,-7580.07,7954.424999999999
1764435361.9597192,22859.505,8908.38,53745.93,-7663.455,-37422.585,-45485.19,-7592.715,7955.549999999999
1764435361.9607356,22863.195,8907.164999999999,53745.165,-7663.005,-37420.785,-45481.59,-7603.83,7952.49
1764435361.9607356,22866.975,8912.52,53750.835,-7656.84,-37417.005,-45476.415,-7598.565,7956.405
1764435361.9607356,22862.835,8914.994999999999,53754.075,-7655.309999999999,-37418.58,-45477.675,-7589.16,7958.025
1764435361.9607356,22854.87,8914.41,53755.965,-7655.535,-37421.28,-45482.625,-7578.09,7957.889999999999
1764435361.9607356,22848.165,8916.435,53759.61,-7654.769999999999,-37422.225,-45486.18,-7560.405,7961.219999999999
1764435361.9607356,22845.735,8918.91,53762.175,-7654.545,-37422.18,-45487.755,-7547.13,7965.63
1764435361.9607356,22844.835,8916.39,53758.53,-7657.83,-37424.34,-45489.69,-7549.514999999999,7963.92
1764435361.9607356,22847.58,8913.51,53753.985,-7661.025,-37424.61,-45489.915,-7560.585,7961.894999999999
1764435361.9607356,22851.18,8909.64,53748.18,-7664.309999999999,-37425.195,-45489.51,-7576.605,7956.719999999999
1764435361.9607356,22857.3,8906.715,53743.365,-7666.29,-37424.835,-45486.72,-7595.235,7951.995
1764435361.9607356,22866.84,8911.26,53747.595,-7660.394999999999,-37417.68,-45477.36,-7599.195,7954.92
1764435361.9607356,22868.55,8914.815,53751.555,-7655.894999999999,-37413.72,-45473.715,-7594.605,7957.62
1764435361.9618187,22863.51,8915.984999999999,53753.94,-7654.995,-37415.115,-45475.74,-7586.415,7958.205
1764435362.0062222,22856.67,8916.3,53756.28,-7655.13,-37418.805,-45480.105,-7573.724999999999,7958.924999999999
1764435362.0062222,22845.78,8914.545,53757.135,-7658.19,-37425.15,-45487.89,-7560.315,7958.655
1764435362.0062222,22840.2,8914.095,53756.145,-7660.98,-37428.39,-45492.75,-7551.09,7960.5
1764435362.0062222,22840.38,8912.609999999999,53753.76,-7663.679999999999,-37429.965,-45494.19,-7553.429999999999,7960.365
1764435362.0062222,22847.58,8913.645,53752.59,-7662.735,-37426.815,-45490.455,-7560.315,7960.634999999999
1764435362.0062222,22851.18,8908.83,53746.47,-7665.795,-37427.715,-45489.6,-7576.29,7955.28
1764435362.0062222,22859.55,8908.335,53744.445,-7665.344999999999,-37423.845,-45483.705,-7591.679999999999,7953.434999999999
1764435362.0062222,22870.035,8914.05,53749.485,-7658.594999999999,-37416.105,-45474.705,-7595.415,7957.08
1764435362.0062222,22873.095,8917.83,53755.155,-7654.905,-37412.055,-45470.745,-7590.509999999999,7960.769999999999
1764435362.0062222,22868.46,8919.404999999999,53758.17,-7653.554999999999,-37412.775,-45473.535,-7580.924999999999,7962.299999999999
1764435362.0062222,22861.395,8920.529999999999,53760.78,-7653.014999999999,-37416.06,-45477.945,-7568.82,7963.38
1764435362.0062222,22852.035,8920.035,53761.14,-7654.365,-37420.785,-45483.03,-7553.295,7964.505
1764435362.0062222,22843.71,8916.21,53757.495,-7658.505,-37425.6,-45489.06,-7547.04,7963.38
1764435362.0062222,22839.93,8910.99,53751.69,-7664.894999999999,-37430.235,-45494.19,-7553.384999999999,7959.014999999999
1764435362.0062222,22845.555,8910.63,53749.35,-7665.434999999999,-37427.49,-45491.76,-7562.115,7958.79
1764435362.0062222,22849.155,8907.255,53744.94,-7667.955,-37426.995,-45490.59,-7577.82,7954.785
1764435362.0062222,22858.38,8907.615,53744.805,-7666.065,-37422.945,-45484.785,-7592.13,7953.57
1764435362.0062222,22862.7,8906.175,53743.23,-7665.615,-37421.28,-45481.77,-7601.535,7951.634999999999
1764435362.0062222,22865.31,8910.855,53748.765,-7659.855,-37416.69,-45476.595,-7596.855,7954.605
1764435362.0062222,22857.885,8909.955,53748.99,-7660.889999999999,-37420.515,-45480.69,-7590.69,7952.715
1764435362.0062222,22849.695,8909.865,53751.015,-7661.565,-37424.115,-45485.865,-7578.269999999999,7953.344999999999
1764435362.0062222,22841.64,8910.81,53753.67,-7661.7,-37426.635,-45490.995,-7562.429999999999,7955.415
1764435362.0503616,22836.735,8909.91,53752.635,-7664.445,-37429.965,-45496.215,-7554.014999999999,7956.269999999999
1764435362.0503616,22837.905,8909.234999999999,53750.43,-7665.66,-37429.785,-45495.9,-7555.094999999999,7955.73
1764435362.0503616,22845.42,8910.359999999999,53749.53,-7664.58,-37426.41,-45491.58,-7561.844999999999,7957.934999999999
1764435362.0503616,22851.63,8909.279999999999,53746.92,-7665.03,-37424.43,-45488.97,-7575.525,7956.36
1764435362.0503616,22857.12,8906.039999999999,53741.205,-7667.865,-37424.07,-45486.81,-7594.2,7950.825
1764435362.051378,22865.94,8910.18,53745.12,-7662.915,-37418.265,-45479.43,-7599.24,7953.84
1764435362.051378,22865.715,8912.565,53748.135,-7661.88,-37419.615,-45479.025,-7596.45,7955.144999999999
1764435362.051378,22858.695,8911.845,53748.855,-7662.42,-37423.89,-45482.4,-7588.125,7955.099999999999
1764435362.051378,22849.56,8910.765,53750.88,-7661.474999999999,-37422.72,-45485.865,-7577.099999999999,7953.66
1764435362.051378,22844.025,8914.455,53756.01,-7659.179999999999,-37422.18,-45488.205,-7557.929999999999,7958.7
1764435362.0524306,22838.175,8911.98,53753.985,-7662.509999999999,-37427.805,-45494.145,-7550.415,7959.105
1764435362.0524306,22836.645,8908.56,53749.305,-7666.92,-37430.64,-45497.61,-7554.69,7957.08
1764435362.0524306,22837.77,8903.88,53742.465,-7671.644999999999,-37432.98,-45499.95,-7567.875,7952.625
1764435362.0524306,22846.32,8904.06,53741.43,-7670.07,-37429.335,-45494.685,-7579.215,7952.264999999999
1764435362.0524306,22850.73,8899.335,53735.13,-7673.445,-37430.145,-45493.605,-7598.88,7945.83
1764435362.0524306,22856.76,8901.945,53737.065,-7670.205,-37426.365,-45487.53,-7605.945,7946.955
1764435362.0524306,22859.37,8906.355,53743.545,-7665.344999999999,-37421.955,-45482.4,-7599.96,7950.554999999999
1764435362.0524306,22850.46,8903.205,53742.42,-7668.179999999999,-37427.265,-45487.89,-7593.795,7946.955
1764435362.0524306,22842.63,8903.699999999999,53744.445,-7668.764999999999,-37429.875,-45491.94,-7581.014999999999,7948.035
1764435362.0524306,22833.675,8903.43,53746.02,-7669.394999999999,-37433.61,-45498.195,-7566.344999999999,7949.384999999999
1764435362.0524306,22828.5,8901.81,53744.085,-7672.23,-37437.39,-45503.19,-7559.37,7949.655
1764435362.0524306,22829.085,8900.685,53740.935,-7674.75,-37438.335,-45504.045,-7562.519999999999,7949.07
1764435362.0524306,22832.775,8898.84,53737.875,-7676.144999999999,-37437.165,-45502.83,-7572.554999999999,7947.809999999999
1764435362.0534515,22842.63,8901.0,53738.37,-7673.309999999999,-37432.215,-45495.405,-7582.455,7949.025
1764435362.1005363,22849.74,8899.56,53735.085,-7673.94,-37430.28,-45491.445,-7599.42,7946.19
1764435362.1005363,22852.665,8899.109999999999,53734.86,-7672.724999999999,-37428.615,-45487.89,-7608.375,7944.03
1764435362.1005363,22855.41,8903.609999999999,53741.115,-7666.875,-37423.53,-45483.345,-7602.255,7948.08
1764435362.1005363,22850.145,8904.375,53743.41,-7666.469999999999,-37425.15,-45486.045,-7593.389999999999,7948.349999999999
1764435362.1005363,22842.765,8905.41,53746.335,-7665.84,-37427.895,-45489.78,-7579.844999999999,7949.655
1764435362.1005363,22833.135,8905.455,53746.83,-7667.46,-37432.35,-45496.08,-7565.219999999999,7950.554999999999
1764435362.1005363,22824.45,8900.91,53741.79,-7672.724999999999,-37439.55,-45504.045,-7561.215,7947.224999999999
1764435362.1005363,22824.045,8897.625,53737.785,-7675.469999999999,-37440.765,-45506.205,-7564.679999999999,7945.83
1764435362.1005363,22829.76,8896.185,53735.085,-7678.08,-37440.81,-45505.215,-7574.58,7943.94
1764435362.1005363,22840.29,8898.345,53735.535,-7674.66,-37434.915,-45497.745,-7585.29,7945.695
1764435362.1005363,22847.58,8896.23,53732.25,-7674.389999999999,-37431.315,-45493.29,-7602.344999999999,7941.915
1764435362.1005363,22849.875,8894.385,53730.99,-7674.344999999999,-37431.09,-45490.95,-7611.929999999999,7938.855
1764435362.1005363,22851.36,8898.705,53736.21,-7670.07,-37427.85,-45487.665,-7605.9,7941.735
1764435362.1005363,22844.115,8897.805,53736.93,-7671.15,-37431.135,-45491.265,-7597.575,7940.429999999999
1764435362.1005363,22838.04,8899.244999999999,53739.63,-7670.745,-37433.52,-45494.865,-7583.94,7942.86
1764435362.1005363,22833.27,8903.385,53745.255,-7667.46,-37433.07,-45496.53,-7564.769999999999,7949.295
1764435362.1005363,22826.835,8900.46,53742.69,-7671.059999999999,-37437.885,-45502.92,-7558.74,7948.215
1764435362.1015306,22823.37,8894.52,53735.625,-7676.639999999999,-37442.61,-45507.645,-7565.355,7944.165
1764435362.1015306,22826.835,8891.685,53731.53,-7678.889999999999,-37441.89,-45506.835,-7576.92,7941.644999999999
1764435362.1015306,22833.45,8891.685,53729.145,-7678.62,-37440.135,-45504.18,-7591.32,7940.429999999999
1764435362.1015306,22843.35,8892.539999999999,53729.19,-7676.865,-37435.41,-45497.115,-7605.09,7939.17
1764435362.1015306,22852.98,8898.21,53734.455,-7670.34,-37426.635,-45485.46,-7607.88,7942.95
1764435362.1441011,22853.205,8900.46,53738.46,-7667.19,-37424.565,-45483.93,-7602.929999999999,7946.144999999999
1764435362.144636,22846.32,8900.279999999999,53740.035,-7667.594999999999,-37428.255,-45488.16,-7594.469999999999,7945.469999999999
1764435362.144636,22836.51,8899.199999999999,53739.945,-7670.655,-37435.59,-45494.505,-7582.5,7945.83
1764435362.144636,22831.695,8902.529999999999,53745.03,-7666.245,-37431.63,-45495.36,-7564.049999999999,7950.825
1764435362.144636,22825.845,8899.875,53742.6,-7669.304999999999,-37435.005,-45500.94,-7558.695,7949.61
1764435362.144636,22822.92,8895.06,53736.165,-7675.155,-37440.675,-45505.845,-7566.434999999999,7945.019999999999
1764435362.144636,22830.3,8895.645,53734.275,-7675.019999999999,-37438.74,-45502.65,-7574.715,7945.695
1764435362.144636,22837.815,8894.88,53732.745,-7675.11,-37436.4,-45498.87,-7587.719999999999,7944.21
1764435362.144636,22843.485,8892.404999999999,53728.875,-7676.009999999999,-37434.42,-45494.865,-7605.315,7940.16
1764435362.144636,22853.43,8898.885,53734.455,-7669.215,-37426.95,-45485.775,-7607.565,7944.12
1764435362.144636,22854.15,8902.26,53739.405,-7665.299999999999,-37424.79,-45483.345,-7602.299999999999,7946.37
1764435362.144636,22847.985,8902.035,53740.98,-7665.165,-37427.04,-45486.495,-7593.344999999999,7945.245
1764435362.144636,22839.75,8902.08,53743.05,-7666.2,-37430.145,-45491.445,-7579.889999999999,7946.19
1764435362.144636,22829.49,8900.055,53742.78,-7669.62,-37435.545,-45499.32,-7566.705,7946.549999999999
1764435362.144636,22827.015,8901.27,53743.86,-7669.844999999999,-37436.265,-45501.705,-7557.48,7949.7
1764435362.144636,22828.455,8899.605,53741.16,-7671.554999999999,-37436.355,-45502.425,-7560.585,7949.655
1764435362.144636,22831.335,8895.33,53735.085,-7675.605,-37437.75,-45502.515,-7572.96,7946.28
1764435362.144636,22834.755,8891.234999999999,53729.505,-7678.755,-37438.83,-45501.615,-7590.014999999999,7940.655
1764435362.144636,22844.745,8892.72,53730.585,-7675.605,-37433.52,-45493.92,-7602.929999999999,7940.79
1764435362.144636,22848.39,8892.765,53730.585,-7674.434999999999,-37431.585,-45490.725,-7610.309999999999,7938.63
1764435362.144636,22851.225,8898.119999999999,53737.83,-7668.134999999999,-37427.355,-45485.19,-7602.344999999999,7943.894999999999
1764435362.144636,22845.285,8898.93,53739.585,-7668.045,-37429.785,-45488.385,-7592.804999999999,7943.804999999999
1764435362.144636,22834.485,8896.32,53738.28,-7672.184999999999,-37435.545,-45496.215,-7582.769999999999,7941.599999999999
1764435362.144636,22826.565,8896.32,53740.08,-7673.04,-37437.84,-45501.12,-7567.83,7943.94
1764435362.1932275,22825.125,8897.535,53741.655,-7672.455,-37438.47,-45502.92,-7558.92,7947.179999999999
1764435362.1938536,22825.98,8895.69,53738.37,-7675.11,-37439.1,-45504.09,-7562.969999999999,7946.235
1764435362.1938536,22828.995,8892.315,53732.655,-7678.394999999999,-37439.325,-45503.82,-7574.445,7942.905
1764435362.1938536,22832.595,8887.77,53726.895,-7681.679999999999,-37440.675,-45502.65,-7591.455,7937.73
1764435362.1938536,22841.775,8887.859999999999,53725.005,-7680.825,-37437.345,-45496.8,-7607.295,7935.705
1764435362.1938536,22851.81,8894.16,53731.305,-7672.679999999999,-37429.065,-45487.665,-7607.429999999999,7941.014999999999
1764435362.1938536,22851.27,8895.734999999999,53734.455,-7669.665,-37428.165,-45486.09,-7602.884999999999,7942.094999999999
1764435362.1938536,22840.92,8892.359999999999,53732.655,-7673.894999999999,-37433.565,-45492.48,-7596.99,7938.179999999999
1764435362.1938536,22834.08,8894.295,53736.345,-7673.309999999999,-37435.32,-45495.855,-7581.915,7940.429999999999
1764435362.1938536,22829.085,8898.48,53742.105,-7670.565,-37435.77,-45497.88,-7563.69,7946.415
1764435362.1938536,22825.215,8897.355,53740.845,-7672.86,-37438.2,-45502.425,-7557.615,7946.684999999999
1764435362.1938536,22823.145,8891.865,53734.725,-7678.394999999999,-37441.44,-45506.7,-7564.365,7942.905
1764435362.1938536,22826.16,8887.815,53729.37,-7681.184999999999,-37442.475,-45506.52,-7576.83,7939.799999999999
1764435362.1938536,22833.675,8886.33,53726.58,-7681.32,-37440.54,-45501.795,-7591.094999999999,7937.73
1764435362.1938536,22844.88,8889.66,53728.38,-7676.82,-37433.07,-45492.57,-7602.795,7939.934999999999
1764435362.1938536,22850.325,8892.539999999999,53731.395,-7673.445,-37429.29,-45487.575,-7607.115,7941.509999999999
1764435362.1938536,22850.055,8895.645,53735.58,-7671.375,-37429.245,-45486.495,-7601.894999999999,7943.085
1764435362.1938536,22844.115,8897.445,53738.595,-7667.955,-37426.59,-45487.98,-7592.535,7942.455
1764435362.1938536,22834.26,8894.565,53737.245,-7672.365,-37434.105,-45495.36,-7581.24,7941.059999999999
1764435362.1938536,22825.98,8895.779999999999,53739.315,-7673.04,-37437.345,-45500.76,-7565.715,7943.894999999999
1764435362.1938536,22824.135,8896.545,53740.71,-7673.94,-37437.615,-45502.605,-7557.884999999999,7946.684999999999
1764435362.1938536,22822.335,8891.64,53734.68,-7679.025,-37440.9,-45505.8,-7565.219999999999,7942.184999999999
1764435362.1948593,22826.115,8889.525,53730.135,-7681.679999999999,-37440.63,-45504.945,-7576.605,7939.259999999999
1764435362.1948593,22834.395,8889.029999999999,53727.57,-7681.59,-37437.57,-45500.58,-7590.15,7938.719999999999
1764435362.2388294,22845.195,8890.605,53728.74,-7677.719999999999,-37431.585,-45491.715,-7603.019999999999,7938.945
1764435362.2388294,22850.55,8893.305,53731.26,-7674.075,-37427.625,-45485.955,-7606.53,7939.799999999999
1764435362.2388294,22850.64,8896.41,53736.075,-7670.115,-37425.195,-45484.02,-7600.049999999999,7941.96
1764435362.2388294,22844.655,8896.59,53737.695,-7669.44,-37427.49,-45487.395,-7589.969999999999,7942.275
1764435362.2388294,22835.025,8895.96,53739.045,-7671.33,-37431.9,-45493.2,-7577.594999999999,7942.95
1764435362.2388294,22823.595,8893.215,53737.65,-7675.38,-37438.515,-45501.66,-7565.804999999999,7941.509999999999
1764435362.2388294,22821.795,8894.699999999999,53738.82,-7675.2,-37438.29,-45502.785,-7557.84,7944.57
1764435362.2388294,22823.955,8894.025,53735.985,-7676.46,-37438.29,-45502.38,-7561.485,7945.065
1764435362.2388294,22827.69,8890.425,53730.045,-7679.79,-37439.28,-45502.47,-7574.13,7941.915
1764435362.2388294,22832.19,8886.555,53725.005,-7682.894999999999,-37440.18,-45502.02,-7591.139999999999,7936.605
1764435362.2388294,22839.39,8885.654999999999,53722.71,-7682.264999999999,-37437.795,-45497.295,-7606.755,7933.139999999999
1764435362.2388294,22846.005,8889.48,53726.805,-7676.865,-37432.26,-45490.77,-7609.995,7935.255
1764435362.23936,22848.525,8895.195,53734.23,-7670.429999999999,-37427.04,-45485.28,-7601.4,7940.61
1764435362.23936,22840.47,8894.43,53735.13,-7671.69,-37430.73,-45489.645,-7592.759999999999,7939.53
1764435362.2403743,22836.105,8897.58,53740.305,-7669.17,-37430.28,-45491.31,-7575.884999999999,7944.21
1764435362.2403743,22829.22,8898.57,53743.23,-7669.125,-37432.08,-45495.09,-7559.415,7947.674999999999
1764435362.2403743,22823.37,8896.23,53740.395,-7672.995,-37436.58,-45500.625,-7555.679999999999,7946.37
1764435362.2403743,22821.39,8890.83,53734.005,-7678.304999999999,-37441.125,-45504.54,-7564.005,7942.23
1764435362.2403743,22829.445,8892.045,53733.555,-7676.639999999999,-37437.48,-45500.13,-7572.33,7943.445
1764435362.2403743,22837.14,8889.975,53729.91,-7677.179999999999,-37434.96,-45496.755,-7586.91,7941.69
1764435362.2403743,22842.045,8886.42,53724.915,-7679.655,-37435.455,-45494.82,-7605.09,7936.38
1764435362.2403743,22850.55,8891.955,53730.855,-7672.545,-37428.075,-45486.045,-7604.955,7940.61
1764435362.2403743,22851.18,8895.285,53735.535,-7667.91,-37425.15,-45483.03,-7597.44,7943.625
1764435362.2403743,22844.43,8896.14,53737.56,-7667.82,-37428.21,-45486.495,-7587.855,7943.445
1764435362.288394,22833.945,8893.935,53737.47,-7671.24,-37433.835,-45493.56,-7577.009999999999,7942.32
1764435362.288394,22824.18,8893.26,53737.965,-7673.715,-37437.345,-45499.725,-7562.745,7943.535
1764435362.288394,22821.795,8893.17,53738.01,-7674.434999999999,-37438.515,-45502.245,-7557.12,7945.875
1764435362.288394,22820.715,8887.725,53732.52,-7679.969999999999,-37442.43,-45506.88,-7565.67,7942.32
1764435362.288394,22824.855,8885.385,53728.2,-7682.264999999999,-37441.35,-45504.99,-7576.785,7939.934999999999
1764435362.288394,22835.07,8886.734999999999,53727.345,-7679.745,-37435.77,-45497.115,-7588.215,7940.88
1764435362.288394,22840.92,8883.99,53723.745,-7681.679999999999,-37435.545,-45493.425,-7604.46,7937.325
1764435362.288394,22847.715,8889.975,53729.595,-7675.2,-37428.165,-45486.54,-7605.855,7940.429999999999
1764435362.288394,22848.21,8894.654999999999,53734.95,-7669.215,-37424.565,-45483.21,-7598.07,7943.355
1764435362.288394,22841.145,8894.16,53735.85,-7670.115,-37427.58,-45486.81,-7588.844999999999,7942.905
1764435362.288394,22829.67,8891.1,53734.455,-7674.84,-37434.42,-45494.64,-7578.719999999999,7940.61
1764435362.288394,22822.11,8891.505,53736.57,-7675.245,-37437.75,-45499.815,-7563.465,7943.13
1764435362.288394,22821.66,8892.855,53738.055,-7674.705,-37437.93,-45501.705,-7556.219999999999,7946.684999999999
1764435362.288394,22822.695,8890.154999999999,53734.185,-7677.719999999999,-37439.595,-45503.64,-7562.34,7944.884999999999
1764435362.288394,22824.135,8885.16,53727.885,-7683.03,-37442.79,-45505.305,-7576.92,7939.304999999999
1764435362.288394,22831.29,8883.99,53724.78,-7682.58,-37440.315,-45500.625,-7591.184999999999,7938.134999999999
1764435362.288394,22840.92,8884.935,53724.645,-7679.924999999999,-37434.96,-45493.875,-7604.144999999999,7937.549999999999
1764435362.288394,22846.455,8888.58,53728.515,-7675.785,-37430.775,-45487.935,-7606.889999999999,7938.719999999999
1764435362.288394,22849.245,8895.42,53736.165,-7668.54,-37424.745,-45482.445,-7596.674999999999,7944.84
1764435362.288394,22843.35,8896.859999999999,53738.955,-7667.054999999999,-37426.32,-45485.73,-7585.965,7946.46
1764435362.288394,22834.305,8895.779999999999,53740.125,-7668.63,-37431.045,-45491.355,-7572.69,7946.549999999999
1764435362.2899525,22825.71,8895.105,53740.845,-7671.059999999999,-37435.545,-45497.565,-7559.144999999999,7947.719999999999
1764435362.333741,22821.435,8892.63,53737.245,-7676.37,-37441.44,-45503.145,-7555.769999999999,7946.639999999999
1764435362.333741,22822.47,8891.324999999999,53735.04,-7676.639999999999,-37436.805,-45501.39,-7561.44,7945.424999999999
1764435362.333741,22824.99,8887.05,53730.135,-7680.105,-37438.695,-45501.84,-7574.67,7941.915
1764435362.333741,22830.21,8883.63,53724.375,-7683.57,-37439.55,-45500.58,-7591.545,7937.009999999999
1764435362.333741,22838.94,8884.035,53723.205,-7682.58,-37436.355,-45495.09,-7605.179999999999,7935.48
1764435362.333741,22847.22,8889.885,53729.55,-7675.245,-37429.29,-45486.675,-7604.865,7939.844999999999
1764435362.333741,22846.095,8893.215,53733.51,-7671.599999999999,-37427.22,-45484.92,-7597.62,7942.815
1764435362.333741,22835.475,8889.255,53731.035,-7675.605,-37433.34,-45491.895,-7591.41,7939.799999999999
1764435362.333741,22828.545,8890.515,53733.96,-7675.965,-37436.31,-45496.665,-7577.639999999999,7941.014999999999
1764435362.333741,22823.37,8893.71,53738.415,-7674.165,-37436.67,-45499.095,-7560.09,7946.639999999999
1764435362.3347614,22817.655,8889.48,53733.42,-7679.115,-37441.71,-45505.485,-7558.605,7944.525
1764435362.3347614,22820.4,8888.805,53731.755,-7680.014999999999,-37441.125,-45505.755,-7562.835,7944.57
1764435362.3347614,22823.775,8884.935,53726.445,-7684.019999999999,-37442.745,-45505.935,-7576.245,7940.655
1764435362.3347614,22834.755,8886.51,53726.13,-7681.59,-37437.57,-45498.42,-7588.125,7940.969999999999
1764435362.3347614,22840.965,8885.07,53723.97,-7680.915,-37434.465,-45494.37,-7603.965,7937.865
1764435362.335753,22847.67,8890.199999999999,53729.145,-7674.299999999999,-37427.715,-45485.775,-7603.695,7941.599999999999
1764435362.335753,22846.545,8892.855,53733.555,-7671.42,-37426.23,-45484.38,-7596.719999999999,7943.13
1764435362.335753,22839.57,8892.359999999999,53735.31,-7672.455,-37429.38,-45488.97,-7588.304999999999,7942.5
1764435362.335753,22830.93,8892.359999999999,53737.02,-7672.995,-37433.115,-45494.415,-7574.264999999999,7943.49
1764435362.336877,22822.38,8891.46,53737.74,-7674.12,-37437.12,-45500.085,-7559.865,7944.48
1764435362.336877,22819.14,8889.345,53735.895,-7676.955,-37439.955,-45503.595,-7556.894999999999,7944.57
1764435362.336877,22820.355,8886.195,53731.845,-7679.88,-37441.35,-45505.215,-7563.285,7942.86
1764435362.33788,22825.53,8885.205,53728.2,-7681.724999999999,-37440.63,-45503.145,-7574.04,7941.195
1764435362.33788,22832.055,8883.225,53724.195,-7683.434999999999,-37439.73,-45499.815,-7589.969999999999,7937.91
1764435362.3805797,22837.77,8881.02,53721.135,-7683.525,-37438.38,-45495.765,-7606.755,7934.085
1764435362.3805797,22844.61,8886.6,53726.985,-7676.415,-37431.63,-45488.385,-7606.62,7937.775
1764435362.3805797,22843.395,8888.445,53730.63,-7673.894999999999,-37429.965,-45487.305,-7598.61,7939.304999999999
1764435362.3805797,22833.765,8885.699999999999,53729.19,-7677.54,-37436.22,-45493.695,-7591.455,7936.29
1764435362.3805797,22825.485,8887.32,53732.34,-7677.719999999999,-37438.695,-45497.565,-7576.695,7938.045
1764435362.3805797,22821.435,8891.46,53736.885,-7675.065,-37438.965,-45499.815,-7559.099999999999,7943.759999999999
1764435362.3805797,22816.305,8887.455,53732.655,-7679.295,-37444.32,-45506.385,-7557.705,7942.094999999999
1764435362.3805797,22819.41,8886.375,53730.18,-7680.78,-37444.23,-45504.9,-7562.88,7941.78
1764435362.3805797,22821.705,8881.74,53724.06,-7685.099999999999,-37445.805,-45505.305,-7577.37,7936.785
1764435362.3805797,22831.425,8883.045,53723.205,-7683.21,-37440.36,-45498.78,-7590.195,7937.19
1764435362.3805797,22837.905,8881.83,53721.405,-7682.94,-37437.84,-45494.73,-7606.08,7933.995
1764435362.3805797,22844.835,8886.195,53727.075,-7676.73,-37431.405,-45487.845,-7606.125,7938.134999999999
1764435362.3805797,22843.08,8888.175,53730.585,-7674.57,-37430.955,-45487.35,-7598.565,7939.755
1764435362.3805797,22833.99,8885.744999999999,53730.315,-7677.09,-37436.04,-45493.47,-7590.465,7937.594999999999
1764435362.381594,22825.665,8887.185,53732.835,-7676.684999999999,-37438.515,-45497.79,-7576.019999999999,7939.304999999999
1764435362.381594,22817.16,8887.005,53733.915,-7678.394999999999,-37441.845,-45503.055,-7561.934999999999,7940.745
1764435362.381594,22814.01,8884.529999999999,53731.53,-7680.69,-37444.815,-45505.845,-7558.514999999999,7940.25
1764435362.381594,22816.26,8882.91,53728.02,-7682.985,-37445.49,-45505.935,-7564.634999999999,7938.495
1764435362.381594,22823.415,8882.73,53725.86,-7682.715,-37442.295,-45502.47,-7574.94,7938.674999999999
1764435362.381594,22828.77,8878.904999999999,53721.18,-7685.099999999999,-37442.205,-45501.21,-7592.309999999999,7933.545
1764435362.381594,22836.15,8878.904999999999,53719.38,-7684.38,-37438.29,-45495.99,-7606.755,7931.429999999999
1764435362.381594,22841.82,8883.359999999999,53723.835,-7679.474999999999,-37434.375,-45490.14,-7606.44,7935.12
1764435362.381594,22844.205,8889.795,53730.99,-7673.535,-37430.955,-45485.505,-7595.28,7940.655
1764435362.381594,22836.06,8889.255,53733.33,-7671.599999999999,-37428.39,-45488.79,-7586.73,7939.62
1764435362.4280455,22825.17,8887.77,53733.015,-7675.514999999999,-37435.59,-45497.115,-7574.804999999999,7938.405
1764435362.4280455,22818.42,8889.119999999999,53735.715,-7676.19,-37438.335,-45500.85,-7559.235,7942.184999999999
1764435362.4280455,22812.66,8884.395,53730.18,-7681.95,-37444.545,-45507.51,-7559.639999999999,7939.035
1764435362.4280455,22814.91,8882.01,53725.86,-7684.155,-37446.075,-45508.77,-7567.245,7937.054999999999
1764435362.4280455,22819.905,8880.074999999999,53722.26,-7685.639999999999,-37444.995,-45507.69,-7578.855,7934.759999999999
1764435362.4280455,22828.995,8880.164999999999,53721.225,-7683.929999999999,-37440.18,-45501.48,-7591.679999999999,7934.355
1764435362.4280455,22840.155,8883.135,53723.34,-7678.98,-37432.935,-45492.255,-7601.49,7936.38
1764435362.4280455,22841.505,8882.595,53723.16,-7678.304999999999,-37431.72,-45490.365,-7606.08,7935.21
1764435362.4280455,22843.215,8888.445,53729.91,-7672.995,-37427.85,-45486.855,-7595.73,7940.384999999999
1764435362.4280455,22836.15,8888.85,53732.16,-7673.49,-37430.865,-45490.86,-7585.605,7940.295
1764435362.4280455,22824.405,8885.205,53731.035,-7677.585,-37437.435,-45499.41,-7574.445,7938.224999999999
1764435362.4280455,22815.72,8884.755,53730.45,-7680.285,-37441.215,-45505.485,-7561.215,7938.809999999999
1764435362.4280455,22812.48,8883.585,53729.01,-7682.355,-37443.375,-45508.86,-7558.65,7939.215
1764435362.4280455,22817.97,8884.755,53728.515,-7681.23,-37440.63,-45505.71,-7562.429999999999,7940.969999999999
1764435362.4280455,22821.435,8880.705,53722.53,-7685.594999999999,-37442.205,-45505.53,-7576.335,7936.605
1764435362.4280455,22831.245,8881.38,53721.9,-7684.2,-37438.38,-45499.365,-7590.375,7935.57
1764435362.4280455,22837.32,8879.76,53719.11,-7683.884999999999,-37436.67,-45494.91,-7605.269999999999,7932.33
1764435362.4280455,22843.98,8885.205,53725.23,-7676.775,-37429.83,-45487.575,-7603.424999999999,7937.054999999999
1764435362.4280455,22843.215,8887.994999999999,53729.865,-7672.86,-37428.165,-45487.035,-7595.144999999999,7939.394999999999
1764435362.4280455,22832.64,8884.845,53728.83,-7675.695,-37434.24,-45493.83,-7588.08,7936.605
1764435362.4280455,22824.36,8885.25,53731.26,-7676.594999999999,-37437.705,-45499.365,-7573.365,7937.73
1764435362.4280455,22817.205,8885.97,53732.295,-7678.17,-37440.54,-45503.955,-7559.594999999999,7939.71
1764435362.4280455,22817.07,8887.005,53732.655,-7678.53,-37440.585,-45504.495,-7554.465,7942.545
1764435362.4280455,22818.24,8883.404999999999,53727.885,-7681.995,-37442.88,-45506.16,-7563.24,7940.115
1764435362.4769742,22819.455,8877.6,53720.73,-7686.585,-37445.175,-45508.275,-7577.955,7934.49
1764435362.4769742,22826.835,8876.25,53716.905,-7686.495,-37442.115,-45504.045,-7593.795,7931.969999999999
1764435362.4769742,22837.41,8879.535,53719.92,-7681.094999999999,-37435.455,-45494.775,-7603.38,7933.724999999999
1764435362.4769742,22839.885,8881.199999999999,53723.025,-7677.9,-37433.61,-45491.805,-7605.224999999999,7933.905
1764435362.4769742,22835.52,8882.234999999999,53725.725,-7677.405,-37434.24,-45493.02,-7599.059999999999,7934.219999999999
1764435362.4769742,22827.015,8880.975,53725.77,-7679.519999999999,-37438.02,-45498.87,-7589.88,7933.275
1764435362.4769742,22821.66,8883.99,53730.54,-7676.235,-37437.975,-45500.49,-7571.969999999999,7937.684999999999
1764435362.4769742,22811.895,8881.244999999999,53728.605,-7679.969999999999,-37443.42,-45507.69,-7560.63,7936.92
1764435362.4769742,22809.645,8877.914999999999,53725.365,-7684.155,-37447.065,-45511.02,-7560.09,7935.705
1764435362.4769742,22815.45,8878.725,53724.51,-7683.795,-37445.4,-45508.41,-7564.724999999999,7935.974999999999
1764435362.4769742,22819.185,8875.44,53719.38,-7686.99,-37446.03,-45508.68,-7577.865,7932.285
1764435362.4769742,22826.07,8874.225,53716.005,-7687.304999999999,-37444.365,-45504.27,-7593.929999999999,7929.99
1764435362.4769742,22834.845,8875.98,53715.915,-7684.785,-37440.63,-45497.205,-7606.394999999999,7929.945
1764435362.4769742,22841.37,8880.885,53722.17,-7677.269999999999,-37433.655,-45490.005,-7604.325,7934.309999999999
1764435362.4769742,22839.435,8884.035,53727.03,-7672.95,-37430.775,-45488.655,-7595.594999999999,7936.245
1764435362.4769742,22832.865,8885.205,53729.955,-7672.815,-37432.89,-45491.805,-7583.94,7937.235
1764435362.4769742,22823.1,8884.395,53730.99,-7676.37,-37438.245,-45499.23,-7570.394999999999,7937.46
1764435362.4769742,22815.855,8884.035,53731.485,-7677.945,-37441.8,-45504.27,-7557.795,7939.215
1764435362.4769742,22815.0,8883.585,53730.585,-7678.844999999999,-37442.43,-45506.115,-7554.24,7941.059999999999
1764435362.4769742,22814.91,8879.085,53724.105,-7683.66,-37445.67,-45508.545,-7564.23,7936.785
1764435362.4769742,22820.895,8878.455,53721.765,-7683.84,-37443.465,-45504.99,-7575.12,7935.434999999999
1764435362.4769742,22826.07,8874.449999999999,53716.32,-7686.855,-37443.555,-45503.775,-7593.434999999999,7931.115
1764435362.5215278,22832.73,8873.595,53714.88,-7686.945,-37442.205,-45499.095,-7607.025,7928.684999999999
1764435362.5215278,22837.095,8876.88,53718.57,-7684.065,-37439.865,-45493.65,-7605.9,7930.755
1764435362.5215278,22837.68,8882.91,53727.255,-7674.165,-37429.47,-45487.575,-7594.83,7936.155
1764435362.5215278,22828.23,8880.795,53726.985,-7677.315,-37435.545,-45494.55,-7586.549999999999,7933.86
1764435362.5215278,22821.615,8882.955,53730.855,-7676.73,-37437.93,-45499.005,-7569.855,7936.83
1764435362.5215278,22817.61,8886.824999999999,53734.725,-7674.48,-37437.345,-45500.895,-7553.429999999999,7942.41
1764435362.5215278,22815.18,8885.609999999999,53731.935,-7677.63,-37439.82,-45505.08,-7552.215,7941.644999999999
1764435362.5215278,22817.655,8882.595,53727.345,-7680.059999999999,-37439.865,-45504.09,-7560.45,7939.62
1764435362.5215278,22821.165,8879.984999999999,53722.62,-7683.344999999999,-37439.955,-45502.965,-7574.94,7936.11
1764435362.5215278,22831.65,8882.234999999999,53722.845,-7680.644999999999,-37434.42,-45495.81,-7586.639999999999,7936.92
1764435362.5215278,22839.525,8882.82,53722.62,-7678.17,-37430.775,-45489.915,-7597.98,7935.66
1764435362.5225265,22843.08,8885.07,53725.455,-7674.705,-37427.67,-45486.045,-7598.61,7937.054999999999
1764435362.5225265,22840.47,8886.555,53728.605,-7672.995,-37426.815,-45485.865,-7591.094999999999,7938.405
1764435362.5225265,22831.155,8884.035,53727.705,-7675.965,-37432.44,-45492.255,-7583.219999999999,7935.705
1764435362.5225265,22823.46,8884.71,53730.72,-7676.684999999999,-37435.23,-45497.16,-7566.75,7938.134999999999
1764435362.5225265,22816.575,8884.26,53731.53,-7677.99,-37438.11,-45502.965,-7553.429999999999,7940.519999999999
1764435362.5225265,22814.775,8883.0,53729.775,-7679.655,-37439.73,-45505.665,-7551.764999999999,7940.969999999999
1764435362.5225265,22820.94,8883.945,53728.92,-7678.394999999999,-37437.345,-45503.28,-7557.255,7942.139999999999
1764435362.5225265,22826.52,8882.279999999999,53725.455,-7679.969999999999,-37436.265,-45501.03,-7569.0,7940.429999999999
1764435362.5236244,22833.405,8881.695,53722.62,-7679.745,-37433.565,-45496.575,-7584.299999999999,7937.91
1764435362.5236244,22839.345,8880.66,53721.18,-7678.71,-37431.09,-45491.715,-7597.44,7935.66
1764435362.5236244,22843.08,8883.72,53725.41,-7675.245,-37427.58,-45487.935,-7598.25,7937.325
1764435362.5666287,22840.785,8886.105,53729.145,-7673.219999999999,-37426.815,-45487.17,-7590.014999999999,7938.945
1764435362.5666287,22831.605,8883.63,53728.38,-7675.695,-37431.72,-45493.2,-7580.79,7936.245
1764435362.5666287,22823.325,8884.484999999999,53730.72,-7675.92,-37434.645,-45497.79,-7565.04,7939.035
1764435362.5666287,22815.675,8883.449999999999,53730.225,-7678.394999999999,-37438.47,-45503.73,-7553.115,7940.384999999999
1764435362.5671685,22814.865,8882.955,53728.335,-7680.24,-37440.045,-45506.34,-7551.405,7941.15
1764435362.5671685,22819.005,8881.875,53726.265,-7680.735,-37438.29,-45504.315,-7557.615,7940.969999999999
1764435362.5671685,22826.655,8882.73,53725.23,-7679.474999999999,-37433.745,-45498.69,-7567.245,7941.195
1764435362.5671685,22832.82,8879.895,53720.595,-7682.264999999999,-37434.06,-45496.08,-7585.469999999999,7937.235
1764435362.5671685,22837.455,8877.15,53717.22,-7683.389999999999,-37433.88,-45495.09,-7601.13,7932.554999999999
1764435362.5671685,22841.37,8881.38,53722.755,-7677.495,-37428.885,-45489.645,-7599.42,7935.03
1764435362.5671685,22842.045,8888.445,53730.495,-7671.059999999999,-37424.52,-45484.875,-7586.415,7941.059999999999
1764435362.5671685,22836.195,8888.984999999999,53733.195,-7670.924999999999,-37426.815,-45487.755,-7574.894999999999,7942.184999999999
1764435362.5671685,22827.465,8888.4,53734.635,-7671.915,-37429.965,-45493.515,-7560.0,7942.86
1764435362.5671685,22817.25,8884.664999999999,53731.53,-7676.639999999999,-37435.95,-45500.895,-7550.415,7941.33
1764435362.5671685,22818.78,8885.835,53732.16,-7676.37,-37435.86,-45500.85,-7546.905,7944.03
1764435362.5671685,22823.145,8884.574999999999,53729.28,-7677.99,-37436.265,-45500.49,-7554.33,7943.085
1764435362.5671685,22827.96,8882.145,53725.41,-7679.429999999999,-37434.645,-45498.285,-7567.155,7940.61
1764435362.5671685,22833.495,8878.994999999999,53720.28,-7682.13,-37434.33,-45495.945,-7586.054999999999,7935.884999999999
1764435362.5671685,22843.26,8881.965,53722.44,-7677.855,-37428.12,-45487.98,-7595.46,7937.37
1764435362.5671685,22843.485,8882.82,53724.105,-7675.875,-37426.59,-45486.225,-7596.9,7936.559999999999
1764435362.5671685,22840.875,8885.654999999999,53728.605,-7672.139999999999,-37425.195,-45484.83,-7587.405,7938.809999999999
1764435362.567696,22833.54,8885.609999999999,53729.73,-7672.995,-37430.415,-45489.465,-7576.74,7939.53
1764435362.567696,22825.8,8887.185,53732.655,-7673.67,-37431.54,-45494.1,-7561.215,7941.059999999999
1764435362.567696,22818.96,8887.545,53733.33,-7673.894999999999,-37431.99,-45498.42,-7549.38,7942.41
1764435362.6141346,22816.845,8886.195,53730.855,-7677.269999999999,-37435.095,-45502.335,-7548.615,7942.049999999999
1764435362.6141346,22821.03,8884.8,53727.885,-7678.844999999999,-37434.105,-45500.985,-7555.679999999999,7941.644999999999
1764435362.6141346,22825.935,8881.38,53723.745,-7681.59,-37434.33,-45499.68,-7569.54,7938.405
1764435362.6141346,22830.255,8877.24,53717.13,-7685.775,-37435.545,-45498.51,-7588.62,7932.78
1764435362.6141346,22838.94,8878.635,53718.21,-7682.535,-37431.315,-45491.175,-7598.655,7932.644999999999
1764435362.6141346,22845.375,8885.654999999999,53725.14,-7674.57,-37423.665,-45483.66,-7593.48,7937.91
1764435362.6141346,22842.72,8888.265,53729.055,-7671.96,-37422.45,-45484.2,-7584.57,7940.384999999999
1764435362.6141346,22835.16,8887.59,53730.27,-7673.085,-37426.77,-45488.88,-7574.13,7941.014999999999
1764435362.6141346,22824.405,8885.925,53729.73,-7677.045,-37434.285,-45496.575,-7561.575,7940.429999999999
1764435362.6141346,22817.745,8886.734999999999,53730.72,-7677.134999999999,-37435.725,-45500.67,-7549.335,7942.32
1764435362.6141346,22819.815,8888.4,53732.385,-7674.884999999999,-37433.07,-45499.185,-7544.88,7945.514999999999
1764435362.6141346,22822.83,8885.115,53728.83,-7678.08,-37434.51,-45498.96,-7552.889999999999,7944.57
1764435362.6141346,22826.925,8881.65,53723.745,-7681.23,-37434.87,-45497.79,-7567.514999999999,7941.644999999999
1764435362.6141346,22837.455,8883.315,53723.745,-7678.844999999999,-37429.515,-45491.31,-7581.554999999999,7941.42
1764435362.6141346,22842.495,8882.01,53722.125,-7678.304999999999,-37427.175,-45487.845,-7594.469999999999,7938.405
1764435362.6141346,22845.96,8885.88,53726.715,-7673.219999999999,-37422.45,-45482.805,-7592.264999999999,7941.285
1764435362.6141346,22841.82,8887.41,53728.65,-7671.599999999999,-37423.62,-45483.93,-7584.57,7942.32
1764435362.615152,22832.37,8884.98,53728.335,-7673.49,-37428.615,-45489.96,-7575.165,7940.474999999999
1764435362.615152,22826.565,8888.58,53733.6,-7671.915,-37429.515,-45492.03,-7557.255,7945.065
1764435362.615152,22816.8,8884.71,53730.585,-7677.99,-37436.22,-45500.49,-7549.469999999999,7943.4
1764435362.615152,22814.46,8882.369999999999,53727.165,-7681.724999999999,-37439.325,-45504.405,-7549.695,7941.96
1764435362.615152,22819.77,8882.685,53726.22,-7681.365,-37435.995,-45501.075,-7555.32,7943.445
1764435362.615152,22824.54,8879.175,53721.36,-7683.389999999999,-37436.265,-45499.05,-7569.269999999999,7940.7
1764435362.615152,22829.805,8875.619999999999,53716.23,-7686.045,-37436.265,-45497.205,-7587.585,7935.434999999999
1764435362.6583967,22838.625,8878.32,53718.21,-7681.724999999999,-37430.37,-45489.87,-7596.63,7935.795
1764435362.6589289,22837.005,8876.475,53717.22,-7682.264999999999,-37431.855,-45490.5,-7599.735,7933.41
1764435362.6589289,22836.105,8881.38,53723.88,-7676.865,-37429.92,-45489.105,-7588.665,7937.505
1764435362.6589289,22828.185,8881.38,53725.185,-7677.224999999999,-37433.16,-45493.29,-7577.91,7937.235
1764435362.6589289,22816.26,8877.779999999999,53723.88,-7681.184999999999,-37439.82,-45501.345,-7565.309999999999,7935.929999999999
1764435362.6589289,22809.87,8877.195,53724.15,-7683.48,-37442.565,-45506.025,-7553.384999999999,7936.875
1764435362.6589289,22812.21,8878.994999999999,53724.645,-7683.48,-37441.575,-45505.395,-7549.83,7940.07
1764435362.6589289,22814.37,8875.845,53719.38,-7687.17,-37443.915,-45506.97,-7560.315,7936.65
1764435362.6589289,22822.515,8876.925,53718.705,-7685.955,-37439.82,-45501.93,-7570.304999999999,7936.875
1764435362.6589289,22830.57,8876.699999999999,53716.995,-7685.235,-37435.815,-45496.485,-7586.009999999999,7935.344999999999
1764435362.6589289,22834.845,8873.91,53713.98,-7685.594999999999,-37434.69,-45494.01,-7599.735,7931.519999999999
1764435362.6589289,22836.6,8876.295,53717.94,-7681.679999999999,-37431.45,-45489.87,-7597.665,7933.545
1764435362.6589289,22836.105,8881.785,53724.42,-7676.955,-37429.2,-45488.205,-7586.82,7938.269999999999
1764435362.6589289,22826.205,8878.904999999999,53723.61,-7679.745,-37434.915,-45495.405,-7579.394999999999,7934.49
1764435362.6589289,22821.705,8882.73,53729.235,-7676.82,-37435.005,-45496.89,-7559.865,7940.16
1764435362.6589289,22815.99,8883.045,53729.73,-7679.25,-37440.09,-45502.74,-7547.625,7942.59
1764435362.6589289,22813.83,8880.615,53726.895,-7682.4,-37440.045,-45503.28,-7548.12,7941.059999999999
1764435362.6589289,22815.945,8877.96,53723.025,-7683.75,-37437.12,-45501.84,-7558.559999999999,7938.54
1764435362.6589289,22821.885,8875.71,53719.605,-7685.73,-37438.335,-45501.57,-7572.465,7936.245
1764435362.6589289,22829.31,8874.225,53715.87,-7685.82,-37436.22,-45497.295,-7588.62,7933.59
1764435362.6589289,22832.91,8872.244999999999,53713.35,-7686.99,-37435.5,-45495.135,-7601.67,7929.809999999999
1764435362.6589289,22837.455,8877.555,53719.245,-7680.33,-37430.19,-45489.51,-7597.44,7933.455
1764435362.707267,22833.405,8879.805,53723.07,-7678.349999999999,-37429.965,-45490.095,-7588.53,7935.525
1764435362.707267,22822.245,8875.755,53720.775,-7683.299999999999,-37437.03,-45498.06,-7580.79,7931.79
1764435362.707267,22814.955,8876.699999999999,53723.97,-7683.299999999999,-37439.505,-45502.695,-7564.545,7933.905
1764435362.707267,22812.345,8880.029999999999,53727.12,-7681.275,-37439.505,-45504.27,-7550.235,7938.809999999999
1764435362.707267,22809.78,8876.97,53723.205,-7684.965,-37443.015,-45508.23,-7551.36,7936.65
1764435362.707267,22815.81,8877.869999999999,53721.45,-7684.469999999999,-37440.765,-45505.125,-7558.74,7936.83
1764435362.707267,22822.02,8876.385,53718.165,-7685.144999999999,-37439.055,-45502.29,-7571.519999999999,7935.66
1764435362.707267,22829.58,8874.855,53715.555,-7685.505,-37436.355,-45497.07,-7587.99,7932.87
1764435362.707267,22835.43,8874.81,53715.24,-7683.434999999999,-37432.935,-45491.85,-7599.69,7930.62
1764435362.707267,22836.285,8876.025,53716.905,-7681.005,-37430.955,-45489.69,-7598.745,7931.384999999999
1764435362.707267,22831.65,8876.744999999999,53719.29,-7680.69,-37432.035,-45491.85,-7590.69,7932.465
1764435362.707267,22821.615,8874.72,53718.615,-7684.019999999999,-37437.885,-45498.645,-7581.78,7929.674999999999
1764435362.707267,22813.83,8875.8,53721.27,-7685.28,-37442.43,-45504.0,-7565.4,7932.735
1764435362.7082803,22807.71,8876.025,53721.765,-7685.594999999999,-37443.87,-45508.275,-7555.139999999999,7934.535
1764435362.7082803,22806.72,8874.18,53719.515,-7687.755,-37444.32,-45509.985,-7555.995,7933.95
1764435362.7082803,22810.455,8872.65,53715.645,-7690.005,-37443.96,-45508.725,-7564.95,7933.41
1764435362.7082803,22820.58,8874.135,53715.825,-7687.98,-37439.19,-45503.055,-7574.04,7934.894999999999
1764435362.7082803,22828.32,8872.425,53712.855,-7688.115,-37436.805,-45498.33,-7590.195,7932.554999999999
1764435362.7082803,22829.895,8869.095,53709.03,-7689.195,-37436.4,-45496.89,-7604.325,7927.83
1764435362.7082803,22831.2,8870.895,53712.27,-7685.594999999999,-37434.69,-45493.965,-7602.57,7927.875
1764435362.7082803,22831.92,8877.51,53720.145,-7679.745,-37431.09,-45490.59,-7589.115,7933.905
1764435362.7082803,22822.74,8875.395,53720.37,-7682.13,-37437.075,-45498.105,-7579.44,7933.23
1764435362.751335,22814.46,8875.845,53722.395,-7683.389999999999,-37442.07,-45504.27,-7563.24,7934.985
1764435362.751335,22811.22,8877.824999999999,53724.825,-7681.769999999999,-37440.63,-45505.44,-7550.639999999999,7937.955
1764435362.751335,22808.07,8873.595,53719.83,-7685.009999999999,-37442.115,-45509.67,-7554.465,7934.49
1764435362.751335,22812.93,8872.154999999999,53716.32,-7686.99,-37442.52,-45508.59,-7562.384999999999,7933.995
1764435362.751335,22822.245,8873.595,53716.005,-7684.83,-37438.29,-45502.155,-7572.059999999999,7935.12
1764435362.751335,22827.465,8870.31,53710.92,-7687.44,-37438.245,-45499.815,-7590.78,7930.394999999999
1764435362.751335,22836.015,8873.775,53713.395,-7683.12,-37431.945,-45492.57,-7597.889999999999,7931.115
1764435362.751335,22835.115,8874.9,53715.825,-7680.915,-37430.595,-45490.725,-7597.259999999999,7930.665
1764435362.751335,22833.72,8879.22,53721.945,-7676.144999999999,-37428.165,-45489.24,-7586.19,7934.985
1764435362.751335,22822.47,8875.484999999999,53720.685,-7680.33,-37434.735,-45497.16,-7578.179999999999,7931.205
1764435362.751335,22814.145,8875.935,53722.62,-7680.69,-37438.065,-45503.28,-7562.429999999999,7933.094999999999
1764435362.751335,22808.655,8875.44,53722.08,-7682.309999999999,-37441.215,-45507.78,-7551.99,7934.894999999999
1764435362.751335,22806.765,8872.38,53718.3,-7686.269999999999,-37444.365,-45510.705,-7553.519999999999,7933.769999999999
1764435362.751335,22810.41,8869.635,53714.25,-7688.565,-37443.42,-45509.715,-7563.195,7932.059999999999
1764435362.751335,22819.905,8871.39,53714.52,-7684.965,-37438.065,-45503.55,-7573.23,7932.96
1764435362.751335,22828.185,8870.445,53712.045,-7684.875,-37434.78,-45498.69,-7588.665,7931.07
1764435362.751335,22834.305,8871.48,53712.315,-7683.57,-37432.395,-45493.83,-7598.7,7929.9
1764435362.751335,22834.08,8872.47,53714.565,-7681.815,-37432.08,-45491.715,-7597.755,7930.349999999999
1764435362.751335,22829.76,8873.234999999999,53716.995,-7679.969999999999,-37432.98,-45493.02,-7588.215,7931.07
1764435362.751335,22823.145,8874.225,53719.38,-7679.429999999999,-37434.015,-45495.765,-7574.804999999999,7932.509999999999
1764435362.751335,22816.62,8876.97,53723.52,-7678.889999999999,-37436.355,-45500.94,-7557.84,7936.2
1764435362.751335,22810.545,8876.609999999999,53722.89,-7681.139999999999,-37439.28,-45505.485,-7548.615,7937.46
1764435362.751335,22809.96,8874.585,53720.73,-7682.94,-37439.46,-45505.395,-7549.065,7936.605
1764435362.751335,22814.37,8873.1,53717.67,-7683.929999999999,-37438.56,-45503.415,-7557.48,7935.795
1764435362.7950947,22818.51,8869.68,53711.955,-7686.99,-37439.415,-45503.685,-7573.5,7931.16
1764435362.7950947,22827.06,8869.41,53709.84,-7686.674999999999,-37435.68,-45498.465,-7589.745,7929.179999999999
1764435362.7950947,22835.745,8873.055,53713.89,-7681.59,-37429.065,-45490.725,-7596.224999999999,7931.16
1764435362.7950947,22835.88,8874.225,53716.77,-7678.53,-37427.58,-45488.79,-7594.019999999999,7931.429999999999
1764435362.7950947,22831.47,8875.755,53719.38,-7677.674999999999,-37428.39,-45490.32,-7584.84,7932.42
1764435362.7950947,22823.685,8876.07,53720.505,-7678.53,-37431.315,-45494.82,-7573.365,7933.139999999999
1764435362.7950947,22815.0,8876.34,53722.755,-7679.115,-37434.69,-45500.85,-7557.344999999999,7935.344999999999
1764435362.7950947,22808.295,8874.404999999999,53720.91,-7682.58,-37439.73,-45506.43,-7548.974999999999,7935.12
1764435362.796118,22805.37,8869.859999999999,53715.33,-7688.7,-37444.77,-45511.245,-7553.295,7931.88
1764435362.796118,22813.56,8871.57,53715.735,-7687.17,-37441.44,-45507.15,-7559.415,7933.905
1764435362.796118,22819.635,8870.805,53713.575,-7685.82,-37437.03,-45503.37,-7571.79,7932.644999999999
1764435362.796118,22825.53,8867.07,53707.635,-7687.665,-37437.03,-45501.12,-7591.139999999999,7927.83
1764435362.796118,22833.045,8869.59,53709.48,-7684.514999999999,-37434.6,-45495.585,-7598.88,7928.37
1764435362.796118,22837.815,8875.89,53716.23,-7678.215,-37428.84,-45488.97,-7592.58,7933.769999999999
1764435362.796118,22834.935,8879.355,53722.305,-7673.219999999999,-37424.07,-45487.8,-7581.33,7936.65
1764435362.796118,22827.42,8878.635,53723.25,-7675.11,-37428.165,-45493.47,-7569.0,7937.009999999999
1764435362.796118,22818.015,8878.859999999999,53725.41,-7676.46,-37432.755,-45499.32,-7553.969999999999,7938.719999999999
1764435362.796118,22812.03,8878.23,53725.005,-7678.44,-37436.04,-45503.055,-7545.285,7940.384999999999
1764435362.796118,22810.995,8875.26,53721.945,-7682.535,-37438.065,-45505.395,-7547.759999999999,7939.53
1764435362.796118,22812.39,8871.93,53716.41,-7685.865,-37439.415,-45506.295,-7559.505,7935.884999999999
1764435362.796118,22821.255,8872.92,53715.645,-7684.29,-37435.275,-45501.255,-7570.755,7935.705
1764435362.796118,22826.655,8868.51,53710.515,-7687.44,-37435.23,-45498.825,-7590.33,7930.035
1764435362.7971146,22831.74,8869.14,53711.01,-7685.82,-37432.755,-45494.595,-7598.745,7929.36
1764435362.7971146,22833.945,8872.65,53715.51,-7680.42,-37429.47,-45490.59,-7594.424999999999,7931.295
1764435362.8430362,22833.36,8877.06,53722.26,-7675.695,-37427.04,-45488.655,-7580.835,7935.795
1764435362.8430362,22822.515,8873.955,53720.28,-7679.519999999999,-37432.215,-45496.485,-7571.565,7933.724999999999
1764435362.8430362,22814.235,8874.81,53722.305,-7679.79,-37435.68,-45501.66,-7555.724999999999,7935.57
1764435362.8440497,22810.41,8876.385,53723.385,-7680.465,-37437.57,-45504.495,-7545.24,7938.134999999999
1764435362.8440497,22813.245,8877.06,53722.755,-7681.275,-37437.075,-45504.315,-7544.565,7939.62
1764435362.8440497,22815.63,8872.38,53716.95,-7685.28,-37437.57,-45504.81,-7556.58,7935.84
1764435362.8440497,22825.305,8875.305,53717.49,-7682.355,-37432.62,-45498.375,-7567.245,7937.46
1764435362.8440497,22834.26,8875.484999999999,53715.735,-7681.049999999999,-37429.02,-45491.805,-7582.139999999999,7936.335
1764435362.8440497,22838.265,8874.72,53715.33,-7680.105,-37426.905,-45487.98,-7591.769999999999,7933.86
1764435362.8440497,22835.07,8872.74,53714.925,-7681.23,-37429.245,-45489.195,-7592.309999999999,7930.62
1764435362.8440497,22834.935,8878.455,53722.215,-7675.29,-37425.555,-45486.135,-7578.09,7936.785
1764435362.8440497,22827.285,8878.994999999999,53723.88,-7676.144999999999,-37428.39,-45490.32,-7566.255,7937.099999999999
1764435362.8440497,22814.775,8876.34,53722.215,-7680.509999999999,-37435.41,-45499.59,-7553.969999999999,7935.884999999999
1764435362.8440497,22810.77,8876.385,53722.305,-7681.5,-37437.255,-45503.415,-7543.665,7938.269999999999
1764435362.844561,22809.06,8873.19,53718.84,-7685.549999999999,-37439.505,-45506.835,-7547.04,7936.785
1764435362.844561,22814.37,8872.335,53716.86,-7685.594999999999,-37437.345,-45503.865,-7555.59,7937.099999999999
1764435362.844561,22818.195,8868.15,53710.695,-7689.285,-37438.875,-45503.235,-7572.15,7932.285
1764435362.844561,22828.635,8869.859999999999,53710.695,-7686.54,-37433.43,-45496.395,-7586.37,7931.474999999999
1764435362.844561,22832.28,8868.06,53709.03,-7686.09,-37432.395,-45493.92,-7596.855,7927.559999999999
1764435362.844561,22833.27,8870.94,53712.81,-7682.759999999999,-37430.37,-45491.04,-7594.065,7929.495
1764435362.844561,22831.155,8875.125,53719.11,-7678.889999999999,-37428.975,-45490.005,-7580.835,7933.365
1764435362.844561,22820.58,8873.01,53719.065,-7681.184999999999,-37433.655,-45496.935,-7570.08,7932.33
1764435362.8868768,22812.705,8873.73,53722.08,-7681.365,-37435.995,-45501.705,-7554.105,7935.299999999999
1764435362.8868768,22810.95,8875.755,53724.42,-7680.599999999999,-37436.265,-45503.955,-7542.809999999999,7939.304999999999
1764435362.8868768,22810.095,8872.38,53719.695,-7684.785,-37441.08,-45508.905,-7546.41,7936.695
1764435362.8878927,22811.31,8867.925,53712.135,-7690.094999999999,-37444.14,-45509.22,-7559.37,7931.655
1764435362.8878927,22817.88,8867.43,53709.975,-7688.745,-37438.335,-45502.245,-7572.059999999999,7930.575
1764435362.8878927,22826.07,8866.71,53707.545,-7688.924999999999,-37437.705,-45498.15,-7587.9,7928.505
1764435362.888404,22830.75,8867.115,53708.76,-7686.54,-37436.445,-45494.145,-7596.9,7927.469999999999
1764435362.888404,22831.245,8870.67,53712.72,-7682.4,-37432.26,-45490.59,-7593.21,7929.134999999999
1764435362.888404,22831.155,8875.8,53719.245,-7677.405,-37429.515,-45489.555,-7580.519999999999,7933.545
1764435362.888404,22819.995,8872.92,53717.625,-7680.78,-37436.085,-45497.655,-7571.745,7930.394999999999
1764435362.888404,22809.87,8871.57,53718.21,-7683.795,-37441.17,-45505.215,-7556.804999999999,7931.61
1764435362.888404,22805.19,8870.67,53717.4,-7685.594999999999,-37444.095,-45509.67,-7548.255,7933.005
1764435362.888404,22806.81,8871.21,53716.635,-7685.955,-37443.555,-45508.725,-7549.019999999999,7934.174999999999
1764435362.888404,22808.385,8866.574999999999,53710.245,-7690.679999999999,-37446.21,-45510.21,-7562.295,7929.719999999999
1764435362.889914,22815.495,8865.449999999999,53708.04,-7690.455,-37443.825,-45506.7,-7575.525,7928.684999999999
1764435362.889914,22827.24,8867.385,53708.895,-7687.17,-37437.12,-45498.78,-7587.9,7929.36
1764435362.889914,22830.705,8866.529999999999,53708.22,-7686.674999999999,-37435.995,-45495.72,-7596.674999999999,7927.065
1764435362.889914,22832.505,8870.715,53713.35,-7681.769999999999,-37432.395,-45490.59,-7590.375,7930.71
1764435362.889914,22828.86,8872.695,53716.68,-7679.969999999999,-37432.89,-45491.265,-7579.799999999999,7933.32
1764435362.889914,22821.48,8873.279999999999,53718.435,-7679.88,-37435.995,-45495.63,-7567.11,7934.985
1764435362.889914,22812.795,8874.404999999999,53721.045,-7680.059999999999,-37438.695,-45501.075,-7551.585,7936.74
1764435362.889914,22804.74,8870.49,53717.175,-7685.19,-37444.095,-45508.455,-7546.545,7934.804999999999
1764435362.9341786,22806.585,8869.904999999999,53716.32,-7686.945,-37444.815,-45508.635,-7548.615,7935.075
1764435362.9341786,22808.16,8865.27,53709.705,-7691.264999999999,-37447.515,-45509.715,-7561.665,7930.62
1764435362.9341786,22815.495,8863.695,53706.555,-7691.219999999999,-37444.905,-45505.935,-7574.759999999999,7928.73
1764435362.9347134,22826.835,8866.484999999999,53707.635,-7686.809999999999,-37438.38,-45497.07,-7586.865,7929.809999999999
1764435362.9347134,22832.505,8869.14,53709.48,-7684.065,-37435.545,-45492.39,-7593.165,7930.44
1764435362.9347134,22832.73,8871.3,53711.955,-7682.94,-37435.77,-45491.13,-7589.519999999999,7931.969999999999
1764435362.9347134,22829.04,8874.449999999999,53717.67,-7678.53,-37432.395,-45489.735,-7578.809999999999,7934.309999999999
1764435362.9347134,22821.93,8875.125,53720.235,-7677.945,-37434.195,-45493.74,-7564.455,7935.255
1764435362.9347134,22812.975,8874.539999999999,53721.315,-7679.565,-37439.19,-45500.715,-7549.155,7936.424999999999
1764435362.9347134,22805.145,8870.13,53717.31,-7684.875,-37445.265,-45509.355,-7545.599999999999,7933.86
1764435362.9347134,22806.9,8869.005,53715.645,-7686.674999999999,-37445.49,-45510.03,-7548.165,7933.995
1764435362.9347134,22813.965,8870.13,53714.88,-7686.179999999999,-37442.16,-45505.395,-7555.275,7935.389999999999
1764435362.9362552,22817.835,8866.17,53708.265,-7689.014999999999,-37442.97,-45504.09,-7571.565,7930.934999999999
1764435362.9362552,22825.8,8865.855,53705.88,-7687.934999999999,-37439.415,-45498.87,-7588.17,7927.83
1764435362.9362552,22828.185,8863.875,53704.35,-7688.655,-37439.145,-45497.025,-7597.844999999999,7923.554999999999
1764435362.9362552,22831.155,8868.96,53711.235,-7682.264999999999,-37434.06,-45491.04,-7590.105,7928.37
1764435362.9362552,22824.765,8869.635,53713.575,-7681.365,-37436.175,-45493.245,-7580.88,7928.82
1764435362.9362552,22816.17,8869.725,53714.745,-7682.445,-37439.64,-45498.915,-7568.955,7928.865
1764435362.9362552,22807.98,8870.355,53716.275,-7684.065,-37443.42,-45504.585,-7552.844999999999,7931.384999999999
1764435362.9362552,22800.375,8867.205,53712.675,-7688.07,-37448.235,-45512.01,-7548.525,7930.035
1764435362.9362552,22800.51,8863.695,53709.255,-7690.905,-37449.72,-45514.44,-7552.844999999999,7928.46
1764435362.9362552,22806.045,8862.435,53706.87,-7691.58,-37448.28,-45512.46,-7562.34,7927.019999999999
1764435362.9362552,22816.44,8865.315,53707.275,-7689.42,-37442.79,-45505.845,-7572.78,7928.91
1764435362.9362552,22825.44,8865.539999999999,53706.015,-7687.755,-37438.83,-45499.95,-7587.63,7927.965
1764435362.98483,22830.795,8866.08,53706.96,-7684.785,-37434.285,-45494.145,-7593.795,7928.19
1764435362.98483,22827.735,8865.045,53707.995,-7684.965,-37435.23,-45494.28,-7592.13,7926.615
1764435362.98483,22824.945,8869.05,53713.62,-7681.769999999999,-37435.68,-45494.865,-7580.115,7929.809999999999
1764435362.98483,22815.135,8867.205,53712.9,-7684.469999999999,-37441.125,-45502.02,-7569.99,7928.144999999999
1764435362.98483,22809.555,8869.725,53717.085,-7682.715,-37442.115,-45505.305,-7552.799999999999,7933.005
1764435362.98483,22800.375,8864.685,53711.775,-7688.969999999999,-37448.82,-45513.225,-7550.235,7929.045
1764435362.98483,22799.97,8862.57,53707.86,-7692.03,-37450.53,-45515.25,-7554.285,7927.469999999999
1764435362.98483,22806.945,8863.154999999999,53706.375,-7691.804999999999,-37447.92,-45511.695,-7562.969999999999,7927.695
1764435362.98483,22817.655,8865.404999999999,53706.96,-7688.88,-37441.845,-45503.955,-7572.78,7929.315
1764435362.98483,22821.165,8859.42,53700.03,-7693.29,-37443.285,-45503.19,-7593.84,7921.485
1764435362.9865804,22825.035,8860.095,53699.94,-7691.49,-37440.81,-45499.365,-7601.4,7920.36
1764435362.9865804,22826.07,8864.73,53705.16,-7687.304999999999,-37437.885,-45496.845,-7595.639999999999,7923.509999999999
1764435362.9865804,22825.305,8870.22,53712.405,-7681.86,-37434.915,-45495.72,-7581.105,7928.91
1764435362.9872448,22816.305,8868.824999999999,53712.585,-7684.74,-37440.0,-45501.345,-7568.19,7928.639999999999
1764435362.9872448,22806.45,8867.835,53713.485,-7686.134999999999,-37443.375,-45507.78,-7553.835,7929.36
1764435362.9872448,22802.085,8867.609999999999,53713.035,-7686.495,-37444.32,-45511.965,-7546.86,7930.62
1764435362.9872448,22803.255,8865.449999999999,53708.895,-7689.465,-37446.075,-45513.09,-7551.179999999999,7930.215
1764435362.9872448,22807.305,8862.21,53704.485,-7692.12,-37447.29,-45512.1,-7562.835,7927.875
1764435362.9872448,22811.175,8857.484999999999,53698.905,-7695.945,-37449.09,-45511.245,-7580.61,7922.16
1764435362.9872448,22819.455,8856.81,53696.7,-7695.179999999999,-37445.895,-45506.205,-7596.09,7920.134999999999
1764435362.9872448,22827.105,8861.445,53701.47,-7687.98,-37439.055,-45498.6,-7598.88,7922.88
1764435362.9872448,22824.99,8862.975,53703.585,-7686.945,-37438.515,-45498.195,-7595.415,7923.15
1764435362.9872448,22822.74,8867.744999999999,53709.57,-7682.49,-37437.12,-45497.07,-7581.599999999999,7927.695
1764435362.9872448,22814.055,8867.07,53710.83,-7683.66,-37440.765,-45502.65,-7569.405,7928.099999999999
1764435363.0306668,22803.66,8864.505,53709.75,-7687.98,-37447.2,-45510.615,-7556.804999999999,7927.514999999999
1764435363.0306668,22800.915,8864.91,53709.66,-7690.275,-37451.34,-45514.305,-7549.335,7929.855
1764435363.0306668,22797.945,8859.734999999999,53702.595,-7695.54,-37454.355,-45519.12,-7556.309999999999,7925.309999999999
1764435363.0306668,22803.21,8858.654999999999,53700.84,-7694.684999999999,-37449.27,-45515.07,-7566.57,7923.825
1764435363.0306668,22811.715,8859.24,53699.445,-7694.099999999999,-37447.47,-45509.49,-7578.315,7924.32
1764435363.0306668,22817.295,8856.27,53694.36,-7696.17,-37447.38,-45507.33,-7596.54,7919.91
1764435363.0306668,22825.17,8860.275,53699.535,-7690.184999999999,-37441.125,-45499.815,-7599.644999999999,7922.429999999999
1764435363.0306668,22824.54,8863.785,53703.585,-7687.259999999999,-37439.28,-45497.61,-7594.65,7923.644999999999
1764435363.0306668,22818.33,8864.775,53705.745,-7686.585,-37440.765,-45500.13,-7584.795,7924.365
1764435363.0306668,22806.855,8860.68,53704.395,-7690.815,-37447.695,-45507.555,-7574.67,7922.025
1764435363.0306668,22798.395,8860.455,53706.285,-7692.929999999999,-37452.015,-45514.44,-7560.179999999999,7923.285
1764435363.0306668,22794.84,8860.32,53705.385,-7694.37,-37454.13,-45518.445,-7553.429999999999,7924.455
1764435363.0306668,22796.19,8857.98,53702.145,-7696.755,-37454.445,-45518.895,-7557.48,7923.96
1764435363.0316818,22801.68,8857.395,53699.445,-7696.889999999999,-37452.375,-45515.655,-7567.29,7923.014999999999
1764435363.0316818,22812.48,8859.06,53698.68,-7694.82,-37447.47,-45508.725,-7578.945,7924.094999999999
1764435363.0316818,22817.7,8856.18,53693.28,-7696.799999999999,-37447.29,-45506.205,-7596.809999999999,7919.505
1764435363.0316818,22821.03,8856.18,53694.18,-7695.674999999999,-37445.265,-45503.505,-7603.74,7918.065
1764435363.0316818,22820.355,8858.835,53698.32,-7692.21,-37442.655,-45501.165,-7598.295,7919.19
1764435363.0316818,22818.645,8864.279999999999,53705.565,-7686.945,-37440.585,-45499.995,-7583.94,7924.634999999999
1764435363.0316818,22810.32,8863.83,53706.735,-7688.7,-37444.545,-45505.35,-7570.304999999999,7925.445
1764435363.0316818,22798.935,8860.859999999999,53705.205,-7693.469999999999,-37451.07,-45514.215,-7558.605,7924.769999999999
1764435363.0316818,22794.21,8859.33,53702.91,-7696.215,-37453.05,-45519.615,-7553.384999999999,7924.724999999999
1764435363.0316818,22798.035,8859.555,53702.955,-7695.09,-37451.565,-45519.39,-7556.13,7925.67
1764435363.0316818,22800.87,8855.145,53698.32,-7698.509999999999,-37451.88,-45517.995,-7568.639999999999,7922.655
1764435363.0765972,22811.265,8856.585,53696.97,-7696.934999999999,-37448.01,-45511.695,-7580.07,7922.969999999999
1764435363.0765972,22816.305,8853.435,53692.65,-7698.195,-37446.975,-45508.635,-7597.844999999999,7918.424999999999
1764435363.0765972,22820.715,8856.045,53695.575,-7695.269999999999,-37442.835,-45503.145,-7602.299999999999,7919.009999999999
1764435363.0765972,22817.655,8856.045,53696.745,-7694.415,-37443.735,-45503.28,-7599.42,7918.155
1764435363.0765972,22815.36,8860.41,53702.505,-7690.365,-37441.8,-45502.965,-7586.235,7922.429999999999
1764435363.0765972,22805.1,8859.375,53702.865,-7692.84,-37446.615,-45510.57,-7574.445,7921.485
1764435363.0765972,22798.755,8861.22,53706.15,-7692.255,-37448.37,-45514.53,-7557.434999999999,7925.309999999999
1764435363.0765972,22791.645,8855.955,53701.83,-7697.519999999999,-37454.58,-45521.685,-7554.69,7921.62
1764435363.0765972,22794.75,8856.359999999999,53700.57,-7698.554999999999,-37453.365,-45521.325,-7557.57,7922.7
1764435363.0765972,22799.925,8854.38,53696.475,-7699.86,-37451.79,-45518.895,-7568.594999999999,7921.08
1764435363.0765972,22806.585,8852.715,53692.65,-7700.625,-37450.395,-45514.395,-7583.58,7918.38
1764435363.0765972,22814.91,8852.625,53691.705,-7698.915,-37447.155,-45508.68,-7598.205,7916.985
1764435363.0765972,22817.655,8853.525,53692.92,-7696.98,-37445.265,-45506.97,-7604.28,7915.905
1764435363.0765972,22815.63,8854.289999999999,53694.675,-7696.62,-37447.515,-45507.69,-7600.094999999999,7916.67
1764435363.0765972,22815.18,8860.455,53703.36,-7689.42,-37440.81,-45503.55,-7584.57,7922.969999999999
1764435363.0776136,22807.53,8861.49,53705.925,-7689.15,-37442.07,-45506.88,-7570.44,7924.049999999999
1764435363.0776136,22799.295,8861.175,53706.735,-7691.219999999999,-37447.695,-45513.045,-7554.825,7926.57
1764435363.0776136,22795.2,8859.33,53705.07,-7694.549999999999,-37451.475,-45517.995,-7550.37,7926.525
1764435363.0776136,22795.38,8856.404999999999,53700.3,-7699.634999999999,-37453.32,-45520.38,-7557.299999999999,7923.42
1764435363.0776136,22797.585,8852.445,53693.37,-7703.91,-37454.805,-45520.92,-7571.25,7918.92
1764435363.0776136,22806.945,8852.76,53692.065,-7702.019999999999,-37451.43,-45514.8,-7584.255,7919.594999999999
1764435363.0776136,22814.235,8851.725,53690.13,-7701.57,-37448.865,-45510.66,-7599.735,7916.535
1764435363.078636,22814.775,8850.555,53689.005,-7701.974999999999,-37448.415,-45509.22,-7606.844999999999,7912.934999999999
1764435363.078636,22814.505,8852.984999999999,53693.235,-7698.195,-37445.22,-45506.79,-7600.679999999999,7915.41
1764435363.1221275,22813.245,8857.845,53699.94,-7693.605,-37443.15,-45505.71,-7586.19,7920.945
1764435363.122641,22804.92,8857.529999999999,53700.975,-7694.099999999999,-37447.245,-45510.93,-7572.915,7921.035
1764435363.122641,22793.58,8854.785,53698.635,-7699.455,-37454.13,-45520.29,-7561.755,7918.875
1764435363.122641,22790.475,8854.47,53697.645,-7701.57,-37455.84,-45523.395,-7555.365,7920.224999999999
1764435363.122641,22792.5,8852.13,53694.09,-7705.44,-37458.27,-45524.07,-7559.955,7919.37
1764435363.122641,22799.61,8852.49,53693.46,-7703.684999999999,-37455.03,-45520.335,-7569.719999999999,7919.505
1764435363.122641,22808.835,8853.795,53694.27,-7700.264999999999,-37449.45,-45513.225,-7581.465,7920.134999999999
1764435363.122641,22813.965,8850.06,53688.96,-7702.965,-37449.405,-45510.39,-7598.745,7914.69
1764435363.122641,22818.105,8851.859999999999,53691.03,-7699.275,-37446.525,-45506.025,-7603.335,7914.915
1764435363.122641,22821.57,8858.205,53699.13,-7691.804999999999,-37440.945,-45500.58,-7593.12,7920.855
1764435363.122641,22815.045,8858.52,53701.56,-7691.355,-37442.88,-45503.685,-7582.545,7921.394999999999
1764435363.122641,22803.255,8854.335,53699.85,-7695.9,-37449.72,-45513.045,-7572.285,7919.19
1764435363.122641,22796.235,8855.234999999999,53701.56,-7697.025,-37452.69,-45518.895,-7556.804999999999,7921.62
1764435363.122641,22795.785,8857.845,53702.865,-7695.719999999999,-37451.745,-45518.625,-7548.03,7925.894999999999
1764435363.122641,22797.18,8855.46,53699.085,-7698.014999999999,-37452.69,-45520.335,-7554.599999999999,7924.679999999999
1764435363.122641,22799.745,8850.33,53692.875,-7702.245,-37455.795,-45522.945,-7569.674999999999,7919.594999999999
1764435363.122641,22807.53,8849.025,53690.58,-7701.974999999999,-37452.465,-45517.14,-7583.445,7918.019999999999
1764435363.122641,22812.795,8846.91,53686.98,-7703.28,-37451.43,-45512.73,-7600.005,7913.835
1764435363.123652,22818.51,8850.6,53691.21,-7698.735,-37447.02,-45507.69,-7602.57,7915.815
1764435363.123652,22814.595,8849.654999999999,53692.29,-7698.825,-37447.83,-45509.13,-7599.735,7914.96
1764435363.123652,22813.11,8855.46,53698.41,-7693.965,-37445.715,-45507.78,-7585.605,7920.269999999999
1764435363.123652,22806.27,8857.17,53702.055,-7692.66,-37448.055,-45511.65,-7570.215,7922.61
1764435363.1714706,22798.98,8857.529999999999,53703.27,-7693.245,-37450.575,-45516.645,-7555.365,7924.905
1764435363.1714706,22794.435,8856.0,53699.85,-7696.304999999999,-37453.995,-45521.64,-7551.855,7924.32
1764435363.1714706,22794.435,8851.455,53694.09,-7701.84,-37459.305,-45525.42,-7559.144999999999,7921.44
1764435363.1714706,22803.21,8853.48,53694.18,-7699.365,-37453.635,-45518.67,-7567.155,7923.42
1764435363.1714706,22811.13,8852.895,53692.695,-7696.844999999999,-37446.39,-45512.73,-7581.24,7921.44
1764435363.172983,22818.735,8852.4,53690.67,-7696.98,-37445.49,-45508.545,-7595.82,7919.235
1764435363.172983,22820.85,8852.31,53691.57,-7694.91,-37444.005,-45505.665,-7600.23,7919.009999999999
1764435363.172983,22816.665,8852.085,53692.92,-7694.82,-37445.67,-45506.88,-7595.91,7917.974999999999
1764435363.172983,22814.505,8856.81,53698.68,-7690.005,-37441.98,-45504.765,-7581.33,7922.61
1764435363.172983,22803.66,8853.975,53698.32,-7694.37,-37448.415,-45513.855,-7569.224999999999,7920.855
1764435363.172983,22797.36,8855.145,53701.11,-7694.865,-37451.655,-45518.76,-7553.655,7924.049999999999
1764435363.172983,22792.86,8853.345,53698.14,-7698.42,-37455.885,-45523.53,-7550.594999999999,7923.465
1764435363.172983,22798.08,8854.47,53697.69,-7697.61,-37454.355,-45521.145,-7553.295,7925.759999999999
1764435363.172983,22800.51,8849.385,53691.255,-7701.48,-37455.795,-45521.64,-7567.785,7921.349999999999
1764435363.172983,22809.96,8850.195,53690.265,-7699.59,-37450.665,-45515.565,-7580.474999999999,7921.17
1764435363.172983,22819.995,8851.859999999999,53689.86,-7697.429999999999,-37445.4,-45508.455,-7593.525,7920.585
1764435363.1739943,22822.515,8853.57,53691.21,-7695.495,-37442.88,-45505.215,-7597.62,7920.045
1764435363.1739943,22818.555,8853.885,53693.685,-7694.415,-37444.32,-45506.115,-7593.12,7919.549999999999
1764435363.1739943,22816.62,8858.609999999999,53700.255,-7689.33,-37442.16,-45504.765,-7578.63,7924.995
1764435363.1739943,22807.62,8858.07,53701.875,-7689.78,-37445.445,-45509.895,-7565.264999999999,7925.894999999999
1764435363.1739943,22796.325,8854.65,53698.905,-7695.09,-37452.87,-45519.075,-7554.915,7924.005
1764435363.174997,22792.365,8852.31,53695.575,-7698.96,-37455.84,-45523.845,-7551.54,7922.88
1764435363.2175171,22794.03,8850.869999999999,53691.975,-7700.804999999999,-37456.155,-45524.25,-7556.894999999999,7922.115
1764435363.2175171,22801.05,8850.6,53690.76,-7700.625,-37453.14,-45519.345,-7566.48,7922.474999999999
1764435363.2175171,22805.55,8845.154999999999,53685.495,-7704.179999999999,-37454.355,-45518.13,-7584.929999999999,7916.309999999999
1764435363.2175171,22814.91,8846.414999999999,53685.54,-7701.974999999999,-37450.485,-45511.335,-7597.98,7915.815
1764435363.2175171,22821.795,8851.545,53691.03,-7696.665,-37445.13,-45504.9,-7598.205,7919.684999999999
1764435363.2175171,22819.545,8852.355,53693.19,-7694.82,-37444.725,-45505.485,-7592.309999999999,7920.0
1764435363.2175171,22817.43,8857.17,53699.175,-7690.275,-37442.205,-45504.135,-7577.37,7924.769999999999
1764435363.2175171,22808.88,8857.484999999999,53700.66,-7691.219999999999,-37445.49,-45509.625,-7563.644999999999,7925.715
1764435363.2175171,22799.835,8855.91,53700.255,-7694.28,-37449.765,-45516.645,-7551.269999999999,7925.625
1764435363.2175171,22790.655,8848.44,53692.785,-7702.83,-37458.225,-45525.69,-7553.115,7920.63
1764435363.2175171,22792.815,8846.46,53688.825,-7705.575,-37459.035,-45526.05,-7559.19,7920.045
1764435363.2175171,22801.14,8848.035,53689.365,-7702.83,-37455.3,-45521.37,-7569.045,7921.259999999999
1764435363.2175171,22805.955,8843.355,53683.785,-7706.429999999999,-37456.38,-45520.38,-7587.315,7915.679999999999
1764435363.2175171,22816.8,8846.505,53685.9,-7701.75,-37449.765,-45511.29,-7597.98,7916.355
1764435363.2175171,22818.6,8846.91,53687.115,-7699.679999999999,-37447.47,-45507.825,-7601.894999999999,7916.445
1764435363.2175171,22812.795,8846.369999999999,53687.205,-7700.264999999999,-37449.72,-45510.615,-7598.969999999999,7914.554999999999
1764435363.2185154,22808.07,8848.44,53690.895,-7699.184999999999,-37452.06,-45512.82,-7586.054999999999,7916.49
1764435363.2185154,22798.17,8846.46,53690.355,-7702.83,-37457.19,-45519.48,-7573.679999999999,7915.41
1764435363.2185154,22791.87,8849.88,53694.72,-7699.139999999999,-37453.32,-45521.01,-7557.12,7919.594999999999
1764435363.2185154,22787.46,8846.73,53690.715,-7704.405,-37459.575,-45526.23,-7555.679999999999,7917.705
1764435363.2185154,22787.37,8842.185,53684.955,-7709.4,-37463.13,-45528.84,-7564.59,7914.014999999999
1764435363.2185154,22793.13,8840.385,53681.985,-7710.299999999999,-37461.87,-45526.32,-7576.019999999999,7912.71
1764435363.2185154,22801.095,8840.205,53679.69,-7709.49,-37458.405,-45520.965,-7589.835,7911.0
1764435363.2185154,22810.905,8842.32,53680.68,-7705.755,-37452.78,-45512.775,-7601.13,7911.719999999999
1764435363.261619,22814.01,8843.22,53682.21,-7703.325,-37450.575,-45510.03,-7604.73,7911.0
1764435363.261619,22812.57,8845.83,53686.08,-7700.264999999999,-37448.775,-45508.905,-7597.98,7913.115
1764435363.261619,22806.855,8847.18,53689.095,-7698.78,-37450.08,-45511.335,-7585.74,7914.285
1764435363.261619,22795.38,8844.119999999999,53688.195,-7702.245,-37456.83,-45519.615,-7575.03,7912.71
1764435363.261619,22790.07,8846.145,53690.985,-7702.29,-37458.495,-45523.665,-7559.415,7916.445
1764435363.261619,22789.35,8847.315,53692.065,-7702.29,-37457.775,-45523.935,-7553.205,7919.009999999999
1764435363.261619,22788.63,8842.185,53685.945,-7706.969999999999,-37462.005,-45527.625,-7563.014999999999,7915.32
1764435363.261619,22794.84,8841.105,53682.795,-7707.554999999999,-37459.44,-45523.89,-7574.13,7915.32
1764435363.261619,22802.58,8840.385,53679.87,-7707.69,-37456.38,-45517.905,-7588.98,7913.205
1764435363.261619,22810.185,8840.385,53678.43,-7706.429999999999,-37453.23,-45513.315,-7602.84,7910.37
1764435363.261619,22809.96,8838.81,53677.53,-7707.014999999999,-37453.59,-45513.585,-7608.644999999999,7907.535
1764435363.261619,22810.41,8844.119999999999,53684.01,-7702.38,-37450.395,-45510.795,-7598.924999999999,7912.035
1764435363.261619,22803.435,8844.525,53686.485,-7702.469999999999,-37453.05,-45514.44,-7588.08,7912.665
1764435363.2626293,22791.51,8841.645,53684.775,-7705.665,-37460.34,-45522.495,-7577.144999999999,7910.235
1764435363.2626293,22783.995,8841.735,53685.81,-7707.33,-37463.805,-45528.165,-7564.455,7911.54
1764435363.2626293,22782.105,8841.195,53684.955,-7708.634999999999,-37464.615,-45530.19,-7560.764999999999,7912.485
1764435363.2626293,22787.19,8841.51,53684.28,-7708.094999999999,-37462.365,-45527.715,-7564.59,7913.924999999999
