Timestamp,Channel1,Channel2,Channel3,Channel4,Channel5,Channel6,Channel7,Channel8
1764434190.8480968,-1177.155,-11384.01,-40018.365,-27818.46,-24558.39,-21708.9,-12635.955,-8431.244999999999
1764434190.8480968,-1179.315,-11386.485,-40018.95,-27820.395,-24560.1,-21712.635,-12635.145,-8431.515
1764434190.8480968,-1181.655,-11387.34,-40017.69,-27822.24,-24561.495,-21718.62,-12631.995,-8428.365
1764434190.8480968,-1184.13,-11387.475,-40015.53,-27823.68,-24562.17,-21725.37,-12627.63,-8423.55
1764434190.8480968,-1185.435,-11386.485,-40012.02,-27824.76,-24563.25,-21732.66,-12622.365,-8417.475
1764434190.8480968,-1182.96,-11383.11,-40009.005,-27823.23,-24562.44,-21733.56,-12617.82,-8413.02
1764434190.8480968,-1185.03,-11385.045,-40012.335,-27826.11,-24564.69,-21734.865,-12621.87,-8417.744999999999
1764434190.8480968,-1181.655,-11382.93,-40012.245,-27823.05,-24561.18,-21727.665,-12624.255,-8419.095
1764434190.8480968,-1184.895,-11387.97,-40018.905,-27826.065,-24564.645,-21725.37,-12632.805,-8428.14
1764434190.8480968,-1179.09,-11385.81,-40018.59,-27821.295,-24560.46,-21715.47,-12635.415,-8430.119999999999
1764434190.8480968,-1175.94,-11383.02,-40016.205,-27817.83,-24557.22,-21709.215,-12635.415,-8429.895
1764434190.8480968,-1176.705,-11383.38,-40016.205,-27818.28,-24556.77,-21711.375,-12633.93,-8429.49
1764434190.8480968,-1180.89,-11386.44,-40017.465,-27822.645,-24560.505,-21719.925,-12632.94,-8429.22
1764434190.8495948,-1179.99,-11383.695,-40012.38,-27822.015,-24559.02,-21724.785,-12626.415,-8421.48
1764434190.8495948,-1183.5449999999998,-11383.74,-40010.04,-27824.85,-24560.775,-21733.245,-12622.32,-8417.295
1764434190.8495948,-1186.83,-11384.865,-40010.76,-27828.045,-24563.61,-21739.635,-12621.42,-8417.52
1764434190.8495948,-1189.845,-11387.565,-40015.98,-27831.015,-24566.805,-21740.76,-12625.02,-8422.695
1764434190.8495948,-1183.23,-11383.65,-40013.865,-27826.155,-24562.53,-21730.59,-12625.02,-8422.289999999999
1764434190.8495948,-1183.5,-11386.575,-40018.05,-27827.28,-24563.88,-21725.64,-12631.32,-8428.994999999999
1764434190.8495948,-1178.82,-11384.82,-40017.87,-27823.59,-24560.01,-21715.965,-12634.92,-8431.065
1764434190.8495948,-1180.44,-11388.465,-40021.38,-27825.3,-24562.485,-21715.83,-12639.78,-8436.195
1764434190.8930943,-1180.845,-11388.285,-40019.535,-27825.03,-24562.17,-21717.27,-12638.205,-8433.494999999999
1764434190.8930943,-1182.4199999999998,-11388.375,-40018.05,-27825.885,-24562.62,-21723.12,-12634.02,-8429.49
1764434190.8930943,-1183.005,-11386.8,-40014.765,-27825.48,-24562.755,-21728.745,-12628.395,-8423.414999999999
1764434190.8930943,-1185.345,-11386.215,-40012.2,-27826.605,-24564.105,-21735.72,-12624.84,-8418.465
1764434190.8930943,-1189.71,-11388.15,-40014.405,-27830.925,-24567.93,-21742.425,-12624.57,-8419.545
1764434190.8930943,-1189.26,-11387.925,-40014.945,-27830.43,-24567.21,-21740.445,-12625.83,-8421.164999999999
1764434190.8930943,-1185.39,-11386.305,-40014.945,-27827.415,-24564.24,-21733.335,-12628.485,-8422.965
1764434190.8930943,-1189.215,-11391.84,-40023.54,-27831.69,-24569.37,-21732.885,-12638.07,-8433.135
1764434190.8930943,-1185.21,-11390.715,-40024.89,-27828.945,-24566.49,-21723.795,-12641.49,-8436.779999999999
1764434190.8930943,-1183.905,-11390.22,-40024.845,-27827.145,-24565.365,-21719.565,-12643.695,-8438.94
1764434190.8941092,-1182.015,-11387.655,-40020.75,-27824.22,-24562.62,-21718.125,-12640.545,-8434.71
1764434190.8941092,-1184.6699999999998,-11388.555,-40019.94,-27827.19,-24564.87,-21725.1,-12637.44,-8432.685
1764434190.8941092,-1186.425,-11387.97,-40017.195,-27827.865,-24565.545,-21731.535,-12632.175,-8427.33
1764434190.8941092,-1190.52,-11390.445,-40016.43,-27830.88,-24568.515,-21741.3,-12627.945,-8423.414999999999
1764434190.8941092,-1189.665,-11387.115,-40012.605,-27829.845,-24566.49,-21741.48,-12623.625,-8418.645
1764434190.8941092,-1190.565,-11387.88,-40014.405,-27830.97,-24567.615,-21740.085,-12625.56,-8421.345
1764434190.8952646,-1186.965,-11385.495,-40014.765,-27827.73,-24565.23,-21731.985,-12627.765,-8422.965
1764434190.8952646,-1187.595,-11388.465,-40020.345,-27828.99,-24567.39,-21728.07,-12634.065,-8431.425
1764434190.8952646,-1183.5449999999998,-11386.89,-40020.93,-27825.84,-24564.87,-21718.53,-12637.215,-8434.89
1764434190.8962612,-1181.115,-11386.935,-40020.705,-27823.095,-24561.585,-21713.625,-12639.24,-8435.789999999999
1764434190.8962612,-1176.615,-11381.94,-40015.485,-27818.325,-24556.5,-21710.745,-12634.155,-8429.22
1764434190.8962612,-1178.64,-11383.02,-40013.865,-27820.17,-24557.58,-21716.775,-12630.69,-8425.8
1764434190.8962612,-1181.475,-11384.28,-40012.47,-27822.6,-24559.965,-21725.46,-12627.495,-8422.695
1764434190.8962612,-1188.36,-11387.97,-40014.315,-27828.09,-24564.915,-21736.98,-12626.28,-8422.605
1764434190.941643,-1192.77,-11391.075,-40016.925,-27832.86,-24568.875,-21743.19,-12627.27,-8424.18
1764434190.941643,-1188.81,-11387.97,-40015.08,-27829.755,-24567.03,-21738.285,-12625.965,-8422.74
1764434190.941643,-1184.355,-11385.765,-40014.765,-27825.885,-24563.205,-21730.77,-12627.45,-8423.73
1764434190.941643,-1184.58,-11388.33,-40020.21,-27826.56,-24565.005,-21725.64,-12634.425,-8431.515
1764434190.941643,-1181.385,-11387.16,-40021.965,-27823.77,-24563.115,-21716.235,-12638.115,-8436.015
1764434190.942646,-1182.375,-11389.77,-40024.98,-27824.94,-24563.43,-21714.57,-12641.355,-8439.3
1764434190.942646,-1181.97,-11388.33,-40022.505,-27823.365,-24561.63,-21715.74,-12639.51,-8436.105
1764434190.942646,-1182.465,-11387.205,-40018.455,-27822.69,-24560.865,-21719.79,-12635.73,-8430.84
1764434190.942646,-1185.975,-11388.69,-40017.87,-27825.48,-24564.24,-21727.62,-12631.68,-8428.005
1764434190.942646,-1186.65,-11387.61,-40014.405,-27825.885,-24564.105,-21733.965,-12626.37,-8421.57
1764434190.942646,-1188.63,-11387.565,-40014.72,-27827.73,-24565.635,-21738.33,-12625.245,-8420.039999999999
1764434190.942646,-1184.49,-11383.965,-40012.29,-27824.805,-24561.945,-21733.02,-12623.895,-8418.645
1764434190.942646,-1182.915,-11384.64,-40014.72,-27824.58,-24561.495,-21727.8,-12627.315,-8422.289999999999
1764434190.942646,-1183.365,-11388.465,-40019.4,-27825.93,-24563.475,-21723.48,-12634.065,-8429.94
1764434190.942646,-1178.505,-11386.485,-40019.49,-27821.745,-24560.145,-21713.13,-12636.99,-8432.46
1764434190.942646,-1176.885,-11385.585,-40018.725,-27819.315,-24557.895,-21709.17,-12638.295,-8433.135
1764434190.942646,-1177.155,-11385.0,-40016.475,-27817.695,-24556.77,-21711.15,-12635.325,-8430.48
1764434190.942646,-1181.34,-11388.105,-40017.555,-27821.745,-24560.685,-21719.745,-12634.425,-8429.715
1764434190.942646,-1181.115,-11385.765,-40012.83,-27821.07,-24559.38,-21724.425,-12628.08,-8422.425
1764434190.942646,-1187.46,-11389.545,-40014.45,-27827.145,-24564.825,-21736.305,-12625.83,-8421.525
1764434190.942646,-1188.765,-11389.14,-40014.225,-27827.55,-24565.41,-21739.725,-12624.21,-8420.13
1764434190.942646,-1186.875,-11387.88,-40014.045,-27825.885,-24564.24,-21735.945,-12625.11,-8420.895
1764434190.9853215,-1183.23,-11385.72,-40013.595,-27823.275,-24561.54,-21728.07,-12627.315,-8422.289999999999
1764434190.9853215,-1184.445,-11389.14,-40018.41,-27824.985,-24564.195,-21724.38,-12633.885,-8429.805
1764434190.9853215,-1177.245,-11385.09,-40016.16,-27818.55,-24557.805,-21712.095,-12634.245,-8429.76
1764434190.9853215,-1178.37,-11386.305,-40019.085,-27819.0,-24557.67,-21710.43,-12637.08,-8432.775
1764434190.9853215,-1176.39,-11384.1,-40015.89,-27817.47,-24555.6,-21710.295,-12634.02,-8428.59
1764434190.9853215,-1181.2949999999998,-11388.285,-40016.925,-27822.105,-24559.92,-21718.305,-12632.94,-8428.275
1764434190.9853215,-1181.88,-11386.53,-40012.515,-27821.61,-24559.74,-21723.48,-12627.225,-8421.84
1764434190.9863317,-1189.215,-11390.49,-40014.09,-27827.28,-24564.96,-21735.0,-12625.695,-8421.57
1764434190.9863317,-1188.63,-11388.375,-40011.93,-27826.695,-24564.015,-21736.53,-12622.365,-8418.195
1764434190.9863317,-1187.64,-11387.745,-40012.965,-27826.065,-24564.015,-21733.695,-12623.715,-8420.13
1764434190.9863317,-1187.1,-11388.465,-40015.98,-27825.795,-24563.925,-21729.465,-12628.44,-8424.765
1764434190.9863317,-1187.82,-11392.245,-40021.875,-27827.64,-24566.265,-21725.37,-12636.09,-8432.865
1764434190.9863317,-1187.505,-11394.675,-40026.195,-27827.055,-24566.265,-21719.79,-12642.57,-8439.164999999999
1764434190.9863317,-1186.02,-11393.82,-40025.475,-27824.715,-24564.78,-21716.28,-12643.38,-8440.199999999999
1764434190.9863317,-1184.58,-11391.435,-40021.83,-27822.375,-24562.71,-21716.235,-12639.42,-8435.654999999999
1764434190.9863317,-1184.805,-11389.95,-40018.23,-27821.655,-24561.63,-21720.33,-12635.145,-8429.22
1764434190.9863317,-1189.395,-11392.74,-40018.905,-27826.155,-24565.86,-21729.915,-12632.805,-8427.42
1764434190.9863317,-1190.205,-11389.995,-40014.945,-27826.515,-24565.455,-21735.63,-12626.595,-8421.074999999999
1764434190.9863317,-1190.565,-11389.32,-40014.18,-27827.82,-24566.355,-21738.735,-12624.93,-8419.815
1764434190.9863317,-1190.52,-11389.995,-40016.115,-27828.63,-24567.57,-21738.15,-12626.685,-8423.369999999999
1764434190.9863317,-1185.57,-11385.9,-40014.36,-27824.31,-24562.53,-21729.555,-12627.09,-8423.369999999999
1764434190.9863317,-1184.22,-11387.655,-40017.735,-27824.715,-24562.08,-21723.3,-12633.21,-8429.31
1764434190.9863317,-1180.755,-11387.52,-40019.85,-27822.42,-24560.055,-21714.255,-12636.855,-8433.494999999999
1764434190.9863317,-1178.82,-11386.845,-40019.22,-27819.585,-24558.57,-21709.665,-12637.35,-8433.99
1764434191.033942,-1180.215,-11387.925,-40018.545,-27820.395,-24559.38,-21713.13,-12635.505,-8432.955
1764434191.033942,-1180.44,-11386.395,-40014.945,-27819.63,-24558.165,-21716.73,-12630.825,-8426.744999999999
1764434191.033942,-1184.805,-11388.69,-40015.98,-27823.32,-24561.765,-21726.63,-12627.945,-8424.63
1764434191.033942,-1186.965,-11389.05,-40013.91,-27825.57,-24563.745,-21735.0,-12623.4,-8420.49
1764434191.033942,-1186.425,-11384.955,-40010.04,-27823.68,-24562.035,-21734.955,-12620.295,-8416.574999999999
1764434191.0349424,-1186.605,-11385.225,-40012.155,-27824.535,-24562.89,-21733.02,-12621.915,-8418.914999999999
1764434191.0349424,-1186.9199999999998,-11388.105,-40016.97,-27826.02,-24564.33,-21730.185,-12627.27,-8424.81
1764434191.0349424,-1189.215,-11392.83,-40023.72,-27829.125,-24568.515,-21727.305,-12636.81,-8434.17
1764434191.0349424,-1181.925,-11388.42,-40021.425,-27822.555,-24561.81,-21715.2,-12638.79,-8434.17
1764434191.0349424,-1180.665,-11389.05,-40021.65,-27820.665,-24560.37,-21712.455,-12639.78,-8435.385
1764434191.0349424,-1181.7,-11389.815,-40020.345,-27821.61,-24561.18,-21715.11,-12638.115,-8434.619999999999
1764434191.0349424,-1185.3,-11391.435,-40019.805,-27824.535,-24564.645,-21722.445,-12635.955,-8432.324999999999
1764434191.0349424,-1184.04,-11388.33,-40014.54,-27822.645,-24563.115,-21726.855,-12628.845,-8424.09
1764434191.0349424,-1190.43,-11392.065,-40015.665,-27828.72,-24567.975,-21738.33,-12627.63,-8422.92
1764434191.0349424,-1189.395,-11389.14,-40012.425,-27827.01,-24565.95,-21738.69,-12623.715,-8419.095
1764434191.0349424,-1187.91,-11387.295,-40012.155,-27825.615,-24564.78,-21734.82,-12623.625,-8419.994999999999
1764434191.0349424,-1188.405,-11389.365,-40016.52,-27826.29,-24566.265,-21730.5,-12629.43,-8426.43
1764434191.0349424,-1190.79,-11394.045,-40023.135,-27828.495,-24569.505,-21727.845,-12638.25,-8435.565
1764434191.0349424,-1184.805,-11390.22,-40022.37,-27823.545,-24565.005,-21716.73,-12639.96,-8436.735
1764434191.0349424,-1186.515,-11392.47,-40024.98,-27824.94,-24566.13,-21715.92,-12643.065,-8440.244999999999
1764434191.0349424,-1186.11,-11391.75,-40022.19,-27823.095,-24564.78,-21717.405,-12639.87,-8437.365
1764434191.0349424,-1186.605,-11391.21,-40018.23,-27822.915,-24564.15,-21721.68,-12634.92,-8431.515
1764434191.081839,-1187.145,-11388.735,-40014.045,-27823.23,-24563.43,-21727.17,-12629.115,-8425.44
1764434191.081839,-1189.71,-11388.87,-40011.48,-27825.795,-24564.825,-21735.0,-12624.48,-8421.39
1764434191.081839,-1187.235,-11385.315,-40007.655,-27824.49,-24563.115,-21735.045,-12620.79,-8417.654999999999
1764434191.081839,-1185.12,-11383.335,-40008.42,-27823.23,-24561.945,-21731.13,-12621.78,-8417.88
1764434191.081839,-1183.815,-11383.92,-40011.255,-27823.185,-24561.54,-21726.99,-12625.785,-8422.199999999999
1764434191.081839,-1183.68,-11387.025,-40016.295,-27824.085,-24562.89,-21721.635,-12632.715,-8429.67
1764434191.081839,-1179.99,-11385.945,-40017.735,-27820.44,-24560.82,-21713.085,-12635.82,-8432.64
1764434191.081839,-1178.1,-11385.18,-40016.745,-27818.955,-24558.57,-21709.485,-12636.495,-8433.045
1764434191.081839,-1177.965,-11384.775,-40014.135,-27818.955,-24558.03,-21710.925,-12633.48,-8429.67
1764434191.081839,-1183.185,-11388.375,-40015.26,-27823.005,-24562.17,-21719.61,-12632.985,-8428.68
1764434191.081839,-1183.5449999999998,-11385.54,-40010.58,-27822.015,-24561.36,-21724.155,-12626.415,-8421.93
1764434191.081839,-1187.415,-11387.25,-40010.22,-27825.57,-24564.105,-21733.38,-12624.21,-8419.14
1764434191.0834112,-1186.29,-11385.63,-40009.095,-27825.255,-24563.475,-21735.225,-12621.645,-8417.115
1764434191.0834112,-1184.355,-11384.325,-40009.905,-27823.635,-24562.755,-21732.03,-12622.185,-8418.42
1764434191.0834112,-1182.195,-11383.695,-40011.12,-27822.42,-24560.595,-21725.955,-12625.38,-8421.84
1764434191.0834112,-1183.5449999999998,-11386.305,-40016.655,-27823.725,-24562.305,-21721.05,-12632.94,-8429.4
1764434191.0834112,-1180.35,-11385.72,-40018.14,-27820.89,-24559.92,-21713.13,-12636.54,-8434.17
1764434191.0834112,-1178.505,-11385.405,-40017.6,-27819.18,-24558.345,-21710.16,-12637.62,-8434.44
1764434191.0834112,-1179.27,-11385.495,-40016.34,-27819.405,-24559.425,-21712.41,-12634.965,-8431.74
1764434191.0834112,-1182.69,-11386.44,-40015.395,-27821.79,-24561.63,-21719.61,-12632.58,-8429.58
1764434191.0834112,-1183.725,-11385.765,-40011.66,-27822.69,-24562.305,-21726.405,-12628.17,-8424.315
1764434191.0834112,-1188.765,-11388.285,-40011.795,-27827.01,-24565.59,-21735.945,-12625.785,-8421.84
1764434191.0834112,-1192.5,-11390.94,-40015.08,-27830.745,-24568.92,-21741.21,-12625.965,-8423.46
1764434191.0834112,-1189.53,-11388.42,-40014.315,-27828.63,-24566.49,-21736.665,-12626.595,-8422.965
1764434191.1248035,-1187.91,-11388.15,-40015.89,-27827.145,-24565.41,-21730.995,-12630.015,-8426.925
1764434191.1248035,-1189.755,-11393.505,-40023.135,-27830.295,-24568.47,-21728.565,-12638.25,-8436.779999999999
1764434191.1248035,-1184.895,-11391.66,-40023.63,-27826.155,-24565.68,-21718.53,-12641.175,-8438.58
1764434191.1263208,-1181.655,-11389.815,-40021.155,-27822.33,-24562.125,-21713.04,-12640.815,-8436.69
1764434191.1263208,-1181.34,-11389.455,-40019.04,-27821.79,-24561.765,-21714.48,-12637.53,-8433.63
1764434191.1263208,-1183.455,-11389.545,-40017.87,-27822.915,-24563.97,-21720.6,-12633.84,-8430.029999999999
1764434191.1263208,-1186.065,-11389.455,-40015.17,-27824.265,-24564.465,-21728.115,-12629.565,-8425.529999999999
1764434191.1263208,-1189.035,-11390.04,-40013.865,-27827.19,-24567.21,-21736.8,-12626.775,-8421.93
1764434191.1263208,-1189.665,-11390.625,-40013.595,-27828.945,-24568.47,-21739.86,-12625.605,-8421.615
1764434191.1263208,-1186.965,-11389.725,-40013.37,-27827.55,-24567.39,-21736.17,-12626.82,-8422.335
1764434191.1263208,-1185.345,-11389.635,-40016.43,-27827.64,-24567.345,-21731.715,-12630.78,-8428.095
1764434191.1263208,-1188.855,-11394.99,-40023.18,-27831.195,-24570.675,-21729.465,-12639.465,-8437.455
1764434191.1263208,-1184.715,-11393.91,-40023.72,-27828.27,-24567.93,-21720.105,-12642.345,-8440.335
1764434191.1283605,-1182.78,-11392.92,-40023.54,-27826.515,-24566.445,-21716.64,-12642.93,-8439.705
1764434191.1283605,-1181.115,-11390.67,-40019.67,-27823.59,-24564.375,-21717.63,-12638.25,-8435.43
1764434191.1283605,-1182.735,-11389.995,-40017.015,-27824.58,-24564.24,-21722.895,-12634.425,-8432.324999999999
1764434191.1283605,-1185.165,-11388.915,-40014.09,-27825.345,-24564.105,-21729.105,-12629.475,-8426.565
1764434191.1283605,-1192.185,-11393.28,-40016.205,-27831.645,-24569.28,-21740.22,-12628.665,-8425.529999999999
1764434191.1283605,-1192.815,-11393.1,-40015.71,-27832.86,-24570.36,-21742.65,-12627.72,-8424.675
1764434191.1283605,-1187.955,-11388.555,-40013.505,-27828.585,-24566.31,-21736.26,-12626.865,-8422.47
1764434191.1283605,-1184.715,-11387.115,-40015.125,-27825.84,-24563.835,-21730.14,-12629.07,-8425.44
1764434191.1283605,-1184.31,-11389.77,-40019.445,-27826.38,-24565.185,-21725.82,-12636.09,-8432.55
1764434191.1767554,-1181.115,-11389.32,-40019.715,-27823.545,-24563.205,-21716.145,-12639.24,-8435.52
1764434191.1767554,-1180.89,-11389.77,-40019.58,-27822.555,-24563.16,-21713.895,-12640.905,-8436.869999999999
1764434191.1767554,-1181.07,-11389.635,-40018.005,-27821.565,-24562.89,-21717.09,-12638.745,-8433.494999999999
1764434191.1767554,-1184.535,-11390.535,-40017.6,-27823.815,-24564.6,-21723.84,-12635.64,-8431.289999999999
1764434191.1767554,-1187.82,-11390.31,-40015.125,-27825.57,-24565.635,-21731.265,-12630.42,-8427.645
1764434191.1767554,-1186.83,-11387.115,-40010.265,-27824.22,-24564.15,-21735.54,-12623.22,-8419.815
1764434191.1767554,-1189.08,-11388.645,-40011.345,-27826.74,-24566.94,-21739.815,-12622.635,-8420.265
1764434191.1767554,-1187.19,-11386.8,-40011.84,-27825.48,-24565.725,-21736.17,-12624.525,-8421.57
1764434191.1767554,-1180.395,-11381.985,-40008.915,-27819.675,-24560.325,-21725.145,-12624.255,-8420.265
1764434191.1767554,-1182.33,-11385.99,-40015.35,-27821.655,-24562.8,-21722.355,-12632.265,-8429.265
1764434191.1767554,-1182.24,-11388.555,-40019.535,-27822.195,-24563.34,-21716.865,-12637.575,-8436.465
1764434191.1767554,-1181.115,-11389.365,-40020.615,-27822.15,-24563.115,-21714.795,-12639.06,-8437.23
1764434191.1767554,-1180.305,-11387.295,-40017.015,-27820.845,-24561.495,-21715.74,-12635.91,-8432.414999999999
1764434191.1767554,-1180.62,-11385.045,-40012.11,-27819.81,-24559.74,-21719.565,-12630.825,-8426.52
1764434191.1767554,-1184.535,-11386.485,-40011.615,-27822.555,-24561.855,-21729.24,-12627.09,-8422.965
1764434191.1767554,-1184.49,-11384.01,-40007.52,-27822.24,-24560.82,-21734.28,-12620.97,-8415.945
1764434191.1767554,-1187.1,-11385.675,-40009.995,-27825.705,-24563.16,-21738.285,-12620.475,-8417.475
1764434191.1767554,-1186.695,-11385.54,-40011.39,-27825.795,-24563.115,-21736.485,-12622.545,-8420.22
1764434191.1767554,-1181.385,-11383.11,-40010.67,-27821.745,-24560.415,-21727.62,-12624.525,-8421.119999999999
1764434191.1767554,-1180.845,-11385.315,-40015.62,-27821.97,-24560.865,-21721.545,-12630.96,-8427.42
1764434191.1767554,-1178.01,-11384.775,-40016.745,-27819.585,-24558.75,-21713.22,-12634.56,-8430.525
1764434191.1767554,-1177.605,-11385.27,-40017.24,-27819.54,-24557.67,-21711.285,-12636.09,-8432.055
1764434191.1767554,-1180.08,-11386.89,-40017.465,-27821.295,-24559.47,-21715.2,-12634.29,-8430.93
1764434191.1767554,-1181.835,-11386.89,-40015.44,-27823.005,-24561.27,-21721.995,-12631.005,-8427.6
1764434191.217057,-1180.665,-11382.57,-40008.42,-27819.81,-24558.48,-21725.73,-12622.545,-8418.824999999999
1764434191.217057,-1184.625,-11384.775,-40008.15,-27823.23,-24561.09,-21735.09,-12619.755,-8416.035
1764434191.217057,-1187.955,-11386.44,-40010.535,-27826.425,-24564.78,-21739.77,-12620.295,-8417.16
1764434191.217057,-1186.47,-11385.63,-40011.03,-27825.57,-24564.195,-21735.225,-12621.465,-8418.195
1764434191.218084,-1181.2949999999998,-11382.075,-40009.23,-27821.16,-24559.92,-21726.18,-12621.96,-8418.914999999999
1764434191.218084,-1183.725,-11386.125,-40016.34,-27824.355,-24563.43,-21723.165,-12630.195,-8428.77
1764434191.218084,-1179.72,-11386.08,-40017.465,-27821.295,-24560.505,-21714.3,-12633.39,-8431.065
1764434191.218084,-1176.615,-11384.64,-40015.53,-27817.875,-24557.715,-21710.205,-12633.84,-8429.67
1764434191.218084,-1179.0449999999998,-11387.205,-40015.665,-27819.675,-24560.055,-21714.615,-12633.975,-8429.445
1764434191.218084,-1179.765,-11386.17,-40012.92,-27820.215,-24559.38,-21719.79,-12630.6,-8424.945
1764434191.218084,-1185.165,-11389.14,-40013.415,-27825.255,-24563.88,-21730.68,-12628.755,-8423.414999999999
1764434191.218084,-1189.665,-11391.57,-40014.045,-27829.575,-24567.57,-21740.355,-12626.865,-8421.885
1764434191.218084,-1189.44,-11390.175,-40013.595,-27830.295,-24567.57,-21741.705,-12625.38,-8419.949999999999
1764434191.218084,-1186.9199999999998,-11388.06,-40012.29,-27827.865,-24566.22,-21736.665,-12626.28,-8420.49
1764434191.218084,-1181.205,-11384.145,-40010.355,-27823.005,-24561.855,-21727.26,-12626.37,-8420.445
1764434191.218084,-1180.08,-11386.215,-40015.26,-27822.87,-24562.395,-21721.815,-12632.67,-8426.744999999999
1764434191.218084,-1178.685,-11387.43,-40019.13,-27822.87,-24561.99,-21717.045,-12637.35,-8432.775
1764434191.218084,-1177.695,-11387.43,-40019.22,-27821.565,-24560.775,-21714.525,-12638.16,-8432.73
1764434191.218084,-1177.02,-11385.945,-40016.205,-27819.45,-24559.425,-21715.065,-12634.335,-8428.095
1764434191.219076,-1177.11,-11383.785,-40012.11,-27818.64,-24557.985,-21718.935,-12628.215,-8421.705
1764434191.219076,-1182.6,-11385.63,-40012.065,-27823.095,-24561.36,-21728.97,-12625.515,-8419.41
1764434191.219076,-1186.335,-11387.025,-40010.445,-27826.38,-24564.465,-21737.655,-12622.77,-8416.89
1764434191.219076,-1184.58,-11384.91,-40008.285,-27824.85,-24562.62,-21736.71,-12620.52,-8413.605
1764434191.219076,-1184.6699999999998,-11385.495,-40010.445,-27826.02,-24563.43,-21734.235,-12623.67,-8417.295
1764434191.2648215,-1183.455,-11386.35,-40013.145,-27825.795,-24563.34,-21729.24,-12627.99,-8422.244999999999
1764434191.2653315,-1187.19,-11392.02,-40020.795,-27829.53,-24568.065,-21727.665,-12637.575,-8433.315
1764434191.2653315,-1183.905,-11391.615,-40022.415,-27826.83,-24565.635,-21720.24,-12640.77,-8437.14
1764434191.2653315,-1181.52,-11390.895,-40021.38,-27824.355,-24563.295,-21717.72,-12641.085,-8436.33
1764434191.2653315,-1177.47,-11385.81,-40014.81,-27820.17,-24558.93,-21716.235,-12635.46,-8429.22
1764434191.2653315,-1180.62,-11386.89,-40014.63,-27822.51,-24561.0,-21723.255,-12632.715,-8426.43
1764434191.2653315,-1182.4199999999998,-11387.16,-40012.83,-27824.04,-24563.07,-21730.095,-12628.17,-8421.93
1764434191.2653315,-1184.715,-11386.62,-40009.77,-27825.435,-24563.7,-21736.935,-12622.5,-8417.07
1764434191.2653315,-1184.265,-11385.45,-40008.555,-27825.21,-24562.755,-21737.745,-12619.575,-8414.73
1764434191.2653315,-1184.265,-11386.08,-40011.93,-27826.29,-24563.79,-21735.54,-12622.905,-8418.33
1764434191.2653315,-1182.51,-11385.72,-40013.505,-27824.625,-24562.395,-21729.465,-12626.64,-8421.57
1764434191.2653315,-1181.07,-11386.53,-40016.475,-27824.04,-24561.9,-21723.48,-12632.895,-8427.375
1764434191.2653315,-1179.315,-11386.8,-40019.13,-27822.465,-24560.19,-21716.28,-12636.63,-8432.414999999999
1764434191.2653315,-1181.25,-11389.5,-40022.01,-27824.805,-24562.215,-21716.415,-12639.78,-8435.88
1764434191.2653315,-1181.655,-11389.32,-40019.67,-27825.39,-24562.755,-21719.52,-12637.665,-8432.955
1764434191.2653315,-1181.79,-11387.745,-40015.08,-27824.94,-24561.81,-21723.795,-12632.805,-8427.285
1764434191.2653315,-1185.975,-11389.5,-40014.765,-27827.415,-24564.645,-21733.29,-12629.16,-8424.404999999999
1764434191.2653315,-1189.53,-11391.21,-40013.37,-27829.845,-24567.57,-21742.02,-12626.46,-8420.895
1764434191.2653315,-1189.1699999999998,-11389.545,-40012.245,-27829.665,-24567.165,-21742.965,-12624.48,-8419.275
1764434191.2653315,-1186.47,-11387.07,-40011.885,-27827.55,-24565.23,-21737.745,-12624.39,-8419.994999999999
1764434191.2653315,-1183.005,-11384.685,-40012.2,-27824.715,-24562.53,-21729.555,-12626.415,-8421.57
1764434191.2653315,-1185.165,-11389.455,-40019.985,-27827.46,-24565.5,-21726.27,-12635.01,-8430.39
1764434191.3123262,-1178.865,-11386.665,-40018.59,-27822.69,-24560.91,-21716.28,-12636.945,-8431.875
1764434191.3123262,-1178.64,-11388.42,-40019.895,-27822.42,-24561.045,-21716.19,-12638.385,-8433.135
1764434191.3123262,-1181.43,-11390.445,-40019.895,-27824.22,-24562.755,-21720.825,-12636.63,-8431.83
1764434191.3123262,-1182.15,-11389.59,-40015.935,-27823.68,-24561.27,-21724.47,-12631.77,-8426.16
1764434191.3123262,-1181.205,-11386.35,-40010.445,-27821.745,-24558.615,-21728.61,-12625.065,-8417.61
1764434191.3123262,-1185.165,-11387.565,-40009.77,-27825.21,-24560.64,-21737.25,-12622.905,-8415.225
1764434191.3123262,-1186.695,-11388.78,-40011.525,-27827.37,-24561.99,-21740.085,-12623.4,-8416.485
1764434191.3123262,-1188.135,-11390.49,-40014.585,-27828.495,-24563.475,-21738.645,-12626.955,-8420.715
1764434191.3123262,-1183.905,-11388.24,-40014.045,-27824.985,-24559.47,-21729.375,-12629.205,-8421.525
1764434191.3123262,-1184.085,-11391.12,-40018.86,-27825.615,-24560.28,-21723.795,-12635.64,-8428.994999999999
1764434191.3123262,-1179.27,-11388.195,-40017.78,-27820.845,-24555.825,-21713.895,-12636.54,-8430.615
1764434191.3123262,-1177.74,-11387.34,-40016.655,-27819.63,-24554.115,-21711.555,-12636.315,-8430.255
1764434191.3123262,-1177.2,-11386.62,-40013.955,-27819.315,-24553.98,-21715.515,-12633.435,-8426.699999999999
1764434191.3123262,-1176.75,-11384.46,-40009.905,-27818.055,-24552.81,-21719.88,-12627.585,-8420.535
1764434191.3123262,-1177.2,-11381.85,-40005.495,-27818.055,-24552.99,-21725.955,-12621.105,-8413.605
1764434191.3123262,-1183.455,-11384.865,-40006.755,-27823.725,-24558.93,-21737.07,-12619.305,-8413.154999999999
1764434191.313321,-1184.445,-11384.865,-40007.61,-27825.435,-24561.045,-21740.94,-12619.305,-8413.47
1764434191.313321,-1181.2949999999998,-11383.065,-40006.845,-27824.265,-24559.425,-21736.98,-12620.79,-8413.695
1764434191.313321,-1176.03,-11380.05,-40005.405,-27820.53,-24555.69,-21729.33,-12622.815,-8414.145
1764434191.313321,-1177.02,-11382.84,-40011.84,-27822.96,-24558.48,-21725.37,-12630.465,-8422.785
1764434191.313321,-1174.005,-11381.85,-40013.055,-27820.17,-24556.365,-21718.035,-12633.21,-8426.115
1764434191.313321,-1173.375,-11382.03,-40012.83,-27820.125,-24555.87,-21717.765,-12634.83,-8425.935
1764434191.313321,-1174.365,-11382.165,-40011.39,-27820.98,-24557.22,-21721.365,-12632.85,-8422.785
1764434191.313321,-1175.49,-11381.715,-40009.185,-27821.745,-24558.75,-21727.98,-12628.125,-8418.195
1764434191.3572884,-1177.29,-11382.345,-40006.305,-27822.69,-24559.29,-21735.045,-12623.085,-8412.795
1764434191.3572884,-1180.665,-11383.605,-40005.81,-27826.155,-24562.035,-21742.425,-12619.62,-8409.779999999999
1764434191.3572884,-1181.025,-11382.66,-40004.82,-27826.83,-24561.945,-21743.19,-12617.685,-8409.42
1764434191.3572884,-1176.7949999999998,-11379.87,-40004.28,-27822.465,-24557.22,-21735.945,-12617.775,-8409.779999999999
1764434191.3572884,-1173.33,-11378.565,-40004.595,-27818.73,-24552.9,-21727.53,-12619.8,-8411.58
1764434191.3572884,-1171.08,-11379.645,-40006.98,-27817.92,-24551.73,-21718.89,-12624.975,-8417.699999999999
1764434191.3572884,-1169.325,-11380.545,-40009.095,-27815.895,-24550.2,-21711.195,-12629.34,-8422.02
1764434191.3572884,-1169.37,-11380.995,-40009.59,-27814.59,-24549.66,-21709.71,-12629.7,-8421.93
1764434191.358289,-1170.0449999999998,-11379.96,-40007.61,-27814.86,-24549.03,-21713.13,-12626.19,-8418.6
1764434191.358289,-1170.495,-11379.96,-40004.955,-27815.58,-24548.985,-21717.675,-12621.105,-8413.47
1764434191.358289,-1171.62,-11379.105,-40002.255,-27816.345,-24549.57,-21723.39,-12615.12,-8407.8
1764434191.358289,-1175.985,-11380.455,-40002.03,-27819.09,-24552.09,-21731.715,-12613.455,-8405.685
1764434191.358289,-1179.09,-11382.615,-40004.19,-27821.88,-24554.61,-21735.63,-12614.715,-8407.664999999999
1764434191.358289,-1180.215,-11384.775,-40007.565,-27822.69,-24555.645,-21734.145,-12617.955,-8411.805
1764434191.358289,-1176.39,-11383.605,-40008.735,-27821.295,-24554.205,-21726.945,-12621.015,-8414.055
1764434191.358289,-1178.415,-11388.195,-40015.62,-27824.535,-24557.355,-21722.94,-12628.89,-8423.145
1764434191.358289,-1174.905,-11386.53,-40015.89,-27821.115,-24555.015,-21715.56,-12632.04,-8426.025
1764434191.358289,-1173.915,-11385.72,-40014.27,-27819.45,-24553.89,-21713.625,-12632.085,-8425.17
1764434191.358289,-1174.23,-11384.865,-40011.615,-27818.19,-24552.495,-21716.145,-12628.71,-8420.895
1764434191.358289,-1173.735,-11382.39,-40006.935,-27816.075,-24550.65,-21719.565,-12622.68,-8413.56
1764434191.358289,-1177.47,-11383.695,-40006.17,-27819.54,-24554.295,-21728.52,-12618.27,-8410.68
1764434191.3598015,-1177.38,-11381.265,-40002.345,-27818.955,-24553.485,-21733.515,-12613.005,-8405.1
1764434191.3598015,-1178.64,-11381.085,-40003.065,-27820.395,-24555.375,-21736.215,-12613.185,-8405.19
1764434191.3598015,-1177.38,-11380.725,-40004.82,-27819.72,-24555.195,-21732.48,-12615.66,-8407.664999999999
1764434191.4028056,-1175.535,-11380.815,-40006.845,-27818.505,-24554.205,-21726.855,-12619.395,-8411.805
1764434191.4028056,-1177.29,-11385.72,-40013.19,-27821.34,-24557.175,-21723.705,-12628.53,-8421.525
1764434191.4028056,-1174.815,-11385.63,-40014.81,-27819.315,-24555.195,-21716.19,-12632.58,-8425.17
1764434191.4028056,-1171.215,-11382.255,-40011.03,-27815.04,-24551.145,-21711.735,-12629.88,-8421.795
1764434191.4028056,-1170.765,-11380.59,-40007.43,-27813.555,-24550.065,-21713.49,-12625.965,-8417.88
1764434191.4038224,-1174.41,-11383.02,-40007.565,-27817.47,-24553.305,-21721.455,-12623.49,-8416.71
1764434191.4038224,-1173.465,-11380.905,-40002.3,-27816.795,-24552.09,-21726.495,-12618.0,-8409.51
1764434191.4038224,-1176.21,-11380.545,-40000.77,-27819.09,-24553.62,-21733.245,-12614.355,-8405.82
1764434191.4038224,-1178.505,-11381.085,-40002.21,-27821.745,-24555.195,-21735.63,-12614.265,-8406.63
1764434191.4038224,-1176.12,-11379.42,-40002.93,-27821.07,-24553.665,-21731.265,-12615.93,-8408.25
1764434191.4038224,-1173.15,-11378.34,-40004.28,-27818.55,-24552.045,-21724.515,-12619.26,-8411.039999999999
1764434191.4038224,-1171.98,-11380.005,-40007.43,-27817.065,-24551.82,-21718.17,-12624.615,-8416.44
1764434191.4038224,-1170.09,-11380.95,-40010.04,-27815.535,-24550.83,-21711.78,-12629.07,-8419.994999999999
1764434191.4038224,-1170.0,-11381.67,-40009.725,-27815.445,-24549.615,-21710.52,-12629.43,-8419.59
1764434191.4038224,-1172.34,-11383.515,-40009.5,-27817.2,-24551.325,-21715.695,-12627.585,-8418.015
1764434191.4038224,-1173.33,-11381.76,-40005.99,-27816.705,-24550.92,-21720.285,-12623.13,-8412.975
1764434191.4038224,-1177.605,-11383.245,-40005.81,-27820.53,-24554.43,-21730.32,-12618.945,-8410.455
1764434191.4038224,-1178.505,-11382.345,-40003.425,-27821.52,-24554.565,-21735.945,-12613.95,-8406.36
1764434191.4038224,-1177.965,-11381.94,-40002.345,-27821.43,-24554.07,-21736.305,-12612.645,-8404.965
1764434191.4038224,-1172.97,-11377.935,-40000.23,-27817.74,-24550.425,-21729.015,-12612.285,-8403.795
1764434191.4038224,-1171.125,-11377.395,-40001.85,-27816.3,-24549.03,-21722.715,-12615.93,-8407.305
1764434191.4038224,-1171.1699999999998,-11380.68,-40007.07,-27817.74,-24549.795,-21718.755,-12622.59,-8414.82
1764434191.4527338,-1166.6699999999998,-11379.69,-40006.755,-27814.365,-24547.14,-21709.98,-12624.75,-8416.98
1764434191.4527338,-1163.07,-11376.54,-40003.155,-27810.09,-24543.945,-21705.75,-12622.545,-8413.965
1764434191.4527338,-1165.005,-11377.89,-40003.155,-27812.115,-24545.295,-21710.205,-12620.97,-8412.84
1764434191.4527338,-1169.73,-11379.915,-40003.83,-27816.75,-24549.48,-21718.17,-12619.215,-8410.365
1764434191.4527338,-1169.955,-11377.71,-39999.465,-27815.58,-24549.03,-21724.38,-12613.365,-8403.39
1764434191.4527338,-1173.735,-11378.835,-39999.645,-27819.495,-24551.415,-21733.335,-12610.26,-8400.779999999999
1764434191.4527338,-1172.745,-11376.54,-39997.845,-27818.595,-24550.38,-21732.39,-12608.28,-8398.8
1764434191.453151,-1172.205,-11376.81,-40000.59,-27818.28,-24551.1,-21729.33,-12611.295,-8401.86
1764434191.453151,-1172.79,-11379.42,-40003.875,-27819.27,-24551.91,-21724.785,-12617.82,-8408.565
1764434191.453151,-1172.025,-11381.355,-40007.745,-27818.46,-24551.91,-21718.53,-12624.39,-8415.404999999999
1764434191.453151,-1170.81,-11383.2,-40011.57,-27817.425,-24552.09,-21713.58,-12628.125,-8420.805
1764434191.453151,-1167.975,-11380.995,-40008.645,-27814.77,-24549.48,-21710.43,-12626.325,-8418.51
1764434191.453151,-1167.48,-11379.24,-40005.45,-27813.87,-24548.22,-21712.185,-12621.33,-8413.965
1764434191.453151,-1169.55,-11378.925,-40003.515,-27815.13,-24548.67,-21717.36,-12618.09,-8410.005
1764434191.453151,-1175.49,-11382.39,-40004.37,-27820.26,-24552.855,-21728.745,-12616.02,-8407.574999999999
1764434191.453151,-1177.965,-11382.885,-40003.245,-27822.78,-24555.15,-21737.205,-12612.69,-8403.93
1764434191.453151,-1176.39,-11380.95,-40002.39,-27821.79,-24554.745,-21737.07,-12611.205,-8401.904999999999
1764434191.453151,-1171.62,-11376.72,-40000.095,-27817.74,-24551.055,-21729.78,-12610.89,-8401.23
1764434191.453151,-1168.83,-11375.82,-40000.905,-27815.805,-24549.12,-21722.715,-12613.77,-8404.515
1764434191.453151,-1169.505,-11378.655,-40007.16,-27817.695,-24551.1,-21717.63,-12621.105,-8412.345
1764434191.453151,-1171.305,-11382.525,-40013.19,-27819.585,-24553.8,-21714.705,-12628.755,-8420.445
1764434191.453151,-1170.225,-11382.12,-40012.02,-27817.605,-24551.82,-21712.77,-12628.845,-8419.635
1764434191.453151,-1170.135,-11381.265,-40008.42,-27816.48,-24550.83,-21715.155,-12624.39,-8415.315
1764434191.453151,-1171.845,-11381.67,-40005.63,-27818.055,-24551.595,-21721.455,-12620.745,-8411.715
1764434191.497656,-1175.49,-11381.94,-40003.74,-27820.485,-24553.17,-21730.005,-12616.065,-8407.44
1764434191.497656,-1178.505,-11382.48,-40002.975,-27823.545,-24555.285,-21738.24,-12613.005,-8404.154999999999
1764434191.497656,-1178.01,-11380.815,-40002.345,-27823.365,-24555.24,-21738.645,-12612.87,-8403.164999999999
1764434191.497656,-1180.26,-11383.74,-40007.115,-27825.255,-24557.355,-21737.43,-12617.865,-8409.555
1764434191.497656,-1175.805,-11382.03,-40006.89,-27821.79,-24554.745,-21729.645,-12619.89,-8410.77
1764434191.497656,-1176.48,-11385.99,-40013.1,-27824.04,-24557.445,-21725.46,-12628.26,-8419.635
1764434191.497656,-1171.89,-11383.92,-40013.235,-27820.35,-24554.34,-21717.27,-12631.23,-8421.3
1764434191.497656,-1174.095,-11386.89,-40015.395,-27821.97,-24556.455,-21719.16,-12633.705,-8423.82
1764434191.497656,-1172.52,-11383.92,-40009.905,-27819.63,-24554.295,-21719.79,-12628.8,-8417.385
1764434191.497656,-1175.445,-11384.64,-40008.15,-27821.745,-24556.59,-21726.36,-12625.47,-8414.19
1764434191.497656,-1180.305,-11386.53,-40007.925,-27824.94,-24559.83,-21736.305,-12622.095,-8411.445
1764434191.497656,-1182.06,-11385.945,-40006.08,-27826.02,-24560.55,-21742.74,-12618.495,-8406.99
1764434191.497656,-1185.39,-11388.915,-40009.815,-27830.655,-24564.195,-21746.97,-12621.24,-8410.5
1764434191.497656,-1182.195,-11385.765,-40009.32,-27828.27,-24561.225,-21740.58,-12622.095,-8410.68
1764434191.497656,-1179.855,-11385.09,-40010.67,-27826.65,-24560.1,-21734.37,-12625.515,-8414.595
1764434191.497656,-1179.27,-11388.195,-40015.44,-27826.92,-24561.045,-21728.385,-12633.3,-8421.84
1764434191.497656,-1177.065,-11388.33,-40017.78,-27824.805,-24559.47,-21721.68,-12636.27,-8424.675
1764434191.497656,-1172.925,-11384.595,-40013.73,-27820.71,-24555.195,-21717.36,-12631.995,-8420.22
1764434191.497656,-1174.455,-11384.955,-40012.83,-27821.97,-24556.095,-21722.175,-12628.89,-8417.835
1764434191.497656,-1176.3,-11385.0,-40009.815,-27822.06,-24557.13,-21727.98,-12625.515,-8413.65
1764434191.497656,-1180.89,-11387.16,-40008.87,-27825.57,-24560.64,-21738.015,-12621.465,-8411.58
1764434191.497656,-1181.16,-11385.9,-40005.855,-27825.435,-24560.415,-21742.965,-12617.19,-8406.539999999999
1764434191.5456383,-1181.16,-11384.82,-40005.855,-27826.02,-24561.135,-21743.775,-12616.47,-8406.585
1764434191.5456383,-1179.54,-11384.505,-40007.79,-27825.84,-24560.37,-21739.995,-12620.16,-8409.645
1764434191.5456383,-1179.225,-11385.855,-40011.435,-27826.29,-24560.28,-21735.225,-12625.02,-8415.09
1764434191.5456383,-1181.25,-11390.22,-40018.14,-27828.855,-24563.61,-21731.715,-12632.805,-8423.865
1764434191.5456383,-1175.04,-11386.26,-40016.16,-27823.455,-24558.345,-21721.455,-12633.66,-8423.595
1764434191.5456383,-1177.74,-11389.14,-40018.005,-27824.94,-24560.415,-21723.615,-12636.18,-8425.755
1764434191.5456383,-1178.01,-11388.15,-40015.53,-27823.905,-24559.425,-21726.27,-12632.445,-8420.895
1764434191.5456383,-1179.855,-11388.465,-40013.46,-27825.255,-24560.37,-21733.38,-12628.845,-8417.699999999999
1764434191.5461583,-1181.52,-11386.755,-40010.13,-27826.155,-24560.37,-21740.04,-12623.49,-8412.21
1764434191.5461583,-1180.935,-11384.595,-40005.18,-27825.705,-24559.38,-21744.045,-12618.315,-8405.865
1764434191.5461583,-1182.06,-11385.495,-40006.035,-27827.865,-24560.82,-21746.025,-12618.945,-8406.72
1764434191.5461583,-1185.12,-11388.87,-40012.47,-27832.005,-24565.185,-21745.845,-12625.875,-8413.289999999999
1764434191.5461583,-1180.035,-11385.27,-40011.66,-27827.37,-24561.0,-21736.215,-12626.28,-8413.65
1764434191.5461583,-1179.855,-11388.015,-40015.62,-27827.415,-24561.495,-21730.545,-12633.12,-8421.435
1764434191.5461583,-1178.505,-11389.14,-40018.23,-27826.92,-24560.64,-21724.74,-12637.89,-8425.935
1764434191.5461583,-1181.745,-11392.245,-40021.065,-27830.07,-24563.115,-21727.935,-12640.905,-8429.58
1764434191.5461583,-1180.935,-11390.805,-40018.095,-27829.53,-24562.08,-21730.5,-12636.09,-8425.215
1764434191.5461583,-1179.09,-11387.97,-40013.1,-27827.91,-24559.74,-21733.29,-12629.295,-8418.555
1764434191.5461583,-1182.78,-11389.185,-40011.615,-27829.71,-24561.765,-21742.245,-12625.02,-8414.64
1764434191.5461583,-1186.515,-11389.545,-40010.4,-27831.915,-24564.285,-21749.445,-12622.365,-8410.994999999999
1764434191.5461583,-1184.445,-11386.485,-40009.005,-27830.07,-24562.8,-21747.915,-12619.305,-8408.205
1764434191.5461583,-1184.445,-11388.24,-40012.56,-27830.79,-24563.745,-21744.675,-12623.31,-8413.065
1764434191.5461583,-1179.45,-11385.945,-40012.245,-27828.225,-24560.1,-21736.395,-12626.46,-8414.235
1764434191.5461583,-1182.33,-11390.715,-40019.13,-27831.96,-24563.34,-21733.965,-12635.775,-8425.17
1764434191.5897024,-1178.28,-11388.33,-40017.42,-27827.28,-24560.325,-21724.965,-12636.63,-8426.34
1764434191.5897024,-1174.725,-11385.495,-40013.505,-27822.915,-24556.68,-21721.005,-12634.515,-8422.065
1764434191.5897024,-1176.255,-11386.89,-40013.01,-27823.455,-24557.445,-21726.405,-12631.905,-8418.914999999999
1764434191.5897024,-1182.69,-11390.265,-40014.54,-27828.045,-24561.945,-21735.855,-12630.915,-8418.869999999999
1764434191.590232,-1183.995,-11388.15,-40010.265,-27828.0,-24561.225,-21742.02,-12624.66,-8411.895
1764434191.590232,-1183.77,-11385.315,-40006.08,-27826.785,-24560.235,-21745.755,-12618.99,-8406.404999999999
1764434191.590232,-1185.48,-11386.62,-40008.33,-27829.53,-24562.305,-21748.005,-12619.215,-8408.205
1764434191.590232,-1182.4199999999998,-11384.595,-40008.87,-27828.27,-24560.91,-21742.65,-12621.33,-8409.69
1764434191.590232,-1177.29,-11382.165,-40008.375,-27824.445,-24557.58,-21733.83,-12623.715,-8411.49
1764434191.590232,-1177.605,-11385.675,-40013.685,-27825.885,-24559.065,-21727.755,-12631.545,-8419.275
1764434191.590232,-1175.6699999999998,-11385.315,-40015.44,-27823.23,-24557.535,-21720.51,-12634.65,-8422.74
1764434191.590232,-1177.515,-11386.89,-40017.24,-27824.265,-24558.93,-21722.22,-12636.315,-8424.675
1764434191.590232,-1176.93,-11385.54,-40013.37,-27822.915,-24556.59,-21724.605,-12631.59,-8419.59
1764434191.590232,-1181.7,-11388.555,-40013.595,-27826.02,-24560.505,-21733.2,-12629.205,-8417.97
1764434191.590232,-1181.745,-11385.765,-40008.87,-27825.3,-24559.245,-21739.05,-12623.22,-8410.994999999999
1764434191.5907507,-1185.3,-11387.025,-40008.555,-27828.72,-24562.17,-21747.105,-12621.285,-8409.465
1764434191.5907507,-1188.63,-11389.32,-40012.425,-27832.365,-24565.68,-21750.93,-12623.265,-8413.199999999999
1764434191.5907507,-1185.7949999999998,-11387.43,-40012.74,-27830.34,-24563.79,-21745.08,-12624.93,-8414.73
1764434191.5907507,-1179.765,-11383.515,-40010.31,-27824.805,-24558.48,-21734.865,-12626.01,-8414.414999999999
1764434191.5907507,-1180.125,-11387.025,-40015.44,-27826.695,-24559.74,-21729.33,-12633.975,-8422.56
1764434191.5907507,-1180.755,-11390.04,-40019.04,-27827.19,-24560.415,-21725.775,-12639.555,-8428.455
1764434191.5907507,-1179.855,-11389.455,-40017.6,-27824.355,-24559.2,-21724.92,-12639.825,-8426.97
1764434191.5907507,-1182.195,-11390.58,-40016.925,-27825.615,-24560.415,-21729.465,-12637.215,-8424.9
1764434191.5907507,-1182.555,-11387.34,-40012.47,-27824.49,-24558.795,-21733.335,-12631.365,-8417.88
1764434191.6382897,-1183.725,-11386.08,-40008.78,-27825.705,-24558.615,-21740.355,-12625.245,-8411.715
1764434191.6382897,-1188.54,-11389.32,-40009.185,-27830.025,-24562.575,-21748.77,-12623.265,-8409.96
1764434191.6382897,-1190.34,-11391.48,-40011.39,-27833.265,-24565.23,-21751.02,-12624.705,-8412.66
1764434191.6382897,-1184.94,-11387.07,-40009.455,-27829.08,-24561.09,-21742.335,-12625.02,-8412.255
1764434191.6382897,-1183.275,-11386.845,-40012.065,-27828.045,-24560.685,-21736.53,-12628.8,-8416.44
1764434191.6398218,-1185.93,-11392.74,-40020.39,-27831.195,-24563.295,-21733.515,-12638.34,-8426.699999999999
1764434191.6398218,-1180.305,-11389.005,-40018.14,-27825.39,-24558.03,-21723.345,-12638.79,-8426.654999999999
1764434191.6398218,-1181.07,-11390.085,-40018.005,-27824.805,-24558.03,-21723.84,-12639.06,-8427.105
1764434191.6398218,-1184.76,-11392.74,-40018.365,-27828.405,-24561.09,-21730.77,-12638.025,-8426.205
1764434191.6398218,-1186.335,-11392.83,-40017.06,-27830.34,-24562.89,-21737.88,-12634.605,-8422.47
1764434191.6398218,-1186.605,-11390.265,-40012.38,-27829.17,-24561.9,-21744.045,-12627.765,-8414.91
1764434191.6398218,-1185.7949999999998,-11387.115,-40008.69,-27828.765,-24561.0,-21747.42,-12621.915,-8409.15
1764434191.6398218,-1186.965,-11387.52,-40010.535,-27830.07,-24562.755,-21748.41,-12622.95,-8411.175
1764434191.6398218,-1185.3,-11386.575,-40011.885,-27829.215,-24561.9,-21744.54,-12626.055,-8414.1
1764434191.6398218,-1183.635,-11386.755,-40014.36,-27828.225,-24561.63,-21738.78,-12629.88,-8417.25
1764434191.6398218,-1183.68,-11390.715,-40019.895,-27830.07,-24563.43,-21734.145,-12638.295,-8425.44
1764434191.6398218,-1181.475,-11390.715,-40021.11,-27827.955,-24561.63,-21727.44,-12641.49,-8428.41
1764434191.6398218,-1182.555,-11391.57,-40020.975,-27827.64,-24561.405,-21727.44,-12642.615,-8429.13
1764434191.6398218,-1182.78,-11390.715,-40017.915,-27827.28,-24560.55,-21730.725,-12638.34,-8425.215
1764434191.6398218,-1186.155,-11391.84,-40017.015,-27829.8,-24562.845,-21738.015,-12634.965,-8422.83
1764434191.6398218,-1191.87,-11394.54,-40017.42,-27834.12,-24567.435,-21749.22,-12632.31,-8420.445
1764434191.6398218,-1193.13,-11393.865,-40015.44,-27834.93,-24568.29,-21754.17,-12629.34,-8416.305
1764434191.683673,-1194.84,-11395.485,-40017.78,-27837.225,-24570.495,-21755.745,-12630.42,-8418.824999999999
1764434191.683673,-1191.555,-11392.695,-40017.015,-27834.435,-24567.615,-21748.365,-12630.51,-8419.32
1764434191.6854138,-1186.47,-11388.735,-40016.205,-27829.08,-24562.845,-21739.005,-12631.68,-8419.725
1764434191.6854138,-1186.11,-11392.38,-40021.38,-27830.43,-24564.105,-21734.01,-12639.375,-8427.24
1764434191.6854138,-1186.02,-11394.54,-40023.99,-27830.655,-24564.915,-21729.78,-12644.325,-8432.369999999999
1764434191.6854138,-1183.23,-11391.345,-40020.21,-27826.605,-24561.495,-21726.36,-12642.3,-8428.59
1764434191.6854138,-1183.23,-11390.22,-40016.61,-27826.47,-24559.965,-21729.24,-12637.44,-8424.855
1764434191.6854138,-1185.525,-11390.985,-40015.44,-27828.72,-24561.225,-21736.305,-12633.705,-8421.93
1764434191.6854138,-1188.495,-11392.29,-40013.865,-27831.24,-24563.385,-21744.99,-12628.89,-8417.115
1764434191.6854138,-1188.765,-11391.165,-40011.75,-27832.095,-24563.43,-21749.715,-12625.065,-8412.119999999999
1764434191.6854138,-1190.34,-11392.38,-40014.18,-27834.57,-24565.59,-21751.065,-12626.46,-8414.19
1764434191.6854138,-1186.65,-11389.365,-40012.605,-27830.745,-24561.765,-21744.09,-12627.0,-8414.235
1764434191.6854138,-1184.895,-11388.87,-40014.495,-27828.9,-24560.91,-21738.105,-12631.68,-8417.835
1764434191.6854138,-1186.695,-11393.505,-40021.695,-27831.915,-24565.32,-21734.865,-12640.77,-8428.32
1764434191.6854138,-1182.195,-11391.255,-40020.39,-27828.27,-24561.45,-21726.765,-12641.67,-8428.949999999999
1764434191.6854138,-1179.405,-11389.545,-40017.69,-27825.975,-24558.345,-21724.695,-12640.05,-8426.43
1764434191.6854138,-1179.81,-11388.87,-40015.17,-27825.525,-24556.995,-21728.16,-12636.0,-8422.47
1764434191.685859,-1182.87,-11389.77,-40014.72,-27827.955,-24559.695,-21735.27,-12633.345,-8419.455
1764434191.685859,-1185.93,-11390.085,-40012.785,-27831.015,-24562.575,-21744.18,-12628.8,-8415.045
1764434191.685859,-1192.455,-11394.36,-40015.215,-27837.405,-24568.245,-21754.26,-12629.25,-8416.35
1764434191.685859,-1191.24,-11393.91,-40015.395,-27835.74,-24567.165,-21752.46,-12628.89,-8415.404999999999
1764434191.685859,-1186.9199999999998,-11391.12,-40014.81,-27831.51,-24563.655,-21745.125,-12629.52,-8415.18
1764434191.685859,-1184.58,-11390.13,-40017.015,-27830.655,-24563.115,-21739.635,-12634.02,-8419.5
1764434191.685859,-1183.095,-11391.795,-40020.75,-27830.79,-24564.015,-21733.38,-12640.68,-8426.43
1764434191.73324,-1178.82,-11390.13,-40020.03,-27827.145,-24560.01,-21725.1,-12641.355,-8427.33
1764434191.73324,-1178.28,-11389.23,-40017.6,-27825.48,-24558.165,-21723.75,-12639.96,-8425.8
1764434191.73324,-1179.63,-11388.69,-40015.35,-27825.615,-24558.93,-21727.53,-12636.945,-8421.885
1764434191.73324,-1183.905,-11392.245,-40015.395,-27829.44,-24561.945,-21736.53,-12635.01,-8419.994999999999
1764434191.73324,-1189.215,-11395.17,-40015.89,-27835.02,-24565.995,-21748.14,-12631.455,-8418.735
1764434191.73324,-1191.285,-11395.08,-40015.485,-27836.82,-24567.435,-21754.665,-12628.665,-8415.494999999999
1764434191.73324,-1190.925,-11393.64,-40016.025,-27836.415,-24567.48,-21753.315,-12628.755,-8415.36
1764434191.73324,-1188.18,-11392.605,-40017.015,-27834.48,-24565.5,-21747.96,-12631.275,-8418.33
1764434191.73324,-1182.51,-11388.96,-40016.205,-27829.845,-24561.54,-21738.285,-12633.21,-8419.86
1764434191.73324,-1182.195,-11391.66,-40021.515,-27830.475,-24563.115,-21733.02,-12641.445,-8427.42
1764434191.73324,-1180.62,-11391.705,-40022.28,-27828.45,-24561.63,-21727.845,-12644.595,-8430.119999999999
1764434191.734251,-1180.845,-11392.515,-40021.65,-27827.91,-24561.09,-21727.755,-12643.515,-8429.13
1764434191.734251,-1179.765,-11390.94,-40018.545,-27826.965,-24559.875,-21730.59,-12638.565,-8424.315
1764434191.734251,-1183.815,-11392.2,-40018.05,-27829.575,-24562.44,-21738.24,-12636.675,-8421.57
1764434191.734251,-1188.495,-11394.18,-40017.87,-27833.895,-24565.68,-21748.095,-12633.345,-8418.96
1764434191.734251,-1190.07,-11393.28,-40015.08,-27835.47,-24566.04,-21753.72,-12630.105,-8415.99
1764434191.734251,-1189.215,-11392.38,-40014.315,-27834.075,-24564.915,-21752.55,-12629.295,-8415.81
1764434191.734251,-1187.145,-11392.38,-40016.97,-27833.355,-24564.105,-21748.14,-12632.085,-8419.59
1764434191.734251,-1185.3,-11391.795,-40018.77,-27832.275,-24563.43,-21741.39,-12636.045,-8423.595
1764434191.734251,-1184.355,-11392.245,-40021.74,-27831.69,-24562.935,-21733.785,-12642.57,-8429.535
1764434191.734251,-1183.68,-11393.73,-40023.765,-27830.97,-24562.485,-21729.51,-12646.665,-8433.315
1764434191.734251,-1183.455,-11394.135,-40023.495,-27830.88,-24562.485,-21729.78,-12646.08,-8432.595
1764434191.734251,-1184.13,-11393.46,-40021.335,-27830.655,-24562.215,-21732.435,-12642.165,-8428.095
1764434191.734251,-1184.22,-11392.245,-40017.735,-27830.115,-24561.18,-21737.205,-12635.955,-8422.695
1764434191.777558,-1186.155,-11391.93,-40014.855,-27831.69,-24561.72,-21744.99,-12629.475,-8416.8
1764434191.7780948,-1189.35,-11392.02,-40015.08,-27834.84,-24564.06,-21752.145,-12627.315,-8414.73
1764434191.7780948,-1185.975,-11387.34,-40011.03,-27831.015,-24560.865,-21748.545,-12625.605,-8411.49
1764434191.7780948,-1183.365,-11386.08,-40010.58,-27828.855,-24558.93,-21741.93,-12626.865,-8413.56
1764434191.7780948,-1181.16,-11386.08,-40012.605,-27827.82,-24557.76,-21735.72,-12630.285,-8417.88
1764434191.7780948,-1180.845,-11389.86,-40018.59,-27828.72,-24559.47,-21730.59,-12638.61,-8426.115
1764434191.7780948,-1178.595,-11390.13,-40019.22,-27826.29,-24558.165,-21725.46,-12641.58,-8429.175
1764434191.7780948,-1181.88,-11392.605,-40021.695,-27829.395,-24560.82,-21728.88,-12643.605,-8431.289999999999
1764434191.7780948,-1179.27,-11388.285,-40016.745,-27826.965,-24557.49,-21730.095,-12636.765,-8424.315
1764434191.7780948,-1179.315,-11387.16,-40012.92,-27826.965,-24557.265,-21735.405,-12632.49,-8418.735
1764434191.7780948,-1186.515,-11391.75,-40014.27,-27833.04,-24562.665,-21746.79,-12630.78,-8417.835
1764434191.7780948,-1190.655,-11393.46,-40015.305,-27836.19,-24565.68,-21754.08,-12629.835,-8416.395
1764434191.7780948,-1190.43,-11392.965,-40015.89,-27837.72,-24566.4,-21753.315,-12630.105,-8417.475
1764434191.7780948,-1188.225,-11392.335,-40016.745,-27836.415,-24565.14,-21748.14,-12632.94,-8419.41
1764434191.7780948,-1182.555,-11389.185,-40016.25,-27831.105,-24560.91,-21738.915,-12634.515,-8420.4
1764434191.7780948,-1181.745,-11391.255,-40021.245,-27831.465,-24560.82,-21733.065,-12641.76,-8427.555
1764434191.7780948,-1179.315,-11390.58,-40021.155,-27829.89,-24558.75,-21726.54,-12643.2,-8429.76
1764434191.7780948,-1180.755,-11392.245,-40021.785,-27831.015,-24560.73,-21728.565,-12644.28,-8430.75
1764434191.7780948,-1179.45,-11390.22,-40016.88,-27828.27,-24558.705,-21730.905,-12639.015,-8424.225
1764434191.7780948,-1183.86,-11392.245,-40017.465,-27830.745,-24561.405,-21739.59,-12636.63,-8422.289999999999
1764434191.7780948,-1188.315,-11393.46,-40016.295,-27833.94,-24564.555,-21748.905,-12632.58,-8418.465
1764434191.7780948,-1188.495,-11392.02,-40013.055,-27833.805,-24564.33,-21752.775,-12629.115,-8413.56
1764434191.8259938,-1190.34,-11393.46,-40015.89,-27837.045,-24566.535,-21753.81,-12630.42,-8416.619999999999
1764434191.8259938,-1186.83,-11391.12,-40015.755,-27834.48,-24564.105,-21746.88,-12631.86,-8417.744999999999
1764434191.8259938,-1184.04,-11390.67,-40017.285,-27831.735,-24562.755,-21740.49,-12634.965,-8421.705
1764434191.8259938,-1186.155,-11395.485,-40024.62,-27834.39,-24565.995,-21736.575,-12643.515,-8431.335
1764434191.8259938,-1182.78,-11394.27,-40023.9,-27831.375,-24563.115,-21729.915,-12644.64,-8431.965
1764434191.8259938,-1182.195,-11393.505,-40022.37,-27830.07,-24561.945,-21729.645,-12643.83,-8430.3
1764434191.8259938,-1180.395,-11390.67,-40017.645,-27827.82,-24559.515,-21731.67,-12638.34,-8423.64
1764434191.8259938,-1180.44,-11388.15,-40013.46,-27826.875,-24557.31,-21735.765,-12631.905,-8417.16
1764434191.8259938,-1183.14,-11388.645,-40010.76,-27828.945,-24559.02,-21744.315,-12626.685,-8411.58
1764434191.8259938,-1186.29,-11390.04,-40010.445,-27832.32,-24561.585,-21751.56,-12624.705,-8409.555
1764434191.8259938,-1187.19,-11390.265,-40012.065,-27833.22,-24562.665,-21751.515,-12625.83,-8411.31
1764434191.8259938,-1188.225,-11392.065,-40016.88,-27834.705,-24564.465,-21748.95,-12630.825,-8417.744999999999
1764434191.8259938,-1183.185,-11389.68,-40015.8,-27830.43,-24561.495,-21739.455,-12633.39,-8419.5
1764434191.8259938,-1184.445,-11393.19,-40021.56,-27832.545,-24564.06,-21734.955,-12641.445,-8428.41
1764434191.8259938,-1179.135,-11389.23,-40019.4,-27827.1,-24558.885,-21725.73,-12641.625,-8427.195
1764434191.8259938,-1179.315,-11389.68,-40018.5,-27826.65,-24559.38,-21727.62,-12641.265,-8426.295
1764434191.8259938,-1183.23,-11392.695,-40019.04,-27830.295,-24562.44,-21735.72,-12640.905,-8425.26
1764434191.8259938,-1184.94,-11393.145,-40016.61,-27831.105,-24561.99,-21740.895,-12636.045,-8420.895
1764434191.8259938,-1184.715,-11390.13,-40011.39,-27830.565,-24560.505,-21745.98,-12628.89,-8413.425
1764434191.8259938,-1188.945,-11392.515,-40012.425,-27834.615,-24564.96,-21753.855,-12627.54,-8413.47
1764434191.8259938,-1187.73,-11391.255,-40013.235,-27835.02,-24564.645,-21752.28,-12627.99,-8413.695
1764434191.8259938,-1183.5449999999998,-11388.195,-40012.47,-27831.42,-24560.955,-21743.64,-12628.89,-8414.505
1764434191.8259938,-1180.845,-11388.42,-40014.9,-27829.53,-24560.145,-21737.79,-12633.03,-8419.185
1764434191.8259938,-1182.195,-11392.965,-40021.515,-27831.78,-24562.935,-21733.47,-12640.905,-8428.68
1764434191.8259938,-1179.27,-11391.12,-40020.12,-27829.125,-24559.605,-21726.945,-12643.065,-8429.58
1764434191.8259938,-1176.7949999999998,-11388.105,-40015.935,-27826.29,-24556.77,-21725.505,-12640.41,-8425.395
1764434191.875153,-1179.27,-11389.32,-40015.53,-27828.18,-24558.75,-21731.04,-12637.665,-8423.145
1764434191.875153,-1185.975,-11393.505,-40018.365,-27834.255,-24564.78,-21742.695,-12637.17,-8423.865
1764434191.875153,-1188.63,-11393.82,-40015.89,-27835.875,-24565.995,-21750.975,-12632.67,-8418.465
1764434191.875153,-1192.365,-11395.8,-40016.43,-27838.755,-24568.965,-21757.005,-12630.915,-8416.98
1764434191.875153,-1189.62,-11393.145,-40015.17,-27837.045,-24567.795,-21754.755,-12630.015,-8416.529999999999
1764434191.875153,-1183.365,-11388.735,-40013.64,-27832.815,-24563.565,-21746.295,-12629.43,-8415.315
1764434191.875153,-1181.205,-11388.015,-40015.395,-27831.375,-24562.755,-21740.13,-12632.265,-8418.779999999999
1764434191.875153,-1183.905,-11392.56,-40022.73,-27833.895,-24565.86,-21736.305,-12641.805,-8428.095
1764434191.875153,-1177.965,-11387.97,-40019.58,-27828.585,-24559.56,-21727.17,-12641.13,-8426.43
1764434191.875153,-1178.055,-11388.33,-40018.815,-27827.73,-24558.84,-21727.845,-12639.69,-8425.529999999999
1764434191.875153,-1174.995,-11384.145,-40012.605,-27823.815,-24555.105,-21727.8,-12632.94,-8417.205
1764434191.875153,-1177.515,-11385.945,-40011.615,-27825.795,-24556.635,-21734.91,-12629.205,-8413.605
1764434191.875153,-1183.59,-11389.185,-40011.615,-27830.655,-24560.865,-21745.71,-12626.37,-8411.94
1764434191.875153,-1187.46,-11390.49,-40012.515,-27834.21,-24564.24,-21753.045,-12625.965,-8411.039999999999
1764434191.875153,-1185.255,-11388.465,-40012.245,-27833.67,-24563.115,-21749.94,-12626.595,-8410.005
1764434191.875153,-1183.68,-11387.79,-40013.64,-27832.365,-24561.945,-21745.08,-12628.845,-8413.515
1764434191.875153,-1182.87,-11389.23,-40016.655,-27832.365,-24562.575,-21740.355,-12633.75,-8418.69
1764434191.875153,-1184.94,-11393.955,-40023.675,-27836.145,-24566.085,-21736.845,-12643.74,-8428.68
1764434191.875153,-1179.855,-11390.715,-40021.29,-27830.25,-24560.865,-21728.52,-12644.235,-8427.824999999999
1764434191.875153,-1180.305,-11391.165,-40020.795,-27829.845,-24559.785,-21729.195,-12643.47,-8427.69
1764434191.875153,-1182.465,-11391.795,-40020.255,-27832.005,-24561.225,-21735.225,-12640.68,-8425.125
1764434191.875153,-1183.005,-11390.13,-40016.79,-27832.455,-24561.045,-21740.4,-12636.045,-8419.725
1764434191.9186647,-1187.865,-11392.965,-40015.98,-27835.47,-24564.915,-21750.075,-12632.13,-8416.845
1764434191.9186647,-1190.205,-11393.235,-40016.115,-27837.225,-24567.165,-21755.88,-12629.835,-8414.73
1764434191.9186647,-1187.1,-11390.265,-40014.9,-27835.965,-24565.05,-21752.91,-12628.305,-8413.244999999999
1764434191.9186647,-1182.825,-11386.62,-40013.325,-27832.5,-24560.865,-21744.495,-12629.52,-8413.605
1764434191.9186647,-1181.43,-11387.205,-40016.475,-27831.555,-24560.37,-21738.195,-12634.02,-8418.555
1764434191.9186647,-1184.6699999999998,-11394.045,-40024.62,-27835.155,-24564.915,-21735.72,-12644.19,-8429.535
1764434191.9186647,-1182.15,-11394.045,-40024.62,-27833.04,-24563.16,-21730.41,-12647.16,-8431.74
1764434191.9186647,-1181.2949999999998,-11391.705,-40022.325,-27830.97,-24560.73,-21729.555,-12644.82,-8429.445
1764434191.9186647,-1179.45,-11388.645,-40017.375,-27829.26,-24558.165,-21731.49,-12638.52,-8421.93
1764434191.9186647,-1184.49,-11392.245,-40018.275,-27833.31,-24562.44,-21740.895,-12636.27,-8420.039999999999
1764434191.9186647,-1185.165,-11389.77,-40013.955,-27833.175,-24561.72,-21746.655,-12629.97,-8413.515
1764434191.9186647,-1188.99,-11391.615,-40015.08,-27836.865,-24564.825,-21753.405,-12629.25,-8412.885
1764434191.9186647,-1191.96,-11393.82,-40018.815,-27840.105,-24567.615,-21755.34,-12631.32,-8417.34
1764434191.9186647,-1189.98,-11393.73,-40020.3,-27838.71,-24567.345,-21750.255,-12635.55,-8420.625
1764434191.919672,-1182.87,-11388.465,-40017.105,-27832.32,-24562.395,-21739.185,-12635.775,-8419.949999999999
1764434191.919672,-1182.105,-11390.715,-40022.01,-27833.175,-24562.98,-21733.65,-12641.805,-8428.005
1764434191.919672,-1177.605,-11388.195,-40020.93,-27829.98,-24558.345,-21726.0,-12642.3,-8427.465
1764434191.919672,-1181.835,-11392.65,-40023.99,-27833.715,-24561.315,-21730.86,-12644.91,-8429.94
1764434191.919672,-1183.68,-11393.19,-40021.965,-27834.165,-24561.855,-21735.54,-12642.435,-8426.115
1764434191.919672,-1183.815,-11390.85,-40017.15,-27832.365,-24561.63,-21739.68,-12636.72,-8419.095
1764434191.919672,-1188.09,-11392.695,-40016.52,-27835.83,-24565.14,-21749.535,-12632.355,-8415.585
1764434191.919672,-1191.4199999999998,-11394.9,-40017.645,-27839.25,-24567.795,-21756.825,-12631.77,-8415.18
1764434191.919672,-1192.05,-11394.945,-40019.445,-27840.285,-24568.2,-21755.79,-12633.705,-8417.025
1764434191.919672,-1186.11,-11390.535,-40017.375,-27835.695,-24564.195,-21746.115,-12633.345,-8416.485
1764434191.9660892,-1182.375,-11388.645,-40018.005,-27832.95,-24562.08,-21738.105,-12635.145,-8419.365
1764434191.9660892,-1184.49,-11393.325,-40025.025,-27835.74,-24565.455,-21735.27,-12644.1,-8429.355
1764434191.96709,-1179.855,-11391.39,-40024.08,-27832.185,-24561.99,-21728.745,-12643.965,-8429.31
1764434191.96709,-1178.82,-11390.265,-40021.515,-27830.25,-24560.37,-21728.52,-12641.58,-8426.34
1764434191.96709,-1176.345,-11386.89,-40015.44,-27827.64,-24556.68,-21729.87,-12634.965,-8418.69
1764434191.96709,-1179.945,-11388.51,-40014.585,-27830.52,-24559.38,-21737.52,-12632.985,-8415.99
1764434191.96709,-1183.995,-11389.86,-40013.37,-27832.59,-24561.855,-21746.205,-12629.205,-8412.345
1764434191.96709,-1188.54,-11391.795,-40015.17,-27836.46,-24565.275,-21753.405,-12628.845,-8412.255
1764434191.96709,-1190.07,-11393.37,-40016.655,-27838.08,-24567.39,-21754.035,-12630.465,-8414.19
1764434191.96709,-1186.9199999999998,-11391.345,-40016.88,-27835.245,-24564.555,-21747.555,-12632.67,-8417.07
1764434191.96709,-1180.665,-11387.52,-40015.44,-27829.125,-24558.165,-21735.855,-12633.03,-8417.654999999999
1764434191.96709,-1179.675,-11390.22,-40019.58,-27828.81,-24558.165,-21729.24,-12639.6,-8424.539999999999
1764434191.96709,-1178.46,-11390.625,-40021.245,-27827.28,-24556.68,-21724.155,-12641.805,-8426.744999999999
1764434191.96709,-1175.895,-11387.88,-40016.745,-27822.915,-24552.09,-21721.68,-12638.25,-8422.289999999999
1764434191.96709,-1177.785,-11388.33,-40015.53,-27823.32,-24553.125,-21726.81,-12634.47,-8419.59
1764434191.96709,-1177.47,-11385.045,-40009.995,-27821.295,-24550.515,-21730.455,-12628.035,-8412.525
1764434191.96709,-1180.845,-11385.81,-40008.06,-27824.04,-24552.225,-21739.815,-12624.255,-8408.789999999999
1764434191.96709,-1185.93,-11389.32,-40010.805,-27829.665,-24557.445,-21747.51,-12625.425,-8409.96
1764434191.96709,-1181.7,-11385.54,-40008.825,-27826.785,-24555.33,-21743.505,-12623.625,-8407.664999999999
1764434191.96709,-1180.53,-11385.27,-40010.895,-27826.47,-24555.87,-21739.365,-12627.0,-8412.119999999999
1764434191.96709,-1177.02,-11384.145,-40011.39,-27825.57,-24553.98,-21732.93,-12629.43,-8415.63
1764434191.96709,-1175.85,-11385.495,-40015.17,-27826.2,-24555.285,-21727.35,-12636.675,-8422.154999999999
1764434192.0105238,-1172.52,-11384.19,-40014.99,-27824.085,-24553.26,-21722.04,-12637.62,-8422.92
1764434192.0105238,-1174.275,-11384.955,-40015.215,-27824.895,-24554.43,-21725.055,-12638.43,-8422.425
1764434192.0105238,-1172.34,-11382.39,-40010.76,-27823.32,-24553.395,-21728.745,-12632.94,-8415.494999999999
1764434192.0105238,-1179.81,-11388.015,-40014.495,-27830.61,-24560.19,-21741.39,-12634.47,-8417.475
1764434192.0105238,-1182.15,-11388.33,-40012.29,-27832.68,-24562.755,-21749.94,-12629.745,-8412.029999999999
1764434192.0105238,-1183.635,-11388.465,-40012.065,-27834.12,-24565.545,-21755.88,-12628.575,-8410.095
1764434192.0105238,-1181.2949999999998,-11385.405,-40011.165,-27832.32,-24563.88,-21753.27,-12627.675,-8409.15
1764434192.0115614,-1181.97,-11387.475,-40015.215,-27834.795,-24565.68,-21751.695,-12632.715,-8415.0
1764434192.0115614,-1176.3,-11384.01,-40013.955,-27830.34,-24561.495,-21741.975,-12633.885,-8415.63
1764434192.0115614,-1175.805,-11385.9,-40018.23,-27829.935,-24561.495,-21736.08,-12640.59,-8421.975
1764434192.0115614,-1173.69,-11386.395,-40018.455,-27827.595,-24559.47,-21731.175,-12642.705,-8423.91
1764434192.0115614,-1176.66,-11389.365,-40020.03,-27829.17,-24561.315,-21733.74,-12643.29,-8425.26
1764434192.0115614,-1176.03,-11386.755,-40014.81,-27826.965,-24557.895,-21734.505,-12637.485,-8418.824999999999
1764434192.0115614,-1178.64,-11386.62,-40012.56,-27827.415,-24557.805,-21740.175,-12631.5,-8414.414999999999
1764434192.0115614,-1183.815,-11389.635,-40013.55,-27831.87,-24561.675,-21750.3,-12627.99,-8411.715
1764434192.0115614,-1186.245,-11390.22,-40013.64,-27834.57,-24563.385,-21754.98,-12626.28,-8410.994999999999
1764434192.0115614,-1184.58,-11388.195,-40012.695,-27832.86,-24561.63,-21750.975,-12625.74,-8410.365
1764434192.0115614,-1181.2949999999998,-11387.115,-40013.235,-27829.485,-24559.605,-21743.865,-12627.045,-8411.58
1764434192.0115614,-1172.835,-11380.77,-40009.095,-27821.43,-24551.595,-21729.96,-12625.38,-8409.24
1764434192.0115614,-1171.35,-11381.715,-40012.965,-27820.305,-24550.38,-21721.095,-12631.275,-8415.18
1764434192.0115614,-1168.29,-11380.23,-40011.93,-27817.965,-24547.455,-21714.57,-12631.545,-8416.08
1764434192.0115614,-1167.57,-11379.51,-40009.545,-27817.335,-24546.87,-21715.83,-12629.115,-8413.965
1764434192.0115614,-1170.945,-11381.895,-40009.23,-27819.81,-24549.705,-21722.805,-12626.595,-8412.029999999999
1764434192.0115614,-1177.47,-11386.53,-40011.84,-27825.48,-24555.195,-21733.965,-12626.685,-8412.119999999999
1764434192.0572844,-1176.975,-11383.065,-40006.44,-27824.265,-24554.025,-21739.545,-12620.475,-8404.154999999999
1764434192.0572844,-1179.315,-11383.74,-40006.125,-27826.29,-24556.23,-21745.35,-12618.99,-8403.164999999999
1764434192.0572844,-1182.015,-11386.35,-40010.04,-27829.53,-24559.065,-21746.925,-12622.41,-8407.529999999999
1764434192.0572844,-1180.575,-11386.26,-40012.2,-27828.675,-24559.065,-21741.84,-12626.055,-8410.815
1764434192.0572844,-1175.805,-11383.02,-40012.02,-27823.815,-24555.69,-21732.345,-12627.315,-8411.535
1764434192.0572844,-1177.425,-11386.485,-40018.86,-27826.74,-24557.895,-21728.79,-12635.37,-8420.895
1764434192.0572844,-1174.14,-11385.045,-40017.33,-27823.545,-24555.915,-21723.255,-12635.955,-8421.48
1764434192.0582888,-1173.78,-11384.055,-40014.54,-27822.24,-24554.43,-21724.2,-12634.92,-8419.455
1764434192.0582888,-1172.115,-11380.77,-40009.32,-27819.855,-24550.92,-21725.595,-12628.755,-8412.3
1764434192.0582888,-1176.7949999999998,-11383.2,-40010.22,-27824.355,-24554.565,-21734.64,-12626.01,-8410.41
1764434192.0582888,-1175.13,-11379.42,-40004.73,-27822.96,-24552.99,-21739.59,-12618.09,-8401.275
1764434192.0582888,-1177.74,-11380.77,-40005.54,-27825.255,-24554.97,-21745.44,-12616.92,-8400.96
1764434192.0582888,-1179.99,-11382.93,-40009.23,-27827.055,-24557.265,-21746.79,-12619.17,-8404.875
1764434192.0582888,-1177.065,-11380.77,-40009.995,-27824.67,-24555.33,-21740.76,-12622.005,-8407.08
1764434192.0582888,-1173.825,-11380.68,-40011.525,-27822.375,-24553.755,-21733.695,-12626.01,-8410.5
1764434192.0582888,-1173.465,-11381.445,-40015.215,-27821.655,-24553.44,-21726.855,-12632.49,-8416.35
1764434192.0582888,-1169.91,-11380.05,-40014.135,-27818.19,-24550.245,-21720.33,-12632.715,-8415.945
1764434192.0582888,-1168.065,-11379.915,-40012.515,-27817.245,-24549.795,-21721.095,-12630.375,-8414.01
1764434192.0582888,-1170.09,-11380.905,-40010.58,-27818.145,-24551.73,-21727.08,-12626.1,-8410.5
1764434192.0582888,-1171.08,-11378.7,-40005.765,-27817.425,-24550.695,-21731.715,-12620.565,-8404.289999999999
1764434192.0582888,-1174.68,-11378.475,-40003.92,-27820.08,-24552.72,-21740.265,-12616.785,-8400.465
1764434192.0582888,-1179.225,-11381.31,-40005.765,-27823.995,-24556.5,-21747.24,-12617.82,-8401.32
1764434192.1043825,-1182.105,-11385.135,-40009.95,-27827.46,-24560.595,-21748.905,-12621.645,-8406.539999999999
1764434192.1043825,-1175.985,-11380.995,-40008.375,-27823.23,-24556.41,-21739.77,-12621.24,-8405.685
1764434192.1043825,-1172.745,-11379.555,-40009.545,-27821.25,-24553.98,-21731.85,-12623.805,-8408.789999999999
1764434192.1043825,-1176.165,-11385.09,-40017.825,-27824.76,-24557.805,-21729.33,-12634.695,-8419.994999999999
1764434192.1043825,-1172.2949999999998,-11382.255,-40015.89,-27820.62,-24553.98,-21722.265,-12635.28,-8418.914999999999
1764434192.1043825,-1173.375,-11383.245,-40015.215,-27821.43,-24554.475,-21724.965,-12634.335,-8418.24
1764434192.1043825,-1172.835,-11381.265,-40010.94,-27820.755,-24551.91,-21727.89,-12628.305,-8412.705
1764434192.1043825,-1172.565,-11379.465,-40006.44,-27819.855,-24550.92,-21731.94,-12622.23,-8406.765
1764434192.1043825,-1179.0449999999998,-11382.075,-40007.43,-27825.39,-24556.095,-21743.415,-12619.26,-8404.605
1764434192.1043825,-1179.0449999999998,-11380.095,-40004.865,-27825.3,-24556.095,-21746.61,-12615.615,-8401.5
1764434192.1063826,-1177.425,-11379.06,-40005.09,-27824.04,-24554.79,-21744.495,-12616.2,-8402.039999999999
1764434192.1063826,-1172.07,-11375.955,-40003.02,-27819.495,-24550.74,-21735.315,-12617.055,-8401.32
1764434192.1063826,-1167.345,-11373.165,-40002.03,-27815.04,-24547.095,-21726.27,-12618.54,-8402.49
1764434192.1063826,-1165.14,-11374.065,-40005.72,-27814.095,-24546.465,-21719.295,-12624.075,-8407.71
1764434192.1063826,-1162.395,-11372.895,-40005.09,-27811.395,-24544.08,-21713.715,-12624.57,-8408.52
1764434192.1063826,-1160.28,-11370.375,-40001.895,-27810.045,-24542.055,-21714.12,-12620.835,-8404.74
1764434192.1063826,-1161.855,-11370.78,-39999.69,-27810.81,-24542.235,-21719.115,-12616.83,-8401.05
1764434192.1063826,-1165.185,-11372.4,-39998.655,-27812.88,-24544.71,-21726.495,-12613.14,-8397.36
1764434192.1063826,-1168.515,-11373.21,-39997.08,-27816.12,-24547.185,-21734.91,-12609.72,-8393.445
1764434192.1063826,-1170.9,-11373.39,-39997.305,-27819.09,-24549.12,-21739.77,-12608.865,-8392.59
1764434192.1063826,-1173.015,-11375.595,-40000.905,-27822.555,-24552.135,-21741.345,-12612.015,-8396.685
1764434192.1063826,-1167.39,-11371.23,-39999.015,-27817.38,-24547.545,-21733.11,-12612.555,-8396.46
1764434192.1063826,-1165.005,-11371.545,-40001.4,-27816.48,-24546.285,-21726.63,-12616.65,-8401.05
1764434192.1063826,-1164.735,-11374.29,-40006.305,-27816.975,-24547.005,-21720.24,-12623.625,-8408.43
1764434192.1503892,-1163.88,-11374.515,-40006.44,-27815.49,-24545.97,-21716.19,-12625.965,-8410.005
1764434192.1514013,-1164.195,-11374.92,-40004.46,-27814.905,-24545.745,-21718.26,-12624.165,-8408.025
1764434192.1514013,-1168.65,-11378.205,-40005.675,-27818.01,-24549.165,-21727.17,-12622.815,-8407.305
1764434192.1514013,-1170.09,-11377.395,-40003.245,-27818.235,-24549.03,-21732.165,-12617.955,-8401.77
1764434192.1514013,-1170.225,-11375.505,-39998.385,-27818.37,-24548.67,-21738.465,-12611.295,-8394.93
1764434192.1514013,-1168.9199999999998,-11372.895,-39995.64,-27817.245,-24548.085,-21740.76,-12607.02,-8390.25
1764434192.1524165,-1168.695,-11372.715,-39997.08,-27818.28,-24547.86,-21738.735,-12608.325,-8391.869999999999
1764434192.1524165,-1165.725,-11371.185,-39997.755,-27815.67,-24545.52,-21732.435,-12610.035,-8393.94
1764434192.1524165,-1163.07,-11370.105,-39999.465,-27812.655,-24543.675,-21724.515,-12612.78,-8397.72
1764434192.1524165,-1160.955,-11370.465,-40001.805,-27811.485,-24542.235,-21716.865,-12618.45,-8402.94
1764434192.153409,-1158.93,-11370.78,-40002.165,-27810.0,-24541.245,-21712.725,-12621.06,-8404.515
1764434192.153409,-1161.0449999999998,-11371.905,-40002.255,-27811.62,-24543.09,-21715.335,-12620.565,-8404.38
1764434192.153409,-1165.14,-11374.515,-40002.84,-27816.075,-24547.005,-21723.435,-12619.125,-8403.57
1764434192.1540325,-1163.97,-11370.42,-39997.305,-27813.645,-24544.35,-21726.855,-12612.285,-8395.065
1764434192.1540325,-1166.58,-11369.745,-39994.65,-27814.995,-24546.06,-21734.73,-12606.795,-8389.664999999999
1764434192.15441,-1171.035,-11373.435,-39997.845,-27819.765,-24550.83,-21741.525,-12607.02,-8391.195
1764434192.15441,-1169.28,-11372.22,-39997.935,-27819.045,-24549.885,-21738.555,-12607.38,-8392.14
1764434192.15441,-1164.15,-11368.62,-39995.64,-27814.23,-24545.34,-21730.14,-12607.65,-8392.23
1764434192.15441,-1158.39,-11365.605,-39993.795,-27809.325,-24540.615,-21719.25,-12609.54,-8392.59
1764434192.15441,-1157.805,-11367.765,-39998.295,-27809.505,-24540.975,-21713.4,-12615.48,-8399.25
1764434192.19635,-1157.76,-11368.35,-39999.105,-27808.02,-24541.065,-21710.97,-12617.82,-8401.5
1764434192.1973617,-1157.535,-11367.63,-39997.845,-27807.21,-24540.03,-21712.41,-12616.29,-8399.744999999999
1764434192.1973617,-1159.47,-11368.71,-39996.54,-27809.28,-24542.505,-21718.98,-12614.085,-8397.225
1764434192.1973617,-1165.5,-11373.12,-39998.655,-27815.715,-24548.04,-21731.265,-12613.365,-8397.09
1764434192.1973617,-1168.65,-11373.57,-39996.54,-27818.19,-24549.57,-21739.725,-12609.135,-8392.005
1764434192.1973617,-1168.065,-11371.59,-39994.605,-27817.83,-24549.255,-21741.84,-12606.345,-8389.08
1764434192.1973617,-1170.315,-11374.47,-39998.295,-27820.53,-24551.37,-21742.74,-12609.27,-8393.175
1764434192.1973617,-1166.445,-11371.995,-39998.43,-27817.2,-24547.995,-21733.47,-12610.62,-8393.355
1764434192.1973617,-1163.16,-11371.23,-39998.97,-27814.545,-24546.375,-21725.19,-12613.275,-8397.09
1764434192.1973617,-1164.15,-11374.245,-40004.145,-27817.245,-24548.22,-21721.455,-12621.465,-8405.91
1764434192.1973617,-1158.84,-11369.475,-40000.815,-27812.43,-24542.955,-21714.255,-12619.845,-8403.029999999999
1764434192.1973617,-1156.905,-11366.595,-39997.845,-27810.9,-24540.615,-21713.76,-12615.435,-8399.475
1764434192.1973617,-1160.055,-11368.89,-39997.44,-27812.79,-24542.55,-21721.05,-12613.14,-8397.09
1764434192.1973617,-1165.5449999999998,-11372.715,-39998.475,-27817.2,-24547.14,-21731.22,-12612.06,-8395.785
1764434192.1973617,-1166.04,-11370.465,-39994.47,-27817.425,-24547.23,-21737.205,-12606.3,-8389.08
1764434192.1983635,-1170.315,-11373.525,-39996.945,-27822.33,-24552.09,-21743.82,-12607.02,-8390.744999999999
1764434192.1983635,-1168.515,-11371.995,-39997.17,-27821.025,-24551.055,-21740.355,-12608.19,-8391.96
1764434192.1983635,-1166.715,-11371.68,-39998.745,-27819.63,-24549.705,-21734.73,-12611.34,-8396.595
1764434192.1983635,-1162.755,-11369.925,-39998.655,-27815.985,-24546.6,-21725.91,-12614.355,-8398.619999999999
1764434192.1998727,-1163.34,-11373.57,-40004.325,-27817.515,-24548.58,-21721.95,-12622.005,-8406.18
1764434192.1998727,-1156.905,-11367.945,-39999.735,-27810.765,-24542.325,-21712.95,-12618.765,-8402.445
1764434192.1998727,-1155.915,-11366.19,-39996.72,-27809.19,-24540.57,-21713.625,-12614.94,-8398.664999999999
1764434192.1998727,-1160.415,-11369.97,-39997.665,-27813.105,-24544.62,-21722.22,-12613.365,-8397.765
1764434192.1998727,-1163.745,-11371.23,-39996.36,-27815.67,-24546.24,-21730.725,-12609.36,-8394.48
1764434192.1998727,-1165.815,-11370.015,-39993.66,-27817.155,-24547.14,-21737.925,-12604.41,-8388.494999999999
1764434192.1998727,-1164.105,-11366.82,-39990.42,-27816.12,-24545.61,-21738.78,-12599.82,-8384.22
1764434192.2443354,-1166.715,-11370.24,-39994.11,-27818.685,-24548.895,-21739.995,-12603.33,-8389.574999999999
1764434192.2443354,-1161.81,-11366.955,-39993.12,-27813.69,-24545.34,-21731.715,-12604.41,-8389.98
1764434192.2443354,-1160.55,-11367.855,-39996.36,-27813.195,-24544.665,-21725.01,-12610.62,-8395.154999999999
1764434192.2443354,-1159.65,-11369.115,-40000.995,-27813.105,-24545.205,-21718.89,-12616.965,-8402.175
1764434192.2443354,-1160.46,-11372.49,-40003.47,-27815.04,-24546.33,-21717.72,-12620.7,-8405.685
1764434192.2453346,-1159.605,-11371.23,-40001.04,-27813.735,-24544.665,-21718.215,-12617.82,-8402.49
1764434192.2453346,-1159.02,-11369.34,-39997.17,-27812.475,-24543.36,-21721.32,-12612.015,-8396.55
1764434192.2453346,-1158.975,-11366.19,-39991.5,-27810.72,-24541.56,-21725.955,-12605.715,-8388.9
1764434192.2453346,-1161.765,-11365.875,-39989.43,-27812.7,-24543.18,-21733.92,-12601.08,-8384.22
1764434192.2453346,-1163.655,-11366.595,-39990.51,-27815.265,-24545.88,-21738.96,-12599.865,-8382.869999999999
1764434192.2453346,-1163.79,-11367.315,-39993.165,-27816.165,-24546.555,-21738.105,-12602.52,-8386.605
1764434192.2463331,-1163.07,-11368.755,-39995.46,-27816.345,-24546.24,-21732.75,-12606.84,-8391.375
1764434192.2463331,-1160.325,-11367.855,-39997.035,-27814.365,-24544.125,-21724.74,-12609.945,-8394.435
1764434192.2463331,-1162.08,-11371.815,-40004.01,-27816.21,-24547.095,-21721.05,-12618.405,-8403.3
1764434192.2463331,-1159.605,-11370.42,-40002.885,-27812.565,-24544.62,-21716.01,-12619.485,-8403.885
1764434192.2463331,-1156.275,-11366.685,-39998.34,-27808.83,-24540.525,-21714.795,-12615.975,-8398.215
1764434192.2463331,-1160.055,-11369.7,-39998.475,-27813.285,-24543.27,-21722.94,-12613.455,-8397.539999999999
1764434192.2463331,-1163.655,-11371.14,-39997.08,-27816.165,-24544.98,-21730.995,-12610.17,-8394.074999999999
1764434192.2463331,-1165.455,-11370.015,-39994.11,-27816.165,-24545.565,-21737.205,-12606.075,-8387.82
1764434192.2463331,-1168.245,-11371.905,-39995.91,-27819.81,-24549.525,-21743.19,-12605.805,-8389.125
1764434192.2463331,-1167.48,-11371.32,-39996.315,-27819.72,-24549.075,-21741.3,-12607.47,-8390.654999999999
1764434192.2463331,-1166.94,-11372.67,-39999.42,-27819.63,-24548.805,-21736.035,-12611.52,-8395.83
1764434192.2894878,-1160.865,-11368.305,-39997.62,-27813.24,-24543.675,-21724.38,-12612.33,-8395.11
1764434192.2899933,-1158.525,-11368.665,-39999.735,-27811.755,-24542.37,-21717.135,-12616.785,-8399.565
1764434192.2899933,-1157.31,-11368.755,-40000.365,-27810.495,-24541.245,-21714.3,-12618.63,-8401.095
1764434192.2899933,-1161.135,-11372.49,-40002.48,-27813.15,-24543.495,-21719.745,-12619.305,-8401.725
1764434192.2899933,-1163.34,-11373.39,-40001.355,-27814.68,-24544.98,-21725.19,-12616.335,-8399.205
1764434192.2899933,-1167.705,-11374.695,-40000.455,-27817.695,-24548.58,-21733.74,-12613.68,-8397.494999999999
1764434192.2899933,-1170.495,-11374.56,-39998.43,-27819.765,-24551.1,-21742.155,-12609.27,-8392.994999999999
1764434192.2899933,-1172.745,-11375.235,-39998.88,-27822.195,-24552.54,-21745.98,-12608.415,-8391.824999999999
1764434192.2899933,-1172.385,-11375.145,-40000.5,-27822.375,-24552.495,-21743.685,-12610.26,-8393.805
1764434192.2899933,-1168.515,-11372.715,-40000.77,-27819.315,-24549.975,-21736.26,-12612.375,-8396.369999999999
1764434192.2899933,-1163.2949999999998,-11369.385,-39999.87,-27814.185,-24545.79,-21726.495,-12614.49,-8397.36
1764434192.2899933,-1161.495,-11370.555,-40002.975,-27812.88,-24545.115,-21719.565,-12620.385,-8403.345
1764434192.2899933,-1160.64,-11371.095,-40003.29,-27811.845,-24543.63,-21716.595,-12621.105,-8404.47
1764434192.2899933,-1163.52,-11373.705,-40004.37,-27814.5,-24546.24,-21721.365,-12622.455,-8405.46
1764434192.2899933,-1162.44,-11370.195,-39998.97,-27812.79,-24544.53,-21724.29,-12617.19,-8398.619999999999
1764434192.2899933,-1165.14,-11370.555,-39996.945,-27814.905,-24545.745,-21731.58,-12613.095,-8394.615
1764434192.2899933,-1170.495,-11372.535,-39997.305,-27819.045,-24549.84,-21741.57,-12610.17,-8392.545
1764434192.2899933,-1175.85,-11377.53,-40001.895,-27824.715,-24555.6,-21749.58,-12612.195,-8396.279999999999
1764434192.2899933,-1175.22,-11377.125,-40003.245,-27824.22,-24555.015,-21746.745,-12613.995,-8398.08
1764434192.2899933,-1169.91,-11373.615,-40002.12,-27819.72,-24550.92,-21737.475,-12615.345,-8398.619999999999
1764434192.2910104,-1167.57,-11374.695,-40003.74,-27819.765,-24549.39,-21730.275,-12620.565,-8403.57
1764434192.2910104,-1167.57,-11377.08,-40007.655,-27819.9,-24550.47,-21724.74,-12627.945,-8410.545
1764434192.2910104,-1164.555,-11375.415,-40006.845,-27817.245,-24547.095,-21718.98,-12627.0,-8409.465
1764434192.2910104,-1167.435,-11377.71,-40007.88,-27819.27,-24548.94,-21723.255,-12626.325,-8408.88
1764434192.3384335,-1167.7949999999998,-11376.765,-40004.55,-27818.955,-24548.31,-21727.845,-12622.095,-8403.345
1764434192.3384335,-1168.2,-11374.74,-40000.05,-27817.83,-24547.23,-21732.615,-12616.785,-8397.585
1764434192.3384335,-1173.465,-11376.675,-39999.87,-27821.97,-24551.01,-21742.515,-12613.545,-8394.75
1764434192.3384335,-1175.04,-11376.72,-40000.14,-27823.32,-24552.045,-21745.89,-12612.645,-8393.715
1764434192.3384335,-1170.405,-11373.12,-39998.52,-27821.34,-24549.795,-21741.21,-12611.385,-8392.545
1764434192.3384335,-1170.495,-11375.145,-40001.76,-27822.33,-24551.325,-21738.195,-12615.615,-8398.305
1764434192.3384335,-1166.895,-11373.39,-40002.57,-27819.09,-24548.67,-21729.24,-12618.63,-8401.14
1764434192.3384335,-1166.625,-11375.82,-40007.655,-27819.315,-24549.345,-21723.66,-12625.245,-8407.98
1764434192.3384335,-1161.855,-11372.67,-40003.92,-27814.14,-24545.025,-21717.585,-12624.345,-8405.64
1764434192.3384335,-1164.06,-11374.92,-40004.055,-27815.355,-24546.6,-21720.96,-12623.625,-8405.369999999999
1764434192.3384335,-1166.445,-11375.37,-40002.93,-27816.615,-24547.365,-21726.09,-12619.755,-8401.365
1764434192.3384335,-1170.405,-11376.09,-40002.12,-27819.72,-24550.29,-21734.73,-12616.965,-8398.26
1764434192.3384335,-1174.725,-11377.8,-40001.85,-27823.275,-24553.71,-21744.495,-12613.41,-8395.605
1764434192.3384335,-1174.5449999999998,-11375.28,-39999.6,-27822.87,-24552.36,-21746.115,-12610.755,-8392.725
1764434192.3384335,-1175.85,-11376.855,-40002.84,-27825.615,-24554.79,-21746.34,-12613.905,-8397.09
1764434192.3384335,-1174.095,-11377.305,-40004.595,-27824.535,-24554.43,-21740.67,-12617.82,-8401.185
1764434192.3384335,-1169.64,-11375.415,-40005.045,-27820.665,-24551.145,-21731.985,-12621.42,-8403.57
1764434192.3384335,-1171.44,-11379.69,-40011.93,-27823.275,-24554.43,-21728.475,-12630.33,-8413.02
1764434192.3384335,-1165.455,-11374.875,-40006.755,-27817.155,-24548.31,-21721.23,-12628.08,-8409.42
1764434192.3384335,-1165.68,-11375.28,-40005.63,-27817.515,-24548.085,-21723.93,-12626.28,-8407.215
1764434192.3384335,-1167.93,-11374.695,-40003.29,-27817.83,-24549.12,-21728.835,-12621.33,-8403.39
1764434192.3384335,-1173.4199999999998,-11377.755,-40004.235,-27822.96,-24553.125,-21739.14,-12619.845,-8402.355
1764434192.3384335,-1173.105,-11374.965,-39999.375,-27822.69,-24551.145,-21744.045,-12613.5,-8394.93
1764434192.3384335,-1175.265,-11376.135,-40000.86,-27824.22,-24552.945,-21747.96,-12611.88,-8394.345
1764434192.3821204,-1171.755,-11373.48,-39999.33,-27822.24,-24550.605,-21742.47,-12611.43,-8393.85
1764434192.3821204,-1172.655,-11376.135,-40003.515,-27823.995,-24552.675,-21739.86,-12617.685,-8400.914999999999
1764434192.3821204,-1168.965,-11374.92,-40004.595,-27821.115,-24549.345,-21731.355,-12622.05,-8403.93
1764434192.3821204,-1170.765,-11379.06,-40011.21,-27823.365,-24552.27,-21727.845,-12630.87,-8412.795
1764434192.3821204,-1165.5449999999998,-11376.405,-40008.555,-27819.18,-24548.04,-21720.645,-12628.845,-8410.455
1764434192.3821204,-1168.74,-11379.24,-40009.23,-27821.655,-24550.47,-21725.685,-12628.575,-8410.86
1764434192.3821204,-1169.865,-11377.89,-40005.945,-27821.745,-24550.605,-21730.635,-12624.84,-8406.045
1764434192.3821204,-1170.0449999999998,-11375.775,-40001.67,-27820.98,-24550.29,-21735.72,-12619.755,-8399.25
1764434192.3821204,-1175.22,-11378.475,-40002.165,-27824.58,-24554.115,-21745.44,-12616.47,-8397.09
1764434192.3821204,-1175.22,-11376.855,-40000.59,-27823.95,-24553.665,-21746.88,-12614.085,-8394.57
1764434192.3821204,-1173.915,-11376.045,-40000.905,-27823.5,-24552.72,-21743.73,-12615.345,-8395.74
1764434192.3821204,-1171.1699999999998,-11375.01,-40002.345,-27822.33,-24552.0,-21738.645,-12618.945,-8398.89
1764434192.3821204,-1168.65,-11375.685,-40005.225,-27820.71,-24550.38,-21731.445,-12623.67,-8404.154999999999
1764434192.3831282,-1168.56,-11379.33,-40009.59,-27821.52,-24551.46,-21725.685,-12630.24,-8411.039999999999
1764434192.3831282,-1168.515,-11380.635,-40009.815,-27820.665,-24551.37,-21723.615,-12630.96,-8412.705
1764434192.3831282,-1166.625,-11378.565,-40006.98,-27818.595,-24549.3,-21724.515,-12627.9,-8408.88
1764434192.3831282,-1171.035,-11381.445,-40007.79,-27822.195,-24552.765,-21732.705,-12626.775,-8408.07
1764434192.3831282,-1172.16,-11379.915,-40003.515,-27821.565,-24552.675,-21738.69,-12620.97,-8401.725
1764434192.3841436,-1175.31,-11379.915,-40001.94,-27823.545,-24554.43,-21746.97,-12616.83,-8397.585
1764434192.3841436,-1178.595,-11382.795,-40004.955,-27828.405,-24558.255,-21752.685,-12617.73,-8399.34
1764434192.3841436,-1175.985,-11380.275,-40004.505,-27826.47,-24556.14,-21748.32,-12617.865,-8399.789999999999
1764434192.3841436,-1169.91,-11375.55,-40001.49,-27821.16,-24550.695,-21737.835,-12618.045,-8398.89
1764434192.385151,-1165.23,-11373.57,-40002.48,-27817.74,-24547.77,-21728.475,-12620.925,-8401.14
1764434192.385151,-1165.005,-11376.18,-40007.205,-27818.415,-24548.58,-21722.895,-12627.855,-8408.43
1764434192.430271,-1163.565,-11376.225,-40006.35,-27816.48,-24547.05,-21719.655,-12628.035,-8409.195
1764434192.430271,-1166.265,-11377.665,-40007.43,-27818.19,-24549.39,-21724.47,-12628.665,-8409.51
1764434192.430271,-1169.1,-11379.42,-40007.07,-27821.565,-24552.18,-21731.355,-12625.515,-8406.585
1764434192.430271,-1168.785,-11377.08,-40001.715,-27820.62,-24550.56,-21736.26,-12618.135,-8398.845
1764434192.430271,-1173.465,-11379.465,-40002.345,-27824.805,-24554.61,-21746.34,-12615.525,-8397.315
1764434192.431317,-1176.21,-11380.455,-40003.74,-27827.235,-24557.13,-21750.165,-12615.795,-8397.945
1764434192.431317,-1174.32,-11379.195,-40004.055,-27826.335,-24555.69,-21747.24,-12616.56,-8399.025
1764434192.431317,-1171.44,-11377.17,-40003.74,-27823.5,-24553.845,-21740.175,-12618.72,-8401.32
1764434192.431317,-1165.635,-11374.47,-40003.38,-27819.09,-24549.93,-21730.365,-12620.88,-8403.255
1764434192.431317,-1165.635,-11376.99,-40007.97,-27820.53,-24551.235,-21724.875,-12628.08,-8410.455
1764434192.431317,-1167.12,-11379.33,-40009.995,-27821.115,-24552.315,-21723.93,-12630.69,-8413.244999999999
1764434192.431317,-1168.02,-11379.465,-40008.465,-27821.79,-24551.595,-21726.36,-12628.665,-8409.914999999999
1764434192.431317,-1168.9199999999998,-11378.655,-40006.125,-27821.88,-24551.73,-21730.995,-12624.48,-8404.92
1764434192.431317,-1170.495,-11377.755,-40003.245,-27822.375,-24552.675,-21737.61,-12619.935,-8400.555
1764434192.431317,-1171.215,-11376.495,-39999.015,-27822.6,-24553.08,-21743.64,-12613.815,-8394.345
1764434192.431317,-1176.975,-11379.96,-40003.38,-27827.91,-24557.985,-21750.03,-12615.795,-8397.36
1764434192.431317,-1176.66,-11379.285,-40005.09,-27828.315,-24557.94,-21748.23,-12618.45,-8400.33
1764434192.431317,-1172.79,-11377.26,-40005.045,-27824.67,-24554.34,-21739.995,-12621.105,-8401.815
1764434192.431317,-1170.72,-11377.44,-40007.97,-27823.32,-24553.215,-21732.795,-12625.425,-8405.82
1764434192.431317,-1172.79,-11382.705,-40014.18,-27826.245,-24557.085,-21730.5,-12634.515,-8415.539999999999
1764434192.431317,-1168.425,-11379.33,-40010.175,-27821.34,-24552.09,-21724.335,-12633.21,-8413.289999999999
1764434192.431317,-1168.695,-11379.195,-40008.645,-27820.485,-24552.09,-21726.495,-12630.555,-8411.13
1764434192.475568,-1170.72,-11380.185,-40006.575,-27821.79,-24553.53,-21732.57,-12626.73,-8407.395
1764434192.475568,-1173.825,-11380.59,-40004.505,-27823.185,-24555.69,-21741.165,-12621.96,-8402.895
1764434192.475568,-1178.145,-11383.11,-40004.865,-27827.415,-24559.56,-21750.705,-12619.17,-8400.42
1764434192.475568,-1180.125,-11384.1,-40005.72,-27830.205,-24562.17,-21754.53,-12619.575,-8400.779999999999
1764434192.475568,-1176.12,-11379.69,-40004.19,-27827.1,-24558.795,-21748.59,-12620.07,-8399.97
1764434192.475568,-1172.745,-11377.89,-40004.415,-27825.03,-24556.725,-21742.29,-12622.23,-8402.94
1764434192.475568,-1169.505,-11377.17,-40006.17,-27822.915,-24554.61,-21734.28,-12625.47,-8406.945
1764434192.475568,-1169.55,-11379.915,-40011.84,-27822.33,-24555.87,-21729.33,-12631.59,-8414.145
1764434192.475568,-1170.18,-11380.77,-40012.155,-27821.97,-24556.14,-21727.845,-12632.805,-8415.765
1764434192.475568,-1170.225,-11380.185,-40009.59,-27820.755,-24555.15,-21729.465,-12630.33,-8412.029999999999
1764434192.475568,-1169.19,-11378.565,-40006.215,-27819.765,-24553.44,-21732.615,-12624.885,-8405.55
1764434192.475568,-1169.595,-11376.315,-40001.67,-27818.64,-24552.315,-21737.79,-12619.215,-8398.305
1764434192.475568,-1171.89,-11376.405,-39998.7,-27821.43,-24553.71,-21744.765,-12613.905,-8394.255
1764434192.475568,-1176.165,-11379.42,-40002.39,-27826.29,-24557.94,-21750.39,-12615.165,-8397.0
1764434192.475568,-1174.95,-11378.295,-40003.2,-27825.345,-24557.535,-21747.42,-12616.92,-8398.44
1764434192.475568,-1170.36,-11376.09,-40002.12,-27821.655,-24554.115,-21738.915,-12619.44,-8399.385
1764434192.475568,-1167.435,-11376.405,-40004.19,-27820.035,-24552.315,-21731.67,-12622.95,-8404.83
1764434192.475568,-1168.2,-11379.06,-40009.05,-27820.62,-24552.9,-21726.63,-12630.015,-8412.705
1764434192.475568,-1164.645,-11375.955,-40006.215,-27816.03,-24549.075,-21721.41,-12629.16,-8410.275
1764434192.475568,-1169.685,-11379.78,-40009.32,-27821.07,-24554.025,-21729.465,-12631.14,-8411.805
1764434192.475568,-1171.665,-11380.095,-40006.8,-27822.555,-24554.34,-21735.36,-12627.81,-8407.574999999999
1764434192.475568,-1173.87,-11379.78,-40003.74,-27823.59,-24555.105,-21742.11,-12623.355,-8402.58
1764434192.524391,-1176.48,-11379.42,-40001.22,-27824.895,-24555.87,-21749.355,-12618.18,-8397.855
1764434192.524391,-1175.76,-11377.62,-40000.32,-27824.85,-24555.645,-21750.075,-12616.56,-8396.1
1764434192.524391,-1175.6699999999998,-11379.105,-40003.155,-27827.19,-24557.4,-21748.365,-12620.205,-8399.835
1764434192.524391,-1171.215,-11376.405,-40002.345,-27822.915,-24553.305,-21739.41,-12621.645,-8400.645
1764434192.5249045,-1170.27,-11378.025,-40006.215,-27822.105,-24553.395,-21732.48,-12627.0,-8407.17
1764434192.5249045,-1172.205,-11382.57,-40011.93,-27824.805,-24555.6,-21729.78,-12634.875,-8415.81
1764434192.5249045,-1166.715,-11379.015,-40008.105,-27819.405,-24550.155,-21724.11,-12632.355,-8411.895
1764434192.5249045,-1166.895,-11378.295,-40005.765,-27818.82,-24550.515,-21727.305,-12630.105,-8409.105
1764434192.5249045,-1171.44,-11380.68,-40006.935,-27823.23,-24554.565,-21735.72,-12628.53,-8408.744999999999
1764434192.5249045,-1174.32,-11381.715,-40006.08,-27826.2,-24557.175,-21742.92,-12624.705,-8405.55
1764434192.5249045,-1175.22,-11380.59,-40003.065,-27826.2,-24557.355,-21749.67,-12619.35,-8399.61
1764434192.5249045,-1173.105,-11377.71,-40000.275,-27823.95,-24555.15,-21748.995,-12616.11,-8395.92
1764434192.5249045,-1171.62,-11376.45,-40000.86,-27823.545,-24554.745,-21744.765,-12616.965,-8397.404999999999
1764434192.5249045,-1170.225,-11376.945,-40003.695,-27823.185,-24554.655,-21740.895,-12621.015,-8401.77
1764434192.5249045,-1167.84,-11376.855,-40006.53,-27821.79,-24553.665,-21734.73,-12625.965,-8406.99
1764434192.5249045,-1166.895,-11379.33,-40010.58,-27822.24,-24554.475,-21729.375,-12632.715,-8413.65
1764434192.5249045,-1165.23,-11378.79,-40009.995,-27820.53,-24552.54,-21726.495,-12633.795,-8413.289999999999
1764434192.5249045,-1167.66,-11379.87,-40009.32,-27821.43,-24553.62,-21729.825,-12632.67,-8412.345
1764434192.5249045,-1170.18,-11379.915,-40006.53,-27821.97,-24553.575,-21734.055,-12628.35,-8408.34
1764434192.5249045,-1174.005,-11381.58,-40006.17,-27824.67,-24555.87,-21743.055,-12624.75,-8405.055
1764434192.5249045,-1173.69,-11379.105,-40002.165,-27824.58,-24555.105,-21748.455,-12618.225,-8397.765
1764434192.5249045,-1179.0,-11382.885,-40006.215,-27829.845,-24560.37,-21754.8,-12620.97,-8401.095
1764434192.5249045,-1177.9199999999998,-11382.255,-40007.295,-27829.665,-24560.595,-21751.785,-12622.77,-8403.255
1764434192.5249045,-1174.23,-11379.735,-40007.34,-27825.84,-24557.535,-21744.18,-12625.245,-8405.64
1764434192.5713253,-1169.145,-11376.63,-40005.945,-27821.025,-24553.08,-21734.055,-12628.08,-8407.08
1764434192.5713253,-1168.11,-11378.34,-40010.04,-27821.115,-24553.755,-21728.97,-12634.38,-8412.66
1764434192.5713253,-1165.5,-11377.26,-40009.455,-27818.955,-24551.055,-21725.28,-12633.21,-8411.805
1764434192.5713253,-1167.39,-11378.115,-40008.78,-27819.99,-24551.505,-21728.79,-12631.725,-8410.32
1764434192.5718622,-1172.34,-11381.625,-40009.545,-27823.815,-24554.655,-21737.43,-12630.015,-8408.744999999999
1764434192.5718622,-1172.655,-11379.555,-40004.64,-27823.23,-24553.305,-21742.245,-12623.22,-8401.86
1764434192.5718622,-1177.02,-11381.13,-40004.415,-27825.975,-24556.77,-21750.57,-12620.205,-8399.744999999999
1764434192.5718622,-1174.905,-11378.295,-40002.255,-27825.525,-24556.455,-21750.795,-12617.19,-8397.36
1764434192.5718622,-1175.175,-11378.655,-40005.315,-27826.56,-24557.265,-21749.04,-12619.215,-8400.555
1764434192.5718622,-1169.73,-11375.145,-40004.28,-27821.16,-24552.315,-21739.68,-12620.115,-8400.869999999999
1764434192.5718622,-1166.58,-11374.875,-40005.945,-27819.36,-24550.74,-21732.12,-12624.21,-8406.135
1764434192.5718622,-1166.4,-11377.8,-40010.265,-27819.765,-24552.135,-21726.72,-12631.05,-8412.615
1764434192.5718622,-1167.21,-11379.555,-40011.75,-27821.115,-24552.765,-21726.765,-12633.615,-8414.414999999999
1764434192.5718622,-1168.74,-11380.365,-40010.355,-27822.555,-24553.395,-21730.905,-12632.67,-8412.57
1764434192.5718622,-1167.93,-11378.295,-40006.17,-27820.755,-24552.045,-21734.055,-12627.0,-8406.27
1764434192.5718622,-1168.83,-11376.765,-40002.48,-27820.395,-24551.415,-21739.095,-12620.745,-8399.385
1764434192.5718622,-1172.88,-11377.8,-40002.12,-27823.5,-24554.295,-21748.68,-12616.965,-8395.965
1764434192.5718622,-1178.325,-11382.255,-40007.025,-27828.81,-24559.605,-21754.98,-12621.645,-8400.105
1764434192.5718622,-1177.515,-11381.13,-40008.42,-27827.28,-24559.47,-21750.93,-12623.22,-8402.715
1764434192.5723205,-1173.825,-11378.97,-40008.69,-27823.995,-24556.995,-21743.37,-12624.93,-8405.414999999999
1764434192.5723205,-1167.7949999999998,-11375.37,-40007.43,-27819.675,-24552.09,-21732.705,-12626.775,-8406.404999999999
1764434192.5723205,-1170.18,-11380.905,-40014.135,-27822.87,-24555.105,-21730.68,-12635.595,-8415.27
1764434192.5723205,-1169.505,-11380.905,-40014.0,-27822.015,-24554.475,-21728.745,-12636.495,-8415.315
1764434192.5723205,-1167.435,-11377.755,-40009.32,-27819.405,-24551.595,-21728.79,-12632.13,-8410.275
1764434192.616549,-1171.215,-11379.87,-40008.645,-27822.195,-24553.71,-21735.54,-12628.98,-8407.89
1764434192.616549,-1173.915,-11379.465,-40006.305,-27823.905,-24555.015,-21742.65,-12624.57,-8403.615
1764434192.616549,-1173.15,-11375.955,-40001.94,-27822.735,-24553.665,-21746.07,-12617.73,-8396.46
1764434192.616549,-1176.84,-11378.16,-40005.63,-27826.92,-24557.355,-21751.38,-12619.98,-8399.205
1764434192.616549,-1173.465,-11375.64,-40004.28,-27823.815,-24554.61,-21746.655,-12620.115,-8398.98
1764434192.616549,-1171.08,-11376.09,-40006.08,-27823.32,-24554.745,-21741.21,-12623.625,-8402.805
1764434192.616549,-1165.41,-11372.4,-40005.27,-27818.64,-24550.065,-21730.59,-12625.47,-8404.335
1764434192.6175587,-1167.345,-11377.08,-40012.02,-27821.88,-24552.855,-21727.44,-12633.84,-8413.065
1764434192.6175587,-1167.165,-11377.035,-40011.93,-27821.115,-24552.09,-21725.775,-12635.325,-8414.505
1764434192.6175587,-1169.505,-11378.7,-40011.48,-27821.88,-24553.53,-21730.95,-12634.695,-8413.244999999999
1764434192.6175587,-1171.035,-11379.465,-40009.005,-27823.32,-24554.385,-21736.755,-12631.455,-8408.654999999999
1764434192.6175587,-1173.645,-11379.645,-40006.485,-27824.895,-24555.42,-21744.315,-12625.56,-8403.48
1764434192.6175587,-1174.365,-11377.845,-40003.155,-27825.12,-24555.33,-21749.805,-12619.215,-8398.08
1764434192.6175587,-1175.22,-11377.935,-40002.795,-27826.245,-24555.96,-21751.47,-12619.665,-8398.26
1764434192.6175587,-1174.32,-11378.565,-40005.495,-27826.02,-24556.23,-21748.995,-12622.59,-8402.039999999999
1764434192.6175587,-1172.16,-11378.07,-40007.115,-27824.04,-24553.395,-21741.435,-12625.65,-8405.505
1764434192.6175587,-1171.53,-11379.555,-40010.67,-27823.095,-24552.72,-21733.875,-12631.59,-8411.085
1764434192.6175587,-1173.15,-11383.74,-40016.16,-27824.265,-24555.78,-21730.365,-12639.015,-8419.994999999999
1764434192.6175587,-1170.135,-11381.67,-40013.19,-27820.665,-24552.27,-21726.72,-12637.44,-8417.744999999999
1764434192.6175587,-1170.495,-11381.22,-40010.895,-27819.945,-24550.965,-21728.115,-12633.615,-8413.605
1764434192.6175587,-1170.99,-11380.005,-40007.79,-27819.315,-24550.425,-21731.445,-12628.26,-8407.98
1764434192.6185567,-1173.465,-11379.78,-40005.72,-27820.26,-24552.045,-21738.6,-12624.885,-8403.255
1764434192.6185567,-1173.06,-11376.045,-40000.68,-27819.0,-24550.38,-21743.73,-12617.145,-8395.965
1764434192.6185567,-1176.03,-11378.79,-40003.065,-27822.96,-24554.115,-21748.905,-12618.36,-8398.529999999999
1764434192.66217,-1173.015,-11376.9,-40003.965,-27821.565,-24553.62,-21744.54,-12619.89,-8398.71
1764434192.66217,-1167.75,-11372.715,-40002.615,-27817.515,-24550.155,-21736.17,-12621.195,-8399.654999999999
1764434192.66217,-1164.96,-11373.165,-40005.54,-27817.155,-24550.83,-21730.545,-12626.37,-8405.369999999999
1764434192.66217,-1167.12,-11377.755,-40012.02,-27820.305,-24553.89,-21728.475,-12634.92,-8413.695
1764434192.66217,-1163.25,-11374.38,-40008.015,-27816.21,-24550.47,-21724.155,-12633.255,-8410.77
1764434192.66217,-1166.76,-11376.675,-40008.33,-27818.91,-24553.395,-21730.545,-12632.715,-8410.994999999999
1764434192.66217,-1166.625,-11375.01,-40005.18,-27819.045,-24553.62,-21735.72,-12627.9,-8405.595
1764434192.66217,-1171.755,-11377.53,-40005.63,-27824.805,-24558.345,-21747.78,-12626.415,-8404.199999999999
1764434192.66217,-1172.88,-11375.955,-40002.165,-27825.84,-24559.38,-21754.17,-12620.655,-8398.215
1764434192.66217,-1172.52,-11375.37,-40001.355,-27825.885,-24559.875,-21754.935,-12619.665,-8397.045
1764434192.66217,-1174.68,-11378.43,-40005.99,-27829.665,-24563.115,-21755.745,-12624.615,-8402.895
1764434192.663216,-1172.43,-11378.07,-40007.745,-27827.91,-24562.08,-21750.255,-12629.115,-8406.315
1764434192.663216,-1167.03,-11374.425,-40007.88,-27823.32,-24557.67,-21739.41,-12631.68,-8407.98
1764434192.663216,-1167.7949999999998,-11377.305,-40012.245,-27823.14,-24558.84,-21733.965,-12638.205,-8414.19
1764434192.663216,-1161.315,-11372.625,-40006.17,-27816.12,-24552.09,-21725.775,-12633.255,-8408.295
1764434192.663216,-1162.305,-11372.445,-40004.01,-27816.57,-24550.74,-21728.655,-12629.925,-8405.955
1764434192.663216,-1168.155,-11375.955,-40005.27,-27820.26,-24554.475,-21736.53,-12628.62,-8405.73
1764434192.663216,-1170.765,-11376.495,-40003.155,-27821.835,-24555.6,-21743.1,-12623.94,-8401.32
1764434192.663216,-1169.91,-11373.66,-39999.555,-27821.25,-24554.205,-21746.88,-12617.595,-8394.164999999999
1764434192.663216,-1173.24,-11376.675,-40002.255,-27823.905,-24556.41,-21750.39,-12618.09,-8395.154999999999
1764434192.663216,-1175.13,-11379.555,-40006.8,-27826.515,-24558.39,-21748.725,-12622.365,-8400.96
1764434192.663216,-1171.62,-11377.845,-40007.79,-27824.22,-24556.185,-21740.715,-12624.84,-8403.345
1764434192.663216,-1166.445,-11375.28,-40007.205,-27819.54,-24552.045,-21729.195,-12628.035,-8406.27
1764434192.663216,-1167.435,-11378.295,-40012.2,-27820.125,-24553.35,-21724.74,-12633.93,-8413.92
1764434192.7103703,-1162.395,-11374.515,-40006.845,-27815.355,-24548.265,-21719.34,-12630.78,-8409.33
1764434192.7109268,-1163.115,-11374.11,-40005.0,-27816.165,-24548.67,-21723.705,-12628.305,-8405.73
1764434192.7109268,-1163.79,-11373.255,-40002.345,-27816.48,-24549.525,-21729.06,-12624.12,-8401.365
1764434192.7109268,-1166.22,-11373.3,-39999.015,-27818.28,-24551.01,-21736.215,-12618.945,-8396.414999999999
1764434192.7109268,-1171.53,-11375.685,-40000.14,-27822.645,-24554.295,-21745.98,-12615.39,-8395.154999999999
1764434192.7109268,-1173.06,-11377.215,-40001.985,-27825.48,-24555.69,-21749.13,-12616.515,-8396.955
1764434192.7109268,-1170.99,-11375.865,-40002.75,-27824.58,-24555.24,-21745.395,-12619.035,-8398.44
1764434192.711414,-1168.425,-11374.335,-40003.245,-27822.015,-24553.665,-21738.195,-12621.735,-8400.914999999999
1764434192.711414,-1164.24,-11372.76,-40004.19,-27818.595,-24551.415,-21729.87,-12625.74,-8404.38
1764434192.711414,-1166.22,-11376.99,-40009.365,-27820.98,-24554.115,-21727.305,-12633.12,-8412.93
1764434192.711414,-1161.0449999999998,-11373.39,-40005.315,-27816.12,-24549.39,-21721.545,-12630.69,-8408.789999999999
1764434192.711414,-1163.52,-11375.145,-40005.0,-27817.65,-24549.615,-21726.27,-12629.835,-8407.08
1764434192.711414,-1166.22,-11376.045,-40003.56,-27819.9,-24551.505,-21733.29,-12627.315,-8403.57
1764434192.711414,-1169.28,-11376.315,-40002.075,-27821.205,-24553.845,-21741.255,-12622.59,-8398.935
1764434192.711414,-1172.835,-11376.765,-40001.67,-27823.545,-24555.96,-21748.815,-12618.18,-8396.369999999999
1764434192.711414,-1176.12,-11379.24,-40004.28,-27827.37,-24559.83,-21753.315,-12620.07,-8398.17
1764434192.711414,-1170.0,-11374.515,-40002.03,-27823.14,-24555.645,-21745.395,-12619.89,-8396.595
1764434192.711414,-1166.985,-11373.39,-40002.84,-27821.79,-24554.565,-21738.105,-12622.995,-8399.789999999999
1764434192.711414,-1165.275,-11373.39,-40004.73,-27819.72,-24552.855,-21730.005,-12627.45,-8404.38
1764434192.711414,-1163.61,-11373.93,-40007.205,-27817.605,-24551.955,-21724.47,-12631.815,-8408.654999999999
1764434192.757031,-1162.035,-11372.49,-40005.18,-27815.13,-24548.985,-21722.265,-12631.05,-8407.08
1764434192.757031,-1164.4199999999998,-11373.93,-40004.865,-27816.795,-24549.93,-21726.99,-12628.845,-8405.055
1764434192.757031,-1163.565,-11371.05,-40000.185,-27815.58,-24548.985,-21730.41,-12623.76,-8398.529999999999
1764434192.757031,-1169.415,-11374.065,-40000.14,-27819.99,-24554.115,-21740.4,-12620.835,-8396.369999999999
1764434192.757031,-1168.83,-11371.5,-39995.82,-27819.36,-24553.53,-21745.395,-12615.165,-8390.565
1764434192.757031,-1171.44,-11374.245,-39999.015,-27822.87,-24557.04,-21748.95,-12617.595,-8393.805
1764434192.757031,-1175.4,-11379.105,-40006.08,-27827.82,-24561.99,-21750.165,-12624.435,-8401.904999999999
1764434192.757031,-1173.105,-11378.34,-40008.105,-27825.48,-24560.775,-21743.595,-12628.395,-8404.965
1764434192.757031,-1164.645,-11371.725,-40003.875,-27817.38,-24552.765,-21729.24,-12626.505,-8403.119999999999
1764434192.757031,-1164.33,-11373.93,-40007.43,-27817.875,-24552.765,-21724.38,-12631.59,-8408.52
1764434192.757031,-1160.595,-11371.41,-40003.74,-27813.87,-24548.805,-21719.97,-12629.925,-8404.785
1764434192.758031,-1161.855,-11371.545,-40002.03,-27814.14,-24549.255,-21723.84,-12627.135,-8402.895
1764434192.758031,-1166.6699999999998,-11374.11,-40002.795,-27818.325,-24552.945,-21732.66,-12625.335,-8402.265
1764434192.758031,-1169.64,-11374.11,-40000.95,-27820.98,-24554.745,-21741.345,-12621.555,-8397.855
1764434192.758031,-1170.495,-11373.525,-39999.33,-27821.88,-24556.095,-21748.23,-12617.37,-8393.22
1764434192.758031,-1171.44,-11373.93,-39999.555,-27822.735,-24556.725,-21750.435,-12617.01,-8393.355
1764434192.758031,-1167.435,-11371.365,-39999.105,-27819.495,-24553.665,-21742.785,-12616.74,-8393.445
1764434192.758031,-1165.995,-11372.13,-40003.065,-27819.99,-24553.89,-21737.565,-12621.645,-8398.215
1764434192.758031,-1160.505,-11368.53,-40002.57,-27815.76,-24549.48,-21727.305,-12624.165,-8399.744999999999
1764434192.758031,-1162.215,-11371.455,-40005.9,-27817.245,-24551.73,-21723.885,-12630.69,-8406.99
1764434192.758031,-1159.02,-11369.745,-40003.605,-27813.915,-24548.985,-21720.42,-12629.115,-8404.83
1764434192.758031,-1158.03,-11367.9,-39999.87,-27811.35,-24547.005,-21722.13,-12624.93,-8399.789999999999
1764434192.758031,-1161.495,-11368.44,-39998.475,-27813.645,-24548.85,-21728.34,-12621.285,-8396.145
1764434192.758031,-1166.265,-11370.42,-39997.98,-27817.29,-24551.82,-21738.24,-12618.09,-8392.725
1764434192.758031,-1171.395,-11373.975,-39999.6,-27822.87,-24557.22,-21749.13,-12617.325,-8392.32
1764434192.758031,-1173.69,-11374.965,-40001.58,-27825.255,-24559.155,-21751.92,-12619.8,-8393.94
1764434192.8030014,-1169.595,-11372.175,-40001.085,-27822.78,-24556.59,-21745.665,-12621.645,-8394.75
1764434192.8030014,-1165.77,-11371.005,-40000.995,-27819.72,-24554.205,-21737.385,-12622.545,-8396.865
1764434192.8030014,-1163.16,-11371.23,-40004.145,-27817.74,-24552.72,-21730.14,-12626.28,-8401.725
1764434192.8030014,-1166.04,-11375.64,-40010.85,-27820.755,-24556.14,-21728.07,-12634.695,-8411.13
1764434192.8030014,-1162.935,-11373.525,-40007.385,-27817.02,-24552.9,-21723.84,-12632.22,-8408.025
1764434192.8030014,-1162.215,-11371.905,-40003.425,-27815.535,-24551.1,-21726.045,-12628.62,-8402.805
1764434192.8030014,-1166.6699999999998,-11374.695,-40003.74,-27819.495,-24554.79,-21734.64,-12627.405,-8401.455
1764434192.8037615,-1169.82,-11375.64,-40002.03,-27821.925,-24556.905,-21742.965,-12622.68,-8397.494999999999
1764434192.8037615,-1170.54,-11374.065,-39998.835,-27821.97,-24556.815,-21748.005,-12616.695,-8392.23
1764434192.8037615,-1170.9,-11373.255,-39999.24,-27822.375,-24557.04,-21749.265,-12616.47,-8391.69
1764434192.8037615,-1166.94,-11369.61,-39998.565,-27819.045,-24553.89,-21742.92,-12616.965,-8391.645
1764434192.8037615,-1164.465,-11369.34,-40000.68,-27818.145,-24552.855,-21736.35,-12620.115,-8395.38
1764434192.8037615,-1159.83,-11366.865,-40001.085,-27815.13,-24550.155,-21726.99,-12622.59,-8398.664999999999
1764434192.8037615,-1158.48,-11367.72,-40004.055,-27814.545,-24549.795,-21720.06,-12627.54,-8402.94
1764434192.8037615,-1160.1,-11369.295,-40004.64,-27814.77,-24550.38,-21720.69,-12628.89,-8403.93
1764434192.8037615,-1159.515,-11368.395,-40001.49,-27812.97,-24548.67,-21723.48,-12624.885,-8399.925
1764434192.8037615,-1162.98,-11370.06,-40000.455,-27815.535,-24551.145,-21730.455,-12621.735,-8397.09
1764434192.8037615,-1168.74,-11373.39,-40000.68,-27821.16,-24556.23,-21741.615,-12619.98,-8395.065
1764434192.8037615,-1168.74,-11371.095,-39997.53,-27821.07,-24555.645,-21746.43,-12614.175,-8388.99
1764434192.8037615,-1172.43,-11374.83,-40001.13,-27825.3,-24559.83,-21750.795,-12617.055,-8393.22
1764434192.8037615,-1166.355,-11370.06,-39998.7,-27820.98,-24555.735,-21743.055,-12616.965,-8391.779999999999
1764434192.8037615,-1162.89,-11368.305,-39999.87,-27818.73,-24554.205,-21735.9,-12619.62,-8394.84
1764434192.8481596,-1159.785,-11367.405,-40001.67,-27816.165,-24552.09,-21727.305,-12623.535,-8399.43
1764434192.8481596,-1159.155,-11369.295,-40004.64,-27815.625,-24551.37,-21723.165,-12629.07,-8404.47
1764434192.8481596,-1158.435,-11369.655,-40004.01,-27815.175,-24550.695,-21722.67,-12628.89,-8404.74
1764434192.8481596,-1162.1699999999998,-11371.005,-40004.325,-27817.695,-24553.26,-21728.115,-12628.98,-8403.48
1764434192.8481596,-1165.185,-11371.455,-40002.705,-27819.27,-24554.655,-21734.73,-12625.2,-8399.25
1764434192.8481596,-1168.02,-11371.905,-40000.32,-27820.98,-24556.095,-21742.515,-12621.465,-8394.57
1764434192.8481596,-1168.065,-11370.735,-39997.08,-27820.8,-24556.59,-21748.41,-12616.29,-8389.89
1764434192.8481596,-1168.965,-11371.23,-39998.43,-27822.555,-24557.805,-21750.435,-12616.47,-8391.33
1764434192.8481596,-1170.0,-11372.715,-40002.66,-27824.67,-24559.65,-21748.365,-12620.97,-8396.414999999999
1764434192.8481596,-1168.56,-11373.3,-40004.505,-27823.725,-24559.155,-21742.695,-12625.29,-8400.465
1764434192.849375,-1166.355,-11374.155,-40007.43,-27822.96,-24558.12,-21735.72,-12630.015,-8406.18
1764434192.849375,-1168.56,-11378.475,-40013.595,-27825.255,-24560.28,-21732.93,-12638.16,-8413.875
1764434192.849375,-1163.655,-11374.965,-40009.635,-27820.395,-24556.32,-21728.79,-12635.055,-8408.699999999999
1764434192.849375,-1166.94,-11377.305,-40010.625,-27822.915,-24558.84,-21734.865,-12634.245,-8407.845
1764434192.849375,-1166.22,-11374.065,-40005.9,-27821.295,-24556.14,-21737.115,-12627.54,-8400.869999999999
1764434192.849375,-1170.18,-11374.965,-40004.415,-27824.715,-24559.065,-21746.52,-12623.58,-8398.17
1764434192.849375,-1168.695,-11371.365,-39999.6,-27823.815,-24557.355,-21750.255,-12617.19,-8391.42
1764434192.849375,-1168.56,-11370.285,-39999.15,-27823.59,-24557.4,-21750.57,-12615.93,-8390.88
1764434192.849375,-1165.815,-11369.025,-40000.23,-27822.015,-24556.095,-21745.755,-12617.82,-8392.545
1764434192.849375,-1164.4199999999998,-11369.295,-40002.84,-27821.07,-24555.195,-21740.22,-12623.13,-8396.685
1764434192.849375,-1162.53,-11369.475,-40005.18,-27819.63,-24554.43,-21733.065,-12627.675,-8401.725
1764434192.849375,-1165.365,-11374.515,-40011.48,-27822.96,-24558.57,-21731.58,-12635.145,-8411.039999999999
1764434192.849375,-1162.125,-11373.165,-40009.32,-27819.945,-24555.915,-21728.88,-12633.795,-8408.34
1764434192.849375,-1161.0,-11370.105,-40004.1,-27816.48,-24552.585,-21729.69,-12628.845,-8402.445
1764434192.893917,-1163.07,-11370.465,-40002.39,-27818.505,-24554.385,-21736.08,-12624.345,-8398.44
1764434192.894929,-1167.435,-11372.715,-40002.255,-27823.32,-24557.94,-21745.44,-12621.24,-8395.65
1764434192.894929,-1167.975,-11371.005,-39999.465,-27824.04,-24557.805,-21750.39,-12616.515,-8390.025
1764434192.894929,-1170.945,-11373.255,-40002.39,-27826.875,-24561.045,-21753.855,-12619.215,-8393.49
1764434192.894929,-1172.115,-11375.505,-40005.945,-27828.99,-24562.89,-21752.685,-12623.265,-8399.385
1764434192.894929,-1165.77,-11371.32,-40003.695,-27823.995,-24557.805,-21742.11,-12623.67,-8398.664999999999
1764434192.89593,-1160.955,-11369.655,-40004.865,-27820.44,-24554.43,-21732.165,-12626.415,-8401.365
1764434192.896372,-1162.62,-11373.525,-40009.59,-27821.79,-24556.5,-21729.87,-12632.58,-8407.98
1764434192.896372,-1159.965,-11372.67,-40007.07,-27819.54,-24554.115,-21728.07,-12631.095,-8405.19
1764434192.896372,-1156.365,-11368.17,-40000.545,-27815.31,-24549.39,-21727.44,-12624.975,-8397.765
1764434192.896372,-1158.7949999999998,-11367.855,-39998.745,-27816.255,-24550.92,-21733.74,-12620.745,-8394.029999999999
1764434192.896372,-1164.735,-11370.51,-39999.69,-27820.845,-24555.33,-21745.215,-12618.585,-8392.455
1764434192.896929,-1164.87,-11368.8,-39995.46,-27820.17,-24554.52,-21749.895,-12613.095,-8386.965
1764434192.896929,-1166.895,-11370.105,-39997.845,-27823.05,-24556.905,-21751.83,-12614.265,-8389.35
1764434192.896929,-1165.815,-11369.61,-40000.05,-27823.05,-24556.68,-21747.42,-12617.865,-8392.14
1764434192.896929,-1159.695,-11365.11,-39997.575,-27816.39,-24551.595,-21736.665,-12617.91,-8390.699999999999
1764434192.896929,-1155.78,-11363.805,-39999.105,-27813.33,-24548.625,-21726.765,-12621.42,-8393.715
1764434192.896929,-1156.455,-11366.145,-40003.11,-27814.455,-24548.94,-21723.48,-12627.405,-8400.645
1764434192.896929,-1159.38,-11369.565,-40005.99,-27817.245,-24551.775,-21725.955,-12629.88,-8404.02
1764434192.896929,-1159.11,-11367.9,-40003.425,-27816.21,-24550.74,-21728.97,-12626.145,-8400.015
1764434192.8979292,-1157.6699999999998,-11365.245,-39998.475,-27814.365,-24549.57,-21731.22,-12619.53,-8392.68
1764434192.8979292,-1162.575,-11367.99,-39997.98,-27818.28,-24552.855,-21741.3,-12616.29,-8390.43
1764434192.9441266,-1160.775,-11363.985,-39991.95,-27816.03,-24549.615,-21743.955,-12609.405,-8383.185
1764434192.9441266,-1161.225,-11364.255,-39992.535,-27816.705,-24550.605,-21744.63,-12609.045,-8383.455
1764434192.9441266,-1163.52,-11368.215,-39998.565,-27819.765,-24554.565,-21744.135,-12614.985,-8391.24
1764434192.9447443,-1161.54,-11367.855,-40000.815,-27819.36,-24553.305,-21738.375,-12619.125,-8394.525
1764434192.9447443,-1155.4199999999998,-11364.615,-39999.195,-27814.14,-24547.32,-21726.945,-12620.655,-8395.425
1764434192.9447443,-1156.86,-11368.665,-40003.695,-27815.445,-24549.48,-21723.66,-12626.955,-8402.49
1764434192.9451222,-1156.005,-11368.575,-40002.345,-27813.78,-24548.58,-21721.68,-12626.145,-8401.815
1764434192.9451222,-1153.755,-11365.56,-39997.125,-27810.81,-24546.555,-21721.995,-12620.79,-8395.38
1764434192.9451222,-1156.77,-11367.09,-39996.63,-27813.195,-24548.67,-21729.78,-12617.505,-8392.545
1764434192.9451222,-1158.39,-11365.605,-39993.345,-27813.69,-24548.76,-21736.53,-12612.015,-8386.244999999999
1764434192.9451222,-1163.205,-11368.44,-39994.695,-27819.54,-24553.62,-21745.665,-12611.565,-8386.11
1764434192.9451222,-1161.0,-11366.19,-39993.165,-27817.965,-24551.82,-21743.55,-12609.495,-8384.039999999999
1764434192.9451222,-1156.59,-11362.95,-39992.67,-27814.23,-24548.49,-21736.8,-12610.17,-8385.255
1764434192.9451222,-1154.97,-11361.915,-39994.335,-27812.655,-24546.915,-21730.32,-12613.275,-8388.63
1764434192.9451222,-1153.575,-11363.355,-39997.755,-27811.44,-24546.87,-21722.715,-12618.72,-8393.85
1764434192.9451222,-1153.575,-11364.93,-40000.275,-27810.9,-24547.68,-21717.9,-12624.03,-8399.07
1764434192.9461243,-1152.27,-11363.31,-39998.88,-27809.325,-24545.52,-21717.09,-12622.32,-8397.404999999999
1764434192.9461243,-1152.72,-11362.635,-39996.36,-27808.965,-24545.205,-21720.285,-12618.36,-8393.039999999999
1764434192.9461243,-1156.68,-11365.02,-39996.09,-27811.89,-24548.31,-21727.935,-12616.155,-8390.295
1764434192.9461243,-1156.77,-11363.31,-39991.005,-27811.575,-24547.815,-21734.055,-12609.63,-8383.05
1764434192.9461243,-1161.0449999999998,-11365.38,-39992.49,-27815.625,-24551.19,-21742.695,-12608.055,-8382.42
1764434192.9461243,-1161.945,-11365.605,-39992.895,-27816.39,-24551.595,-21743.01,-12608.64,-8383.365
1764434192.9461243,-1162.215,-11366.505,-39996.315,-27817.335,-24552.36,-21740.04,-12613.14,-8388.09
1764434192.9461243,-1161.99,-11368.395,-39999.645,-27817.74,-24552.315,-21735.36,-12617.865,-8394.255
1764434192.990344,-1156.77,-11365.74,-39998.07,-27812.565,-24547.95,-21724.245,-12619.575,-8395.965
1764434192.990344,-1157.94,-11369.52,-40004.01,-27815.13,-24549.84,-21721.995,-12626.19,-8402.985
1764434192.990344,-1154.97,-11367.18,-40001.31,-27811.755,-24547.41,-21720.375,-12624.84,-8400.779999999999
1764434192.990344,-1153.44,-11364.255,-39997.17,-27809.73,-24545.7,-21722.085,-12619.53,-8394.119999999999
1764434192.990344,-1152.54,-11361.285,-39992.805,-27808.47,-24544.26,-21725.64,-12613.275,-8386.875
1764434192.990344,-1158.03,-11363.49,-39991.905,-27812.205,-24547.86,-21735.405,-12609.99,-8384.039999999999
1764434192.990344,-1165.275,-11368.485,-39995.28,-27819.72,-24554.07,-21746.07,-12610.845,-8385.93
1764434192.990344,-1162.845,-11365.605,-39994.02,-27817.47,-24551.82,-21743.28,-12609.045,-8384.175
1764434192.990344,-1160.82,-11365.515,-39996.765,-27817.065,-24550.965,-21739.14,-12612.015,-8387.235
1764434192.990344,-1159.515,-11366.64,-39999.33,-27816.84,-24550.74,-21732.93,-12616.47,-8392.68
1764434192.990344,-1151.955,-11362.005,-39997.035,-27810.585,-24545.745,-21720.42,-12617.865,-8393.13
1764434192.990344,-1149.84,-11361.375,-39997.8,-27808.38,-24544.125,-21714.615,-12620.79,-8395.965
1764434192.990344,-1149.84,-11362.005,-39997.17,-27807.3,-24543.405,-21714.93,-12619.755,-8395.38
1764434192.9913597,-1153.98,-11363.895,-39997.17,-27810.27,-24545.43,-21721.545,-12619.215,-8393.85
1764434192.9913597,-1153.53,-11361.15,-39992.94,-27809.01,-24543.72,-21724.605,-12613.455,-8387.414999999999
1764434192.9913597,-1156.365,-11361.33,-39990.645,-27811.665,-24546.105,-21732.93,-12608.37,-8382.779999999999
1764434192.9913597,-1160.28,-11363.13,-39989.745,-27814.68,-24548.175,-21740.58,-12605.49,-8380.755
1764434192.9913597,-1157.6699999999998,-11360.295,-39987.765,-27812.655,-24545.97,-21738.51,-12603.69,-8378.865
1764434192.9913597,-1158.975,-11362.59,-39992.715,-27814.995,-24548.31,-21736.305,-12608.595,-8385.074999999999
1764434192.9913597,-1155.4199999999998,-11360.745,-39993.57,-27811.98,-24546.015,-21728.745,-12611.205,-8387.595
1764434192.9913597,-1147.995,-11356.965,-39991.86,-27806.175,-24540.615,-21716.865,-12612.69,-8388.18
1764434192.9913597,-1148.445,-11359.8,-39995.865,-27806.625,-24541.425,-21713.445,-12617.775,-8394.029999999999
1764434193.034858,-1145.385,-11356.65,-39991.5,-27802.62,-24537.06,-21709.845,-12614.85,-8389.574999999999
1764434193.0358667,-1145.565,-11356.02,-39989.115,-27803.295,-24536.79,-21713.85,-12610.575,-8385.48
1764434193.0358667,-1150.29,-11358.585,-39989.205,-27807.255,-24540.345,-21722.4,-12608.55,-8383.994999999999
1764434193.0358667,-1152.405,-11358.315,-39986.28,-27808.38,-24541.605,-21729.42,-12603.555,-8378.82
1764434193.0358667,-1157.49,-11361.465,-39988.575,-27813.33,-24546.6,-21738.24,-12602.88,-8378.775
1764434193.0358667,-1156.77,-11359.665,-39988.215,-27813.105,-24545.16,-21737.52,-12603.24,-8378.279999999999
1764434193.0368671,-1156.86,-11361.96,-39992.67,-27814.455,-24547.86,-21735.54,-12607.74,-8383.32
1764434193.0368671,-1151.415,-11358.9,-39991.545,-27809.955,-24543.63,-21726.315,-12609.45,-8384.31
1764434193.0368671,-1150.9199999999998,-11361.105,-39995.235,-27810.045,-24543.27,-21719.97,-12615.93,-8390.789999999999
1764434193.0368671,-1151.28,-11362.815,-39998.745,-27809.955,-24543.675,-21716.01,-12621.195,-8395.965
1764434193.0368671,-1150.74,-11362.725,-39998.295,-27809.37,-24543.09,-21715.605,-12620.79,-8394.164999999999
1764434193.0368671,-1153.98,-11364.12,-39997.125,-27810.99,-24544.53,-21721.59,-12618.585,-8392.77
1764434193.0368671,-1154.745,-11361.69,-39992.85,-27810.855,-24543.45,-21726.585,-12612.195,-8387.01
1764434193.0368671,-1153.215,-11357.505,-39985.74,-27808.245,-24540.885,-21730.59,-12603.285,-8377.244999999999
1764434193.0368671,-1157.895,-11360.43,-39987.405,-27812.385,-24544.71,-21738.69,-12603.015,-8377.065
1764434193.0368671,-1160.1,-11363.67,-39992.22,-27816.975,-24548.67,-21741.255,-12606.165,-8381.565
1764434193.0368671,-1158.975,-11363.355,-39993.48,-27816.39,-24548.175,-21736.845,-12609.765,-8384.76
1764434193.0368671,-1157.13,-11362.23,-39995.01,-27814.545,-24546.33,-21730.275,-12613.365,-8388.404999999999
1764434193.0368671,-1151.1,-11359.755,-39994.605,-27809.955,-24542.055,-21719.835,-12616.155,-8389.89
1764434193.0368671,-1151.01,-11362.77,-39998.565,-27811.035,-24544.125,-21716.19,-12622.095,-8395.74
1764434193.0368671,-1145.745,-11358.135,-39992.985,-27805.14,-24538.455,-21710.88,-12616.65,-8389.17
1764434193.0368671,-1147.23,-11358.225,-39990.6,-27805.095,-24538.905,-21715.605,-12613.23,-8386.11
1764434193.0368671,-1149.3,-11358.45,-39988.215,-27806.175,-24539.535,-21721.68,-12609.54,-8381.654999999999
1764434193.0368671,-1152.405,-11358.405,-39986.145,-27808.425,-24540.48,-21730.14,-12603.87,-8376.39
1764434193.0802398,-1155.78,-11359.08,-39985.965,-27811.53,-24543.045,-21737.295,-12600.45,-8374.59
1764434193.0802398,-1152.54,-11355.975,-39983.49,-27809.145,-24540.84,-21734.055,-12598.605,-8372.744999999999
1764434193.0802398,-1150.965,-11355.84,-39986.145,-27809.235,-24541.245,-21730.32,-12601.665,-8376.885
1764434193.0802398,-1150.695,-11357.325,-39990.285,-27809.415,-24541.65,-21725.865,-12606.615,-8383.005
1764434193.0807586,-1145.655,-11355.12,-39991.14,-27804.555,-24537.105,-21715.875,-12610.17,-8385.705
1764434193.0807586,-1150.29,-11361.645,-39998.115,-27808.605,-24542.19,-21715.785,-12619.17,-8394.435
1764434193.0807586,-1150.695,-11362.14,-39997.89,-27808.425,-24542.415,-21716.19,-12619.305,-8393.58
1764434193.0807586,-1151.19,-11361.78,-39994.83,-27807.48,-24541.47,-21720.015,-12614.895,-8390.205
1764434193.0807586,-1150.83,-11359.44,-39990.96,-27807.345,-24541.2,-21724.29,-12609.945,-8383.455
1764434193.0807586,-1158.57,-11364.39,-39993.75,-27814.185,-24547.86,-21737.07,-12610.08,-8383.815
1764434193.0807586,-1162.485,-11366.28,-39994.11,-27817.29,-24551.46,-21745.755,-12608.865,-8383.365
1764434193.0807586,-1163.745,-11368.17,-39996.27,-27819.63,-24553.395,-21747.33,-12610.89,-8385.705
1764434193.0807586,-1163.52,-11369.79,-39999.42,-27820.17,-24554.115,-21743.505,-12614.895,-8389.574999999999
1764434193.0807586,-1159.29,-11368.08,-40000.32,-27817.2,-24551.64,-21735.72,-12618.18,-8392.86
1764434193.0807586,-1152.405,-11363.94,-39999.24,-27811.62,-24546.285,-21723.885,-12620.7,-8394.164999999999
1764434193.0807586,-1153.935,-11367.9,-40003.515,-27813.69,-24547.815,-21721.365,-12626.55,-8400.015
1764434193.0807586,-1156.32,-11370.105,-40004.19,-27814.815,-24549.615,-21723.93,-12626.955,-8401.005
1764434193.0807586,-1156.95,-11369.52,-40001.895,-27814.455,-24548.94,-21727.755,-12622.95,-8397.135
1764434193.0807586,-1157.49,-11367.72,-39998.295,-27815.04,-24548.67,-21732.03,-12617.37,-8392.23
1764434193.0807586,-1159.425,-11367.27,-39995.505,-27815.895,-24549.435,-21740.04,-12611.79,-8386.065
1764434193.0807586,-1157.895,-11364.03,-39991.185,-27813.555,-24547.59,-21742.515,-12605.355,-8379.315
1764434193.0807586,-1162.08,-11367.495,-39995.685,-27818.595,-24552.09,-21746.25,-12608.73,-8384.49
1764434193.0807586,-1161.495,-11366.505,-39997.215,-27818.145,-24552.855,-21742.74,-12613.14,-8388.315
1764434193.0807586,-1157.805,-11365.245,-39997.62,-27815.715,-24549.975,-21734.28,-12616.74,-8390.88
1764434193.1281087,-1155.915,-11367.63,-40002.345,-27815.355,-24550.155,-21726.99,-12622.77,-8397.675
1764434193.1281087,-1156.905,-11370.42,-40006.26,-27815.625,-24550.875,-21723.615,-12627.72,-8403.39
1764434193.1281087,-1156.95,-11371.005,-40004.73,-27815.175,-24550.02,-21724.2,-12626.28,-8401.77
1764434193.1281087,-1155.69,-11368.17,-39999.195,-27812.43,-24547.455,-21726.315,-12621.78,-8395.289999999999
1764434193.129112,-1157.49,-11366.505,-39996.945,-27813.015,-24547.365,-21732.03,-12617.505,-8390.43
1764434193.129112,-1161.0449999999998,-11367.405,-39996.09,-27815.895,-24550.515,-21741.3,-12614.04,-8387.235
1764434193.129112,-1164.645,-11369.97,-39996.63,-27820.71,-24554.385,-21748.815,-12613.68,-8387.369999999999
1764434193.129112,-1169.055,-11373.705,-40001.49,-27825.57,-24559.245,-21753.18,-12618.09,-8392.994999999999
1764434193.129112,-1165.995,-11371.905,-40001.58,-27823.32,-24556.95,-21746.43,-12620.205,-8394.119999999999
1764434193.129112,-1164.645,-11373.39,-40004.325,-27822.915,-24556.995,-21741.48,-12624.84,-8398.98
1764434193.129112,-1159.56,-11369.52,-40003.065,-27817.38,-24552.045,-21730.23,-12627.585,-8399.835
1764434193.129112,-1160.82,-11373.075,-40006.53,-27818.055,-24553.17,-21727.125,-12632.805,-8406.045
1764434193.129112,-1162.845,-11375.73,-40007.745,-27819.495,-24555.33,-21729.69,-12633.03,-8407.215
1764434193.129112,-1164.24,-11375.595,-40005.945,-27820.17,-24555.24,-21734.19,-12629.385,-8403.435
1764434193.129112,-1165.05,-11374.02,-40002.75,-27819.945,-24554.745,-21739.32,-12624.255,-8397.765
1764434193.129112,-1166.445,-11372.985,-39999.645,-27820.845,-24555.645,-21746.97,-12618.63,-8392.185
1764434193.129112,-1168.47,-11373.615,-39998.52,-27822.555,-24557.355,-21753.18,-12616.245,-8389.619999999999
1764434193.129112,-1169.28,-11374.02,-39999.87,-27823.32,-24558.255,-21753.045,-12618.45,-8391.015
1764434193.129112,-1164.78,-11371.995,-39999.51,-27819.54,-24555.015,-21744.945,-12619.53,-8392.095
1764434193.129112,-1164.735,-11373.12,-40003.38,-27820.53,-24556.005,-21740.355,-12624.57,-8398.35
1764434193.129112,-1160.415,-11370.24,-40003.92,-27817.47,-24552.63,-21730.365,-12628.26,-8400.779999999999
1764434193.129112,-1160.19,-11371.77,-40006.215,-27817.11,-24552.9,-21725.865,-12632.58,-8405.1
1764434193.1722257,-1159.29,-11370.915,-40003.605,-27815.715,-24551.235,-21725.1,-12629.655,-8402.715
1764434193.1722257,-1160.64,-11371.905,-40001.805,-27815.895,-24551.775,-21729.555,-12626.28,-8400.105
1764434193.1722257,-1164.6,-11373.705,-40002.57,-27818.865,-24555.195,-21737.745,-12622.905,-8398.215
1764434193.1722257,-1167.705,-11373.93,-40000.545,-27821.07,-24556.86,-21746.97,-12618.72,-8393.175
1764434193.1727536,-1168.02,-11371.59,-39997.08,-27821.34,-24556.14,-21751.56,-12615.165,-8388.36
1764434193.1727536,-1167.705,-11372.13,-39998.025,-27822.915,-24556.23,-21750.93,-12616.335,-8390.205
1764434193.1727536,-1164.6,-11370.87,-39998.25,-27820.665,-24553.71,-21743.82,-12617.865,-8392.32
1764434193.1727536,-1164.195,-11372.31,-40002.255,-27820.485,-24554.43,-21739.41,-12623.58,-8397.99
