Timestamp,Channel1,Channel2,Channel3,Channel4,Channel5,Channel6,Channel7,Channel8
1764435127.03257,-680.265,-8711.595,-37241.46,-24754.455,-20121.435,-22038.03,-12105.045,-6102.9
1764435127.03257,-683.595,-8712.63,-37237.455,-24756.48,-20122.695,-22051.08,-12094.74,-6094.62
1764435127.03257,-684.5849999999999,-8712.855,-37238.58,-24759.09,-20123.415,-22052.925,-12094.38,-6094.755
1764435127.03257,-683.1,-8712.09,-37243.08,-24759.225,-20123.145,-22044.555,-12101.94,-6101.235
1764435127.03257,-680.13,-8711.324999999999,-37248.255,-24756.75,-20121.795,-22030.92,-12112.695,-6110.594999999999
1764435127.03257,-677.5649999999999,-8712.27,-37255.32,-24755.49,-20121.57,-22017.195,-12125.385,-6122.52
1764435127.03257,-668.655,-8706.869999999999,-37254.15,-24747.165,-20114.775,-21998.25,-12129.84,-6125.715
1764435127.03257,-664.38,-8703.585,-37250.055,-24742.665,-20110.32,-21992.67,-12127.005,-6121.889999999999
1764435127.03257,-669.015,-8706.96,-37249.02,-24746.58,-20113.155,-22004.055,-12122.46,-6117.57
1764435127.03257,-672.885,-8707.275,-37244.16,-24748.335,-20114.1,-22016.385,-12112.38,-6109.335
1764435127.03257,-679.77,-8710.92,-37241.64,-24753.69,-20117.61,-22034.925,-12103.155,-6101.955
1764435127.03257,-689.22,-8717.895,-37243.53,-24762.78,-20124.765,-22054.23,-12099.195,-6099.165
1764435127.03257,-689.5799999999999,-8717.49,-37243.89,-24763.77,-20125.305,-22055.355,-12099.06,-6098.895
1764435127.03257,-684.495,-8714.07,-37244.97,-24759.99,-20122.875,-22045.68,-12104.19,-6103.17
1764435127.03257,-676.89,-8708.355,-37244.88,-24754.005,-20119.095,-22029.615,-12110.94,-6107.625
1764435127.03257,-673.6949999999999,-8710.154999999999,-37252.71,-24753.69,-20120.175,-22016.385,-12125.25,-6120.045
1764435127.03257,-670.095,-8709.435,-37256.4,-24751.125,-20118.69,-22002.435,-12133.845,-6128.19
1764435127.03257,-668.88,-8708.265,-37254.33,-24748.38,-20116.395,-21999.6,-12133.755,-6126.344999999999
1764435127.03257,-668.52,-8705.565,-37247.4,-24746.085,-20113.065,-22005.315,-12123.72,-6116.715
1764435127.03257,-677.61,-8712.315,-37248.255,-24754.05,-20120.265,-22023.63,-12118.23,-6113.07
1764435127.03257,-683.8199999999999,-8715.105,-37245.195,-24758.19,-20123.595,-22041.405,-12108.555,-6104.205
1764435127.0335708,-687.3299999999999,-8715.51,-37240.38,-24760.17,-20124.585,-22054.545,-12098.97,-6095.474999999999
1764435127.0335708,-690.48,-8718.164999999999,-37243.755,-24764.895,-20128.77,-22058.955,-12100.14,-6099.255
1764435127.0335708,-687.015,-8716.275,-37246.365,-24763.77,-20127.015,-22049.415,-12106.665,-6104.655
1764435127.077185,-680.0849999999999,-8711.865,-37248.39,-24758.82,-20123.64,-22033.8,-12114.99,-6110.01
1764435127.077185,-677.655,-8712.404999999999,-37255.005,-24757.56,-20124.36,-22020.21,-12128.13,-6122.925
1764435127.077185,-667.98,-8705.88,-37252.08,-24748.47,-20116.17,-22000.14,-12131.37,-6124.635
1764435127.077185,-667.98,-8706.735,-37252.755,-24748.515,-20115.495,-22000.005,-12131.28,-6125.175
1764435127.077185,-670.9499999999999,-8707.635,-37250.28,-24750.495,-20115.54,-22009.095,-12124.44,-6118.965
1764435127.077185,-676.665,-8710.965,-37247.49,-24754.545,-20118.78,-22023.27,-12116.475,-6112.08
1764435127.077185,-680.4449999999999,-8712.494999999999,-37241.505,-24756.93,-20119.815,-22038.165,-12104.37,-6100.335
1764435127.077185,-684.72,-8713.44,-37238.49,-24760.17,-20122.515,-22051.98,-12097.17,-6093.224999999999
1764435127.077185,-689.04,-8716.949999999999,-37242.99,-24765.615,-20128.32,-22056.795,-12100.275,-6097.995
1764435127.077185,-684.0899999999999,-8714.205,-37244.52,-24762.465,-20125.665,-22047.12,-12104.595,-6102.495
1764435127.077185,-674.865,-8707.5,-37244.07,-24755.715,-20119.005,-22029.705,-12109.635,-6106.275
1764435127.077185,-673.245,-8709.21,-37252.08,-24754.905,-20120.265,-22016.565,-12123.63,-6119.28
1764435127.077185,-667.5749999999999,-8705.97,-37253.655,-24749.46,-20115.81,-22001.265,-12131.145,-6124.77
1764435127.077185,-664.6949999999999,-8703.045,-37250.685,-24745.14,-20111.805,-21997.665,-12129.48,-6121.035
1764435127.078197,-667.89,-8704.17,-37247.31,-24746.085,-20112.255,-22007.25,-12121.695,-6114.87
1764435127.078197,-674.8199999999999,-8708.625,-37244.79,-24751.44,-20116.53,-22022.73,-12112.965,-6108.84
1764435127.078197,-676.98,-8707.635,-37237.59,-24751.845,-20115.09,-22036.05,-12100.23,-6096.105
1764435127.078197,-684.225,-8711.82,-37237.23,-24757.92,-20120.265,-22051.665,-12094.38,-6091.514999999999
1764435127.078197,-689.265,-8716.095,-37241.82,-24763.14,-20125.845,-22057.38,-12097.71,-6096.465
1764435127.078197,-685.89,-8714.789999999999,-37245.24,-24762.105,-20125.62,-22048.605,-12104.82,-6102.63
1764435127.078197,-678.6899999999999,-8709.84,-37246.41,-24757.065,-20121.66,-22032.54,-12112.65,-6107.985
1764435127.078197,-676.395,-8711.505,-37253.655,-24756.345,-20122.92,-22019.085,-12126.915,-6120.36
1764435127.1235838,-673.155,-8710.965,-37257.12,-24753.465,-20120.895,-22006.08,-12135.735,-6127.469999999999
1764435127.1235838,-671.175,-8708.355,-37253.79,-24750.54,-20118.195,-22003.245,-12134.295,-6124.32
1764435127.1235838,-672.975,-8709.3,-37249.65,-24751.26,-20118.195,-22011.435,-12125.88,-6117.66
1764435127.1235838,-677.745,-8711.055,-37246.005,-24753.69,-20120.04,-22025.115,-12116.115,-6110.145
1764435127.1235838,-684.72,-8714.52,-37243.665,-24759.09,-20123.1,-22043.52,-12106.35,-6101.865
1764435127.1235838,-692.145,-8719.785,-37244.745,-24766.965,-20129.4,-22060.845,-12101.085,-6098.58
1764435127.1235838,-691.6949999999999,-8719.02,-37245.15,-24767.595,-20130.435,-22061.295,-12101.175,-6098.895
1764435127.1235838,-684.27,-8713.125,-37243.89,-24761.34,-20125.485,-22047.12,-12104.505,-6100.469999999999
1764435127.1235838,-677.475,-8709.21,-37246.545,-24756.57,-20121.165,-22031.37,-12111.48,-6106.094999999999
1764435127.1235838,-674.73,-8709.525,-37252.62,-24754.905,-20121.615,-22016.655,-12124.71,-6118.11
1764435127.1235838,-671.31,-8708.49,-37256.58,-24752.745,-20120.805,-22004.37,-12133.62,-6126.389999999999
1764435127.1235838,-667.845,-8705.789999999999,-37252.395,-24747.93,-20116.395,-22000.77,-12130.92,-6121.889999999999
1764435127.1235838,-668.655,-8705.789999999999,-37247.58,-24748.065,-20114.955,-22008.69,-12122.28,-6113.925
1764435127.1235838,-675.63,-8710.199999999999,-37246.275,-24753.555,-20119.86,-22024.8,-12115.035,-6109.155
1764435127.1245787,-683.64,-8714.654999999999,-37244.385,-24759.54,-20124.18,-22044.24,-12105.225,-6102.855
1764435127.1245787,-688.68,-8715.285,-37241.595,-24762.825,-20126.115,-22057.875,-12097.35,-6095.925
1764435127.1245787,-688.8149999999999,-8714.835,-37242.765,-24764.265,-20127.555,-22058.865,-12098.34,-6096.554999999999
1764435127.1245787,-684.675,-8713.17,-37245.96,-24761.745,-20127.105,-22048.74,-12104.73,-6101.865
1764435127.1245787,-677.295,-8708.76,-37246.68,-24756.255,-20122.605,-22031.82,-12111.03,-6106.77
1764435127.1245787,-674.73,-8710.289999999999,-37253.745,-24756.165,-20124.0,-22018.14,-12124.89,-6119.415
1764435127.1245787,-666.4499999999999,-8704.664999999999,-37253.52,-24749.82,-20118.015,-22000.95,-12130.02,-6122.88
1764435127.1245787,-668.745,-8707.5,-37254.915,-24750.99,-20118.24,-22002.345,-12132.45,-6124.995
1764435127.1245787,-670.905,-8707.68,-37250.55,-24751.17,-20117.7,-22010.715,-12125.43,-6116.804999999999
1764435127.1245787,-679.5899999999999,-8713.44,-37250.28,-24757.605,-20124.135,-22029.03,-12118.59,-6112.665
1764435127.1681707,-685.17,-8715.645,-37246.905,-24761.79,-20126.43,-22047.12,-12107.79,-6104.34
1764435127.1681707,-688.005,-8715.15,-37242.99,-24764.22,-20127.015,-22058.46,-12097.845,-6095.79
1764435127.1681707,-684.765,-8710.875,-37240.155,-24762.42,-20124.99,-22055.535,-12095.865,-6093.315
1764435127.1681707,-679.9499999999999,-8707.904999999999,-37241.865,-24759.675,-20123.1,-22045.185,-12101.4,-6098.445
1764435127.1699655,-676.26,-8707.05,-37246.95,-24758.235,-20122.11,-22032.045,-12111.03,-6107.085
1764435127.1699655,-675.855,-8711.145,-37256.085,-24760.215,-20124.63,-22021.02,-12126.42,-6121.035
1764435127.1699655,-669.465,-8707.68,-37256.535,-24754.32,-20120.67,-22005.495,-12132.45,-6125.804999999999
1764435127.1699655,-669.465,-8707.455,-37255.23,-24753.195,-20119.41,-22005.63,-12131.415,-6124.995
1764435127.1699655,-670.8149999999999,-8706.645,-37249.92,-24752.07,-20118.51,-22013.91,-12121.74,-6116.264999999999
1764435127.1699655,-675.765,-8708.895,-37246.545,-24755.265,-20121.03,-22027.77,-12113.145,-6108.974999999999
1764435127.1699655,-682.56,-8711.73,-37243.125,-24760.08,-20123.73,-22045.095,-12102.84,-6100.2
1764435127.1699655,-687.285,-8713.619999999999,-37241.37,-24764.22,-20126.88,-22059.27,-12096.045,-6094.304999999999
1764435127.1699655,-682.9649999999999,-8709.164999999999,-37238.49,-24761.88,-20123.82,-22055.94,-12093.12,-6091.155
1764435127.1699655,-681.345,-8709.21,-37242.945,-24762.195,-20124.495,-22047.12,-12100.455,-6099.435
1764435127.1699655,-675.72,-8707.23,-37246.41,-24759.675,-20122.245,-22032.945,-12110.355,-6107.264999999999
1764435127.1699655,-675.0,-8709.705,-37255.32,-24759.855,-20124.0,-22021.515,-12125.43,-6121.26
1764435127.1720238,-667.395,-8705.34,-37254.015,-24752.79,-20118.735,-22005.45,-12130.47,-6124.275
1764435127.1720238,-665.145,-8704.08,-37250.145,-24749.37,-20115.585,-22002.615,-12127.68,-6120.27
1764435127.1720238,-669.42,-8706.375,-37248.3,-24751.98,-20117.385,-22014.45,-12120.165,-6114.915
1764435127.1720238,-673.02,-8707.185,-37243.44,-24754.41,-20118.42,-22027.995,-12110.76,-6106.905
1764435127.1720238,-682.245,-8712.81,-37243.485,-24761.295,-20124.045,-22048.47,-12102.705,-6100.965
1764435127.1720238,-688.995,-8717.4,-37243.53,-24767.595,-20128.905,-22063.905,-12098.16,-6096.78
1764435127.1720238,-688.005,-8715.96,-37243.44,-24768.18,-20128.635,-22063.005,-12098.565,-6097.094999999999
1764435127.1720238,-679.4549999999999,-8708.67,-37241.55,-24760.71,-20122.695,-22048.065,-12101.985,-6098.04
1764435127.2178133,-671.04,-8702.82,-37241.595,-24754.275,-20117.205,-22030.92,-12107.025,-6102.179999999999
1764435127.2178133,-667.62,-8702.279999999999,-37247.805,-24753.105,-20116.89,-22016.565,-12120.03,-6113.52
1764435127.2178133,-664.47,-8701.47,-37250.325,-24749.955,-20115.18,-22004.64,-12128.22,-6121.304999999999
1764435127.2178133,-666.045,-8702.775,-37250.145,-24749.955,-20114.82,-22005.18,-12127.86,-6121.215
1764435127.2178133,-670.14,-8706.06,-37248.525,-24753.465,-20117.295,-22017.015,-12120.84,-6115.5
1764435127.2178133,-673.875,-8707.005,-37244.07,-24755.67,-20118.195,-22029.795,-12110.805,-6106.23
1764435127.2178133,-677.295,-8705.789999999999,-37236.015,-24755.94,-20117.115,-22043.88,-12097.62,-6093.63
1764435127.2178133,-682.425,-8708.13,-37234.8,-24760.8,-20120.625,-22057.38,-12091.23,-6088.679999999999
1764435127.2178133,-683.055,-8708.265,-37236.51,-24762.195,-20121.345,-22057.47,-12092.445,-6090.974999999999
1764435127.2178133,-679.3199999999999,-8707.41,-37239.48,-24760.215,-20119.815,-22046.175,-12099.78,-6097.005
1764435127.2178133,-672.5699999999999,-8704.035,-37241.55,-24755.67,-20117.16,-22030.605,-12106.89,-6103.395
1764435127.2178133,-671.5799999999999,-8706.69,-37251.045,-24756.84,-20119.77,-22018.14,-12121.83,-6116.804999999999
1764435127.2178133,-667.0799999999999,-8704.755,-37251.99,-24753.15,-20115.765,-22004.415,-12129.03,-6121.935
1764435127.2178133,-666.675,-8703.945,-37249.74,-24751.53,-20113.92,-22003.605,-12127.5,-6119.639999999999
1764435127.2178133,-668.5649999999999,-8704.664999999999,-37245.465,-24751.71,-20114.01,-22013.01,-12118.815,-6111.99
1764435127.2178133,-669.915,-8703.855,-37238.355,-24751.755,-20112.84,-22024.89,-12107.16,-6100.245
1764435127.2178133,-676.5749999999999,-8706.869999999999,-37234.89,-24756.21,-20115.81,-22043.295,-12096.225,-6092.054999999999
1764435127.2178133,-685.2149999999999,-8713.305,-37238.13,-24764.58,-20123.145,-22060.665,-12093.12,-6091.469999999999
1764435127.2178133,-684.9449999999999,-8712.494999999999,-37238.76,-24764.76,-20122.965,-22059.18,-12094.92,-6092.37
1764435127.2178133,-677.52,-8706.69,-37237.815,-24759.27,-20117.88,-22044.6,-12099.015,-6094.844999999999
1764435127.2178133,-672.75,-8704.664999999999,-37241.64,-24756.255,-20115.54,-22030.425,-12108.33,-6103.26
1764435127.2178133,-671.13,-8707.095,-37250.235,-24756.975,-20117.52,-22017.33,-12123.495,-6117.57
1764435127.260329,-662.5799999999999,-8700.074999999999,-37246.815,-24748.515,-20110.275,-21999.69,-12125.88,-6118.425
1764435127.260329,-663.615,-8701.65,-37246.23,-24748.02,-20110.365,-22000.905,-12124.755,-6116.895
1764435127.2608645,-669.105,-8705.295,-37244.88,-24751.98,-20112.21,-22013.55,-12118.68,-6112.935
1764435127.2608645,-674.37,-8707.365,-37241.46,-24755.22,-20114.595,-22029.345,-12110.22,-6105.554999999999
1764435127.2608645,-681.03,-8710.244999999999,-37238.085,-24759.63,-20117.295,-22046.715,-12099.465,-6096.735
1764435127.2608645,-686.52,-8713.619999999999,-37237.365,-24764.895,-20122.02,-22060.395,-12093.885,-6092.505
1764435127.2608645,-686.6999999999999,-8712.99,-37239.48,-24765.93,-20123.37,-22059.585,-12095.595,-6094.44
1764435127.2608645,-681.39,-8710.289999999999,-37241.505,-24762.915,-20120.4,-22047.48,-12101.895,-6099.615
1764435127.2618926,-673.6949999999999,-8705.115,-37242.72,-24756.93,-20115.585,-22030.2,-12108.915,-6104.745
1764435127.2618926,-672.165,-8707.41,-37251.09,-24757.38,-20117.34,-22017.015,-12123.81,-6118.65
1764435127.2618926,-667.305,-8705.115,-37251.81,-24752.565,-20114.28,-22003.65,-12129.39,-6123.06
1764435127.2618926,-664.875,-8702.279999999999,-37247.355,-24748.65,-20109.42,-22001.085,-12124.98,-6118.02
1764435127.2618926,-667.5749999999999,-8702.595,-37243.395,-24750.18,-20109.645,-22011.39,-12115.98,-6110.639999999999
1764435127.2618926,-675.3149999999999,-8707.59,-37242.135,-24756.03,-20114.64,-22028.4,-12108.645,-6104.969999999999
1764435127.2618926,-682.605,-8711.865,-37239.795,-24761.79,-20118.96,-22047.255,-12099.735,-6097.23
1764435127.2618926,-688.77,-8714.744999999999,-37239.93,-24767.73,-20123.415,-22061.43,-12095.19,-6093.179999999999
1764435127.2618926,-688.365,-8714.835,-37241.685,-24768.765,-20123.91,-22060.845,-12096.99,-6095.25
1764435127.2618926,-684.405,-8712.765,-37244.97,-24766.155,-20122.83,-22050.225,-12104.685,-6101.594999999999
1764435127.2618926,-675.855,-8707.41,-37245.42,-24759.045,-20117.835,-22031.73,-12109.635,-6105.96
1764435127.2618926,-673.56,-8708.715,-37253.52,-24758.73,-20119.275,-22018.095,-12124.35,-6119.415
1764435127.263405,-665.505,-8703.09,-37251.495,-24751.08,-20112.39,-22001.58,-12127.995,-6121.08
1764435127.263405,-667.4399999999999,-8705.34,-37251.855,-24753.105,-20112.885,-22004.37,-12127.905,-6120.855
1764435127.3068771,-668.385,-8705.205,-37245.69,-24753.195,-20111.94,-22013.145,-12118.635,-6111.764999999999
1764435127.3068771,-678.015,-8712.09,-37246.68,-24760.665,-20118.465,-22031.37,-12113.055,-6108.615
1764435127.3084214,-684.0,-8714.699999999999,-37243.08,-24764.625,-20120.94,-22049.64,-12102.39,-6099.389999999999
1764435127.3084214,-687.3299999999999,-8715.779999999999,-37240.92,-24768.36,-20123.55,-22062.24,-12096.27,-6094.035
1764435127.3084214,-683.595,-8712.135,-37239.39,-24766.785,-20121.345,-22058.73,-12094.965,-6092.82
1764435127.3084214,-683.865,-8713.44,-37245.645,-24767.775,-20123.1,-22050.765,-12105.54,-6102.9
1764435127.3084214,-674.865,-8707.59,-37244.745,-24759.99,-20117.115,-22031.64,-12111.39,-6106.275
1764435127.3084214,-672.39,-8709.119999999999,-37252.215,-24759.72,-20118.24,-22017.015,-12125.7,-6119.28
1764435127.3084214,-671.0849999999999,-8710.199999999999,-37256.94,-24758.28,-20118.33,-22007.25,-12134.295,-6126.57
1764435127.3084214,-668.52,-8707.32,-37252.125,-24755.175,-20115.54,-22006.17,-12130.335,-6121.395
1764435127.3084214,-672.345,-8708.625,-37249.47,-24757.155,-20116.035,-22017.51,-12121.965,-6114.645
1764435127.3084214,-680.4449999999999,-8714.25,-37249.605,-24763.365,-20121.48,-22035.285,-12115.35,-6110.73
1764435127.3084214,-683.64,-8714.34,-37242.945,-24765.795,-20122.515,-22051.395,-12102.795,-6099.255
1764435127.3084214,-688.905,-8715.735,-37241.19,-24769.35,-20124.99,-22063.14,-12097.17,-6093.495
1764435127.309936,-691.47,-8718.255,-37246.005,-24773.22,-20127.78,-22064.445,-12101.94,-6098.94
1764435127.309936,-687.42,-8715.69,-37248.66,-24770.745,-20126.745,-22052.97,-12110.13,-6105.78
1764435127.309936,-679.5,-8710.289999999999,-37248.885,-24763.725,-20121.795,-22034.79,-12117.06,-6110.145
1764435127.309936,-675.4499999999999,-8710.199999999999,-37255.905,-24762.33,-20121.66,-22019.49,-12130.155,-6121.304999999999
1764435127.309936,-673.38,-8711.279999999999,-37259.73,-24760.98,-20121.48,-22009.905,-12137.805,-6128.91
1764435127.309936,-674.4599999999999,-8711.324999999999,-37257.435,-24759.81,-20121.345,-22011.21,-12135.6,-6126.615
1764435127.309936,-675.36,-8710.154999999999,-37250.685,-24759.54,-20120.13,-22019.22,-12125.205,-6117.12
1764435127.309936,-682.425,-8714.654999999999,-37249.56,-24764.355,-20123.64,-22035.825,-12117.645,-6111.179999999999
1764435127.309936,-685.485,-8713.89,-37242.675,-24765.12,-20123.415,-22050.54,-12104.955,-6099.165
1764435127.309936,-690.7049999999999,-8716.77,-37242.09,-24769.71,-20126.97,-22063.365,-12098.655,-6094.98
1764435127.3570426,-692.01,-8718.435,-37245.96,-24772.86,-20129.715,-22064.67,-12101.94,-6098.94
1764435127.3570426,-682.9649999999999,-8710.695,-37243.755,-24765.795,-20122.83,-22048.155,-12105.18,-6100.695
1764435127.3570426,-676.845,-8708.4,-37246.23,-24761.925,-20120.4,-22032.27,-12113.28,-6107.94
1764435127.3570426,-674.55,-8710.83,-37254.87,-24762.015,-20121.57,-22019.355,-12127.32,-6120.945
1764435127.3570426,-668.0699999999999,-8706.33,-37254.24,-24755.805,-20116.395,-22005.855,-12131.505,-6123.195
1764435127.3570426,-672.255,-8709.795,-37255.86,-24758.505,-20118.69,-22010.895,-12132.495,-6124.77
1764435127.3570426,-675.9,-8710.83,-37251.765,-24759.54,-20119.905,-22021.02,-12124.485,-6117.3
1764435127.3570426,-678.9599999999999,-8711.414999999999,-37246.14,-24760.71,-20120.04,-22033.665,-12114.45,-6107.264999999999
1764435127.3570426,-684.72,-8712.675,-37242.18,-24764.58,-20121.93,-22051.395,-12102.795,-6097.815
1764435127.3570426,-693.765,-8719.695,-37246.095,-24774.525,-20130.57,-22068.54,-12101.535,-6098.94
1764435127.3570426,-693.18,-8719.875,-37247.67,-24775.38,-20131.47,-22066.38,-12104.28,-6101.235
1764435127.3570426,-684.855,-8714.115,-37246.815,-24769.89,-20125.98,-22050.945,-12109.095,-6104.25
1764435127.3580585,-677.925,-8709.93,-37248.12,-24764.265,-20121.435,-22033.665,-12115.89,-6110.37
1764435127.3580585,-674.28,-8708.58,-37253.88,-24762.24,-20120.535,-22017.78,-12128.355,-6120.99
1764435127.3580585,-670.365,-8706.779999999999,-37255.14,-24758.19,-20117.925,-22006.485,-12133.17,-6125.264999999999
1764435127.3580585,-670.4549999999999,-8706.555,-37253.025,-24756.525,-20116.98,-22007.88,-12129.39,-6122.25
1764435127.3580585,-674.37,-8708.13,-37249.02,-24758.145,-20117.88,-22017.69,-12121.065,-6115.005
1764435127.3580585,-677.8349999999999,-8708.49,-37243.305,-24759.72,-20117.745,-22030.335,-12110.805,-6104.79
1764435127.3580585,-685.8,-8712.765,-37241.46,-24766.245,-20122.515,-22050.18,-12101.175,-6096.554999999999
1764435127.3580585,-687.8249999999999,-8712.72,-37238.265,-24768.27,-20123.055,-22060.035,-12094.065,-6090.03
1764435127.3580585,-688.5899999999999,-8713.395,-37241.775,-24770.295,-20126.34,-22059.72,-12098.07,-6094.665
1764435127.3580585,-680.805,-8707.59,-37240.605,-24764.58,-20120.94,-22044.87,-12103.11,-6098.04
1764435127.3580585,-673.47,-8703.99,-37241.19,-24758.73,-20116.395,-22028.58,-12110.265,-6103.44
1764435127.3580585,-668.745,-8702.505,-37246.725,-24755.4,-20114.505,-22011.705,-12121.695,-6113.7
1764435127.4015074,-663.975,-8700.615,-37247.94,-24751.935,-20110.59,-22000.14,-12127.14,-6117.389999999999
1764435127.4015074,-664.605,-8701.695,-37247.13,-24752.88,-20109.96,-22003.74,-12125.385,-6115.139999999999
1764435127.4015074,-667.89,-8703.585,-37243.89,-24754.95,-20111.94,-22015.44,-12117.24,-6108.165
1764435127.4020205,-673.02,-8705.52,-37240.515,-24756.93,-20114.37,-22029.93,-12106.44,-6099.929999999999
1764435127.4020205,-679.68,-8709.029999999999,-37238.04,-24761.745,-20118.015,-22047.795,-12096.135,-6091.605
1764435127.4020205,-681.12,-8709.119999999999,-37233.765,-24763.23,-20118.915,-22056.435,-12088.665,-6084.405
1764435127.4020205,-683.865,-8712.09,-37238.94,-24767.37,-20122.92,-22057.335,-12094.29,-6090.795
1764435127.4020205,-678.6899999999999,-8709.074999999999,-37240.785,-24764.67,-20120.13,-22044.555,-12100.77,-6096.645
1764435127.4020205,-670.77,-8703.539999999999,-37241.73,-24757.785,-20114.595,-22026.645,-12108.375,-6101.325
1764435127.4020205,-668.34,-8704.395,-37249.245,-24757.515,-20115.09,-22012.02,-12121.965,-6114.33
1764435127.4020205,-662.9399999999999,-8701.289999999999,-37249.29,-24752.34,-20111.355,-21999.24,-12125.835,-6116.264999999999
1764435127.4020205,-661.14,-8698.815,-37245.105,-24749.055,-20108.745,-21999.42,-12121.29,-6111.315
1764435127.40253,-668.79,-8703.945,-37245.105,-24754.635,-20112.165,-22014.405,-12116.295,-6108.12
1764435127.40253,-673.74,-8705.88,-37241.235,-24757.47,-20113.56,-22029.12,-12106.89,-6100.065
1764435127.40253,-675.81,-8704.125,-37233.855,-24757.47,-20112.48,-22042.8,-12092.22,-6087.24
1764435127.40253,-681.165,-8707.86,-37234.08,-24762.915,-20117.25,-22055.94,-12087.27,-6083.955
1764435127.40253,-679.77,-8706.779999999999,-37235.745,-24763.095,-20117.565,-22052.79,-12089.835,-6085.44
1764435127.40253,-679.095,-8708.22,-37241.82,-24764.04,-20119.365,-22043.565,-12101.22,-6096.014999999999
1764435127.40253,-671.5799999999999,-8703.404999999999,-37242.765,-24758.775,-20114.505,-22026.06,-12108.96,-6101.28
1764435127.40253,-667.845,-8702.82,-37248.795,-24756.615,-20113.38,-22009.635,-12121.695,-6112.44
1764435127.40253,-660.15,-8697.42,-37246.77,-24749.955,-20107.485,-21995.73,-12124.53,-6113.565
1764435127.40253,-661.41,-8698.32,-37245.105,-24749.145,-20106.945,-21999.015,-12121.38,-6110.594999999999
1764435127.4490986,-668.52,-8702.64,-37244.52,-24753.915,-20111.13,-22013.685,-12114.72,-6106.635
1764435127.4495609,-673.29,-8705.07,-37240.29,-24757.695,-20113.875,-22029.39,-12104.82,-6099.21
1764435127.4495609,-677.88,-8705.97,-37234.89,-24760.215,-20115.225,-22045.995,-12092.58,-6088.185
1764435127.4495609,-680.355,-8705.565,-37232.64,-24762.51,-20115.765,-22054.545,-12086.19,-6082.965
1764435127.4495609,-683.4599999999999,-8708.985,-37238.805,-24767.325,-20120.58,-22055.535,-12092.895,-6090.344999999999
1764435127.4495609,-678.105,-8706.195,-37241.82,-24764.04,-20118.015,-22042.215,-12100.005,-6096.33
1764435127.4495609,-671.625,-8702.145,-37243.08,-24758.1,-20114.01,-22025.88,-12108.69,-6102.27
1764435127.4495609,-666.27,-8700.795,-37247.4,-24754.455,-20111.625,-22009.095,-12120.165,-6112.349999999999
1764435127.4495609,-659.925,-8697.42,-37247.22,-24749.145,-20106.99,-21997.125,-12123.315,-6113.88
1764435127.4495609,-658.395,-8695.44,-37242.945,-24746.355,-20104.065,-21997.665,-12117.285,-6107.804999999999
1764435127.4495609,-663.2099999999999,-8698.05,-37239.75,-24749.055,-20105.955,-22010.58,-12109.545,-6101.955
1764435127.4495609,-672.615,-8704.305,-37240.2,-24757.74,-20112.255,-22029.615,-12104.19,-6099.12
1764435127.4495609,-679.41,-8706.914999999999,-37237.545,-24762.78,-20115.63,-22047.345,-12094.38,-6090.344999999999
1764435127.4495609,-680.22,-8706.015,-37233.54,-24763.545,-20115.54,-22054.23,-12086.325,-6083.415
1764435127.4495609,-681.48,-8707.59,-37237.77,-24766.515,-20118.105,-22053.465,-12091.14,-6088.32
1764435127.4495609,-675.405,-8703.315,-37238.985,-24762.42,-20114.82,-22039.47,-12097.755,-6093.27
1764435127.4495609,-666.405,-8697.015,-37238.265,-24755.67,-20109.195,-22020.48,-12103.83,-6096.69
1764435127.4495609,-661.14,-8695.529999999999,-37242.99,-24751.215,-20106.9,-22003.74,-12115.395,-6106.545
1764435127.4495609,-657.99,-8694.72,-37244.34,-24747.57,-20105.19,-21994.83,-12119.895,-6111.27
1764435127.4495609,-660.735,-8697.465,-37244.07,-24749.37,-20106.855,-21999.735,-12117.825,-6109.965
1764435127.4495609,-662.9399999999999,-8697.555,-37239.075,-24750.135,-20106.405,-22009.635,-12108.24,-6100.785
1764435127.4495609,-669.78,-8701.965,-37237.005,-24755.13,-20110.32,-22027.23,-12100.14,-6094.98
1764435127.4495609,-675.72,-8705.07,-37232.865,-24758.73,-20112.885,-22044.33,-12089.565,-6085.17
1764435127.4495609,-677.295,-8704.035,-37230.39,-24760.62,-20112.795,-22052.7,-12083.49,-6079.724999999999
1764435127.4944892,-676.845,-8703.9,-37232.865,-24761.205,-20113.695,-22050.405,-12087.09,-6083.955
1764435127.4944892,-675.0,-8703.36,-37237.365,-24760.395,-20113.83,-22040.235,-12095.955,-6092.639999999999
1764435127.4944892,-668.385,-8699.355,-37238.31,-24754.905,-20110.14,-22023.72,-12104.775,-6099.03
1764435127.4944892,-663.795,-8698.59,-37242.99,-24751.8,-20108.34,-22007.34,-12117.195,-6109.605
1764435127.4944892,-659.97,-8697.735,-37244.52,-24749.145,-20105.64,-21997.44,-12121.56,-6113.429999999999
1764435127.4944892,-661.77,-8699.67,-37243.44,-24750.27,-20106.765,-22001.715,-12119.13,-6111.405
1764435127.4944892,-662.5799999999999,-8698.59,-37237.995,-24750.27,-20105.82,-22011.66,-12108.87,-6101.594999999999
1764435127.4944892,-671.0849999999999,-8703.18,-37236.69,-24756.48,-20110.455,-22029.345,-12101.535,-6096.24
1764435127.4944892,-677.0699999999999,-8705.565,-37232.28,-24760.8,-20112.615,-22046.805,-12090.465,-6086.565
1764435127.4944892,-679.3199999999999,-8705.744999999999,-37230.345,-24762.645,-20114.28,-22055.715,-12084.75,-6081.12
1764435127.4944892,-679.995,-8707.005,-37235.385,-24765.39,-20117.655,-22054.68,-12089.475,-6086.7
1764435127.4944892,-670.365,-8699.985,-37233.495,-24758.28,-20111.85,-22037.805,-12093.57,-6088.545
1764435127.4944892,-666.72,-8699.58,-37238.49,-24755.805,-20111.4,-22024.08,-12104.325,-6098.085
1764435127.4954898,-664.0649999999999,-8700.84,-37246.095,-24755.58,-20111.895,-22009.68,-12117.78,-6110.639999999999
1764435127.4954898,-658.89,-8697.33,-37245.105,-24749.505,-20106.63,-21997.845,-12121.155,-6112.53
1764435127.4954898,-655.6949999999999,-8693.82,-37238.445,-24744.87,-20101.815,-21996.765,-12113.82,-6104.655
1764435127.4954898,-661.8149999999999,-8697.24,-37235.655,-24748.695,-20105.01,-22010.805,-12106.485,-6098.94
1764435127.4964888,-670.095,-8702.64,-37235.205,-24755.04,-20110.455,-22029.39,-12099.645,-6094.349999999999
1764435127.4964888,-672.615,-8701.515,-37229.04,-24756.165,-20109.51,-22044.33,-12085.605,-6081.929999999999
1764435127.4964888,-676.5749999999999,-8703.63,-37228.77,-24760.17,-20112.255,-22054.23,-12081.42,-6079.23
1764435127.4964888,-675.81,-8703.494999999999,-37231.47,-24761.52,-20113.245,-22050.18,-12085.56,-6082.74
1764435127.4964888,-671.67,-8701.74,-37235.205,-24759.27,-20112.03,-22037.94,-12093.84,-6090.075
1764435127.539472,-665.28,-8698.185,-37237.23,-24754.68,-20109.69,-22022.19,-12102.57,-6096.78
1764435127.539472,-661.05,-8697.6,-37243.215,-24752.52,-20109.33,-22007.025,-12115.08,-6107.715
1764435127.539472,-655.0649999999999,-8693.414999999999,-37240.92,-24745.545,-20103.345,-21994.515,-12116.52,-6107.804999999999
1764435127.539472,-658.26,-8696.34,-37241.37,-24747.705,-20104.74,-22001.535,-12113.865,-6106.365
1764435127.539472,-662.13,-8698.23,-37238.265,-24750.855,-20106.045,-22012.875,-12105.315,-6099.21
1764435127.539472,-668.745,-8700.48,-37235.43,-24754.815,-20109.33,-22027.995,-12096.315,-6092.054999999999
1764435127.539472,-673.785,-8701.83,-37229.985,-24758.235,-20110.905,-22045.095,-12085.02,-6082.2
1764435127.539472,-679.8149999999999,-8705.97,-37232.685,-24765.03,-20116.665,-22057.29,-12084.525,-6081.795
1764435127.539472,-678.105,-8704.935,-37234.575,-24765.39,-20116.395,-22052.97,-12088.8,-6084.45
1764435127.539472,-674.055,-8703.539999999999,-37238.76,-24764.22,-20115.63,-22041.27,-12096.9,-6092.099999999999
1764435127.539472,-667.845,-8699.535,-37240.515,-24759.09,-20111.4,-22024.44,-12105.18,-6098.49
1764435127.539472,-666.3149999999999,-8700.66,-37248.39,-24758.46,-20112.21,-22010.58,-12119.67,-6111.36
1764435127.539472,-662.4449999999999,-8699.175,-37249.245,-24755.04,-20110.095,-22001.31,-12123.99,-6114.69
1764435127.539472,-664.3349999999999,-8701.47,-37248.075,-24754.635,-20110.365,-22006.26,-12120.885,-6112.215
1764435127.539472,-669.3299999999999,-8703.855,-37245.645,-24757.515,-20112.93,-22019.04,-12113.235,-6105.87
1764435127.539472,-676.395,-8707.455,-37243.62,-24763.455,-20117.565,-22036.185,-12104.955,-6099.705
1764435127.539472,-679.23,-8707.005,-37237.05,-24765.255,-20117.34,-22050.405,-12091.68,-6087.15
1764435127.539472,-685.98,-8712.404999999999,-37239.57,-24773.085,-20122.92,-22062.87,-12090.915,-6087.645
1764435127.539472,-683.28,-8711.19,-37241.01,-24772.95,-20122.83,-22057.605,-12095.145,-6090.255
1764435127.539472,-680.805,-8711.279999999999,-37245.78,-24772.23,-20123.055,-22046.445,-12105.09,-6099.705
1764435127.539472,-673.605,-8707.005,-37246.185,-24766.065,-20117.43,-22028.355,-12112.605,-6104.969999999999
1764435127.539472,-671.5799999999999,-8708.355,-37253.295,-24764.895,-20118.465,-22014.495,-12126.78,-6116.849999999999
1764435127.539472,-664.02,-8702.64,-37249.92,-24757.425,-20112.12,-22001.58,-12126.825,-6115.545
1764435127.539472,-664.74,-8702.595,-37247.265,-24756.525,-20110.905,-22005.45,-12121.785,-6111.54
1764435127.5882947,-671.715,-8706.779999999999,-37245.96,-24761.295,-20114.82,-22020.93,-12115.62,-6106.77
1764435127.5882947,-674.505,-8706.51,-37239.57,-24762.645,-20115.765,-22033.8,-12104.145,-6096.33
1764435127.5882947,-680.535,-8709.119999999999,-37235.97,-24767.19,-20118.51,-22051.215,-12093.57,-6087.105
1764435127.5882947,-685.2149999999999,-8712.0,-37237.275,-24770.88,-20122.56,-22061.475,-12090.555,-6085.755
1764435127.5882947,-687.8249999999999,-8714.97,-37243.035,-24774.705,-20126.34,-22061.565,-12097.62,-6093.36
1764435127.5882947,-683.1899999999999,-8712.539999999999,-37245.375,-24772.32,-20123.505,-22048.245,-12105.855,-6099.929999999999
1764435127.5882947,-675.855,-8707.77,-37246.32,-24766.605,-20118.69,-22030.2,-12114.675,-6105.195
1764435127.5882947,-672.48,-8707.77,-37252.62,-24764.76,-20119.23,-22014.99,-12127.725,-6116.58
1764435127.5882947,-671.49,-8708.175,-37255.365,-24763.365,-20118.105,-22008.105,-12132.45,-6122.07
1764435127.5882947,-670.4549999999999,-8706.24,-37250.37,-24761.295,-20114.865,-22010.58,-12127.005,-6116.13
1764435127.5882947,-672.12,-8706.465,-37245.465,-24762.195,-20115.135,-22021.605,-12116.52,-6106.905
1764435127.5882947,-679.41,-8710.154999999999,-37243.62,-24767.505,-20118.96,-22038.795,-12107.88,-6100.29
1764435127.5882947,-687.42,-8714.43,-37241.82,-24773.67,-20123.73,-22058.64,-12099.33,-6093.315
1764435127.5882947,-687.105,-8712.765,-37237.95,-24773.22,-20122.92,-22063.68,-12092.49,-6087.645
1764435127.5882947,-686.88,-8712.63,-37241.37,-24774.435,-20124.585,-22060.26,-12096.36,-6092.37
1764435127.5882947,-682.29,-8710.38,-37245.105,-24772.005,-20123.685,-22047.705,-12105.63,-6100.38
1764435127.5882947,-673.74,-8705.88,-37246.23,-24765.48,-20118.51,-22029.345,-12114.09,-6105.465
1764435127.5882947,-670.905,-8708.039999999999,-37253.52,-24764.49,-20118.195,-22014.765,-12128.535,-6118.245
1764435127.5882947,-670.545,-8708.805,-37256.85,-24762.87,-20116.8,-22007.475,-12133.44,-6123.465
1764435127.5882947,-672.84,-8709.795,-37254.78,-24762.87,-20116.26,-22012.245,-12129.39,-6120.585
1764435127.5882947,-676.5749999999999,-8710.83,-37249.965,-24764.22,-20116.98,-22023.945,-12119.76,-6112.62
1764435127.5882947,-681.7049999999999,-8713.08,-37245.645,-24767.46,-20119.32,-22038.57,-12110.58,-6104.16
1764435127.5882947,-683.505,-8711.55,-37238.265,-24768.315,-20117.115,-22051.755,-12096.585,-6091.38
1764435127.5882947,-687.915,-8714.52,-37239.525,-24772.455,-20120.355,-22060.98,-12094.245,-6090.075
1764435127.6319706,-687.285,-8715.015,-37242.855,-24773.895,-20121.93,-22057.245,-12099.645,-6094.98
1764435127.6319706,-685.845,-8715.735,-37248.345,-24773.715,-20123.415,-22048.38,-12110.67,-6105.014999999999
1764435127.6319706,-679.5899999999999,-8712.27,-37250.955,-24768.99,-20121.03,-22032.72,-12119.94,-6111.945
1764435127.6319706,-676.7099999999999,-8712.045,-37257.3,-24767.505,-20121.165,-22018.14,-12132.72,-6123.554999999999
1764435127.6319706,-671.5799999999999,-8708.49,-37256.49,-24763.005,-20117.88,-22009.59,-12134.07,-6125.04
1764435127.6319706,-672.3,-8708.355,-37253.34,-24763.545,-20118.24,-22014.405,-12129.57,-6120.27
1764435127.6319706,-673.155,-8706.824999999999,-37246.365,-24763.005,-20116.98,-22023.72,-12118.68,-6108.435
1764435127.6319706,-680.67,-8711.145,-37244.79,-24768.675,-20121.84,-22042.395,-12111.03,-6102.045
1764435127.6319706,-688.41,-8716.095,-37243.17,-24775.83,-20127.915,-22063.275,-12101.625,-6096.42
1764435127.6319706,-691.6949999999999,-8717.4,-37243.845,-24779.79,-20131.515,-22073.31,-12098.655,-6094.349999999999
1764435127.6319706,-686.925,-8713.08,-37243.62,-24778.035,-20129.535,-22066.965,-12100.275,-6094.44
1764435127.6319706,-682.8299999999999,-8711.595,-37248.12,-24775.74,-20129.13,-22056.03,-12110.715,-6102.45
1764435127.6319706,-678.4649999999999,-8710.695,-37252.845,-24774.12,-20128.365,-22042.44,-12122.415,-6112.62
1764435127.6319706,-674.73,-8710.605,-37258.65,-24773.355,-20129.13,-22028.085,-12135.285,-6123.96
1764435127.6319706,-671.175,-8708.22,-37257.705,-24769.305,-20126.025,-22019.895,-12137.985,-6124.679999999999
1764435127.6329892,-673.8299999999999,-8709.93,-37255.68,-24769.62,-20125.035,-22024.89,-12134.205,-6120.9
1764435127.6329892,-678.9599999999999,-8712.449999999999,-37252.71,-24771.465,-20126.52,-22036.5,-12125.655,-6113.474999999999
1764435127.6329892,-686.2049999999999,-8715.779999999999,-37251.27,-24776.505,-20129.805,-22052.565,-12117.87,-6107.804999999999
1764435127.6329892,-694.395,-8720.324999999999,-37249.47,-24782.355,-20133.675,-22070.88,-12107.835,-6101.19
1764435127.6329892,-695.385,-8720.055,-37247.58,-24784.065,-20134.62,-22076.955,-12103.2,-6096.645
1764435127.6329892,-691.56,-8716.815,-37247.985,-24781.545,-20132.145,-22069.08,-12106.08,-6098.13
1764435127.6329892,-690.435,-8717.355,-37254.87,-24781.77,-20132.91,-22058.325,-12117.33,-6108.885
1764435127.6339812,-684.18,-8714.25,-37257.255,-24776.865,-20129.04,-22040.415,-12126.15,-6116.445
1764435127.6339812,-683.1,-8716.455,-37264.95,-24777.27,-20130.255,-22027.005,-12140.82,-6129.719999999999
1764435127.6801956,-678.42,-8713.35,-37262.835,-24772.005,-20125.17,-22016.025,-12141.945,-6130.125
1764435127.6801956,-676.845,-8710.83,-37256.67,-24767.64,-20120.625,-22016.655,-12133.98,-6122.07
1764435127.681415,-682.6949999999999,-8714.744999999999,-37255.365,-24771.33,-20124.045,-22031.235,-12125.925,-6116.445
1764435127.681415,-686.52,-8715.779999999999,-37250.28,-24773.94,-20125.08,-22046.715,-12114.09,-6105.554999999999
1764435127.681415,-694.98,-8720.865,-37249.74,-24781.68,-20132.145,-22068.045,-12105.99,-6100.2
1764435127.681415,-697.68,-8722.035,-37249.605,-24784.605,-20134.215,-22074.93,-12103.56,-6098.49
1764435127.681415,-691.155,-8717.13,-37247.895,-24780.555,-20130.57,-22065.12,-12104.73,-6097.77
1764435127.681415,-686.43,-8714.88,-37251.09,-24777.405,-20127.6,-22051.395,-12112.74,-6104.745
1764435127.681415,-682.245,-8714.34,-37256.265,-24775.2,-20126.835,-22037.715,-12124.215,-6114.645
1764435127.681415,-681.255,-8717.039999999999,-37265.265,-24777.0,-20129.985,-22026.645,-12139.605,-6129.36
1764435127.682413,-677.0699999999999,-8714.025,-37263.105,-24771.33,-20125.665,-22017.015,-12140.865,-6129.09
1764435127.682413,-673.3349999999999,-8709.615,-37255.095,-24765.84,-20120.085,-22016.97,-12131.01,-6118.514999999999
1764435127.682413,-676.665,-8711.19,-37250.73,-24767.64,-20120.805,-22028.49,-12121.065,-6110.73
1764435127.682413,-686.3399999999999,-8716.815,-37250.595,-24774.03,-20127.105,-22047.75,-12114.54,-6106.815
1764435127.682413,-690.93,-8717.715,-37244.925,-24776.82,-20129.04,-22063.77,-12102.75,-6096.33
1764435127.682413,-696.6899999999999,-8721.99,-37248.255,-24782.535,-20135.115,-22074.345,-12102.705,-6097.455
1764435127.682413,-693.045,-8718.57,-37249.74,-24781.455,-20133.72,-22066.83,-12105.945,-6099.929999999999
1764435127.682413,-689.85,-8717.4,-37253.88,-24779.97,-20132.28,-22054.545,-12115.485,-6108.795
1764435127.682413,-679.4549999999999,-8710.47,-37252.17,-24771.555,-20124.63,-22034.565,-12121.02,-6112.575
1764435127.682413,-676.7099999999999,-8711.775,-37259.73,-24771.6,-20125.665,-22020.705,-12135.195,-6124.86
1764435127.72623,-673.155,-8708.94,-37258.155,-24766.965,-20122.155,-22012.245,-12136.77,-6125.849999999999
1764435127.72623,-672.03,-8706.69,-37252.44,-24763.365,-20118.645,-22014.495,-12128.715,-6117.929999999999
1764435127.72623,-675.765,-8708.895,-37249.155,-24766.2,-20119.59,-22027.32,-12119.355,-6110.19
1764435127.72623,-683.775,-8714.385,-37247.445,-24771.735,-20124.405,-22046.22,-12112.065,-6104.205
1764435127.7272434,-691.38,-8718.84,-37245.78,-24778.125,-20129.445,-22066.02,-12103.515,-6097.094999999999
1764435127.7272434,-697.05,-8723.34,-37248.57,-24783.975,-20134.71,-22076.19,-12103.155,-6097.86
1764435127.7272434,-694.395,-8721.09,-37249.92,-24782.67,-20133.27,-22068.855,-12107.205,-6101.55
1764435127.7272434,-687.3299999999999,-8715.914999999999,-37251.045,-24777.99,-20129.22,-22052.745,-12113.37,-6105.69
1764435127.7272434,-680.76,-8712.945,-37254.51,-24773.265,-20126.43,-22036.77,-12123.18,-6112.62
1764435127.7272434,-677.0699999999999,-8713.08,-37260.63,-24770.925,-20125.665,-22021.425,-12136.185,-6124.185
1764435127.7272434,-674.91,-8711.595,-37259.91,-24767.91,-20122.92,-22014.405,-12138.705,-6125.895
1764435127.7272434,-680.04,-8715.33,-37259.91,-24771.15,-20126.07,-22023.09,-12135.825,-6124.005
1764435127.7282414,-684.36,-8717.895,-37256.715,-24774.255,-20128.995,-22037.04,-12127.545,-6116.715
1764435127.7282414,-690.48,-8720.73,-37253.07,-24778.665,-20131.785,-22053.195,-12117.96,-6109.514999999999
1764435127.7282414,-695.3399999999999,-8722.574999999999,-37248.885,-24781.995,-20134.215,-22068.945,-12106.215,-6100.245
1764435127.7282414,-698.805,-8724.42,-37249.83,-24786.18,-20136.78,-22077.27,-12105.27,-6099.435
1764435127.7282414,-696.9599999999999,-8723.61,-37252.98,-24785.865,-20136.42,-22070.88,-12111.57,-6104.07
1764435127.7293413,-690.93,-8720.46,-37254.96,-24782.4,-20133.54,-22056.39,-12119.94,-6110.82
1764435127.7293413,-682.155,-8714.565,-37255.41,-24775.38,-20127.69,-22037.22,-12127.455,-6115.679999999999
1764435127.7293413,-675.765,-8711.685,-37258.155,-24770.655,-20124.54,-22019.76,-12136.77,-6124.185
1764435127.7293413,-672.885,-8709.975,-37256.715,-24766.65,-20121.75,-22012.695,-12137.085,-6124.635
1764435127.73034,-679.14,-8713.664999999999,-37257.75,-24771.06,-20125.53,-22021.65,-12134.79,-6123.42
1764435127.73034,-681.8399999999999,-8714.565,-37253.52,-24772.23,-20126.115,-22033.53,-12124.305,-6113.52
1764435127.73034,-685.62,-8716.275,-37248.345,-24774.435,-20127.555,-22047.75,-12114.09,-6103.755
1764435127.7709377,-690.345,-8717.76,-37243.89,-24778.44,-20129.58,-22063.95,-12103.515,-6094.98
1764435127.7709377,-696.4649999999999,-8722.035,-37247.58,-24784.605,-20134.845,-22073.49,-12104.955,-6097.005
1764435127.7709377,-692.145,-8719.065,-37248.075,-24782.67,-20132.1,-22065.03,-12107.16,-6098.76
1764435127.7709377,-688.635,-8718.57,-37253.115,-24781.77,-20131.605,-22053.87,-12116.745,-6107.58
1764435127.7714477,-680.31,-8713.44,-37253.7,-24774.84,-20126.205,-22035.465,-12125.25,-6112.665
1764435127.7714477,-674.775,-8711.369999999999,-37257.39,-24770.745,-20123.64,-22019.94,-12135.465,-6121.755
1764435127.7714477,-673.515,-8711.369999999999,-37259.37,-24769.62,-20122.785,-22014.81,-12136.725,-6123.87
1764435127.7714477,-674.505,-8710.965,-37255.32,-24768.765,-20121.345,-22020.12,-12130.29,-6117.885
1764435127.7714477,-676.935,-8710.92,-37249.38,-24769.395,-20121.39,-22031.37,-12119.715,-6108.344999999999
1764435127.7714477,-685.035,-8716.365,-37249.11,-24775.65,-20126.565,-22050.09,-12112.38,-6103.44
1764435127.7724607,-689.355,-8717.715,-37244.97,-24779.79,-20128.32,-22066.065,-12101.94,-6093.9
1764435127.7724607,-690.93,-8717.895,-37244.43,-24782.265,-20129.13,-22070.52,-12100.185,-6092.235
1764435127.7724607,-690.03,-8718.029999999999,-37247.49,-24783.12,-20130.075,-22065.03,-12105.855,-6098.4
1764435127.7724607,-685.485,-8716.68,-37252.17,-24781.32,-20129.13,-22052.43,-12114.765,-6106.905
1764435127.7724607,-676.98,-8711.19,-37253.79,-24774.84,-20123.505,-22034.205,-12122.505,-6111.945
1764435127.7724607,-676.305,-8713.17,-37262.25,-24774.345,-20124.72,-22021.785,-12136.545,-6124.905
1764435127.7724607,-673.3349999999999,-8712.494999999999,-37261.305,-24771.015,-20122.74,-22015.665,-12138.345,-6125.94
1764435127.7724607,-675.3149999999999,-8713.529999999999,-37257.84,-24771.78,-20123.145,-22021.965,-12133.08,-6121.665
1764435127.7734604,-677.385,-8713.035,-37251.945,-24772.275,-20122.965,-22031.955,-12121.605,-6111.81
1764435127.7734604,-686.0699999999999,-8717.49,-37250.73,-24779.52,-20128.005,-22050.945,-12113.37,-6106.275
1764435127.7734604,-690.5699999999999,-8718.21,-37246.365,-24783.03,-20129.355,-22066.74,-12103.515,-6096.285
1764435127.7734604,-695.745,-8722.26,-37250.55,-24789.555,-20134.845,-22075.83,-12104.73,-6098.849999999999
1764435127.7734604,-691.785,-8720.19,-37251.09,-24787.53,-20133.675,-22068.18,-12109.23,-6101.865
1764435127.7744577,-684.27,-8715.06,-37250.955,-24781.815,-20129.445,-22052.295,-12115.845,-6106.139999999999
1764435127.7744577,-679.5899999999999,-8713.935,-37256.49,-24778.98,-20128.365,-22037.13,-12127.005,-6115.139999999999
1764435127.7744577,-675.135,-8713.08,-37261.44,-24776.01,-20127.06,-22022.325,-12138.39,-6124.365
1764435127.8195677,-673.155,-8711.414999999999,-37260.045,-24773.085,-20125.125,-22016.43,-12138.84,-6125.535
1764435127.8195677,-678.375,-8715.015,-37260.72,-24776.91,-20128.455,-22025.52,-12135.555,-6123.51
1764435127.8195677,-682.02,-8715.735,-37256.4,-24779.16,-20128.41,-22037.94,-12126.645,-6115.32
1764435127.8195677,-685.0799999999999,-8715.914999999999,-37249.605,-24779.79,-20127.42,-22051.08,-12114.495,-6103.844999999999
1764435127.8195677,-691.65,-8720.55,-37248.03,-24785.1,-20131.875,-22068.855,-12105.585,-6097.094999999999
1764435127.8195677,-698.4,-8726.265,-37252.665,-24792.255,-20138.31,-22078.26,-12108.015,-6101.099999999999
1764435127.8195677,-693.4499999999999,-8723.07,-37252.755,-24788.97,-20135.7,-22069.89,-12110.49,-6103.125
1764435127.8195677,-685.4399999999999,-8717.49,-37252.8,-24783.165,-20130.03,-22053.33,-12116.25,-6106.32
1764435127.8195677,-680.985,-8715.779999999999,-37256.805,-24780.105,-20128.95,-22038.39,-12127.275,-6115.905
1764435127.8195677,-676.935,-8715.51,-37262.61,-24777.765,-20129.22,-22025.115,-12138.885,-6127.02
1764435127.8195677,-675.72,-8715.735,-37263.555,-24775.605,-20128.23,-22021.245,-12140.73,-6128.28
1764435127.8195677,-676.0799999999999,-8714.789999999999,-37258.47,-24774.12,-20126.655,-22025.565,-12134.07,-6120.405
1764435127.8195677,-680.13,-8716.14,-37255.005,-24777.18,-20127.555,-22038.39,-12124.8,-6113.205
1764435127.8195677,-689.7149999999999,-8721.9,-37254.015,-24784.155,-20133.18,-22057.695,-12117.24,-6107.67
1764435127.8195677,-693.3149999999999,-8722.8,-37249.83,-24786.855,-20134.305,-22072.32,-12105.675,-6097.635
1764435127.820565,-693.495,-8721.225,-37248.66,-24788.07,-20134.44,-22076.145,-12103.2,-6095.205
1764435127.820565,-692.1899999999999,-8721.09,-37252.665,-24788.295,-20135.025,-22069.89,-12108.645,-6100.514999999999
1764435127.820565,-687.915,-8719.289999999999,-37255.995,-24785.865,-20133.18,-22056.48,-12118.68,-6108.344999999999
1764435127.820565,-681.03,-8715.555,-37257.93,-24780.285,-20128.095,-22039.065,-12128.13,-6115.275
1764435127.820565,-679.23,-8716.68,-37263.33,-24779.385,-20129.58,-22026.24,-12139.92,-6126.525
1764435127.820565,-676.53,-8714.699999999999,-37262.565,-24775.92,-20128.05,-22020.57,-12140.64,-6126.435
1764435127.820565,-678.4649999999999,-8715.735,-37259.64,-24776.01,-20127.69,-22027.365,-12134.79,-6121.44
1764435127.8681326,-681.93,-8716.77,-37255.275,-24777.99,-20128.185,-22038.93,-12124.71,-6113.295
1764435127.8681326,-686.295,-8717.67,-37250.235,-24780.42,-20128.545,-22053.915,-12113.91,-6103.395
1764435127.8681326,-694.395,-8722.98,-37249.335,-24786.9,-20134.17,-22072.905,-12105.855,-6097.815
1764435127.8681326,-696.735,-8723.88,-37250.145,-24790.095,-20137.14,-22077.765,-12105.315,-6097.77
1764435127.8681326,-693.9449999999999,-8722.17,-37252.17,-24789.285,-20136.015,-22070.655,-12111.03,-6102.54
1764435127.8681326,-687.285,-8717.715,-37253.88,-24784.92,-20132.505,-22055.895,-12118.59,-6108.03
1764435127.869148,-681.8399999999999,-8714.789999999999,-37257.705,-24780.555,-20129.85,-22039.335,-12128.715,-6116.804999999999
1764435127.869148,-679.095,-8715.555,-37264.23,-24778.665,-20129.49,-22025.34,-12140.82,-6127.514999999999
1764435127.869148,-679.995,-8717.805,-37266.345,-24779.025,-20129.4,-22023.09,-12144.15,-6131.07
1764435127.869148,-681.48,-8717.895,-37262.835,-24778.71,-20128.77,-22029.03,-12138.12,-6125.445
1764435127.869148,-682.47,-8716.904999999999,-37256.58,-24778.305,-20128.095,-22038.57,-12127.59,-6114.33
1764435127.869148,-691.245,-8721.72,-37255.59,-24784.605,-20132.685,-22057.515,-12119.67,-6108.57
1764435127.869148,-694.62,-8721.81,-37250.415,-24787.08,-20132.91,-22071.33,-12107.97,-6098.264999999999
1764435127.869148,-697.23,-8723.565,-37251.45,-24790.815,-20135.61,-22076.505,-12106.665,-6098.4
1764435127.869148,-697.365,-8724.779999999999,-37256.265,-24791.895,-20137.005,-22071.105,-12113.64,-6105.87
1764435127.869148,-689.805,-8720.279999999999,-37257.39,-24786.315,-20132.73,-22055.715,-12121.47,-6110.46
1764435127.869148,-683.865,-8717.265,-37261.17,-24782.58,-20130.615,-22038.795,-12131.775,-6119.28
1764435127.869148,-679.4549999999999,-8715.555,-37265.94,-24779.475,-20128.5,-22023.63,-12142.665,-6128.19
1764435127.869148,-677.025,-8712.99,-37263.33,-24775.515,-20124.495,-22017.465,-12141.99,-6126.165
1764435127.869148,-679.365,-8714.385,-37259.82,-24774.975,-20124.72,-22023.765,-12134.79,-6120.764999999999
1764435127.869148,-686.295,-8719.605,-37259.28,-24780.42,-20129.355,-22039.695,-12127.68,-6116.31
1764435127.869148,-691.29,-8721.225,-37254.465,-24783.525,-20130.705,-22055.58,-12117.24,-6107.264999999999
1764435127.869148,-691.74,-8719.065,-37246.545,-24783.12,-20128.635,-22066.83,-12103.38,-6094.665
1764435127.869148,-696.1949999999999,-8723.16,-37249.83,-24788.115,-20132.64,-22073.445,-12103.605,-6096.915
1764435127.9133558,-693.9449999999999,-8722.845,-37253.7,-24788.115,-20133.09,-22067.01,-12110.355,-6102.764999999999
1764435127.9133558,-689.22,-8720.19,-37256.985,-24785.01,-20130.21,-22052.88,-12119.805,-6109.65
1764435127.9133558,-680.0849999999999,-8714.52,-37257.525,-24777.585,-20124.405,-22032.99,-12127.23,-6114.915
1764435127.9133558,-676.8,-8714.88,-37262.97,-24776.145,-20124.18,-22019.67,-12138.615,-6125.49
1764435127.9133558,-677.115,-8716.005,-37264.455,-24775.47,-20124.135,-22017.87,-12141.045,-6128.415
1764435127.9143565,-677.385,-8715.42,-37259.28,-24773.625,-20122.02,-22023.63,-12133.665,-6121.17
1764435127.9143565,-684.3149999999999,-8719.875,-37257.12,-24779.565,-20125.62,-22038.525,-12125.655,-6115.679999999999
1764435127.9143565,-687.78,-8719.515,-37251.225,-24781.41,-20126.25,-22052.475,-12114.315,-6105.465
1764435127.9143565,-691.8299999999999,-8720.324999999999,-37247.58,-24783.75,-20128.455,-22067.865,-12104.055,-6096.195
1764435127.9143565,-695.025,-8723.34,-37249.47,-24787.44,-20131.29,-22073.04,-12102.975,-6096.78
1764435127.9143565,-691.02,-8720.235,-37251.0,-24785.28,-20128.68,-22062.87,-12106.89,-6100.065
1764435127.9143565,-682.74,-8714.43,-37251.405,-24779.745,-20124.09,-22046.445,-12113.955,-6104.429999999999
1764435127.9143565,-677.0699999999999,-8712.315,-37255.23,-24775.425,-20121.93,-22029.93,-12123.855,-6113.025
1764435127.9143565,-674.415,-8713.664999999999,-37261.17,-24773.4,-20122.065,-22016.565,-12135.42,-6123.51
1764435127.9143565,-673.785,-8714.07,-37261.71,-24772.5,-20121.165,-22013.73,-12136.68,-6125.715
1764435127.9143565,-674.1899999999999,-8712.494999999999,-37256.895,-24771.51,-20119.635,-22020.03,-12129.615,-6118.56
1764435127.9143565,-681.255,-8716.86,-37256.13,-24777.81,-20124.18,-22036.32,-12122.82,-6112.62
1764435127.9143565,-684.855,-8717.039999999999,-37249.245,-24779.655,-20124.54,-22050.54,-12111.48,-6101.91
1764435127.9143565,-690.7049999999999,-8719.74,-37247.13,-24784.515,-20127.825,-22066.83,-12103.29,-6095.115
1764435127.9143565,-694.305,-8722.845,-37250.91,-24789.42,-20131.83,-22072.815,-12104.55,-6097.275
1764435127.9143565,-693.27,-8722.935,-37255.32,-24790.365,-20133.045,-22066.2,-12110.895,-6103.889999999999
1764435127.9143565,-688.05,-8719.065,-37256.76,-24786.27,-20130.255,-22051.215,-12118.725,-6109.83
1764435127.9583137,-680.4449999999999,-8714.52,-37258.29,-24781.005,-20125.125,-22032.27,-12127.41,-6116.175
1764435127.9583137,-677.97,-8714.699999999999,-37263.78,-24779.16,-20124.63,-22019.265,-12139.065,-6126.84
1764435127.9583137,-677.295,-8714.295,-37262.835,-24777.27,-20123.55,-22016.79,-12139.02,-6127.335
1764435127.9583137,-677.0699999999999,-8712.494999999999,-37257.705,-24774.75,-20120.355,-22021.74,-12130.245,-6118.245
1764435127.9583137,-684.855,-8717.355,-37256.94,-24779.655,-20124.405,-22037.58,-12122.73,-6113.745
1764435127.9593303,-691.29,-8721.449999999999,-37254.555,-24784.92,-20127.78,-22055.895,-12114.045,-6106.545
1764435127.9593303,-695.0699999999999,-8722.17,-37250.235,-24788.25,-20129.58,-22070.34,-12102.93,-6097.5
1764435127.9593303,-695.79,-8722.08,-37250.19,-24789.465,-20131.245,-22073.355,-12102.525,-6096.735
1764435127.9593303,-690.3,-8718.119999999999,-37250.28,-24785.685,-20128.095,-22062.42,-12106.305,-6099.929999999999
1764435127.9593303,-687.3299999999999,-8718.029999999999,-37255.41,-24784.02,-20127.33,-22050.225,-12116.565,-6109.425
1764435127.9593303,-679.8149999999999,-8713.664999999999,-37256.94,-24778.17,-20123.1,-22031.82,-12125.52,-6115.724999999999
1764435127.9593303,-678.87,-8716.23,-37263.96,-24777.81,-20125.665,-22020.075,-12138.165,-6127.155
1764435127.9603386,-674.8199999999999,-8713.755,-37261.485,-24773.94,-20122.245,-22014.63,-12137.085,-6124.815
1764435127.9603386,-675.9449999999999,-8713.98,-37257.39,-24774.48,-20121.165,-22022.19,-12129.975,-6118.335
1764435127.9603386,-680.0849999999999,-8715.195,-37253.25,-24776.64,-20122.83,-22035.915,-12120.48,-6110.01
1764435127.9618518,-685.53,-8717.445,-37249.425,-24778.89,-20124.09,-22051.305,-12109.05,-6100.469999999999
1764435127.9618518,-687.3299999999999,-8716.05,-37243.305,-24780.24,-20123.82,-22063.365,-12097.845,-6089.355
1764435127.9623706,-691.155,-8718.48,-37246.14,-24785.19,-20128.365,-22068.765,-12099.735,-6092.145
1764435127.9623706,-691.155,-8719.56,-37251.72,-24787.215,-20130.615,-22063.815,-12106.935,-6100.605
1764435127.9623706,-685.2149999999999,-8716.725,-37253.655,-24782.355,-20127.465,-22048.965,-12115.17,-6107.13
1764435127.9623706,-675.9449999999999,-8710.695,-37253.925,-24775.38,-20121.705,-22028.67,-12123.72,-6112.08
1764435127.9623706,-673.785,-8711.46,-37259.955,-24774.255,-20121.93,-22016.115,-12135.78,-6122.429999999999
1764435128.0066206,-672.345,-8711.19,-37258.74,-24772.23,-20121.03,-22012.965,-12136.005,-6122.52
1764435128.0066206,-677.43,-8714.025,-37256.895,-24775.065,-20122.965,-22022.865,-12131.1,-6118.514999999999
1764435128.0066206,-681.93,-8716.5,-37254.555,-24778.89,-20125.53,-22036.905,-12122.955,-6111.63
1764435128.0066206,-688.905,-8719.47,-37251.99,-24784.29,-20128.815,-22055.355,-12113.055,-6103.62
1764435128.0066206,-690.75,-8717.31,-37244.43,-24784.515,-20128.59,-22067.235,-12099.825,-6092.054999999999
1764435128.0066206,-693.0899999999999,-8719.244999999999,-37246.14,-24786.855,-20131.245,-22070.97,-12100.095,-6092.82
1764435128.0066206,-693.18,-8721.27,-37253.115,-24789.15,-20133.27,-22065.48,-12109.545,-6102.27
1764435128.0066206,-684.855,-8715.914999999999,-37253.79,-24783.795,-20128.59,-22048.92,-12117.06,-6107.355
1764435128.0066206,-678.8249999999999,-8713.664999999999,-37257.93,-24779.79,-20126.79,-22032.495,-12127.455,-6115.905
1764435128.0066206,-679.8149999999999,-8717.22,-37266.48,-24780.735,-20129.22,-22022.505,-12141.63,-6128.73
1764435128.0066206,-677.61,-8715.645,-37264.815,-24777.585,-20126.835,-22019.31,-12141.315,-6127.605
1764435128.0066206,-678.42,-8715.285,-37259.235,-24776.595,-20125.08,-22025.52,-12132.945,-6120.63
1764435128.0066206,-685.17,-8718.975,-37257.39,-24780.915,-20128.455,-22040.37,-12125.43,-6114.33
1764435128.0066206,-687.4649999999999,-8718.795,-37250.28,-24781.905,-20128.32,-22053.87,-12112.47,-6102.855
1764435128.0066206,-693.36,-8722.035,-37248.03,-24786.54,-20131.335,-22068.855,-12102.93,-6096.645
1764435128.0066206,-698.0849999999999,-8726.039999999999,-37252.665,-24792.435,-20136.33,-22076.415,-12106.44,-6100.605
1764435128.0066206,-695.43,-8724.69,-37255.725,-24791.85,-20135.655,-22068.27,-12113.865,-6106.679999999999
1764435128.0066206,-688.905,-8720.82,-37257.615,-24787.35,-20132.595,-22052.205,-12121.47,-6112.755
1764435128.0066206,-679.365,-8713.845,-37257.48,-24779.295,-20126.07,-22031.01,-12127.5,-6116.355
1764435128.0066206,-677.5649999999999,-8714.789999999999,-37262.97,-24777.495,-20125.89,-22018.95,-12138.12,-6126.75
1764435128.0066206,-673.0649999999999,-8711.01,-37259.505,-24772.815,-20121.795,-22014.045,-12135.87,-6123.33
1764435128.0066206,-673.92,-8709.705,-37254.105,-24772.005,-20120.175,-22020.39,-12127.59,-6115.41
1764435128.0066206,-678.87,-8712.0,-37250.64,-24775.11,-20121.84,-22034.565,-12118.23,-6107.625
1764435128.0066206,-686.3399999999999,-8715.869999999999,-37248.75,-24779.61,-20125.44,-22052.655,-12108.915,-6099.84
1764435128.051091,-692.145,-8718.84,-37246.545,-24785.415,-20129.715,-22068.675,-12100.995,-6093.719999999999
1764435128.051091,-691.8299999999999,-8717.535,-37246.365,-24785.73,-20129.535,-22069.62,-12100.59,-6092.639999999999
1764435128.051091,-688.23,-8715.869999999999,-37249.065,-24784.29,-20128.005,-22061.07,-12106.62,-6097.77
1764435128.051091,-683.37,-8713.215,-37252.665,-24780.87,-20126.205,-22046.355,-12115.53,-6105.87
1764435128.051091,-676.17,-8708.715,-37255.095,-24775.83,-20122.155,-22028.445,-12124.305,-6113.474999999999
1764435128.051091,-672.84,-8709.119999999999,-37260.045,-24774.12,-20121.075,-22015.665,-12134.88,-6122.115
1764435128.051091,-673.785,-8711.235,-37260.945,-24774.39,-20121.84,-22015.26,-12136.815,-6123.554999999999
1764435128.051091,-678.9599999999999,-8714.115,-37259.82,-24776.955,-20123.325,-22025.7,-12132.63,-6119.865
1764435128.051091,-683.685,-8716.994999999999,-37256.355,-24780.555,-20125.215,-22040.055,-12123.45,-6113.07
1764435128.051091,-690.03,-8719.244999999999,-37252.53,-24784.605,-20127.33,-22056.75,-12113.28,-6104.205
1764435128.051091,-692.9549999999999,-8719.47,-37248.075,-24786.81,-20127.69,-22069.62,-12102.12,-6094.485
1764435128.0521069,-696.555,-8723.295,-37252.44,-24792.165,-20132.055,-22075.11,-12104.775,-6098.085
1764435128.0521069,-693.405,-8721.675,-37255.275,-24791.22,-20131.425,-22066.47,-12112.02,-6103.665
1764435128.0521069,-687.6899999999999,-8718.255,-37257.57,-24786.765,-20128.77,-22051.755,-12120.705,-6110.91
1764435128.0521069,-677.655,-8711.685,-37257.48,-24777.99,-20122.065,-22031.37,-12126.87,-6115.635
1764435128.0521069,-674.3249999999999,-8711.279999999999,-37261.845,-24775.965,-20120.805,-22017.555,-12136.365,-6124.139999999999
1764435128.0521069,-675.855,-8712.539999999999,-37262.52,-24776.325,-20121.165,-22016.97,-12137.805,-6126.255
1764435128.0521069,-677.8349999999999,-8713.125,-37258.155,-24776.28,-20121.885,-22025.16,-12130.785,-6118.92
1764435128.0526218,-683.4599999999999,-8716.185,-37255.725,-24780.645,-20124.945,-22040.73,-12122.64,-6111.9
1764435128.0526218,-686.88,-8716.86,-37249.965,-24783.435,-20125.305,-22055.805,-12110.445,-6101.145
1764435128.0526218,-692.8199999999999,-8719.965,-37249.11,-24788.43,-20129.67,-22071.555,-12103.02,-6095.025
1764435128.0526218,-697.635,-8724.195,-37254.735,-24794.1,-20135.475,-22077.54,-12106.71,-6099.84
1764435128.0536368,-692.9549999999999,-8721.945,-37256.58,-24791.4,-20132.91,-22067.055,-12112.47,-6104.385
1764435128.0536368,-685.485,-8716.455,-37256.535,-24785.595,-20127.33,-22049.46,-12119.265,-6109.514999999999
1764435128.099276,-678.105,-8712.765,-37258.425,-24780.06,-20122.74,-22030.92,-12127.41,-6117.12
1764435128.1002722,-676.2149999999999,-8713.395,-37263.42,-24777.99,-20122.605,-22019.58,-12138.39,-6127.38
1764435128.1002722,-671.355,-8708.67,-37257.885,-24772.185,-20117.34,-22013.37,-12135.375,-6123.06
1764435128.1002722,-674.055,-8709.615,-37254.825,-24773.535,-20117.475,-22022.055,-12127.365,-6116.49
1764435128.1002722,-680.31,-8713.035,-37252.665,-24777.99,-20121.12,-22037.13,-12119.445,-6109.74
1764435128.1002722,-687.645,-8717.715,-37250.01,-24783.57,-20125.53,-22055.4,-12110.49,-6102.09
1764435128.1012833,-692.055,-8719.605,-37248.57,-24787.755,-20128.86,-22069.98,-12102.12,-6094.98
1764435128.1012833,-692.8199999999999,-8720.055,-37249.695,-24789.195,-20130.03,-22071.195,-12101.94,-6095.745
1764435128.1012833,-689.67,-8718.345,-37251.81,-24787.125,-20128.995,-22062.195,-12107.88,-6101.639999999999
1764435128.1012833,-685.845,-8716.5,-37256.265,-24784.65,-20127.42,-22049.415,-12117.78,-6110.28
1764435128.1012833,-676.755,-8710.92,-37256.715,-24777.045,-20121.39,-22029.165,-12125.79,-6115.185
1764435128.1012833,-670.635,-8707.635,-37258.155,-24772.05,-20117.88,-22013.64,-12131.64,-6120.855
1764435128.1012833,-671.04,-8708.49,-37258.515,-24771.69,-20117.655,-22013.055,-12131.91,-6121.62
1764435128.1012833,-673.425,-8709.255,-37254.42,-24773.085,-20117.205,-22021.245,-12124.215,-6114.735
1764435128.1012833,-675.3149999999999,-8707.545,-37247.355,-24773.13,-20116.08,-22031.64,-12111.615,-6103.17
1764435128.1012833,-683.37,-8712.18,-37245.06,-24779.88,-20121.345,-22050.72,-12103.2,-6096.599999999999
1764435128.1022894,-684.63,-8711.414999999999,-37239.525,-24780.51,-20120.355,-22061.16,-12092.175,-6086.655
1764435128.1022894,-686.97,-8713.755,-37243.26,-24784.245,-20123.145,-22064.535,-12094.29,-6090.255
1764435128.1022894,-686.25,-8714.654999999999,-37248.39,-24785.01,-20125.305,-22057.965,-12103.83,-6098.985
1764435128.1022894,-676.17,-8707.275,-37246.59,-24776.235,-20118.375,-22040.28,-12107.97,-6101.505
1764435128.1022894,-666.225,-8699.94,-37245.96,-24768.225,-20111.49,-22019.265,-12114.585,-6105.375
1764435128.1022894,-663.255,-8700.57,-37251.0,-24766.29,-20111.31,-22007.52,-12124.305,-6114.24
1764435128.1022894,-661.9499999999999,-8699.805,-37248.795,-24763.77,-20109.555,-22005.63,-12122.64,-6112.304999999999
1764435128.1022894,-663.5699999999999,-8699.67,-37244.43,-24763.905,-20109.375,-22013.82,-12113.955,-6103.935
1764435128.1464632,-672.615,-8706.869999999999,-37245.465,-24771.735,-20115.72,-22032.18,-12108.195,-6100.56
1764435128.1464632,-679.68,-8711.01,-37242.72,-24776.55,-20119.455,-22049.91,-12099.555,-6093.179999999999
1764435128.1464632,-681.345,-8709.885,-37238.22,-24777.81,-20119.545,-22061.205,-12089.61,-6084.495
1764435128.1464632,-680.9399999999999,-8708.805,-37238.355,-24778.665,-20119.77,-22062.375,-12089.295,-6085.17
1764435128.1464632,-680.13,-8710.02,-37243.98,-24779.655,-20121.84,-22054.995,-12097.89,-6093.36
1764435128.1464632,-671.625,-8704.08,-37243.665,-24772.815,-20115.99,-22037.13,-12103.92,-6096.78
1764435128.1464632,-665.73,-8700.93,-37248.255,-24769.53,-20112.93,-22020.705,-12115.575,-6105.915
1764435128.1464632,-661.725,-8699.85,-37251.765,-24766.65,-20111.355,-22008.42,-12123.855,-6113.474999999999
1764435128.1464632,-662.175,-8701.065,-37251.405,-24765.48,-20110.725,-22008.375,-12122.955,-6113.474999999999
1764435128.1479938,-662.4449999999999,-8700.119999999999,-37245.69,-24764.67,-20108.565,-22015.62,-12113.37,-6105.554999999999
1764435128.1479938,-667.305,-8703.0,-37242.81,-24767.865,-20111.715,-22029.615,-12104.82,-6098.94
1764435128.1479938,-674.73,-8707.185,-37240.605,-24773.22,-20115.09,-22047.705,-12095.865,-6091.29
1764435128.1479938,-678.015,-8707.455,-37236.42,-24776.145,-20116.305,-22059.72,-12087.36,-6082.605
1764435128.1479938,-680.9399999999999,-8709.345,-37239.93,-24779.88,-20119.455,-22062.285,-12090.555,-6085.215
1764435128.1479938,-678.78,-8709.615,-37245.195,-24780.69,-20120.49,-22054.77,-12098.565,-6092.73
1764435128.1479938,-671.625,-8705.475,-37246.68,-24775.74,-20116.125,-22039.11,-12105.945,-6098.715
1764435128.1479938,-663.5699999999999,-8700.255,-37248.165,-24768.72,-20110.77,-22020.03,-12114.36,-6105.375
1764435128.1479938,-662.4,-8701.785,-37253.745,-24768.675,-20112.12,-22010.31,-12125.295,-6115.679999999999
1764435128.1479938,-661.905,-8700.885,-37252.17,-24766.605,-20110.32,-22008.015,-12123.945,-6113.34
1764435128.1479938,-662.22,-8699.67,-37246.185,-24765.48,-20107.845,-22014.765,-12114.315,-6103.44
1764435128.1479938,-666.63,-8701.47,-37242.54,-24768.81,-20109.375,-22029.345,-12104.865,-6095.474999999999
1764435128.1479938,-673.38,-8704.98,-37239.615,-24774.075,-20113.02,-22047.12,-12095.1,-6087.51
1764435128.1485248,-680.805,-8710.515,-37240.425,-24781.725,-20119.095,-22063.905,-12090.105,-6084.585
1764435128.1485248,-680.04,-8709.39,-37240.92,-24782.04,-20119.905,-22063.635,-12090.555,-6084.495
1764435128.1966643,-678.42,-8708.895,-37245.285,-24782.58,-20121.21,-22054.95,-12097.755,-6092.594999999999
1764435128.1966643,-671.535,-8704.44,-37246.68,-24777.405,-20117.295,-22039.56,-12105.495,-6098.715
1764435128.1966643,-663.165,-8699.49,-37247.445,-24771.06,-20112.075,-22020.12,-12114.495,-6105.285
1764435128.1966643,-661.68,-8701.199999999999,-37253.25,-24770.34,-20112.48,-22010.22,-12124.44,-6114.87
1764435128.1966643,-659.61,-8698.904999999999,-37250.28,-24767.595,-20109.555,-22007.565,-12121.155,-6111.36
1764435128.1966643,-658.215,-8695.305,-37241.595,-24764.22,-20105.685,-22012.065,-12109.635,-6099.344999999999
1764435128.1966643,-664.155,-8698.68,-37239.12,-24768.63,-20108.43,-22026.96,-12101.895,-6092.955
1764435128.1966643,-673.6949999999999,-8705.565,-37240.335,-24777.54,-20115.765,-22048.47,-12094.245,-6089.175
1764435128.1966643,-679.86,-8709.705,-37239.57,-24783.075,-20120.76,-22064.13,-12089.25,-6085.08
1764435128.1966643,-680.7149999999999,-8709.57,-37240.65,-24783.795,-20122.2,-22064.13,-12090.87,-6085.889999999999
1764435128.1966643,-673.6949999999999,-8703.99,-37240.11,-24778.71,-20117.61,-22050.405,-12094.83,-6088.635
1764435128.1966643,-666.18,-8698.904999999999,-37241.01,-24772.95,-20113.29,-22034.07,-12101.085,-6093.675
1764435128.1966643,-658.98,-8694.99,-37243.8,-24767.955,-20109.51,-22015.62,-12109.86,-6101.639999999999
1764435128.1966643,-656.685,-8695.935,-37248.885,-24765.975,-20109.42,-22005.27,-12120.39,-6110.415
1764435128.1966643,-654.255,-8693.324999999999,-37245.735,-24762.465,-20106.18,-22002.795,-12117.96,-6106.23
1764435128.1966643,-658.305,-8696.295,-37242.495,-24764.625,-20106.99,-22012.83,-12109.815,-6100.605
1764435128.1966643,-662.13,-8697.69,-37238.175,-24766.605,-20107.8,-22026.285,-12099.645,-6091.56
1764435128.1966643,-670.995,-8702.145,-37236.915,-24773.58,-20111.985,-22045.995,-12090.24,-6084.315
1764435128.1966643,-672.7049999999999,-8701.515,-37232.505,-24775.605,-20112.345,-22057.38,-12080.565,-6075.99
1764435128.1966643,-674.4599999999999,-8702.279999999999,-37234.665,-24778.035,-20114.955,-22058.505,-12082.905,-6078.915
1764435128.1966643,-668.385,-8699.445,-37235.34,-24774.255,-20112.165,-22046.355,-12088.62,-6082.92
1764435128.1966643,-664.155,-8698.59,-37240.245,-24772.23,-20111.355,-22033.395,-12097.845,-6091.469999999999
1764435128.1966643,-655.8299999999999,-8693.82,-37242.045,-24766.425,-20105.91,-22014.18,-12107.565,-6098.985
1764435128.1966643,-653.895,-8694.27,-37245.78,-24764.895,-20104.965,-22002.525,-12116.385,-6106.455
1764435128.2417305,-656.505,-8696.835,-37247.355,-24766.425,-20106.135,-22005.585,-12117.285,-6107.804999999999
1764435128.2417305,-660.3299999999999,-8699.67,-37244.835,-24768.54,-20107.755,-22016.565,-12110.4,-6101.955
1764435128.2417305,-666.0,-8701.92,-37241.325,-24771.735,-20110.365,-22030.38,-12101.4,-6094.125
1764435128.2417305,-671.5799999999999,-8702.73,-37236.195,-24774.48,-20111.76,-22046.715,-12089.385,-6084.224999999999
1764435128.2417305,-675.63,-8704.44,-37234.44,-24778.395,-20113.83,-22059.315,-12081.825,-6078.195
1764435128.2417305,-675.3149999999999,-8703.449999999999,-37235.205,-24779.295,-20114.28,-22057.605,-12082.635,-6079.275
1764435128.2417305,-670.05,-8700.164999999999,-37236.465,-24776.01,-20111.535,-22045.23,-12088.755,-6084.36
1764435128.2417305,-664.425,-8698.095,-37239.255,-24770.97,-20107.8,-22028.94,-12096.99,-6091.785
1764435128.2417305,-657.495,-8694.315,-37242.36,-24765.255,-20103.435,-22010.4,-12107.79,-6099.344999999999
1764435128.2417305,-656.9549999999999,-8694.945,-37247.4,-24765.12,-20103.84,-22000.545,-12117.555,-6109.245
1764435128.2417305,-656.4599999999999,-8694.225,-37245.6,-24763.14,-20102.22,-21999.87,-12114.99,-6106.86
1764435128.2417305,-658.755,-8695.125,-37241.955,-24762.78,-20102.04,-22008.825,-12107.07,-6100.02
1764435128.2417305,-660.465,-8694.72,-37235.565,-24762.915,-20100.6,-22019.67,-12095.235,-6089.219999999999
1764435128.2417305,-668.0699999999999,-8698.545,-37232.955,-24768.045,-20104.965,-22038.975,-12086.685,-6081.389999999999
1764435128.2417305,-673.8299999999999,-8700.975,-37231.515,-24772.77,-20109.96,-22054.275,-12081.015,-6076.349999999999
1764435128.2417305,-675.27,-8701.74,-37234.035,-24775.47,-20112.615,-22055.895,-12083.22,-6079.139999999999
1764435128.2417305,-671.85,-8700.57,-37237.365,-24774.525,-20112.345,-22046.49,-12091.23,-6085.98
1764435128.2417305,-666.405,-8697.869999999999,-37240.65,-24771.825,-20110.995,-22033.89,-12100.05,-6093.405
1764435128.2417305,-661.095,-8697.015,-37245.645,-24769.8,-20109.915,-22018.77,-12112.29,-6103.665
1764435128.2417305,-660.015,-8698.725,-37250.775,-24770.205,-20110.905,-22010.49,-12122.91,-6113.07
1764435128.2854114,-658.53,-8696.88,-37247.94,-24767.055,-20109.06,-22010.715,-12119.67,-6108.974999999999
1764435128.2854114,-660.015,-8697.195,-37243.305,-24766.47,-20108.925,-22019.94,-12110.58,-6099.57
1764435128.2854114,-665.865,-8700.029999999999,-37240.605,-24772.005,-20113.56,-22035.915,-12101.94,-6092.594999999999
1764435128.2854114,-670.725,-8701.425,-37235.52,-24776.01,-20115.945,-22053.06,-12091.5,-6082.38
1764435128.2854114,-677.475,-8705.295,-37236.015,-24781.905,-20121.795,-22068.855,-12086.82,-6078.96
1764435128.2854114,-677.52,-8704.98,-37237.32,-24783.345,-20122.92,-22069.17,-12089.205,-6081.165
1764435128.2869525,-674.595,-8704.664999999999,-37242.765,-24783.075,-20122.965,-22060.35,-12096.855,-6088.815
1764435128.2869525,-672.12,-8704.71,-37248.705,-24781.905,-20122.695,-22047.93,-12107.97,-6099.165
1764435128.2869525,-664.245,-8700.164999999999,-37250.415,-24775.425,-20117.655,-22027.14,-12117.195,-6106.86
1764435128.2869525,-664.02,-8702.414999999999,-37256.355,-24775.605,-20118.195,-22017.285,-12127.545,-6116.04
1764435128.2869525,-659.79,-8697.824999999999,-37249.245,-24769.17,-20110.815,-22012.155,-12120.165,-6109.155
1764435128.2869525,-661.995,-8698.545,-37245.555,-24769.44,-20109.645,-22020.885,-12111.12,-6102.045
1764435128.2869525,-670.095,-8704.215,-37245.195,-24775.515,-20114.235,-22037.265,-12104.055,-6097.275
1764435128.2869525,-677.79,-8708.895,-37243.26,-24781.635,-20118.06,-22055.58,-12095.73,-6089.445
1764435128.2869525,-680.895,-8709.074999999999,-37240.155,-24784.155,-20119.185,-22066.965,-12087.495,-6083.325
1764435128.2869525,-682.515,-8710.785,-37243.44,-24786.0,-20120.715,-22067.37,-12091.59,-6087.87
1764435128.2869525,-677.655,-8708.355,-37245.24,-24782.895,-20118.24,-22054.635,-12098.16,-6093.495
1764435128.2869525,-669.3299999999999,-8702.46,-37244.79,-24776.01,-20112.12,-22035.465,-12105.27,-6097.679999999999
1764435128.2869525,-662.67,-8698.59,-37248.39,-24770.43,-20108.34,-22016.925,-12114.45,-6105.42
1764435128.2869525,-660.78,-8700.75,-37253.115,-24769.035,-20108.34,-22007.565,-12123.675,-6113.88
1764435128.287968,-661.4549999999999,-8701.47,-37252.845,-24768.945,-20107.485,-22008.87,-12122.415,-6112.349999999999
1764435128.287968,-665.8199999999999,-8704.305,-37250.37,-24772.23,-20109.6,-22020.525,-12116.43,-6106.724999999999
1764435128.287968,-670.095,-8706.105,-37246.14,-24775.335,-20111.58,-22034.25,-12105.495,-6098.085
1764435128.287968,-679.995,-8711.414999999999,-37244.61,-24782.805,-20116.935,-22054.77,-12097.305,-6092.415
1764435128.3356907,-684.405,-8713.98,-37243.53,-24787.89,-20120.445,-22067.91,-12091.635,-6088.365
1764435128.3356907,-685.53,-8715.51,-37246.77,-24790.725,-20123.145,-22068.63,-12095.64,-6091.605
1764435128.3356907,-681.345,-8713.215,-37248.66,-24788.115,-20121.705,-22057.83,-12103.02,-6097.41
1764435128.3362346,-674.865,-8708.31,-37249.695,-24782.085,-20117.07,-22042.35,-12110.22,-6103.395
1764435128.3362346,-667.62,-8703.539999999999,-37251.72,-24775.875,-20112.48,-22022.685,-12120.12,-6110.145
1764435128.3362346,-669.105,-8707.86,-37258.65,-24778.395,-20115.63,-22016.385,-12131.955,-6121.62
1764435128.3362346,-668.115,-8706.914999999999,-37255.68,-24777.27,-20113.965,-22016.16,-12127.905,-6118.155
1764435128.3362346,-669.1949999999999,-8705.25,-37250.145,-24776.145,-20112.345,-22023.945,-12118.545,-6108.57
1764435128.3362346,-676.395,-8708.94,-37248.66,-24781.005,-20115.945,-22041.36,-12110.715,-6103.17
1764435128.3362346,-681.48,-8710.65,-37242.9,-24784.605,-20117.07,-22057.74,-12099.87,-6093.179999999999
1764435128.3362346,-686.0699999999999,-8713.35,-37242.81,-24788.205,-20120.355,-22070.205,-12094.155,-6088.905
1764435128.3362346,-687.9599999999999,-8715.869999999999,-37246.275,-24791.04,-20124.09,-22071.15,-12098.295,-6093.27
1764435128.3362346,-685.305,-8715.42,-37251.405,-24790.95,-20124.9,-22061.79,-12107.565,-6101.73
1764435128.3362346,-676.935,-8710.38,-37252.08,-24785.325,-20119.545,-22044.24,-12114.945,-6107.445
1764435128.3362346,-671.22,-8708.715,-37256.895,-24781.23,-20117.205,-22026.915,-12125.97,-6116.94
1764435128.3362346,-670.545,-8710.199999999999,-37262.79,-24781.365,-20117.88,-22018.77,-12135.555,-6126.075
1764435128.3362346,-669.375,-8708.67,-37258.695,-24778.53,-20115.045,-22018.14,-12131.64,-6121.62
1764435128.3362346,-675.72,-8713.44,-37257.525,-24783.615,-20118.87,-22031.46,-12126.465,-6117.885
1764435128.3362346,-678.1949999999999,-8713.529999999999,-37251.27,-24784.605,-20118.105,-22043.43,-12115.305,-6107.264999999999
1764435128.3362346,-687.285,-8718.66,-37250.055,-24791.085,-20123.505,-22063.635,-12105.99,-6100.65
1764435128.3362346,-689.4449999999999,-8718.795,-37247.805,-24793.65,-20124.585,-22074.615,-12098.61,-6094.889999999999
1764435128.3362346,-685.125,-8715.15,-37246.32,-24791.22,-20122.785,-22069.755,-12098.115,-6093.719999999999
1764435128.3362346,-680.805,-8712.855,-37248.795,-24789.015,-20121.93,-22058.595,-12105.63,-6100.38
1764435128.3362346,-675.045,-8709.93,-37251.54,-24785.505,-20119.32,-22043.565,-12115.035,-6108.57
1764435128.379584,-668.43,-8707.05,-37255.5,-24780.735,-20116.395,-22025.97,-12125.88,-6117.389999999999
1764435128.379584,-667.53,-8708.805,-37260.315,-24779.925,-20116.62,-22016.835,-12134.97,-6124.77
1764435128.379584,-668.745,-8709.029999999999,-37258.065,-24778.44,-20115.72,-22018.635,-12132.855,-6122.07
1764435128.379584,-673.605,-8710.695,-37255.365,-24780.78,-20117.34,-22029.705,-12124.845,-6115.995
1764435128.379584,-679.23,-8713.395,-37252.17,-24784.605,-20119.905,-22044.285,-12116.025,-6107.94
1764435128.379584,-687.915,-8719.38,-37250.64,-24792.12,-20125.26,-22065.39,-12107.43,-6102.0
1764435128.379584,-688.545,-8717.805,-37246.275,-24793.38,-20124.99,-22073.85,-12098.88,-6094.53
1764435128.379584,-689.625,-8719.11,-37249.56,-24796.485,-20127.465,-22073.58,-12103.2,-6098.895
1764435128.379584,-686.43,-8718.119999999999,-37252.89,-24794.235,-20127.33,-22062.555,-12110.895,-6105.915
1764435128.379584,-681.7049999999999,-8716.095,-37256.31,-24791.355,-20125.395,-22047.795,-12119.94,-6113.745
1764435128.379584,-672.5699999999999,-8709.795,-37256.58,-24783.705,-20118.42,-22027.365,-12127.68,-6119.73
1764435128.379584,-671.04,-8711.324999999999,-37261.845,-24782.175,-20118.06,-22018.68,-12135.735,-6127.11
1764435128.379584,-668.34,-8707.994999999999,-37256.985,-24778.395,-20113.875,-22017.015,-12130.47,-6120.179999999999
1764435128.379584,-672.84,-8710.02,-37253.97,-24780.96,-20115.585,-22028.805,-12123.045,-6113.969999999999
1764435128.379584,-678.015,-8712.765,-37251.63,-24785.01,-20118.735,-22044.42,-12114.45,-6106.905
1764435128.379584,-684.18,-8716.77,-37248.975,-24790.455,-20122.515,-22062.915,-12104.775,-6099.344999999999
1764435128.379584,-691.38,-8721.945,-37250.865,-24797.115,-20127.78,-22077.18,-12101.805,-6098.355
1764435128.379584,-691.6949999999999,-8721.63,-37252.935,-24798.015,-20128.995,-22075.155,-12105.18,-6101.73
1764435128.3806,-684.3149999999999,-8716.14,-37253.43,-24791.895,-20124.045,-22060.215,-12109.14,-6105.105
1764435128.3806,-674.1899999999999,-8707.904999999999,-37250.775,-24782.985,-20116.485,-22040.505,-12113.595,-6107.04
1764435128.3806,-668.79,-8705.43,-37255.32,-24779.205,-20114.595,-22023.765,-12125.025,-6116.31
1764435128.381113,-667.125,-8706.24,-37258.425,-24778.035,-20114.775,-22015.485,-12133.44,-6123.195
1764435128.381113,-666.045,-8705.295,-37254.87,-24775.92,-20112.84,-22016.475,-12128.625,-6118.335
1764435128.381113,-671.625,-8709.345,-37253.79,-24779.52,-20115.855,-22029.48,-12121.38,-6113.295
1764435128.4278336,-675.765,-8710.335,-37249.47,-24782.535,-20117.07,-22043.34,-12111.075,-6105.014999999999
1764435128.4278336,-682.515,-8713.8,-37246.725,-24787.755,-20120.94,-22061.97,-12101.31,-6097.455
1764435128.4278336,-685.53,-8714.25,-37244.16,-24790.14,-20122.965,-22071.915,-12094.515,-6091.605
1764435128.4278336,-685.98,-8715.33,-37246.905,-24792.57,-20125.62,-22071.015,-12098.34,-6095.16
1764435128.4278336,-679.5,-8711.775,-37248.75,-24788.115,-20122.92,-22057.83,-12105.045,-6100.605
1764435128.4278336,-671.355,-8705.654999999999,-37248.3,-24780.645,-20116.575,-22039.02,-12111.075,-6104.88
1764435128.4278336,-668.0699999999999,-8704.664999999999,-37254.915,-24778.89,-20115.405,-22022.955,-12124.98,-6115.95
1764435128.4278336,-666.18,-8705.295,-37258.83,-24777.585,-20114.865,-22013.865,-12132.945,-6121.98
1764435128.4278336,-665.73,-8704.305,-37255.59,-24775.335,-20113.47,-22014.54,-12128.31,-6117.705
1764435128.4278336,-670.995,-8707.545,-37253.43,-24778.8,-20115.855,-22027.68,-12121.38,-6112.575
1764435128.4283438,-678.285,-8712.585,-37252.26,-24784.74,-20120.4,-22044.555,-12113.145,-6106.365
1764435128.4283438,-686.8349999999999,-8717.13,-37250.325,-24790.68,-20125.08,-22063.77,-12104.46,-6099.12
1764435128.4283438,-691.605,-8718.164999999999,-37249.02,-24794.82,-20127.51,-22075.335,-12099.96,-6095.295
1764435128.4283438,-688.9499999999999,-8716.545,-37249.47,-24793.425,-20127.555,-22072.995,-12102.03,-6096.645
1764435128.4283438,-687.015,-8716.5,-37255.005,-24792.165,-20128.545,-22063.365,-12110.895,-6104.429999999999
1764435128.4283438,-680.4449999999999,-8713.125,-37256.67,-24787.26,-20124.36,-22046.76,-12118.59,-6111.09
1764435128.4283438,-671.22,-8707.05,-37257.795,-24780.105,-20118.645,-22025.97,-12127.545,-6117.57
1764435128.4283438,-669.555,-8707.095,-37260.72,-24778.395,-20117.79,-22017.825,-12135.42,-6123.78
1764435128.4283438,-670.725,-8707.545,-37258.695,-24778.44,-20116.665,-22020.255,-12133.215,-6120.54
1764435128.4283438,-676.395,-8711.279999999999,-37257.705,-24782.445,-20118.915,-22033.395,-12126.465,-6114.78
1764435128.4283438,-681.93,-8714.43,-37254.69,-24786.63,-20121.3,-22048.065,-12117.24,-6107.804999999999
1764435128.4283438,-688.4549999999999,-8717.715,-37251.315,-24792.255,-20125.305,-22066.02,-12107.52,-6100.335
1764435128.4288747,-694.17,-8721.945,-37252.755,-24798.465,-20130.705,-22079.565,-12103.335,-6098.49
1764435128.4288747,-693.63,-8722.574999999999,-37255.005,-24799.05,-20132.865,-22077.99,-12107.115,-6102.405
1764435128.472002,-685.89,-8716.68,-37254.825,-24793.29,-20128.365,-22063.095,-12111.705,-6105.285
1764435128.472002,-680.355,-8713.935,-37257.795,-24790.095,-20125.665,-22047.795,-12120.48,-6112.575
1764435128.472002,-672.165,-8708.94,-37259.28,-24783.03,-20120.4,-22027.545,-12129.3,-6119.639999999999
1764435128.472002,-670.545,-8710.289999999999,-37262.43,-24780.87,-20119.815,-22018.815,-12135.87,-6126.57
1764435128.472002,-668.295,-8708.13,-37257.165,-24778.215,-20116.305,-22018.5,-12130.335,-6120.54
1764435128.472002,-672.03,-8709.57,-37254.42,-24781.095,-20117.655,-22030.29,-12122.37,-6113.295
1764435128.472002,-676.395,-8711.369999999999,-37250.865,-24783.705,-20119.725,-22045.14,-12112.155,-6105.33
1764435128.472002,-685.125,-8716.59,-37249.785,-24790.095,-20125.125,-22065.435,-12104.055,-6099.3
1764435128.472002,-685.485,-8713.935,-37245.555,-24790.32,-20124.495,-22072.545,-12095.82,-6092.054999999999
1764435128.472002,-685.845,-8714.88,-37248.48,-24792.255,-20126.295,-22070.655,-12100.095,-6096.915
1764435128.472002,-684.5849999999999,-8716.365,-37253.88,-24793.02,-20127.735,-22060.98,-12109.905,-6106.77
1764435128.472002,-677.0699999999999,-8712.72,-37255.86,-24788.79,-20122.83,-22044.87,-12117.96,-6112.62
1764435128.4730165,-665.64,-8704.935,-37255.275,-24779.43,-20115.045,-22023.405,-12124.125,-6116.445
1764435128.4730165,-664.47,-8705.385,-37258.605,-24778.44,-20115.135,-22015.665,-12130.965,-6122.969999999999
1764435128.4730165,-666.63,-8707.41,-37258.29,-24779.97,-20116.89,-22020.39,-12129.39,-6121.215
1764435128.4730165,-669.8249999999999,-8708.13,-37253.97,-24780.735,-20116.935,-22031.37,-12120.93,-6112.53
1764435128.4730165,-677.25,-8713.529999999999,-37252.89,-24786.63,-20122.29,-22048.47,-12113.82,-6106.77
1764435128.4730165,-682.47,-8715.33,-37247.895,-24789.24,-20124.45,-22064.715,-12103.29,-6096.554999999999
1764435128.4730165,-686.925,-8717.58,-37247.85,-24794.055,-20127.735,-22075.83,-12099.375,-6093.45
1764435128.4730165,-689.13,-8720.19,-37253.43,-24797.655,-20131.38,-22076.37,-12105.72,-6100.02
1764435128.5201535,-682.155,-8715.015,-37253.655,-24791.76,-20126.835,-22061.52,-12110.94,-6103.889999999999
1764435128.5201535,-676.89,-8711.955,-37255.635,-24787.755,-20123.415,-22045.365,-12120.165,-6111.54
1764435128.5201535,-671.625,-8710.065,-37259.955,-24784.695,-20121.255,-22028.49,-12131.73,-6122.025
1764435128.5201535,-670.3199999999999,-8710.92,-37262.925,-24783.57,-20120.445,-22020.435,-12138.03,-6127.605
1764435128.5201535,-671.67,-8711.73,-37262.07,-24784.155,-20120.355,-22024.35,-12135.285,-6124.59
1764435128.5201535,-675.495,-8712.72,-37258.605,-24786.09,-20121.3,-22035.87,-12127.32,-6117.03
1764435128.5201535,-676.755,-8711.505,-37251.18,-24785.55,-20119.455,-22047.525,-12114.315,-6105.24
1764435128.5201535,-682.56,-8712.99,-37247.04,-24789.465,-20121.84,-22063.905,-12102.75,-6095.835
1764435128.5201535,-687.285,-8716.005,-37247.31,-24794.01,-20125.44,-22074.93,-12098.79,-6093.855
1764435128.5201535,-690.7049999999999,-8719.785,-37253.25,-24798.51,-20129.49,-22076.19,-12106.35,-6101.55
1764435128.5201535,-684.9449999999999,-8716.14,-37255.23,-24794.145,-20126.52,-22062.645,-12112.695,-6106.815
1764435128.5201535,-675.09,-8709.93,-37254.42,-24786.675,-20119.455,-22043.115,-12119.175,-6110.73
1764435128.5201535,-666.9449999999999,-8705.115,-37255.365,-24780.375,-20115.09,-22022.73,-12127.41,-6116.985
1764435128.5201535,-667.395,-8706.645,-37258.83,-24780.33,-20115.765,-22016.52,-12134.52,-6123.645
1764435128.5201535,-671.49,-8710.154999999999,-37259.415,-24782.445,-20117.88,-22022.325,-12132.135,-6122.745
1764435128.5201535,-676.035,-8711.64,-37256.04,-24784.47,-20119.59,-22033.89,-12124.08,-6115.59
1764435128.5201535,-678.3299999999999,-8712.18,-37250.37,-24785.865,-20119.59,-22046.58,-12112.47,-6105.42
1764435128.5201535,-681.03,-8711.955,-37244.25,-24787.305,-20119.635,-22060.575,-12099.33,-6093.945
1764435128.5201535,-684.3149999999999,-8712.99,-37243.53,-24789.78,-20121.84,-22069.89,-12094.65,-6090.03
1764435128.5201535,-686.79,-8715.06,-37248.255,-24793.38,-20124.765,-22069.44,-12100.59,-6097.23
1764435128.5211678,-678.6899999999999,-8709.84,-37247.985,-24788.88,-20119.455,-22054.32,-12105.99,-6101.19
1764435128.5211678,-672.39,-8707.59,-37251.18,-24785.19,-20116.845,-22038.57,-12114.855,-6108.344999999999
1764435128.5211678,-667.845,-8706.42,-37255.815,-24781.095,-20115.72,-22022.505,-12126.375,-6118.065
1764435128.5211678,-669.015,-8709.255,-37261.98,-24782.355,-20117.34,-22018.14,-12134.79,-6125.985
1764435128.5637395,-668.88,-8707.77,-37258.335,-24780.87,-20115.0,-22020.075,-12130.02,-6121.44
1764435128.5637395,-673.29,-8709.435,-37254.915,-24782.49,-20116.35,-22031.685,-12122.37,-6114.06
1764435128.5637395,-675.495,-8708.94,-37247.22,-24783.075,-20115.405,-22043.16,-12110.22,-6102.405
1764435128.5637395,-683.37,-8714.115,-37245.645,-24789.96,-20120.94,-22063.77,-12102.255,-6096.24
1764435128.5637395,-687.375,-8716.545,-37246.14,-24794.1,-20124.0,-22073.625,-12098.16,-6093.99
1764435128.5637395,-682.8299999999999,-8712.225,-37244.655,-24790.545,-20121.795,-22066.83,-12098.295,-6093.855
1764435128.5637395,-677.475,-8710.199999999999,-37247.265,-24787.17,-20119.32,-22054.05,-12105.45,-6100.83
1764435128.5637395,-674.9549999999999,-8710.11,-37253.61,-24785.865,-20119.14,-22041.315,-12116.52,-6111.405
1764435128.5637395,-667.5749999999999,-8705.43,-37256.175,-24779.655,-20115.045,-22023.045,-12126.825,-6119.19
1764435128.5637395,-666.855,-8706.869999999999,-37259.235,-24778.755,-20115.045,-22015.755,-12133.845,-6124.545
1764435128.5637395,-662.76,-8703.18,-37251.99,-24774.21,-20110.32,-22014.63,-12125.655,-6117.03
1764435128.5637395,-670.185,-8707.095,-37251.585,-24778.89,-20114.055,-22029.705,-12119.535,-6112.575
1764435128.5637395,-675.0,-8708.58,-37246.77,-24781.77,-20115.765,-22043.52,-12108.915,-6103.304999999999
1764435128.5637395,-684.3149999999999,-8713.619999999999,-37245.51,-24789.24,-20121.84,-22063.14,-12100.5,-6096.33
1764435128.5637395,-685.62,-8713.215,-37242.81,-24789.78,-20122.335,-22069.53,-12094.38,-6090.705
1764435128.5637395,-682.6949999999999,-8710.605,-37242.945,-24788.34,-20120.445,-22064.22,-12096.765,-6092.955
1764435128.5637395,-679.8149999999999,-8710.244999999999,-37248.21,-24787.89,-20120.67,-22054.815,-12106.17,-6102.135
1764435128.5637395,-674.01,-8707.545,-37252.08,-24784.02,-20118.735,-22039.605,-12116.34,-6110.145
1764435128.5637395,-665.685,-8702.145,-37253.43,-24776.73,-20112.75,-22019.49,-12124.89,-6116.219999999999
1764435128.5652745,-664.92,-8703.18,-37256.715,-24775.74,-20112.93,-22012.875,-12130.695,-6121.53
1764435128.5652745,-663.165,-8701.425,-37251.675,-24772.815,-20110.59,-22014.54,-12124.035,-6115.365
1764435128.5652745,-668.2049999999999,-8704.305,-37249.245,-24775.965,-20112.795,-22027.59,-12116.34,-6109.29
1764435128.5652745,-675.495,-8708.58,-37247.49,-24781.365,-20116.89,-22044.285,-12108.645,-6103.17
1764435128.5652745,-677.295,-8707.23,-37239.525,-24781.545,-20115.99,-22057.965,-12095.28,-6090.389999999999
1764435128.612703,-680.355,-8709.48,-37239.93,-24785.505,-20118.645,-22066.92,-12091.14,-6087.465
1764435128.612703,-681.525,-8710.92,-37243.44,-24787.395,-20120.355,-22064.715,-12096.135,-6093.27
1764435128.612703,-678.24,-8710.11,-37248.345,-24786.945,-20120.355,-22053.69,-12105.765,-6102.179999999999
1764435128.612703,-670.545,-8704.71,-37250.37,-24781.59,-20115.045,-22035.555,-12113.865,-6107.58
1764435128.613238,-665.1899999999999,-8702.1,-37254.555,-24777.72,-20112.705,-22018.455,-12125.07,-6116.264999999999
1764435128.613238,-665.145,-8705.205,-37258.29,-24777.855,-20114.325,-22013.28,-12132.405,-6123.285
1764435128.613238,-667.89,-8707.725,-37257.615,-24778.98,-20115.18,-22020.03,-12128.625,-6120.855
1764435128.613238,-673.11,-8709.57,-37254.195,-24781.815,-20117.655,-22031.82,-12120.84,-6113.295
1764435128.613238,-678.015,-8711.145,-37250.46,-24785.19,-20119.905,-22046.625,-12110.265,-6105.554999999999
1764435128.613238,-685.8,-8715.285,-37248.975,-24790.905,-20123.73,-22066.2,-12101.31,-6098.67
1764435128.613238,-688.3199999999999,-8716.365,-37247.805,-24794.055,-20125.305,-22074.57,-12097.755,-6095.025
1764435128.613238,-686.6999999999999,-8714.52,-37249.02,-24793.155,-20124.63,-22069.17,-12101.58,-6097.995
1764435128.613238,-684.81,-8715.555,-37255.32,-24793.92,-20126.43,-22059.495,-12112.695,-6108.615
1764435128.613238,-678.8249999999999,-8712.539999999999,-37258.02,-24789.69,-20124.27,-22043.79,-12121.74,-6115.815
1764435128.613238,-670.995,-8708.805,-37260.9,-24783.57,-20118.96,-22025.295,-12132.045,-6122.474999999999
1764435128.613238,-672.39,-8711.414999999999,-37265.67,-24784.02,-20120.04,-22021.11,-12139.605,-6129.855
1764435128.613238,-672.0749999999999,-8710.74,-37260.9,-24782.355,-20119.005,-22024.305,-12133.845,-6124.77
1764435128.613238,-676.53,-8712.27,-37257.84,-24784.11,-20120.805,-22036.41,-12124.62,-6117.165
1764435128.613238,-678.3299999999999,-8711.055,-37250.91,-24785.055,-20120.265,-22047.75,-12111.39,-6105.825
1764435128.613238,-686.5649999999999,-8715.69,-37249.29,-24791.22,-20125.71,-22066.965,-12102.75,-6099.075
1764435128.613238,-689.985,-8717.175,-37248.93,-24794.865,-20128.365,-22075.245,-12099.33,-6096.78
1764435128.613238,-687.015,-8715.42,-37250.055,-24794.55,-20127.42,-22070.16,-12102.705,-6099.435
1764435128.613238,-678.78,-8709.66,-37249.65,-24788.025,-20121.66,-22053.78,-12106.98,-6102.405
1764435128.613238,-675.4499999999999,-8709.3,-37254.24,-24786.36,-20121.03,-22039.56,-12117.465,-6112.485
1764435128.6589112,-668.5649999999999,-8705.789999999999,-37257.3,-24781.365,-20117.565,-22021.065,-12127.95,-6120.09
1764435128.6589112,-670.905,-8708.94,-37262.655,-24782.355,-20119.23,-22016.88,-12135.915,-6127.2
1764435128.6589112,-666.99,-8704.89,-37255.68,-24776.595,-20114.28,-22017.6,-12127.005,-6118.29
1764435128.6589112,-672.975,-8708.039999999999,-37253.025,-24780.555,-20116.305,-22030.695,-12119.715,-6112.17
1764435128.6589112,-677.97,-8710.02,-37249.29,-24784.965,-20118.195,-22046.13,-12109.545,-6103.8
1764435128.6589112,-683.8199999999999,-8713.035,-37245.555,-24789.78,-20122.155,-22064.085,-12099.375,-6095.88
1764435128.6589112,-685.845,-8712.9,-37244.655,-24792.165,-20123.685,-22070.97,-12094.56,-6091.83
1764435128.6589112,-682.785,-8710.74,-37245.465,-24790.59,-20121.885,-22064.58,-12097.17,-6093.855
1764435128.6589112,-678.6899999999999,-8709.84,-37249.065,-24788.88,-20121.345,-22053.015,-12106.08,-6101.505
1764435128.6589112,-675.045,-8708.715,-37254.78,-24786.9,-20120.715,-22039.83,-12117.42,-6111.179999999999
1764435128.6599276,-664.1999999999999,-8701.965,-37253.295,-24777.36,-20112.93,-22017.465,-12123.675,-6114.645
1764435128.6599276,-662.715,-8701.83,-37255.455,-24775.56,-20111.805,-22011.48,-12127.86,-6119.82
1764435128.6599276,-667.215,-8705.52,-37255.275,-24778.17,-20113.605,-22018.815,-12124.89,-6118.514999999999
1764435128.6599276,-671.0849999999999,-8706.555,-37251.225,-24780.51,-20114.82,-22031.055,-12116.475,-6110.505
1764435128.6599276,-678.24,-8710.83,-37250.46,-24786.225,-20119.365,-22048.02,-12108.915,-6104.61
1764435128.6599276,-684.765,-8714.115,-37247.49,-24791.04,-20122.335,-22065.3,-12099.24,-6096.375
1764435128.6599276,-684.0899999999999,-8711.505,-37243.8,-24791.31,-20121.3,-22070.43,-12093.255,-6090.795
1764435128.6599276,-686.745,-8714.925,-37249.83,-24795.18,-20124.945,-22069.89,-12101.13,-6098.985
1764435128.6599276,-682.74,-8713.26,-37253.34,-24793.155,-20122.965,-22056.705,-12109.68,-6106.275
1764435128.6599276,-675.54,-8709.074999999999,-37255.185,-24788.07,-20118.78,-22039.785,-12118.14,-6111.54
1764435128.6599276,-666.675,-8703.539999999999,-37255.32,-24779.61,-20112.39,-22019.04,-12125.925,-6116.49
1764435128.6599276,-666.495,-8705.295,-37257.615,-24779.475,-20112.39,-22013.775,-12132.495,-6120.405
1764435128.6609292,-667.35,-8706.33,-37254.915,-24778.845,-20111.445,-22018.905,-12126.96,-6115.77
1764435128.6609292,-675.72,-8711.01,-37254.6,-24783.795,-20116.89,-22034.565,-12120.66,-6112.035
1764435128.703613,-679.005,-8712.045,-37249.515,-24785.955,-20117.97,-22048.335,-12110.175,-6102.495
1764435128.703613,-687.645,-8718.029999999999,-37248.93,-24793.425,-20124.9,-22068.81,-12102.39,-6096.87
1764435128.703613,-689.67,-8717.895,-37247.265,-24795.225,-20125.98,-22075.02,-12099.15,-6093.405
1764435128.703613,-685.8,-8714.025,-37247.715,-24793.74,-20123.865,-22067.64,-12102.03,-6095.205
1764435128.703613,-682.155,-8713.619999999999,-37252.305,-24793.02,-20123.64,-22056.255,-12110.625,-6104.16
1764435128.703613,-677.25,-8711.865,-37255.68,-24789.915,-20120.085,-22041.09,-12120.615,-6111.9
1764435128.703613,-667.215,-8705.52,-37255.815,-24781.77,-20113.56,-22020.615,-12127.905,-6116.49
1764435128.703613,-665.01,-8704.529999999999,-37256.76,-24779.88,-20112.3,-22013.955,-12131.01,-6119.28
1764435128.703613,-665.91,-8704.395,-37253.295,-24780.42,-20112.075,-22018.905,-12126.33,-6114.195
1764435128.703613,-670.77,-8707.14,-37250.955,-24784.11,-20114.325,-22032.54,-12118.725,-6107.715
1764435128.703613,-679.77,-8713.08,-37250.64,-24790.77,-20120.22,-22051.44,-12111.48,-6102.99
1764435128.703613,-684.765,-8714.925,-37246.455,-24793.155,-20121.795,-22067.775,-12100.995,-6093.945
1764435128.703613,-684.63,-8712.99,-37243.17,-24792.84,-20120.715,-22071.555,-12095.01,-6089.58
1764435128.703613,-686.61,-8715.96,-37249.155,-24796.665,-20124.855,-22069.755,-12102.48,-6097.23
1764435128.703613,-679.8149999999999,-8710.74,-37249.875,-24791.715,-20120.355,-22054.005,-12108.87,-6102.27
1764435128.703613,-673.02,-8706.645,-37251.63,-24786.81,-20116.215,-22037.13,-12116.385,-6109.245
1764435128.703613,-665.73,-8703.315,-37254.33,-24780.78,-20112.795,-22019.535,-12124.98,-6116.219999999999
1764435128.7046323,-666.675,-8706.195,-37257.165,-24780.42,-20114.19,-22016.295,-12131.595,-6121.755
1764435128.7046323,-665.595,-8703.72,-37250.955,-24777.9,-20110.815,-22018.455,-12123.405,-6114.33
1764435128.7046323,-672.795,-8708.58,-37249.785,-24782.85,-20115.315,-22032.585,-12116.115,-6109.74
1764435128.751846,-675.18,-8708.67,-37243.62,-24783.705,-20114.505,-22045.05,-12105.27,-6098.445
1764435128.751846,-683.01,-8712.72,-37242.09,-24790.095,-20118.51,-22064.04,-12096.945,-6091.605
1764435128.751846,-688.9499999999999,-8717.58,-37245.96,-24796.44,-20124.405,-22074.48,-12096.405,-6092.73
1764435128.751846,-686.655,-8715.914999999999,-37247.22,-24794.775,-20123.595,-22068.045,-12100.815,-6096.645
1764435128.751846,-677.655,-8709.119999999999,-37245.69,-24787.305,-20117.295,-22051.17,-12105.27,-6100.335
1764435128.751846,-673.29,-8707.815,-37250.91,-24785.19,-20116.305,-22036.455,-12116.115,-6110.55
1764435128.751846,-664.8299999999999,-8703.045,-37252.8,-24778.44,-20111.49,-22016.88,-12124.98,-6116.355
1764435128.751846,-665.055,-8703.99,-37254.015,-24777.225,-20112.03,-22012.515,-12130.11,-6119.82
1764435128.751846,-669.465,-8707.725,-37253.565,-24779.475,-20113.83,-22020.165,-12127.275,-6117.389999999999
1764435128.751846,-671.175,-8706.465,-37247.355,-24778.935,-20112.84,-22030.29,-12116.52,-6107.355
1764435128.751846,-676.395,-8707.59,-37243.44,-24781.59,-20115.09,-22045.68,-12105.63,-6098.219999999999
1764435128.751846,-687.015,-8715.33,-37245.015,-24790.77,-20122.965,-22067.01,-12099.915,-6095.07
1764435128.751846,-686.025,-8714.205,-37242.45,-24791.355,-20122.605,-22070.745,-12094.83,-6090.344999999999
1764435128.751846,-684.675,-8713.35,-37245.69,-24792.255,-20123.46,-22066.2,-12099.24,-6095.385
1764435128.751846,-681.93,-8712.494999999999,-37250.955,-24791.355,-20123.19,-22055.67,-12108.33,-6104.34
1764435128.751846,-673.74,-8708.039999999999,-37251.945,-24785.055,-20118.735,-22036.815,-12116.25,-6109.245
1764435128.751846,-664.8299999999999,-8703.36,-37253.07,-24778.395,-20113.605,-22017.465,-12124.53,-6115.094999999999
1764435128.751846,-666.9449999999999,-8707.32,-37257.165,-24780.735,-20115.675,-22015.53,-12131.325,-6121.755
1764435128.751846,-667.62,-8706.375,-37252.98,-24779.88,-20114.595,-22019.805,-12124.845,-6115.815
1764435128.751846,-672.435,-8708.58,-37250.19,-24782.805,-20116.44,-22033.035,-12116.565,-6109.11
1764435128.751846,-678.645,-8710.695,-37246.365,-24786.63,-20118.87,-22048.56,-12107.79,-6100.83
1764435128.751846,-683.865,-8712.81,-37242.9,-24790.14,-20121.21,-22065.075,-12097.845,-6092.19
1764435128.751846,-686.16,-8714.654999999999,-37243.89,-24793.74,-20124.045,-22072.68,-12096.09,-6091.514999999999
1764435128.751846,-685.305,-8714.699999999999,-37247.985,-24794.46,-20124.405,-22068.54,-12102.075,-6097.23
1764435128.798348,-680.4449999999999,-8712.99,-37251.09,-24792.255,-20123.055,-22055.85,-12109.725,-6104.25
1764435128.798348,-672.165,-8707.949999999999,-37251.765,-24785.595,-20117.7,-22036.815,-12116.7,-6109.29
1764435128.798348,-665.73,-8705.205,-37254.78,-24780.24,-20114.19,-22018.59,-12126.33,-6116.985
1764435128.798348,-666.405,-8706.69,-37257.255,-24780.24,-20114.73,-22015.215,-12131.73,-6121.53
1764435128.798348,-669.735,-8709.48,-37256.13,-24781.545,-20116.26,-22023.09,-12127.275,-6117.885
1764435128.798348,-672.3,-8710.56,-37251.09,-24782.58,-20115.72,-22033.89,-12117.015,-6108.12
1764435128.798348,-678.645,-8713.619999999999,-37248.345,-24787.215,-20119.365,-22050.405,-12107.655,-6100.965
1764435128.798348,-683.145,-8714.16,-37242.855,-24790.275,-20121.975,-22066.515,-12097.8,-6091.785
1764435128.798348,-686.8349999999999,-8716.815,-37244.52,-24794.73,-20125.53,-22074.345,-12096.315,-6091.74
1764435128.798348,-683.55,-8715.33,-37246.23,-24793.2,-20124.54,-22066.92,-12100.23,-6095.61
1764435128.798348,-674.595,-8708.085,-37245.15,-24785.37,-20117.88,-22048.965,-12104.73,-6097.59
1764435128.798348,-668.2049999999999,-8704.35,-37247.58,-24780.24,-20114.505,-22031.73,-12113.37,-6104.655
1764435128.798348,-662.715,-8702.279999999999,-37251.18,-24775.11,-20111.67,-22015.08,-12122.775,-6113.115
1764435128.798348,-665.64,-8707.455,-37256.58,-24777.855,-20115.18,-22014.27,-12130.065,-6120.0
1764435128.800964,-664.605,-8706.69,-37251.495,-24776.235,-20113.245,-22018.5,-12122.595,-6112.53
1764435128.800964,-667.935,-8707.815,-37246.545,-24778.17,-20113.065,-22029.93,-12112.605,-6103.53
1764435128.800964,-674.64,-8710.38,-37243.44,-24781.905,-20115.315,-22046.13,-12102.39,-6095.25
1764435128.800964,-682.11,-8714.43,-37242.405,-24787.395,-20120.04,-22065.345,-12095.415,-6089.219999999999
1764435128.800964,-684.855,-8715.06,-37242.945,-24790.995,-20123.1,-22071.105,-12094.695,-6088.86
1764435128.800964,-682.6949999999999,-8713.664999999999,-37245.105,-24790.545,-20123.64,-22063.59,-12099.78,-6094.215
1764435128.800964,-677.43,-8710.605,-37247.895,-24786.855,-20121.03,-22050.135,-12107.79,-6100.785
1764435128.800964,-673.8299999999999,-8710.289999999999,-37253.52,-24784.56,-20119.77,-22036.455,-12118.635,-6111.36
1764435128.800964,-664.65,-8705.295,-37254.24,-24777.855,-20113.92,-22017.33,-12126.24,-6116.49
1764435128.800964,-663.885,-8705.205,-37255.815,-24776.415,-20113.965,-22013.055,-12130.065,-6118.74
1764435128.8449645,-665.73,-8705.43,-37252.71,-24776.28,-20113.065,-22018.68,-12123.27,-6112.98
1764435128.8449645,-670.095,-8706.869999999999,-37248.21,-24778.845,-20114.145,-22030.83,-12113.055,-6105.105
1764435128.8449645,-676.4399999999999,-8709.705,-37245.6,-24783.345,-20116.845,-22047.615,-12103.47,-6096.915
1764435128.8449645,-684.765,-8714.97,-37245.195,-24790.545,-20122.38,-22067.055,-12095.46,-6091.469999999999
1764435128.8449645,-686.0699999999999,-8715.06,-37244.52,-24792.255,-20124.225,-22071.42,-12093.345,-6089.76
1764435128.8449645,-681.3,-8711.279999999999,-37244.79,-24789.015,-20121.3,-22061.655,-12096.495,-6091.785
1764435128.8449645,-676.0799999999999,-8708.715,-37247.22,-24785.46,-20118.78,-22048.155,-12104.1,-6098.219999999999
1764435128.8449645,-670.05,-8706.195,-37250.865,-24781.68,-20116.26,-22032.45,-12113.37,-6106.679999999999
1764435128.8449645,-658.98,-8699.085,-37249.11,-24772.68,-20109.24,-22010.265,-12118.005,-6108.84
1764435128.8449645,-657.27,-8698.005,-37249.11,-24769.98,-20107.845,-22005.315,-12119.76,-6110.145
1764435128.8449645,-658.845,-8699.085,-37246.68,-24770.745,-20108.115,-22012.29,-12114.63,-6104.835
1764435128.8449645,-666.09,-8704.17,-37245.645,-24776.28,-20112.345,-22028.265,-12107.565,-6100.02
1764435128.8459606,-671.355,-8705.97,-37242.27,-24779.7,-20114.595,-22044.195,-12097.485,-6091.83
1764435128.8459606,-674.1899999999999,-8706.06,-37236.69,-24781.725,-20114.73,-22057.605,-12085.965,-6080.67
1764435128.8459606,-676.035,-8706.015,-37236.33,-24783.12,-20115.9,-22063.095,-12083.22,-6078.554999999999
1764435128.8459606,-673.6949999999999,-8704.664999999999,-37239.165,-24782.13,-20116.035,-22056.795,-12088.62,-6083.235
1764435128.8459606,-669.645,-8702.46,-37243.215,-24779.025,-20114.73,-22043.97,-12096.63,-6090.255
1764435128.8459606,-662.805,-8699.355,-37246.365,-24774.345,-20111.94,-22027.545,-12105.54,-6097.455
1764435128.8469615,-655.29,-8695.26,-37247.445,-24767.865,-20106.9,-22008.6,-12114.27,-6103.575
1764435128.8469615,-657.18,-8697.779999999999,-37250.325,-24768.135,-20107.395,-22006.215,-12118.545,-6108.344999999999
1764435128.8469615,-657.09,-8697.285,-37245.015,-24766.11,-20105.1,-22011.03,-12110.67,-6101.639999999999
1764435128.8469615,-660.24,-8698.14,-37240.245,-24767.145,-20104.785,-22021.92,-12100.59,-6093.045
1764435128.8469615,-664.8299999999999,-8699.175,-37234.665,-24769.395,-20105.28,-22035.465,-12089.97,-6083.46
1764435128.8469615,-673.38,-8704.395,-37234.08,-24776.28,-20110.365,-22054.14,-12082.365,-6078.195
1764435128.8916078,-672.75,-8702.685,-37232.82,-24775.56,-20109.555,-22057.245,-12078.72,-6074.865
1764435128.8916078,-672.48,-8703.63,-37237.545,-24777.09,-20111.625,-22052.115,-12086.415,-6082.425
1764435128.8916078,-666.36,-8701.425,-37239.84,-24773.715,-20108.295,-22036.725,-12093.975,-6089.13
1764435128.8916078,-656.865,-8694.81,-37239.885,-24766.11,-20102.175,-22017.42,-12100.365,-6094.395
1764435128.8916078,-646.02,-8686.755,-37237.995,-24756.57,-20094.795,-21997.98,-12104.865,-6096.645
1764435128.8916078,-648.09,-8690.22,-37240.695,-24757.92,-20097.315,-21998.295,-12109.005,-6101.73
1764435128.8916078,-650.34,-8691.345,-37237.635,-24758.865,-20097.765,-22005.315,-12103.74,-6097.139999999999
1764435128.8916078,-654.255,-8692.875,-37234.08,-24761.79,-20100.195,-22019.265,-12095.505,-6088.32
1764435128.8916078,-659.88,-8695.755,-37230.75,-24766.92,-20105.055,-22037.13,-12086.865,-6080.49
1764435128.8916078,-665.1899999999999,-8698.41,-37228.86,-24772.32,-20110.005,-22054.365,-12078.72,-6073.514999999999
1764435128.8916078,-667.215,-8699.13,-37229.355,-24774.84,-20113.02,-22059.72,-12077.145,-6073.83
1764435128.8916078,-666.225,-8699.445,-37233.495,-24775.695,-20114.865,-22055.265,-12083.445,-6080.04
1764435128.8916078,-657.72,-8693.595,-37234.08,-24769.215,-20109.375,-22039.605,-12089.34,-6083.19
1764435128.8916078,-650.52,-8690.13,-37237.05,-24765.165,-20106.09,-22023.27,-12097.8,-6090.795
1764435128.8916078,-644.22,-8686.8,-37238.58,-24760.53,-20103.39,-22006.755,-12106.665,-6097.32
1764435128.893124,-645.5699999999999,-8689.5,-37241.1,-24761.97,-20105.46,-22005.72,-12111.165,-6101.099999999999
1764435128.893124,-644.9399999999999,-8688.15,-37235.07,-24760.44,-20103.615,-22011.12,-12103.065,-6092.37
1764435128.893124,-650.385,-8691.255,-37231.92,-24763.32,-20106.81,-22025.025,-12094.425,-6085.125
1764435128.893124,-657.72,-8695.215,-37231.245,-24769.08,-20110.545,-22042.215,-12086.1,-6078.195
1764435128.893124,-667.53,-8701.244999999999,-37232.37,-24776.865,-20116.26,-22061.61,-12080.565,-6074.685
1764435128.893124,-669.1949999999999,-8701.47,-37232.505,-24778.845,-20117.835,-22065.21,-12079.89,-6074.28
1764435128.893124,-664.92,-8698.23,-37233.675,-24775.245,-20114.1,-22054.455,-12083.085,-6076.98
1764435128.893124,-656.505,-8692.605,-37233.36,-24768.045,-20107.8,-22036.725,-12088.215,-6080.175
1764435128.893124,-649.98,-8688.69,-37235.97,-24762.78,-20102.895,-22018.59,-12096.405,-6087.825
1764435128.935948,-645.255,-8686.89,-37238.805,-24758.145,-20100.06,-22003.515,-12105.675,-6096.87
1764435128.935948,-646.785,-8688.96,-37241.37,-24758.73,-20101.365,-22001.58,-12108.51,-6100.425
1764435128.935948,-648.09,-8688.6,-37236.51,-24757.74,-20098.98,-22005.765,-12101.04,-6093.495
1764435128.935948,-654.93,-8694.18,-37235.205,-24763.14,-20102.265,-22020.885,-12093.84,-6088.23
1764435128.935948,-658.98,-8694.855,-37229.94,-24764.985,-20102.895,-22034.79,-12081.915,-6078.78
1764435128.935948,-663.255,-8695.935,-37226.34,-24769.125,-20104.605,-22048.56,-12073.095,-6070.455
1764435128.935948,-666.3149999999999,-8699.265,-37229.13,-24773.13,-20108.745,-22054.95,-12074.58,-6071.264999999999
1764435128.935948,-666.9,-8701.38,-37235.52,-24775.695,-20111.58,-22051.62,-12082.545,-6079.815
1764435128.935948,-662.04,-8698.815,-37238.355,-24772.815,-20109.87,-22038.03,-12091.545,-6086.745
1764435128.935948,-654.12,-8694.09,-37239.66,-24766.92,-20105.055,-22019.76,-12098.655,-6091.92
1764435128.935948,-645.7049999999999,-8688.51,-37239.435,-24759.045,-20098.89,-22000.545,-12105.63,-6097.545
1764435128.935948,-645.795,-8689.545,-37240.83,-24757.92,-20099.745,-21999.195,-12108.915,-6099.84
1764435128.935948,-651.015,-8693.145,-37240.2,-24761.07,-20103.615,-22010.265,-12104.505,-6096.24
1764435128.935948,-653.535,-8692.965,-37234.71,-24762.24,-20103.57,-22021.695,-12093.93,-6086.61
1764435128.935948,-657.63,-8694.855,-37230.57,-24765.21,-20104.965,-22036.545,-12082.86,-6077.429999999999
1764435128.935948,-661.9499999999999,-8696.475,-37226.79,-24768.675,-20107.035,-22050.855,-12072.555,-6068.16
1764435128.935948,-665.055,-8698.095,-37228.5,-24772.32,-20110.545,-22056.255,-12074.175,-6068.745
1764435128.9369612,-665.55,-8700.345,-37234.935,-24773.805,-20113.515,-22051.89,-12083.31,-6077.88
1764435128.9369612,-662.4,-8699.445,-37239.705,-24772.59,-20112.345,-22039.515,-12093.21,-6086.745
1764435128.9369612,-652.365,-8692.244999999999,-37239.165,-24763.815,-20105.595,-22018.59,-12099.15,-6089.985
1764435128.985196,-648.0,-8690.94,-37242.405,-24759.45,-20103.84,-22003.695,-12108.33,-6098.67
1764435128.985196,-649.395,-8692.74,-37243.71,-24759.585,-20104.155,-22002.12,-12111.12,-6101.865
1764435128.985196,-648.63,-8690.58,-37237.455,-24757.065,-20101.05,-22006.8,-12101.67,-6092.099999999999
1764435128.985196,-653.175,-8693.279999999999,-37235.25,-24760.98,-20103.3,-22021.29,-12093.255,-6085.395
1764435128.985196,-657.495,-8693.64,-37229.355,-24763.68,-20104.065,-22036.14,-12082.545,-6074.955
1764435128.985196,-666.18,-8699.445,-37230.57,-24771.69,-20110.815,-22055.04,-12076.02,-6071.445
1764435128.985196,-667.53,-8700.119999999999,-37230.93,-24773.985,-20112.93,-22057.875,-12075.03,-6070.905
1764435128.985196,-664.0649999999999,-8697.195,-37232.37,-24771.645,-20111.94,-22048.965,-12079.8,-6075.27
1764435128.985196,-659.52,-8694.63,-37236.105,-24768.63,-20110.41,-22035.87,-12088.845,-6083.145
1764435128.985196,-650.61,-8689.14,-37236.015,-24761.7,-20103.84,-22017.015,-12096.27,-6088.139999999999
1764435128.985196,-645.03,-8687.16,-37238.58,-24757.2,-20100.78,-22001.805,-12105.0,-6095.115
1764435128.985196,-645.615,-8688.914999999999,-37240.29,-24756.93,-20102.13,-22000.86,-12107.88,-6097.86
1764435128.985196,-650.655,-8692.965,-37239.66,-24759.81,-20105.055,-22010.76,-12103.56,-6094.8
1764435128.985196,-651.555,-8691.93,-37232.955,-24760.125,-20104.065,-22021.02,-12092.22,-6084.09
1764435128.985196,-654.345,-8691.345,-37226.565,-24761.61,-20104.02,-22035.15,-12079.44,-6072.615
1764435128.985196,-661.005,-8694.99,-37224.63,-24767.325,-20108.115,-22051.395,-12071.115,-6067.26
1764435128.985196,-666.81,-8699.985,-37229.445,-24773.49,-20114.19,-22058.685,-12074.535,-6072.3
1764435128.985196,-662.67,-8697.555,-37231.695,-24771.78,-20113.245,-22049.46,-12081.015,-6076.44
1764435128.985196,-659.295,-8696.205,-37235.655,-24769.665,-20112.795,-22037.49,-12090.555,-6085.17
1764435128.985196,-654.255,-8694.855,-37239.615,-24766.515,-20111.715,-22022.19,-12101.805,-6094.44
1764435128.985196,-648.72,-8693.279999999999,-37242.765,-24762.195,-20108.79,-22007.79,-12111.03,-6102.045
1764435128.985196,-648.63,-8694.315,-37243.08,-24761.43,-20108.07,-22005.675,-12112.605,-6102.45
1764435128.985196,-651.555,-8695.44,-37239.93,-24762.015,-20108.295,-22013.19,-12105.045,-6096.24
1764435128.985196,-655.0649999999999,-8696.835,-37235.97,-24764.445,-20109.42,-22025.88,-12096.36,-6088.455
1764435129.0294952,-660.6899999999999,-8698.994999999999,-37232.595,-24768.315,-20111.85,-22042.89,-12086.1,-6080.219999999999
1764435129.0294952,-670.095,-8705.43,-37233.72,-24775.965,-20118.24,-22061.07,-12080.97,-6077.79
1764435129.030008,-669.735,-8703.99,-37232.28,-24775.38,-20117.295,-22062.375,-12080.34,-6076.44
1764435129.030008,-668.655,-8703.72,-37236.555,-24776.28,-20117.07,-22055.715,-12087.855,-6083.325
1764435129.030008,-664.74,-8702.055,-37241.37,-24774.3,-20116.08,-22042.755,-12097.215,-6091.514999999999
1764435129.030008,-660.015,-8701.02,-37245.915,-24771.195,-20114.64,-22027.365,-12108.24,-6101.054999999999
1764435129.030008,-651.78,-8695.215,-37244.43,-24763.41,-20107.845,-22008.69,-12113.055,-6104.745
1764435129.030008,-654.5699999999999,-8698.815,-37248.075,-24765.93,-20110.59,-22010.31,-12117.465,-6108.389999999999
1764435129.030008,-655.92,-8698.77,-37243.53,-24765.39,-20110.095,-22017.285,-12110.355,-6101.235
1764435129.030008,-657.54,-8698.005,-37236.465,-24765.57,-20109.555,-22027.725,-12098.97,-6091.2
1764435129.030008,-664.965,-8702.414999999999,-37235.205,-24770.88,-20113.29,-22046.175,-12089.79,-6084.54
1764435129.030008,-669.9599999999999,-8704.08,-37233.045,-24775.065,-20115.45,-22059.675,-12081.555,-6077.34
1764435129.030008,-672.255,-8704.8,-37234.44,-24777.09,-20117.835,-22063.275,-12082.14,-6078.33
1764435129.030008,-671.715,-8706.015,-37239.255,-24778.53,-20119.95,-22057.47,-12090.78,-6085.755
1764435129.030008,-667.7099999999999,-8704.485,-37243.035,-24776.415,-20118.78,-22044.78,-12100.14,-6094.17
1764435129.030008,-663.345,-8703.765,-37247.85,-24773.895,-20117.97,-22030.83,-12111.57,-6104.115
1764435129.030008,-654.12,-8698.005,-37247.04,-24766.245,-20110.905,-22012.065,-12116.25,-6107.849999999999
1764435129.030008,-657.405,-8701.47,-37250.325,-24768.36,-20113.065,-22012.515,-12119.76,-6112.035
1764435129.030008,-657.675,-8699.94,-37244.7,-24766.245,-20111.49,-22018.545,-12111.57,-6103.17
1764435129.030008,-666.3149999999999,-8706.105,-37244.655,-24772.23,-20116.665,-22035.33,-12106.44,-6099.03
1764435129.030008,-670.005,-8706.69,-37239.21,-24774.48,-20117.745,-22050.18,-12094.785,-6089.355
1764435129.030008,-677.88,-8711.324999999999,-37239.345,-24780.69,-20123.64,-22067.775,-12088.89,-6084.495
1764435129.030008,-682.155,-8714.205,-37243.71,-24785.73,-20128.005,-22073.445,-12091.905,-6087.735
1764435129.0310242,-680.22,-8713.755,-37246.995,-24785.415,-20127.915,-22065.345,-12098.295,-6093.405
1764435129.0735395,-672.165,-8709.615,-37248.165,-24779.88,-20123.82,-22049.73,-12104.73,-6098.58
1764435129.0735395,-664.56,-8705.52,-37251.405,-24774.3,-20120.22,-22032.0,-12113.73,-6105.915
1764435129.0735395,-658.665,-8702.055,-37252.035,-24768.9,-20116.35,-22016.025,-12122.01,-6111.99
1764435129.074057,-662.22,-8706.555,-37255.14,-24771.195,-20119.365,-22017.555,-12126.69,-6116.804999999999
1764435129.074057,-662.265,-8704.664999999999,-37249.515,-24769.665,-20117.07,-22022.865,-12117.15,-6107.895
1764435129.074057,-670.545,-8709.66,-37250.055,-24776.46,-20122.155,-22039.2,-12110.49,-6103.62
1764435129.074057,-675.99,-8712.675,-37245.87,-24779.655,-20124.495,-22056.21,-12100.5,-6094.935
1764435129.074057,-680.265,-8713.17,-37242.315,-24782.22,-20126.88,-22069.665,-12092.22,-6087.375
1764435129.074057,-683.145,-8715.824999999999,-37245.33,-24786.45,-20130.345,-22074.525,-12094.245,-6090.885
1764435129.074057,-681.48,-8715.015,-37248.435,-24785.865,-20130.48,-22066.065,-12101.31,-6096.735
1764435129.074057,-674.73,-8711.414999999999,-37249.965,-24781.95,-20126.97,-22051.98,-12108.555,-6102.764999999999
1764435129.074057,-667.17,-8707.365,-37252.395,-24776.91,-20122.83,-22034.745,-12118.32,-6109.74
1764435129.074057,-656.64,-8700.345,-37250.73,-24768.0,-20115.495,-22014.855,-12121.965,-6110.594999999999
1764435129.074057,-656.91,-8701.74,-37251.045,-24767.28,-20115.63,-22014.315,-12122.37,-6111.179999999999
1764435129.074057,-661.365,-8704.485,-37249.02,-24769.35,-20117.475,-22024.215,-12116.16,-6106.815
1764435129.074057,-665.1899999999999,-8705.295,-37243.89,-24770.565,-20117.205,-22036.77,-12106.215,-6097.545
1764435129.074057,-672.795,-8709.705,-37243.215,-24776.55,-20121.795,-22055.805,-12097.8,-6091.02
1764435129.074057,-677.3399999999999,-8711.505,-37240.74,-24780.87,-20124.675,-22070.34,-12090.285,-6084.63
1764435129.074057,-675.72,-8709.48,-37238.085,-24780.51,-20123.73,-22069.935,-12088.08,-6082.38
1764435129.074057,-674.1,-8709.795,-37243.17,-24781.365,-20125.305,-22062.69,-12096.81,-6089.895
1764435129.1208334,-670.635,-8708.445,-37248.03,-24779.655,-20124.63,-22050.0,-12106.665,-6098.445
1764435129.1208334,-666.855,-8707.455,-37254.285,-24777.27,-20123.955,-22034.79,-12118.14,-6109.155
1764435129.1208334,-660.78,-8704.574999999999,-37255.455,-24771.51,-20119.365,-22018.545,-12125.205,-6114.599999999999
1764435129.1208334,-664.965,-8709.525,-37258.605,-24774.615,-20122.785,-22021.695,-12128.895,-6118.29
1764435129.1208334,-664.92,-8707.904999999999,-37252.17,-24772.905,-20120.895,-22027.59,-12120.39,-6109.11
1764435129.1208334,-668.295,-8708.94,-37247.355,-24774.885,-20120.94,-22040.775,-12110.805,-6100.605
1764435129.1208334,-674.37,-8712.765,-37244.43,-24779.385,-20123.73,-22057.29,-12099.915,-6092.28
1764435129.1218522,-683.28,-8718.3,-37246.185,-24787.26,-20131.245,-22076.37,-12095.415,-6090.165
1764435129.1218522,-682.29,-8716.275,-37245.24,-24787.17,-20130.255,-22076.865,-12094.47,-6089.49
1764435129.1218522,-681.8399999999999,-8717.58,-37251.09,-24788.43,-20131.83,-22069.395,-12103.425,-6098.625
1764435129.1218522,-674.1899999999999,-8713.035,-37251.63,-24783.21,-20127.915,-22052.475,-12110.265,-6103.44
1764435129.1218522,-670.545,-8712.72,-37256.76,-24781.545,-20127.51,-22037.985,-12122.64,-6113.79
1764435129.1218522,-663.885,-8708.49,-37256.31,-24774.93,-20122.47,-22021.605,-12128.94,-6117.615
1764435129.1218522,-666.27,-8711.055,-37257.795,-24775.245,-20123.28,-22022.505,-12130.74,-6119.639999999999
1764435129.1218522,-669.465,-8712.404999999999,-37255.995,-24777.18,-20125.305,-22032.63,-12124.125,-6114.51
1764435129.1218522,-673.92,-8712.99,-37251.72,-24778.44,-20126.115,-22044.735,-12114.405,-6105.69
1764435129.1218522,-679.275,-8715.33,-37247.265,-24781.815,-20128.32,-22060.71,-12103.74,-6097.23
1764435129.1218522,-684.18,-8717.4,-37245.015,-24785.505,-20130.975,-22075.74,-12096.36,-6090.795
1764435129.1228516,-685.2149999999999,-8718.75,-37247.265,-24788.205,-20133.54,-22078.305,-12097.8,-6092.505
1764435129.1228516,-684.99,-8719.74,-37252.665,-24789.195,-20135.115,-22071.645,-12106.395,-6101.37
1764435129.1228516,-678.87,-8716.815,-37254.465,-24785.01,-20131.83,-22055.985,-12114.63,-6107.264999999999
1764435129.1228516,-668.925,-8710.289999999999,-37254.015,-24777.855,-20125.53,-22035.105,-12122.055,-6112.17
1764435129.1228516,-663.48,-8708.039999999999,-37255.815,-24773.085,-20121.39,-22020.48,-12128.985,-6117.974999999999
1764435129.1228516,-667.17,-8712.135,-37259.28,-24774.795,-20124.225,-22022.775,-12132.225,-6120.945
1764435129.1228516,-672.48,-8716.14,-37258.965,-24778.44,-20127.285,-22033.89,-12127.275,-6117.48
1764435129.1228516,-677.52,-8717.535,-37254.87,-24781.32,-20128.365,-22046.76,-12117.42,-6108.705
1764435129.1697612,-680.4449999999999,-8717.039999999999,-37248.705,-24782.49,-20127.96,-22060.62,-12104.595,-6096.87
1764435129.1697612,-687.555,-8721.27,-37249.695,-24789.195,-20134.08,-22077.045,-12099.105,-6094.125
1764435129.1707678,-685.845,-8718.885,-37248.39,-24788.205,-20132.64,-22076.415,-12098.385,-6092.82
1764435129.1707678,-686.52,-8721.63,-37254.6,-24790.275,-20134.89,-22070.385,-12108.24,-6102.224999999999
1764435129.1707678,-680.265,-8718.074999999999,-37255.77,-24785.685,-20130.795,-22055.04,-12116.385,-6107.804999999999
1764435129.1707678,-675.18,-8715.645,-37259.64,-24781.77,-20128.365,-22038.93,-12126.6,-6117.705
1764435129.1707678,-666.765,-8710.244999999999,-37259.37,-24774.795,-20122.335,-22021.425,-12131.64,-6120.405
1764435129.1707678,-670.4549999999999,-8713.755,-37261.71,-24777.45,-20124.72,-22024.305,-12133.8,-6123.51
1764435129.1707678,-672.12,-8714.07,-37257.345,-24778.53,-20124.63,-22033.26,-12126.87,-6116.94
1764435129.1717818,-672.66,-8713.035,-37249.965,-24777.495,-20122.515,-22042.62,-12114.675,-6105.15
1764435129.1717818,-676.53,-8713.26,-37244.79,-24779.475,-20123.865,-22057.695,-12101.49,-6094.26
1764435129.1717818,-683.505,-8716.949999999999,-37244.565,-24785.91,-20127.78,-22073.49,-12095.415,-6089.58
1764435129.1717818,-684.18,-8716.815,-37244.835,-24787.125,-20129.31,-22074.345,-12096.405,-6090.165
1764435129.1717818,-682.245,-8718.164999999999,-37250.415,-24788.07,-20130.48,-22066.74,-12105.045,-6098.804999999999
1764435129.1717818,-678.87,-8718.705,-37256.04,-24786.99,-20130.93,-22054.905,-12115.665,-6108.165
1764435129.1717818,-670.995,-8713.574999999999,-37258.29,-24779.88,-20126.295,-22035.42,-12123.675,-6114.554999999999
1764435129.1717818,-662.265,-8706.33,-37255.86,-24771.6,-20118.555,-22016.7,-12126.42,-6116.219999999999
1764435129.1717818,-664.02,-8707.994999999999,-37256.895,-24772.77,-20119.545,-22018.635,-12127.005,-6117.255
1764435129.1717818,-663.255,-8705.43,-37250.145,-24770.88,-20116.755,-22023.855,-12116.43,-6107.445
1764435129.1717818,-673.0649999999999,-8711.279999999999,-37250.55,-24777.045,-20122.695,-22041.54,-12110.805,-6103.98
1764435129.1732943,-679.725,-8715.375,-37247.805,-24781.5,-20125.89,-22059.135,-12101.76,-6095.34
1764435129.1732943,-681.3,-8715.24,-37243.53,-24783.39,-20127.06,-22069.71,-12093.03,-6086.745
1764435129.2188337,-681.39,-8714.88,-37244.7,-24784.965,-20128.005,-22070.565,-12093.84,-6088.005
1764435129.2188337,-680.625,-8715.869999999999,-37249.92,-24786.18,-20129.895,-22063.59,-12102.255,-6096.69
1764435129.2188337,-674.415,-8712.09,-37252.08,-24782.49,-20126.835,-22048.38,-12110.4,-6102.81
1764435129.2188337,-665.865,-8707.77,-37253.52,-24775.65,-20121.795,-22028.895,-12119.355,-6109.38
1764435129.2188337,-660.3299999999999,-8704.98,-37254.87,-24770.79,-20118.015,-22013.415,-12125.61,-6114.735
1764435129.2188337,-661.59,-8706.555,-37254.735,-24771.33,-20118.87,-22014.27,-12126.285,-6115.545
1764435129.2198515,-666.405,-8709.615,-37253.34,-24774.165,-20121.3,-22026.195,-12120.39,-6111.09
1764435129.2198515,-672.93,-8712.855,-37251.18,-24779.16,-20124.495,-22041.09,-12112.695,-6104.7
1764435129.2198515,-675.675,-8712.539999999999,-37244.205,-24780.015,-20124.36,-22054.86,-12099.645,-6093.36
1764435129.2198515,-679.5,-8713.755,-37242.18,-24784.065,-20127.465,-22068.54,-12092.22,-6087.285
1764435129.2198515,-681.435,-8714.61,-37244.745,-24786.405,-20130.165,-22070.745,-12093.66,-6089.445
1764435129.2198515,-682.875,-8717.355,-37251.495,-24789.51,-20132.91,-22065.345,-12104.37,-6100.29
1764435129.2198515,-675.63,-8713.215,-37252.62,-24784.02,-20128.815,-22049.415,-12111.975,-6105.87
1764435129.2198515,-665.505,-8707.275,-37252.89,-24775.74,-20122.65,-22028.58,-12119.67,-6110.955
1764435129.2198515,-661.41,-8704.98,-37254.78,-24771.195,-20120.22,-22015.53,-12126.465,-6116.445
1764435129.2198515,-665.73,-8708.76,-37257.12,-24773.265,-20123.055,-22019.58,-12128.85,-6119.145
1764435129.2198515,-667.98,-8709.39,-37252.89,-24774.165,-20122.695,-22029.39,-12120.12,-6111.945
1764435129.2198515,-673.29,-8712.315,-37249.92,-24777.72,-20124.54,-22043.97,-12111.84,-6104.88
1764435129.2198515,-678.4649999999999,-8714.115,-37246.14,-24780.69,-20126.34,-22059.675,-12101.265,-6095.429999999999
1764435129.2198515,-680.85,-8713.664999999999,-37241.415,-24782.445,-20126.655,-22070.07,-12092.265,-6087.24
1764435129.2198515,-680.67,-8713.529999999999,-37243.53,-24783.975,-20128.545,-22070.475,-12093.57,-6089.04
1764435129.2198515,-676.2149999999999,-8711.01,-37246.14,-24781.68,-20126.655,-22060.35,-12100.5,-6094.304999999999
1764435129.2198515,-669.555,-8707.545,-37247.715,-24777.18,-20122.965,-22044.825,-12107.565,-6100.695
1764435129.2198515,-665.145,-8707.275,-37252.755,-24773.94,-20122.335,-22029.165,-12118.815,-6111.135
1764435129.2198515,-659.655,-8703.855,-37252.89,-24767.55,-20117.835,-22014.945,-12124.98,-6114.554999999999
1764435129.2198515,-665.055,-8709.074999999999,-37257.03,-24771.195,-20120.31,-22019.265,-12128.265,-6117.615
1764435129.2609866,-667.035,-8709.795,-37252.935,-24772.14,-20119.86,-22027.365,-12119.13,-6110.46
1764435129.2609866,-669.87,-8710.965,-37247.805,-24773.94,-20121.075,-22039.875,-12107.745,-6100.965
1764435129.2609866,-673.38,-8709.93,-37240.83,-24775.38,-20121.165,-22054.32,-12094.74,-6088.77
1764435129.2619824,-680.67,-8713.619999999999,-37241.055,-24781.905,-20126.655,-22069.665,-12090.06,-6085.62
1764435129.2619824,-678.42,-8711.865,-37241.145,-24781.68,-20126.16,-22068.54,-12089.97,-6085.755
1764435129.2619824,-674.775,-8710.515,-37244.205,-24780.195,-20125.845,-22058.19,-12097.035,-6092.054999999999
1764435129.2619824,-673.0649999999999,-8711.414999999999,-37250.37,-24779.205,-20126.565,-22046.895,-12109.59,-6101.865
1764435129.2619824,-665.91,-8707.545,-37253.34,-24774.255,-20122.605,-22027.815,-12119.535,-6109.514999999999
1764435129.2631314,-657.09,-8701.199999999999,-37251.72,-24766.38,-20116.17,-22011.345,-12122.145,-6111.405
1764435129.2631314,-660.24,-8704.664999999999,-37253.88,-24768.18,-20118.825,-22015.08,-12123.63,-6113.969999999999
1764435129.2641282,-661.8149999999999,-8704.664999999999,-37249.155,-24768.315,-20118.375,-22023.54,-12114.99,-6105.15
1764435129.2641282,-665.01,-8705.115,-37243.215,-24769.755,-20118.42,-22035.51,-12104.505,-6095.34
1764435129.2641282,-670.365,-8707.185,-37239.12,-24773.22,-20120.4,-22052.97,-12092.4,-6086.295
1764435129.2641282,-677.3399999999999,-8711.145,-37237.995,-24778.755,-20124.315,-22067.595,-12086.595,-6082.56
1764435129.2641282,-679.77,-8713.26,-37242.99,-24783.255,-20128.32,-22069.485,-12090.375,-6086.7
1764435129.2641282,-673.6949999999999,-8709.164999999999,-37243.485,-24779.655,-20125.305,-22056.705,-12095.37,-6090.705
1764435129.2651298,-666.81,-8704.98,-37244.925,-24775.2,-20122.11,-22041.18,-12102.57,-6096.87
1764435129.2651298,-664.29,-8704.89,-37251.945,-24773.085,-20122.2,-22026.69,-12115.98,-6108.48
1764435129.2651298,-658.26,-8700.66,-37252.17,-24767.19,-20117.295,-22012.245,-12122.19,-6112.304999999999
1764435129.2651298,-662.85,-8705.43,-37255.14,-24771.195,-20119.815,-22016.205,-12125.43,-6114.96
1764435129.3062491,-667.935,-8708.94,-37253.88,-24774.03,-20121.795,-22028.4,-12118.995,-6110.594999999999
1764435129.3062491,-671.895,-8710.695,-37249.335,-24777.315,-20123.505,-22041.99,-12110.22,-6102.54
1764435129.3062491,-678.735,-8714.789999999999,-37247.04,-24783.075,-20127.645,-22060.44,-12101.04,-6095.16
1764435129.3062491,-681.5699999999999,-8714.565,-37241.865,-24784.605,-20128.905,-22071.285,-12093.03,-6087.78
1764435129.3062491,-681.12,-8713.845,-37243.485,-24785.73,-20129.985,-22070.43,-12093.975,-6088.995
1764435129.3062491,-678.15,-8712.675,-37248.345,-24784.65,-20130.795,-22061.475,-12101.94,-6096.24
1764435129.3062491,-675.3149999999999,-8712.539999999999,-37253.88,-24783.165,-20130.705,-22049.19,-12112.965,-6106.365
1764435129.3062491,-666.495,-8706.69,-37254.24,-24775.695,-20124.315,-22028.085,-12120.57,-6111.764999999999
1764435129.3062491,-661.05,-8703.945,-37254.87,-24771.375,-20120.13,-22014.495,-12125.655,-6115.23
1764435129.3072648,-664.29,-8707.095,-37256.67,-24773.805,-20122.515,-22017.78,-12127.365,-6117.165
1764435129.3082695,-665.3249999999999,-8705.789999999999,-37250.82,-24771.825,-20121.075,-22024.845,-12117.375,-6107.94
1764435129.308782,-672.255,-8710.11,-37249.515,-24777.315,-20124.765,-22041.27,-12109.365,-6102.179999999999
1764435129.308782,-675.045,-8708.805,-37242.27,-24778.305,-20124.315,-22055.58,-12096.045,-6089.849999999999
