Timestamp,Channel1,Channel2,Channel3,Channel4,Channel5,Channel6,Channel7,Channel8
1764434112.6670306,-1315.08,-11750.175,-40467.96,-28510.065,-25311.015,-22041.63,-12827.16,-8705.43
1764434112.6670306,-1312.02,-11747.52,-40463.64,-28506.645,-25307.73,-22039.065,-12824.235,-8701.47
1764434112.6670306,-1314.09,-11747.655,-40462.11,-28506.69,-25308.27,-22044.915,-12820.905,-8698.095
1764434112.6670306,-1315.845,-11746.395,-40459.77,-28507.815,-25309.44,-22051.665,-12816.495,-8692.785
1764434112.6670306,-1317.33,-11745.09,-40457.295,-28508.715,-25309.395,-22059.27,-12810.24,-8686.755
1764434112.6670306,-1324.89,-11750.31,-40461.93,-28515.69,-25316.01,-22070.295,-12813.03,-8691.57
1764434112.6670306,-1323.315,-11748.555,-40460.175,-28514.34,-25315.515,-22067.1,-12812.31,-8691.3
1764434112.6670306,-1317.78,-11745.495,-40458.69,-28510.92,-25312.5,-22058.64,-12813.03,-8691.029999999999
1764434112.6670306,-1314.54,-11744.73,-40459.86,-28509.03,-25310.34,-22051.215,-12816.045,-8693.865
1764434112.6670306,-1311.93,-11745.945,-40462.92,-28507.77,-25310.115,-22043.52,-12820.815,-8699.265
1764434112.6670306,-1312.605,-11747.88,-40465.08,-28507.14,-25310.52,-22040.685,-12824.55,-8702.82
1764434112.6670306,-1312.74,-11747.07,-40463.73,-28506.465,-25309.305,-22041.72,-12823.695,-8700.615
1764434112.6670306,-1310.13,-11743.605,-40458.555,-28504.62,-25306.29,-22043.205,-12817.44,-8693.685
1764434112.6670306,-1313.055,-11744.145,-40457.205,-28507.005,-25308.0,-22051.08,-12813.975,-8690.625
1764434112.6670306,-1313.145,-11740.545,-40451.58,-28505.61,-25306.515,-22056.21,-12806.865,-8682.84
1764434112.6670306,-1319.805,-11745.27,-40454.865,-28512.09,-25312.59,-22065.705,-12808.44,-8686.215
1764434112.6670306,-1319.625,-11744.955,-40455.63,-28512.18,-25312.77,-22064.355,-12809.07,-8687.115
1764434112.6670306,-1322.415,-11749.455,-40462.605,-28515.645,-25316.415,-22063.59,-12816.27,-8694.765
1764434112.6670306,-1320.21,-11749.68,-40465.215,-28513.845,-25315.155,-22056.255,-12820.86,-8698.68
1764434112.6670306,-1316.2949999999998,-11748.42,-40466.34,-28510.2,-25312.86,-22045.95,-12824.595,-8702.055
1764434112.6670306,-1309.95,-11744.73,-40462.74,-28504.305,-25306.965,-22038.255,-12823.155,-8699.445
1764434112.6670306,-1314.765,-11749.455,-40466.295,-28508.22,-25310.835,-22044.015,-12825.72,-8702.955
1764434112.6670306,-1316.565,-11749.32,-40465.215,-28509.885,-25312.005,-22049.505,-12823.11,-8699.175
1764434112.6680465,-1318.32,-11748.465,-40463.19,-28510.785,-25312.14,-22055.895,-12819.69,-8694.945
1764434112.7134044,-1319.805,-11746.8,-40458.555,-28511.19,-25311.96,-22062.42,-12815.01,-8688.869999999999
1764434112.7134044,-1325.43,-11750.535,-40461.705,-28516.32,-25317.18,-22070.745,-12815.775,-8690.76
1764434112.7134044,-1321.02,-11746.575,-40459.32,-28512.81,-25314.165,-22066.245,-12813.615,-8688.465
1764434112.7134044,-1322.055,-11748.555,-40463.19,-28514.61,-25315.965,-22062.87,-12818.97,-8694.315
1764434112.7134044,-1322.685,-11751.66,-40468.455,-28515.375,-25316.55,-22058.37,-12824.1,-8700.84
1764434112.7145514,-1317.195,-11749.5,-40467.69,-28510.38,-25312.365,-22047.525,-12826.35,-8703.18
1764434112.7145514,-1310.94,-11745.225,-40463.73,-28504.62,-25308.09,-22038.93,-12825.135,-8700.84
1764434112.7145514,-1310.76,-11744.37,-40462.515,-28504.935,-25307.82,-22040.28,-12823.965,-8698.68
1764434112.7145514,-1312.605,-11744.955,-40460.4,-28506.195,-25307.865,-22044.915,-12821.04,-8694.855
1764434112.7145514,-1316.835,-11746.62,-40459.185,-28509.48,-25310.115,-22053.555,-12818.295,-8692.38
1764434112.7145514,-1320.21,-11746.98,-40457.61,-28512.315,-25311.915,-22063.23,-12813.255,-8688.465
1764434112.7145514,-1325.7,-11750.49,-40460.13,-28517.625,-25316.865,-22071.465,-12814.965,-8690.31
1764434112.7145514,-1327.14,-11752.38,-40462.74,-28519.695,-25319.07,-22071.555,-12817.44,-8693.685
1764434112.7145514,-1321.695,-11748.78,-40461.03,-28515.015,-25315.425,-22063.005,-12817.665,-8693.73
1764434112.7145514,-1320.165,-11750.445,-40463.595,-28513.89,-25315.155,-22057.02,-12821.67,-8698.185
1764434112.7145514,-1314.45,-11748.015,-40463.19,-28509.885,-25310.475,-22046.4,-12824.55,-8700.255
1764434112.7145514,-1314.405,-11748.915,-40465.755,-28509.345,-25311.105,-22043.745,-12827.07,-8703.855
1764434112.7145514,-1313.955,-11748.015,-40463.73,-28508.22,-25309.305,-22043.97,-12824.82,-8701.38
1764434112.7145514,-1313.19,-11745.495,-40460.175,-28506.69,-25307.415,-22046.94,-12819.78,-8695.755
1764434112.7145514,-1311.75,-11741.985,-40454.28,-28504.98,-25305.255,-22050.315,-12812.94,-8687.97
1764434112.7145514,-1312.9199999999998,-11740.32,-40450.32,-28505.385,-25304.805,-22056.84,-12806.73,-8681.895
1764434112.7145514,-1317.375,-11743.065,-40452.03,-28509.615,-25308.72,-22064.04,-12806.46,-8683.199999999999
1764434112.7145514,-1320.93,-11746.575,-40457.475,-28513.665,-25313.085,-22066.38,-12811.095,-8688.195
1764434112.7145514,-1318.095,-11744.19,-40457.79,-28511.415,-25310.79,-22059.315,-12812.76,-8689.68
1764434112.758789,-1318.14,-11746.845,-40461.615,-28511.01,-25311.465,-22053.915,-12818.565,-8695.574999999999
1764434112.758789,-1312.2,-11744.685,-40461.48,-28506.015,-25307.46,-22042.35,-12820.86,-8698.185
1764434112.758789,-1311.57,-11746.17,-40463.55,-28505.655,-25307.595,-22039.56,-12823.695,-8701.695
1764434112.758789,-1311.345,-11745.36,-40461.975,-28505.07,-25306.515,-22040.28,-12821.67,-8699.22
1764434112.758789,-1311.255,-11744.505,-40458.645,-28504.35,-25305.435,-22043.7,-12817.62,-8694.045
1764434112.758789,-1309.77,-11740.32,-40452.435,-28501.245,-25302.24,-22046.22,-12810.51,-8686.574999999999
1764434112.758789,-1312.74,-11740.815,-40450.59,-28503.315,-25304.355,-22054.68,-12806.28,-8682.39
1764434112.758789,-1320.75,-11747.07,-40456.8,-28511.64,-25312.14,-22064.805,-12810.015,-8687.115
1764434112.758789,-1317.645,-11744.235,-40455.63,-28509.3,-25309.89,-22061.295,-12809.025,-8686.619999999999
1764434112.758789,-1317.15,-11745.72,-40458.555,-28509.615,-25310.25,-22057.155,-12813.03,-8691.255
1764434112.758789,-1312.875,-11743.56,-40458.285,-28505.7,-25306.29,-22047.165,-12814.83,-8692.289999999999
1764434112.758789,-1312.605,-11745.63,-40463.19,-28505.88,-25307.055,-22041.27,-12821.265,-8700.029999999999
1764434112.758789,-1307.115,-11742.165,-40459.095,-28500.615,-25302.015,-22033.215,-12820.32,-8698.14
1764434112.758789,-1305.09,-11740.95,-40456.305,-28498.14,-25300.755,-22032.675,-12817.26,-8695.08
1764434112.758789,-1305.855,-11739.69,-40453.965,-28498.725,-25300.845,-22037.04,-12812.94,-8690.76
1764434112.758789,-1307.745,-11738.745,-40451.13,-28499.67,-25301.34,-22043.52,-12807.405,-8685.765
1764434112.758789,-1311.165,-11738.925,-40449.375,-28501.65,-25303.05,-22052.79,-12803.04,-8680.904999999999
1764434112.758789,-1318.365,-11744.415,-40453.92,-28509.03,-25309.89,-22062.915,-12806.415,-8684.505
1764434112.758789,-1320.615,-11746.935,-40457.745,-28512.135,-25312.815,-22063.005,-12810.465,-8688.914999999999
1764434112.758789,-1319.13,-11746.44,-40459.095,-28511.235,-25311.42,-22057.155,-12813.84,-8691.48
1764434112.758789,-1314.72,-11744.235,-40459.68,-28508.58,-25308.09,-22048.515,-12816.99,-8693.64
1764434112.758789,-1306.1699999999998,-11739.33,-40456.53,-28500.84,-25301.295,-22034.79,-12817.17,-8693.324999999999
1764434112.808925,-1304.91,-11739.195,-40456.845,-28498.905,-25300.215,-22029.885,-12818.295,-8695.125
1764434112.808925,-1308.465,-11742.3,-40458.375,-28501.695,-25303.05,-22034.16,-12818.88,-8696.205
1764434112.808925,-1310.085,-11742.12,-40456.8,-28502.82,-25304.265,-22039.11,-12815.64,-8692.965
1764434112.808925,-1310.355,-11740.095,-40452.57,-28501.875,-25302.645,-22043.925,-12809.295,-8686.98
1764434112.808925,-1310.985,-11737.665,-40447.89,-28501.065,-25301.07,-22050.135,-12802.905,-8679.869999999999
1764434112.808925,-1314.945,-11739.78,-40450.005,-28505.205,-25303.995,-22056.795,-12803.49,-8680.05
1764434112.8099236,-1315.1699999999998,-11740.185,-40451.625,-28505.79,-25306.11,-22055.67,-12805.425,-8682.84
1764434112.8099236,-1312.38,-11739.735,-40452.93,-28503.99,-25304.58,-22050.27,-12808.215,-8685.945
1764434112.8099236,-1310.04,-11740.455,-40455.315,-28502.865,-25303.725,-22043.385,-12812.085,-8690.31
1764434112.8099236,-1308.195,-11741.895,-40458.78,-28502.055,-25303.32,-22036.23,-12817.26,-8696.34
1764434112.8099236,-1303.425,-11738.205,-40456.485,-28497.69,-25298.685,-22029.255,-12816.72,-8694.18
1764434112.8099236,-1303.155,-11737.62,-40454.73,-28497.15,-25297.875,-22029.93,-12814.065,-8691.435
1764434112.8099236,-1305.63,-11738.61,-40453.38,-28498.86,-25299.405,-22035.645,-12810.78,-8688.465
1764434112.8099236,-1310.6699999999998,-11741.895,-40453.47,-28503.36,-25302.825,-22045.455,-12808.935,-8686.8
1764434112.8099236,-1309.68,-11738.385,-40448.115,-28502.19,-25300.98,-22050.045,-12801.825,-8678.43
1764434112.8099236,-1312.9199999999998,-11739.105,-40448.88,-28504.44,-25303.455,-22054.77,-12801.195,-8677.619999999999
1764434112.8099236,-1312.11,-11738.34,-40450.59,-28504.215,-25303.815,-22053.555,-12802.59,-8679.555
1764434112.8099236,-1311.345,-11739.375,-40454.145,-28504.485,-25304.13,-22049.865,-12807.09,-8684.685
1764434112.8099236,-1312.29,-11742.48,-40459.725,-28507.095,-25306.065,-22046.13,-12814.425,-8691.93
1764434112.8099236,-1310.4,-11743.92,-40462.425,-28505.205,-25304.805,-22038.165,-12820.725,-8697.33
1764434112.8099236,-1304.955,-11740.185,-40458.555,-28498.995,-25300.08,-22029.93,-12819.06,-8694.81
1764434112.8099236,-1303.9199999999998,-11739.015,-40455.72,-28497.465,-25298.145,-22029.885,-12814.965,-8690.94
1764434112.8099236,-1306.395,-11739.555,-40454.19,-28498.905,-25299.81,-22036.14,-12812.355,-8688.33
1764434112.8099236,-1308.96,-11739.51,-40451.805,-28500.12,-25300.71,-22042.71,-12808.44,-8683.74
1764434112.8508196,-1310.085,-11737.53,-40448.16,-28501.785,-25300.845,-22050.045,-12801.96,-8677.305
1764434112.8508196,-1314.81,-11739.555,-40450.59,-28505.655,-25304.445,-22056.435,-12803.085,-8678.654999999999
1764434112.8508196,-1316.34,-11741.805,-40453.785,-28507.545,-25305.57,-22056.03,-12805.47,-8682.615
1764434112.8508196,-1314.225,-11741.49,-40456.215,-28506.24,-25304.49,-22050.27,-12808.62,-8685.494999999999
1764434112.8508196,-1308.87,-11738.34,-40455.225,-28501.335,-25300.035,-22040.19,-12808.62,-8686.71
1764434112.8508196,-1304.82,-11737.44,-40456.125,-28498.86,-25298.37,-22030.56,-12812.625,-8690.175
1764434112.8508196,-1300.5449999999998,-11735.055,-40453.92,-28494.63,-25295.04,-22024.215,-12811.905,-8688.465
1764434112.8508196,-1304.595,-11738.205,-40455.9,-28497.105,-25297.65,-22029.075,-12812.49,-8689.32
1764434112.8508196,-1305.945,-11737.845,-40453.38,-28497.555,-25297.29,-22033.35,-12809.115,-8685.225
1764434112.8508196,-1304.505,-11733.975,-40446.855,-28496.07,-25294.815,-22036.815,-12802.095,-8677.574999999999
1764434112.8508196,-1309.32,-11735.415,-40447.665,-28500.615,-25298.37,-22048.02,-12799.89,-8674.965
1764434112.8508196,-1316.2949999999998,-11741.715,-40453.515,-28507.455,-25305.165,-22057.74,-12803.67,-8679.69
1764434112.8508196,-1315.215,-11742.03,-40454.55,-28507.68,-25305.525,-22055.13,-12805.65,-8681.49
1764434112.8508196,-1309.185,-11738.43,-40452.48,-28503.18,-25301.34,-22045.86,-12806.505,-8681.625
1764434112.8508196,-1308.51,-11739.69,-40455.495,-28503.225,-25301.115,-22040.235,-12810.915,-8687.07
1764434112.8508196,-1309.59,-11742.885,-40460.715,-28504.305,-25302.87,-22035.825,-12818.61,-8695.215
1764434112.8548365,-1305.945,-11740.365,-40458.465,-28499.805,-25299.045,-22029.12,-12818.475,-8694.315
1764434112.8548365,-1308.645,-11742.12,-40459.095,-28501.74,-25300.62,-22032.045,-12818.115,-8694.765
1764434112.8548365,-1310.94,-11742.39,-40457.655,-28503.315,-25301.745,-22038.12,-12815.055,-8691.255
1764434112.8548365,-1312.47,-11741.805,-40455.585,-28504.08,-25301.385,-22044.105,-12811.14,-8686.574999999999
1764434112.8548365,-1312.47,-11738.79,-40450.725,-28503.63,-25300.305,-22049.37,-12804.57,-8680.23
1764434112.8548365,-1318.59,-11743.155,-40454.46,-28509.525,-25305.615,-22057.605,-12807.045,-8682.615
1764434112.8998983,-1315.395,-11740.23,-40453.38,-28507.725,-25302.87,-22053.915,-12806.37,-8682.029999999999
1764434112.9004018,-1314.09,-11741.265,-40455.63,-28507.5,-25303.185,-22050.045,-12810.015,-8686.305
1764434112.9004018,-1309.185,-11739.465,-40455.855,-28503.18,-25299.99,-22040.955,-12811.905,-8688.465
1764434112.9004018,-1308.33,-11741.715,-40460.13,-28503.0,-25300.71,-22034.565,-12817.485,-8695.619999999999
1764434112.9004018,-1306.665,-11740.995,-40459.995,-28500.12,-25298.46,-22028.85,-12819.24,-8695.935
1764434112.9004018,-1305.45,-11738.835,-40456.89,-28498.005,-25296.39,-22029.3,-12816.72,-8691.84
1764434112.9004018,-1311.075,-11742.39,-40457.565,-28502.46,-25300.665,-22038.165,-12815.775,-8691.615
1764434112.9004018,-1310.445,-11739.33,-40452.435,-28500.795,-25299.135,-22042.35,-12809.43,-8684.685
1764434112.9004018,-1314.855,-11740.77,-40452.48,-28505.43,-25301.79,-22052.745,-12806.595,-8682.39
1764434112.9014018,-1320.075,-11744.37,-40455.855,-28510.515,-25306.875,-22059.945,-12807.9,-8684.955
1764434112.9014018,-1316.43,-11741.355,-40453.605,-28507.365,-25304.58,-22054.095,-12806.19,-8683.83
1764434112.9014018,-1315.665,-11742.255,-40456.665,-28507.905,-25305.12,-22050.045,-12810.015,-8688.869999999999
1764434112.9014018,-1308.465,-11737.485,-40454.91,-28502.1,-25299.72,-22038.975,-12811.095,-8688.42
1764434112.9014018,-1305.945,-11738.07,-40456.665,-28499.805,-25298.46,-22030.38,-12815.46,-8692.605
1764434112.9014018,-1305.27,-11738.61,-40457.295,-28499.22,-25298.28,-22027.68,-12817.53,-8694.539999999999
1764434112.9014018,-1308.96,-11741.58,-40458.735,-28501.875,-25299.945,-22032.09,-12817.935,-8695.26
1764434112.9014018,-1308.375,-11738.88,-40454.01,-28500.57,-25297.02,-22034.61,-12812.355,-8688.465
1764434112.9014018,-1311.7949999999998,-11740.77,-40453.02,-28503.18,-25299.72,-22043.52,-12810.06,-8685.404999999999
1764434112.9014018,-1315.98,-11741.49,-40452.39,-28506.645,-25303.455,-22053.735,-12807.045,-8682.66
1764434112.9029143,-1321.56,-11745.09,-40457.295,-28512.9,-25309.17,-22061.475,-12809.295,-8685.539999999999
1764434112.9029143,-1317.78,-11742.615,-40455.54,-28510.425,-25307.145,-22056.705,-12809.34,-8685.36
1764434112.9029143,-1315.44,-11742.795,-40456.845,-28508.445,-25306.56,-22051.125,-12813.165,-8688.555
1764434112.9029143,-1312.9199999999998,-11743.2,-40459.905,-28507.185,-25305.525,-22044.78,-12817.395,-8693.73
1764434112.9029143,-1313.46,-11746.305,-40465.08,-28508.175,-25306.74,-22039.335,-12824.235,-8701.244999999999
1764434112.9434583,-1309.995,-11744.1,-40463.055,-28503.99,-25303.14,-22033.17,-12823.47,-8698.994999999999
1764434112.9434583,-1312.245,-11745.765,-40463.415,-28505.745,-25304.805,-22036.995,-12822.255,-8698.68
1764434112.9434583,-1312.605,-11743.92,-40459.59,-28505.205,-25303.635,-22042.17,-12817.62,-8693.595
1764434112.9434583,-1311.7949999999998,-11740.455,-40454.1,-28503.945,-25301.43,-22046.49,-12810.735,-8685.494999999999
1764434112.9434583,-1317.465,-11742.705,-40454.64,-28508.805,-25306.425,-22057.605,-12808.98,-8684.145
1764434112.9434583,-1325.2949999999998,-11749.14,-40460.535,-28516.365,-25313.4,-22066.515,-12813.345,-8689.994999999999
1764434112.9434583,-1323.765,-11747.205,-40460.805,-28515.33,-25311.42,-22062.555,-12814.695,-8691.029999999999
1764434112.9434583,-1319.04,-11744.91,-40459.545,-28512.0,-25308.99,-22054.14,-12816.225,-8692.199999999999
1764434112.9434583,-1311.39,-11740.23,-40457.34,-28505.925,-25303.635,-22042.89,-12816.72,-8691.615
1764434112.9434583,-1310.355,-11742.39,-40462.02,-28505.835,-25302.915,-22037.13,-12822.93,-8697.824999999999
1764434112.9434583,-1311.12,-11745.045,-40464.27,-28506.645,-25303.95,-22035.735,-12825.36,-8701.154999999999
1764434112.9444551,-1310.58,-11743.515,-40460.85,-28505.295,-25303.095,-22036.32,-12822.57,-8697.51
1764434112.9444551,-1310.13,-11741.175,-40456.755,-28503.72,-25302.015,-22040.19,-12817.62,-8691.48
1764434112.94646,-1311.975,-11740.365,-40453.605,-28503.945,-25302.285,-22046.355,-12812.67,-8686.17
1764434112.94646,-1317.24,-11742.21,-40454.19,-28508.76,-25306.335,-22057.29,-12811.095,-8685.494999999999
1764434112.94646,-1322.955,-11746.035,-40458.6,-28514.745,-25312.275,-22065.57,-12814.155,-8689.005
1764434112.94646,-1325.43,-11749.41,-40462.785,-28517.715,-25315.47,-22066.065,-12817.89,-8694.315
1764434112.94646,-1324.035,-11749.185,-40464.18,-28517.04,-25314.84,-22059.855,-12821.805,-8698.455
1764434112.94646,-1319.805,-11747.43,-40464.72,-28514.745,-25312.14,-22050.63,-12824.055,-8700.164999999999
1764434112.94646,-1316.88,-11747.7,-40467.105,-28512.405,-25311.24,-22042.845,-12829.365,-8704.26
1764434112.94646,-1313.055,-11745.54,-40465.215,-28507.95,-25307.73,-22037.265,-12829.095,-8702.955
1764434112.94646,-1312.29,-11744.055,-40461.84,-28505.745,-25306.02,-22038.075,-12825.72,-8699.49
1764434112.9915287,-1315.1699999999998,-11744.55,-40460.76,-28507.23,-25307.955,-22044.6,-12822.12,-8696.88
1764434112.9915287,-1315.35,-11742.84,-40456.215,-28507.23,-25307.1,-22049.55,-12816.135,-8690.265
1764434112.9915287,-1320.57,-11745.27,-40456.665,-28511.955,-25311.105,-22060.08,-12813.93,-8687.88
1764434112.9915287,-1327.635,-11751.48,-40462.38,-28519.065,-25318.44,-22068.945,-12818.79,-8693.055
1764434112.9915287,-1324.35,-11748.825,-40460.715,-28515.96,-25315.92,-22063.41,-12817.845,-8692.335
1764434112.9915287,-1324.395,-11751.12,-40464.315,-28516.725,-25317.0,-22059.765,-12822.57,-8697.96
1764434112.9915287,-1319.58,-11749.005,-40465.08,-28513.17,-25313.4,-22050.675,-12824.235,-8699.805
1764434112.9915287,-1315.665,-11747.79,-40465.845,-28509.48,-25309.665,-22040.865,-12828.195,-8702.55
1764434112.9915287,-1315.395,-11749.905,-40466.97,-28510.11,-25310.34,-22038.975,-12831.03,-8706.195
1764434112.9915287,-1316.025,-11749.23,-40464.765,-28509.39,-25309.8,-22040.82,-12829.5,-8704.485
1764434112.9915287,-1322.055,-11752.92,-40467.33,-28514.745,-25314.525,-22050.765,-12828.69,-8704.305
1764434112.9915287,-1323.72,-11750.625,-40463.37,-28514.115,-25313.67,-22056.12,-12823.245,-8698.14
1764434112.9915287,-1324.215,-11747.16,-40458.465,-28513.26,-25312.725,-22061.655,-12817.125,-8691.57
1764434112.9915287,-1327.815,-11749.14,-40460.625,-28517.085,-25316.73,-22066.74,-12818.25,-8692.244999999999
1764434112.9915287,-1326.69,-11749.455,-40462.695,-28517.31,-25316.595,-22064.31,-12819.825,-8693.369999999999
1764434112.9915287,-1326.195,-11751.75,-40467.195,-28518.12,-25317.765,-22060.53,-12824.775,-8698.77
1764434112.9915287,-1319.31,-11747.205,-40464.63,-28512.09,-25312.185,-22048.11,-12824.595,-8698.23
1764434112.9915287,-1315.755,-11746.89,-40465.17,-28509.3,-25310.16,-22039.515,-12827.88,-8701.335
1764434112.9915287,-1313.955,-11746.665,-40464.09,-28507.095,-25307.955,-22036.725,-12828.285,-8701.47
1764434112.9915287,-1318.095,-11750.13,-40466.385,-28510.02,-25311.15,-22042.035,-12829.455,-8702.865
1764434112.9915287,-1316.43,-11746.755,-40461.345,-28507.815,-25308.63,-22044.915,-12823.83,-8696.025
1764434112.9915287,-1319.94,-11747.475,-40460.265,-28510.965,-25310.835,-22053.33,-12820.23,-8692.47
1764434112.9915287,-1321.2,-11745.315,-40456.44,-28511.505,-25310.475,-22059.315,-12814.515,-8686.215
1764434112.9915287,-1325.34,-11748.195,-40458.87,-28515.78,-25314.48,-22064.985,-12815.28,-8688.779999999999
1764434113.0405667,-1326.735,-11750.13,-40461.84,-28517.805,-25316.595,-22064.31,-12818.655,-8693.414999999999
1764434113.0405667,-1323.54,-11748.06,-40462.47,-28513.755,-25313.22,-22057.29,-12821.31,-8695.035
1764434113.0405667,-1323.765,-11750.085,-40467.105,-28514.565,-25314.39,-22051.89,-12827.25,-8701.785
1764434113.0405667,-1321.74,-11751.615,-40469.49,-28513.08,-25313.49,-22044.69,-12832.695,-8706.465
1764434113.0405667,-1318.455,-11750.31,-40467.87,-28510.605,-25310.745,-22040.955,-12832.29,-8705.925
1764434113.0405667,-1319.175,-11750.13,-40466.43,-28510.65,-25310.925,-22043.565,-12830.04,-8703.99
1764434113.0405667,-1319.94,-11748.555,-40463.055,-28510.29,-25310.025,-22047.435,-12825.135,-8698.949999999999
1764434113.0405667,-1320.39,-11746.575,-40459.455,-28510.47,-25309.215,-22053.735,-12820.32,-8692.92
1764434113.0405667,-1324.62,-11747.43,-40459.365,-28514.97,-25312.365,-22063.365,-12817.53,-8690.445
1764434113.0405667,-1328.94,-11750.265,-40462.515,-28519.2,-25316.325,-22069.395,-12819.375,-8692.875
1764434113.0405667,-1329.615,-11751.84,-40465.17,-28520.01,-25317.225,-22067.82,-12822.345,-8696.925
1764434113.0405667,-1329.075,-11753.37,-40468.275,-28520.055,-25317.81,-22062.465,-12827.295,-8702.19
1764434113.0405667,-1323.99,-11751.57,-40468.14,-28516.455,-25314.885,-22052.475,-12829.14,-8703.855
1764434113.0405667,-1319.49,-11750.535,-40468.68,-28512.405,-25312.455,-22042.71,-12832.695,-8706.465
1764434113.0405667,-1321.2,-11753.235,-40470.84,-28512.945,-25314.3,-22042.26,-12835.305,-8709.21
1764434113.0405667,-1321.695,-11753.145,-40469.58,-28512.405,-25313.85,-22045.185,-12833.55,-8707.14
1764434113.0405667,-1318.68,-11748.375,-40463.1,-28509.21,-25310.16,-22046.445,-12825.63,-8698.68
1764434113.0405667,-1321.9199999999998,-11748.96,-40460.715,-28511.37,-25311.15,-22054.005,-12821.67,-8694.404999999999
1764434113.0405667,-1326.96,-11751.57,-40461.3,-28515.15,-25315.92,-22064.265,-12820.095,-8692.875
1764434113.041566,-1332.0449999999998,-11754.945,-40465.35,-28520.55,-25320.69,-22071.96,-12822.84,-8697.24
1764434113.041566,-1328.895,-11751.66,-40463.91,-28517.58,-25317.81,-22066.02,-12821.805,-8696.43
1764434113.041566,-1321.065,-11746.89,-40460.445,-28510.29,-25311.105,-22054.14,-12820.59,-8694.539999999999
1764434113.041566,-1316.79,-11745.855,-40461.255,-28506.78,-25308.855,-22045.23,-12822.795,-8697.735
1764434113.041566,-1314.405,-11747.115,-40463.415,-28505.205,-25307.865,-22038.075,-12827.475,-8703.225
1764434113.0850496,-1314.9,-11749.23,-40464.99,-28505.97,-25308.585,-22037.22,-12829.365,-8705.43
1764434113.0850496,-1315.44,-11749.14,-40463.64,-28505.79,-25308.405,-22039.56,-12827.745,-8702.73
1764434113.0850496,-1313.055,-11743.74,-40456.35,-28502.055,-25304.805,-22039.92,-12820.365,-8694.27
1764434113.0850496,-1316.52,-11742.93,-40453.83,-28503.72,-25305.48,-22047.975,-12815.595,-8689.455
1764434113.0850496,-1321.065,-11744.415,-40453.92,-28508.22,-25308.405,-22057.11,-12812.49,-8686.89
1764434113.0850496,-1327.815,-11750.265,-40459.32,-28515.915,-25315.29,-22065.255,-12817.44,-8692.965
1764434113.0850496,-1324.89,-11748.51,-40459.68,-28513.44,-25313.265,-22060.53,-12818.205,-8692.92
1764434113.0850496,-1324.755,-11751.12,-40464.045,-28514.7,-25315.02,-22057.56,-12823.74,-8698.455
1764434113.0850496,-1319.355,-11748.825,-40463.145,-28510.02,-25311.33,-22047.345,-12825.765,-8699.94
1764434113.086589,-1319.6699999999998,-11751.48,-40467.195,-28510.515,-25312.32,-22042.035,-12832.155,-8706.779999999999
1764434113.086589,-1314.99,-11747.88,-40463.505,-28505.745,-25308.045,-22036.68,-12830.04,-8704.215
1764434113.086589,-1317.33,-11749.365,-40464.495,-28507.32,-25310.205,-22041.54,-12830.04,-8703.72
1764434113.086589,-1321.695,-11751.84,-40464.99,-28510.38,-25313.22,-22049.595,-12827.97,-8702.235
1764434113.086589,-1322.505,-11749.68,-40460.805,-28510.245,-25312.05,-22055.715,-12822.525,-8695.935
1764434113.086589,-1326.555,-11750.94,-40459.815,-28514.34,-25314.885,-22064.67,-12819.42,-8693.055
1764434113.086589,-1332.855,-11755.89,-40465.395,-28519.965,-25321.77,-22071.555,-12823.965,-8697.69
1764434113.086589,-1330.11,-11753.73,-40465.305,-28517.49,-25318.62,-22065.795,-12823.695,-8698.41
1764434113.086589,-1326.15,-11750.67,-40464.81,-28513.845,-25314.57,-22057.02,-12825.36,-8699.805
1764434113.086589,-1323.18,-11750.31,-40466.07,-28511.82,-25312.5,-22048.29,-12828.78,-8703.09
1764434113.086589,-1322.91,-11754.495,-40471.83,-28512.675,-25313.94,-22043.34,-12835.215,-8710.65
1764434113.086589,-1318.68,-11751.435,-40469.13,-28508.445,-25310.295,-22037.445,-12833.37,-8707.14
1764434113.086589,-1317.915,-11749.995,-40465.17,-28506.96,-25309.305,-22039.065,-12829.815,-8702.73
1764434113.1310322,-1319.76,-11750.175,-40462.695,-28507.815,-25309.98,-22044.24,-12826.53,-8699.49
1764434113.1310322,-1323.765,-11751.615,-40461.975,-28511.415,-25312.635,-22053.645,-12823.92,-8696.744999999999
1764434113.1310322,-1329.57,-11754.045,-40463.505,-28516.77,-25316.73,-22064.49,-12822.795,-8695.98
1764434113.1310322,-1335.825,-11759.445,-40468.995,-28523.7,-25322.535,-22071.6,-12827.205,-8701.199999999999
1764434113.1310322,-1330.785,-11754.72,-40466.385,-28518.885,-25318.755,-22064.13,-12825.72,-8699.22
1764434113.1310322,-1328.13,-11754.225,-40467.78,-28517.265,-25317.405,-22058.01,-12829.14,-8702.685
1764434113.1310322,-1324.53,-11753.01,-40468.77,-28515.195,-25315.515,-22049.55,-12831.84,-8706.24
1764434113.1310322,-1322.73,-11754.63,-40471.965,-28514.16,-25314.795,-22042.935,-12836.205,-8711.55
1764434113.1310322,-1317.69,-11750.715,-40468.635,-28509.03,-25310.16,-22036.86,-12833.865,-8708.039999999999
1764434113.1310322,-1320.525,-11752.02,-40468.635,-28510.38,-25311.195,-22040.37,-12832.965,-8707.14
1764434113.1320522,-1321.65,-11750.895,-40465.215,-28510.155,-25310.79,-22045.59,-12828.69,-8702.414999999999
1764434113.1320522,-1324.35,-11751.3,-40462.695,-28511.82,-25312.005,-22053.915,-12824.01,-8697.555
1764434113.1330764,-1329.615,-11753.37,-40462.2,-28515.465,-25315.875,-22063.86,-12822.03,-8695.305
1764434113.1330764,-1336.815,-11759.445,-40468.32,-28522.62,-25323.66,-22072.005,-12827.16,-8701.83
1764434113.1340716,-1334.745,-11757.87,-40468.905,-28521.45,-25322.625,-22067.46,-12828.645,-8703.09
1764434113.1340716,-1329.705,-11754.99,-40468.23,-28517.265,-25318.485,-22058.82,-12830.265,-8703.765
1764434113.1340716,-1326.96,-11754.09,-40470.705,-28515.105,-25315.92,-22050.45,-12833.775,-8707.185
1764434113.1340716,-1326.105,-11756.385,-40474.215,-28515.015,-25316.82,-22044.555,-12838.995,-8713.17
1764434113.1350703,-1322.64,-11754.045,-40470.705,-28510.155,-25312.95,-22039.245,-12836.88,-8709.84
1764434113.1350703,-1321.02,-11751.66,-40466.655,-28508.04,-25309.575,-22039.74,-12832.335,-8704.17
1764434113.1350703,-1322.595,-11751.57,-40465.53,-28509.93,-25310.79,-22046.13,-12828.87,-8700.57
1764434113.1350703,-1326.96,-11752.92,-40464.45,-28513.26,-25313.85,-22055.895,-12826.08,-8698.365
1764434113.1350703,-1330.9199999999998,-11753.595,-40463.55,-28516.95,-25316.37,-22064.715,-12822.885,-8695.664999999999
1764434113.1365843,-1337.04,-11758.815,-40469.58,-28523.835,-25323.255,-22072.23,-12827.205,-8700.885
1764434113.179602,-1333.755,-11757.465,-40469.49,-28521.9,-25322.355,-22066.965,-12827.43,-8702.46
1764434113.179602,-1331.505,-11757.69,-40470.885,-28520.55,-25321.185,-22060.26,-12831.12,-8706.195
1764434113.179602,-1325.565,-11754.45,-40469.94,-28515.555,-25315.74,-22048.875,-12832.065,-8707.365
1764434113.179602,-1325.97,-11757.78,-40474.62,-28516.455,-25317.495,-22044.555,-12838.77,-8713.755
1764434113.179602,-1323.9,-11756.745,-40473.0,-28513.89,-25314.795,-22042.575,-12838.59,-8713.215
1764434113.179602,-1325.07,-11757.465,-40471.92,-28515.015,-25315.605,-22046.76,-12836.835,-8711.64
1764434113.179602,-1325.43,-11755.71,-40468.095,-28515.42,-25315.29,-22050.945,-12832.155,-8706.015
1764434113.179602,-1323.54,-11751.255,-40461.57,-28512.99,-25312.545,-22055.22,-12824.55,-8697.285
1764434113.179602,-1326.4199999999998,-11751.525,-40460.265,-28515.555,-25314.03,-22063.68,-12820.95,-8694.18
1764434113.179602,-1332.72,-11756.34,-40466.025,-28522.575,-25319.475,-22071.015,-12825.0,-8699.13
1764434113.179602,-1328.265,-11753.685,-40464.405,-28519.605,-25316.55,-22064.445,-12825.27,-8698.14
1764434113.179602,-1326.915,-11754.45,-40466.7,-28518.795,-25315.605,-22058.415,-12829.77,-8702.055
1764434113.179602,-1324.755,-11754.99,-40469.715,-28517.445,-25314.12,-22050.63,-12833.73,-8706.914999999999
1764434113.179602,-1325.025,-11757.555,-40473.63,-28517.58,-25314.795,-22045.005,-12838.455,-8713.08
1764434113.179602,-1322.145,-11754.855,-40470.48,-28512.54,-25309.98,-22039.605,-12835.935,-8710.785
1764434113.179602,-1320.39,-11751.705,-40465.53,-28509.435,-25306.38,-22039.065,-12830.985,-8705.16
1764434113.179602,-1324.98,-11753.73,-40465.755,-28513.125,-25310.025,-22047.165,-12829.05,-8703.539999999999
1764434113.179602,-1325.88,-11751.12,-40461.165,-28512.9,-25308.315,-22052.835,-12824.37,-8696.654999999999
1764434113.179602,-1329.165,-11750.58,-40460.22,-28515.105,-25309.08,-22059.855,-12820.365,-8693.055
1764434113.179602,-1335.69,-11756.34,-40465.845,-28521.045,-25315.245,-22066.29,-12824.19,-8698.77
1764434113.179602,-1332.855,-11754.99,-40465.395,-28518.615,-25313.715,-22061.61,-12824.865,-8699.67
1764434113.179602,-1329.3,-11752.965,-40465.935,-28515.825,-25311.96,-22054.32,-12827.88,-8701.92
1764434113.179602,-1325.97,-11752.965,-40467.87,-28513.665,-25311.6,-22046.715,-12832.245,-8705.52
1764434113.179602,-1322.91,-11752.245,-40468.455,-28511.19,-25310.16,-22039.605,-12836.34,-8709.164999999999
1764434113.2278848,-1322.235,-11752.515,-40468.77,-28511.19,-25310.205,-22039.29,-12837.105,-8709.48
1764434113.2278848,-1325.475,-11754.72,-40469.715,-28514.115,-25313.265,-22046.895,-12836.745,-8709.164999999999
1764434113.2278848,-1323.855,-11751.345,-40464.18,-28512.27,-25311.69,-22050.945,-12830.94,-8701.875
1764434113.2278848,-1327.95,-11753.865,-40464.18,-28516.59,-25316.19,-22061.97,-12829.095,-8700.705
1764434113.2278848,-1329.57,-11752.695,-40461.345,-28517.265,-25316.595,-22068.72,-12825.315,-8695.845
1764434113.2278848,-1334.385,-11755.53,-40465.98,-28522.89,-25321.77,-22075.74,-12827.295,-8699.265
1764434113.2278848,-1330.245,-11753.82,-40465.485,-28520.82,-25319.88,-22070.835,-12826.89,-8700.029999999999
1764434113.2278848,-1326.105,-11751.57,-40465.845,-28517.76,-25317.405,-22063.32,-12829.005,-8702.055
1764434113.2278848,-1319.175,-11747.745,-40464.405,-28512.0,-25313.175,-22051.305,-12829.815,-8702.414999999999
1764434113.2278848,-1319.58,-11750.49,-40468.545,-28513.26,-25314.93,-22048.425,-12835.755,-8708.265
1764434113.2278848,-1319.535,-11750.895,-40468.32,-28512.855,-25314.12,-22047.57,-12836.205,-8707.904999999999
1764434113.2278848,-1321.29,-11752.2,-40467.87,-28514.25,-25315.155,-22051.485,-12835.17,-8706.33
1764434113.2278848,-1321.065,-11749.815,-40463.91,-28513.665,-25313.895,-22054.5,-12829.5,-8700.57
1764434113.2278848,-1320.48,-11746.935,-40458.915,-28511.91,-25310.565,-22058.145,-12822.705,-8692.83
1764434113.2278848,-1323.315,-11747.655,-40457.79,-28513.62,-25311.42,-22065.345,-12819.6,-8689.904999999999
1764434113.2278848,-1328.085,-11751.345,-40461.525,-28517.49,-25315.245,-22068.72,-12822.48,-8693.414999999999
1764434113.2278848,-1328.355,-11752.83,-40464.18,-28518.345,-25316.37,-22066.065,-12824.775,-8697.105
1764434113.2288897,-1324.35,-11751.84,-40465.215,-28515.195,-25313.445,-22058.415,-12826.305,-8699.58
1764434113.2288897,-1318.5,-11749.23,-40465.395,-28510.965,-25308.945,-22046.94,-12827.655,-8701.515
1764434113.2288897,-1314.315,-11746.98,-40465.305,-28507.275,-25306.56,-22037.265,-12830.355,-8703.494999999999
1764434113.2288897,-1316.745,-11750.04,-40467.33,-28508.355,-25307.415,-22037.625,-12831.795,-8705.88
1764434113.2288897,-1318.815,-11751.165,-40466.07,-28508.895,-25307.28,-22041.45,-12829.77,-8703.539999999999
1764434113.2288897,-1316.655,-11746.575,-40460.31,-28505.7,-25302.915,-22042.755,-12822.84,-8695.619999999999
1764434113.2288897,-1321.335,-11748.105,-40458.915,-28509.3,-25305.39,-22051.665,-12820.23,-8692.92
1764434113.275729,-1325.52,-11750.445,-40459.77,-28513.62,-25308.855,-22060.575,-12818.7,-8691.57
1764434113.275729,-1327.905,-11752.965,-40462.515,-28516.68,-25312.14,-22064.13,-12820.365,-8693.595
1764434113.275729,-1326.78,-11753.73,-40464.405,-28516.23,-25312.59,-22060.935,-12822.39,-8696.025
1764434113.275729,-1326.24,-11755.35,-40468.14,-28517.04,-25313.49,-22056.93,-12827.97,-8702.145
1764434113.275729,-1321.515,-11753.46,-40468.365,-28513.17,-25309.62,-22047.165,-12830.49,-8704.08
1764434113.275729,-1317.915,-11751.93,-40467.915,-28509.615,-25306.29,-22038.57,-12833.19,-8707.095
1764434113.275729,-1313.01,-11747.16,-40463.19,-28504.89,-25301.565,-22033.17,-12829.545,-8702.955
1764434113.275729,-1317.4199999999998,-11749.365,-40464.495,-28508.85,-25304.85,-22040.505,-12829.455,-8702.775
1764434113.275729,-1320.435,-11750.04,-40462.605,-28509.84,-25306.74,-22047.84,-12826.125,-8699.445
1764434113.275729,-1322.73,-11748.51,-40459.68,-28511.19,-25308.09,-22055.67,-12821.76,-8694.404999999999
1764434113.276743,-1323.0,-11746.125,-40456.08,-28511.145,-25307.325,-22061.25,-12816.63,-8688.6
1764434113.276743,-1329.615,-11751.705,-40462.155,-28517.67,-25313.355,-22067.325,-12821.04,-8693.505
1764434113.276743,-1328.895,-11751.3,-40464.045,-28517.76,-25313.22,-22063.23,-12824.73,-8696.025
1764434113.276743,-1329.885,-11754.765,-40468.59,-28519.785,-25315.38,-22059.99,-12830.715,-8703.945
1764434113.276743,-1325.34,-11754.27,-40469.355,-28516.77,-25313.355,-22051.17,-12832.785,-8706.914999999999
1764434113.276743,-1321.605,-11754.18,-40470.57,-28513.8,-25310.745,-22043.115,-12835.8,-8709.074999999999
1764434113.276743,-1320.39,-11752.965,-40469.4,-28511.325,-25309.215,-22040.64,-12834.99,-8707.59
1764434113.276743,-1321.2,-11752.47,-40467.24,-28510.92,-25308.72,-22043.79,-12833.37,-8704.305
1764434113.276743,-1320.48,-11749.77,-40462.83,-28509.57,-25306.155,-22047.165,-12827.34,-8697.42
1764434113.276743,-1324.98,-11751.39,-40462.47,-28513.35,-25308.945,-22057.605,-12824.01,-8695.71
1764434113.276743,-1325.835,-11750.175,-40459.41,-28513.71,-25309.125,-22063.32,-12819.735,-8691.164999999999
1764434113.276743,-1328.49,-11752.965,-40462.11,-28517.58,-25313.085,-22066.02,-12821.895,-8693.91
1764434113.2772515,-1328.175,-11753.595,-40464.63,-28518.345,-25314.255,-22062.78,-12824.82,-8697.24
1764434113.2772515,-1324.035,-11750.445,-40464.315,-28514.43,-25311.015,-22054.455,-12827.025,-8697.914999999999
1764434113.321149,-1321.38,-11750.22,-40466.79,-28512.405,-25310.295,-22046.58,-12830.67,-8702.595
1764434113.321149,-1321.425,-11753.19,-40471.02,-28513.26,-25311.15,-22042.215,-12836.205,-8708.85
1764434113.321149,-1318.365,-11751.57,-40468.23,-28510.38,-25308.045,-22039.605,-12834.315,-8706.69
1764434113.321149,-1317.33,-11749.5,-40464.495,-28508.85,-25306.65,-22041.495,-12830.94,-8702.46
1764434113.321149,-1320.57,-11749.905,-40463.1,-28510.02,-25307.145,-22048.965,-12828.015,-8698.455
1764434113.321149,-1324.665,-11751.165,-40461.525,-28513.53,-25309.215,-22058.685,-12824.46,-8695.395
1764434113.321149,-1329.03,-11753.505,-40462.155,-28517.715,-25312.905,-22067.415,-12823.515,-8695.035
1764434113.321149,-1336.23,-11759.94,-40469.175,-28524.555,-25319.925,-22074.885,-12829.32,-8701.605
1764434113.321149,-1334.07,-11759.49,-40470.57,-28523.7,-25319.295,-22070.52,-12830.895,-8704.035
1764434113.321149,-1330.38,-11758.905,-40471.47,-28521.18,-25317.765,-22063.59,-12833.1,-8706.869999999999
1764434113.321149,-1324.395,-11755.665,-40470.57,-28515.465,-25312.905,-22052.115,-12833.82,-8707.545
1764434113.321149,-1318.725,-11752.83,-40468.275,-28509.66,-25307.91,-22041.135,-12834.9,-8707.365
1764434113.321149,-1319.985,-11754.765,-40470.165,-28511.46,-25309.62,-22042.26,-12836.16,-8709.345
1764434113.321149,-1321.74,-11755.08,-40469.04,-28512.585,-25310.61,-22046.67,-12834.18,-8706.914999999999
1764434113.321149,-1323.63,-11754.315,-40466.115,-28513.755,-25310.655,-22052.16,-12830.265,-8702.865
1764434113.321149,-1325.925,-11753.595,-40462.605,-28515.06,-25310.97,-22060.035,-12825.135,-8697.645
1764434113.321149,-1326.4199999999998,-11752.02,-40459.41,-28515.105,-25310.565,-22065.255,-12820.23,-8692.875
1764434113.321149,-1331.82,-11757.105,-40465.17,-28520.28,-25315.785,-22070.7,-12823.92,-8698.32
1764434113.321149,-1328.13,-11754.81,-40464.495,-28518.21,-25313.94,-22065.075,-12824.415,-8698.455
1764434113.321149,-1323.0449999999998,-11751.84,-40463.505,-28514.43,-25309.98,-22056.255,-12826.395,-8699.13
1764434113.321149,-1322.64,-11754.315,-40467.915,-28514.655,-25310.52,-22050.675,-12832.65,-8705.97
1764434113.321149,-1318.995,-11752.83,-40468.185,-28510.605,-25307.64,-22042.8,-12835.665,-8707.904999999999
1764434113.321149,-1318.95,-11753.55,-40469.22,-28510.83,-25307.955,-22041.99,-12836.295,-8708.265
1764434113.321149,-1325.565,-11758.365,-40471.965,-28515.645,-25313.175,-22050.585,-12837.645,-8709.84
1764434113.367392,-1326.285,-11757.465,-40468.68,-28515.69,-25312.905,-22055.94,-12833.19,-8705.25
1764434113.367392,-1327.59,-11754.675,-40463.73,-28515.195,-25311.915,-22062.645,-12828.15,-8698.365
1764434113.367392,-1328.895,-11753.73,-40461.12,-28516.545,-25312.545,-22069.62,-12823.245,-8694.765
1764434113.367392,-1333.1699999999998,-11757.42,-40465.17,-28521.36,-25316.91,-22074.255,-12824.64,-8698.5
1764434113.367392,-1329.75,-11754.855,-40465.53,-28518.84,-25314.255,-22067.415,-12825.72,-8699.175
1764434113.367392,-1324.305,-11751.795,-40464.18,-28513.845,-25310.295,-22057.515,-12827.115,-8700.074999999999
1764434113.367392,-1323.09,-11753.82,-40467.465,-28512.99,-25310.07,-22050.855,-12831.84,-8706.195
1764434113.367392,-1321.9199999999998,-11754.945,-40469.715,-28512.045,-25309.305,-22044.69,-12835.53,-8709.795
1764434113.367392,-1320.165,-11753.82,-40468.32,-28510.965,-25307.19,-22043.115,-12834.63,-8708.039999999999
1764434113.3689277,-1321.785,-11753.955,-40466.745,-28512.27,-25308.27,-22047.165,-12832.92,-8705.654999999999
1764434113.3689277,-1322.28,-11751.48,-40462.02,-28511.235,-25306.695,-22050.855,-12827.385,-8698.725
1764434113.3689277,-1326.78,-11753.505,-40461.345,-28515.555,-25310.205,-22061.43,-12824.415,-8695.89
1764434113.3689277,-1326.375,-11750.805,-40457.97,-28515.015,-25308.99,-22065.57,-12819.195,-8689.904999999999
1764434113.3689277,-1330.02,-11753.865,-40461.84,-28518.795,-25312.365,-22068.765,-12822.3,-8693.324999999999
1764434113.3689277,-1331.055,-11756.745,-40465.755,-28520.865,-25314.435,-22066.29,-12826.215,-8698.86
1764434113.3699374,-1327.095,-11754.855,-40466.43,-28517.67,-25311.87,-22058.865,-12828.915,-8700.84
1764434113.3699374,-1320.345,-11750.895,-40464.855,-28512.27,-25306.74,-22047.615,-12829.86,-8701.38
1764434113.3699374,-1316.655,-11749.5,-40463.955,-28508.895,-25302.96,-22039.38,-12831.48,-8703.135
1764434113.3699374,-1315.26,-11749.05,-40462.83,-28507.275,-25301.97,-22038.48,-12829.545,-8701.92
1764434113.3699374,-1317.825,-11750.22,-40462.83,-28509.795,-25303.545,-22043.88,-12828.69,-8699.805
1764434113.3699374,-1317.375,-11746.755,-40458.285,-28508.04,-25301.43,-22047.255,-12823.02,-8693.235
1764434113.3699374,-1324.08,-11750.265,-40459.815,-28513.935,-25306.515,-22059.315,-12821.085,-8693.055
1764434113.4148767,-1325.52,-11748.825,-40456.845,-28514.115,-25307.595,-22064.31,-12817.575,-8688.33
1764434113.4148767,-1330.74,-11754.495,-40463.1,-28519.92,-25313.805,-22070.34,-12822.39,-8694.404999999999
1764434113.4148767,-1326.105,-11752.245,-40460.715,-28516.455,-25309.665,-22063.005,-12822.345,-8694.27
1764434113.4148767,-1324.98,-11753.145,-40463.91,-28515.915,-25308.765,-22057.29,-12825.765,-8698.365
1764434113.4148767,-1318.5449999999998,-11748.78,-40463.145,-28509.84,-25304.265,-22045.365,-12827.115,-8698.86
1764434113.4148767,-1319.085,-11752.425,-40467.735,-28511.37,-25306.47,-22042.08,-12833.82,-8705.565
1764434113.4148767,-1317.285,-11751.03,-40466.205,-28509.615,-25304.445,-22040.505,-12832.965,-8704.17
1764434113.4148767,-1321.29,-11753.73,-40467.015,-28512.855,-25308.27,-22048.38,-12832.065,-8703.72
1764434113.4148767,-1320.255,-11750.805,-40462.02,-28511.505,-25306.65,-22051.935,-12826.17,-8697.015
1764434113.4158878,-1322.91,-11750.355,-40459.365,-28512.99,-25308.315,-22060.08,-12820.995,-8692.244999999999
1764434113.4158878,-1324.44,-11749.725,-40457.565,-28514.295,-25309.665,-22066.02,-12817.26,-8688.285
1764434113.4158878,-1329.345,-11754.045,-40462.965,-28520.595,-25315.2,-22071.105,-12821.715,-8693.73
1764434113.4158878,-1327.5449999999998,-11753.415,-40463.73,-28519.47,-25314.075,-22065.705,-12823.965,-8696.61
1764434113.4158878,-1323.09,-11751.39,-40463.955,-28515.375,-25310.745,-22056.705,-12826.395,-8697.51
1764434113.4158878,-1318.68,-11749.59,-40464.72,-28511.73,-25306.83,-22046.58,-12828.915,-8699.715
1764434113.4158878,-1316.745,-11750.715,-40465.935,-28510.83,-25305.66,-22040.91,-12832.56,-8703.36
1764434113.4158878,-1316.385,-11751.255,-40465.53,-28510.695,-25305.975,-22041.27,-12831.93,-8703.404999999999
1764434113.4158878,-1316.655,-11750.355,-40462.74,-28510.245,-25305.39,-22044.645,-12828.87,-8700.435
1764434113.4158878,-1323.18,-11754.09,-40464.36,-28515.555,-25310.79,-22054.815,-12828.42,-8700.21
1764434113.4158878,-1325.655,-11752.92,-40461.705,-28517.265,-25312.32,-22063.815,-12823.965,-8695.215
1764434113.4158878,-1325.25,-11749.275,-40457.34,-28516.095,-25310.745,-22067.73,-12818.385,-8689.904999999999
1764434113.4158878,-1331.955,-11755.62,-40463.865,-28523.025,-25317.99,-22073.985,-12824.73,-8696.25
1764434113.4158878,-1331.235,-11756.385,-40466.88,-28522.98,-25318.53,-22070.385,-12828.69,-8699.715
1764434113.4158878,-1327.32,-11753.91,-40466.79,-28518.345,-25315.425,-22061.34,-12830.04,-8701.289999999999
1764434113.4600186,-1324.035,-11754.63,-40468.815,-28516.815,-25313.94,-22053.195,-12833.73,-8706.015
1764434113.4610407,-1317.33,-11751.795,-40466.79,-28511.055,-25309.17,-22043.205,-12833.865,-8705.43
1764434113.4610407,-1317.105,-11752.335,-40466.34,-28510.74,-25308.99,-22043.655,-12833.145,-8704.664999999999
1764434113.4610407,-1317.195,-11751.165,-40463.235,-28509.705,-25307.865,-22046.895,-12829.77,-8700.255
1764434113.4610407,-1322.19,-11753.73,-40464.27,-28514.385,-25311.33,-22056.39,-12828.015,-8699.445
1764434113.4610407,-1323.63,-11752.065,-40460.445,-28514.565,-25311.105,-22063.545,-12823.065,-8692.965
1764434113.4610407,-1320.705,-11747.295,-40454.37,-28511.28,-25308.495,-22064.85,-12814.965,-8685.27
1764434113.4610407,-1324.845,-11750.265,-40458.015,-28515.33,-25311.96,-22068.09,-12817.89,-8689.59
1764434113.4610407,-1321.605,-11748.06,-40457.655,-28512.18,-25309.395,-22061.43,-12819.015,-8690.58
1764434113.4610407,-1319.445,-11748.015,-40460.04,-28510.74,-25308.495,-22055.715,-12822.435,-8694.045
1764434113.4610407,-1316.79,-11748.15,-40461.75,-28508.355,-25306.335,-22047.165,-12826.665,-8698.455
1764434113.4610407,-1317.465,-11751.705,-40466.385,-28510.335,-25307.505,-22044.105,-12833.28,-8705.835
1764434113.4610407,-1316.34,-11750.715,-40464.27,-28508.985,-25305.435,-22042.53,-12831.975,-8703.315
1764434113.4615562,-1319.04,-11752.29,-40463.145,-28510.74,-25307.055,-22048.425,-12830.445,-8701.02
1764434113.4615562,-1320.48,-11751.66,-40461.12,-28510.965,-25308.09,-22054.32,-12825.765,-8697.015
1764434113.4615562,-1321.74,-11749.68,-40457.115,-28511.055,-25307.19,-22060.71,-12820.365,-8690.895
1764434113.4615562,-1323.63,-11748.33,-40455.045,-28512.18,-25307.91,-22066.29,-12816.63,-8687.295
1764434113.4615562,-1327.95,-11752.83,-40460.4,-28516.905,-25312.635,-22069.845,-12820.365,-8692.154999999999
1764434113.4615562,-1325.97,-11752.335,-40461.84,-28516.005,-25311.465,-22065.21,-12822.615,-8694.585
1764434113.4615562,-1323.18,-11751.975,-40462.695,-28513.845,-25310.43,-22059.09,-12825.81,-8698.095
1764434113.462571,-1318.23,-11750.445,-40462.47,-28509.615,-25306.875,-22048.56,-12827.655,-8701.199999999999
1764434113.4635727,-1315.98,-11750.715,-40463.19,-28507.59,-25304.715,-22041.99,-12831.165,-8703.99
1764434113.5090024,-1311.93,-11745.945,-40458.735,-28503.09,-25300.62,-22037.355,-12827.925,-8698.994999999999
1764434113.5094037,-1315.845,-11748.51,-40459.005,-28506.24,-25302.555,-22043.79,-12827.115,-8697.51
1764434113.5094037,-1320.57,-11751.12,-40460.22,-28510.155,-25305.705,-22053.51,-12825.855,-8696.34
1764434113.5094037,-1321.155,-11748.465,-40455.585,-28510.065,-25304.535,-22059.675,-12819.465,-8689.994999999999
1764434113.5094037,-1323.495,-11748.87,-40454.775,-28513.08,-25306.47,-22065.705,-12815.955,-8687.205
1764434113.510016,-1330.02,-11754.765,-40461.48,-28519.47,-25312.815,-22070.88,-12821.76,-8694.675
1764434113.510016,-1328.76,-11754.045,-40462.965,-28517.715,-25312.14,-22065.975,-12824.775,-8696.88
1764434113.510016,-1325.025,-11752.38,-40463.505,-28515.42,-25309.215,-22058.415,-12827.52,-8699.715
1764434113.510016,-1319.31,-11750.04,-40462.92,-28511.055,-25305.48,-22047.525,-12829.095,-8700.93
1764434113.510016,-1318.455,-11751.48,-40465.44,-28510.155,-25305.165,-22042.98,-12832.47,-8705.295
1764434113.510016,-1315.35,-11749.41,-40462.56,-28506.33,-25302.375,-22041.045,-12830.805,-8702.595
1764434113.510016,-1320.21,-11752.83,-40464.585,-28510.38,-25306.335,-22048.515,-12830.805,-8702.73
1764434113.5110133,-1321.38,-11752.38,-40462.29,-28511.055,-25306.74,-22054.545,-12826.62,-8698.23
1764434113.5110133,-1321.875,-11750.445,-40457.385,-28510.605,-25305.615,-22060.125,-12821.085,-8691.074999999999
1764434113.5110133,-1325.97,-11751.075,-40457.655,-28513.62,-25307.595,-22066.605,-12819.375,-8689.77
1764434113.5110133,-1331.415,-11755.935,-40463.73,-28519.29,-25313.625,-22071.69,-12824.775,-8695.89
1764434113.5110133,-1325.79,-11752.11,-40462.155,-28515.375,-25309.98,-22063.455,-12824.64,-8696.025
1764434113.5110133,-1323.0449999999998,-11751.84,-40464.315,-28513.845,-25307.955,-22056.255,-12827.52,-8699.49
1764434113.5110133,-1321.515,-11753.37,-40468.275,-28513.215,-25307.73,-22049.46,-12832.695,-8705.654999999999
1764434113.5110133,-1317.915,-11752.29,-40467.645,-28509.66,-25304.4,-22042.125,-12834.585,-8706.69
1764434113.5110133,-1318.635,-11753.28,-40467.69,-28509.57,-25304.76,-22043.52,-12834.63,-8706.465
1764434113.5110133,-1320.255,-11754.045,-40465.98,-28510.155,-25305.435,-22048.245,-12833.64,-8703.494999999999
1764434113.5110133,-1324.62,-11755.89,-40465.395,-28512.9,-25308.09,-22056.795,-12829.86,-8701.02
1764434113.5110133,-1327.14,-11754.855,-40462.47,-28515.105,-25308.54,-22064.445,-12824.955,-8695.755
1764434113.5554454,-1325.79,-11751.66,-40457.745,-28513.89,-25307.415,-22067.055,-12819.915,-8690.039999999999
1764434113.5554454,-1328.85,-11753.64,-40460.895,-28517.715,-25310.655,-22069.755,-12822.57,-8693.414999999999
1764434113.5554454,-1324.845,-11751.615,-40460.265,-28514.295,-25307.19,-22063.005,-12823.11,-8693.955
1764434113.5554454,-1324.035,-11753.37,-40464.09,-28514.475,-25307.64,-22058.37,-12827.565,-8698.904999999999
1764434113.5554454,-1321.695,-11753.19,-40465.98,-28512.315,-25306.155,-22050.09,-12831.75,-8702.82
1764434113.5554454,-1317.825,-11751.84,-40465.305,-28509.165,-25302.465,-22043.07,-12833.235,-8703.945
1764434113.5554454,-1315.305,-11748.87,-40461.795,-28506.105,-25299.855,-22039.965,-12831.075,-8700.93
1764434113.5554454,-1318.815,-11750.355,-40461.39,-28507.905,-25303.455,-22047.12,-12829.23,-8699.265
1764434113.5569737,-1317.6,-11747.295,-40456.485,-28505.52,-25300.575,-22049.91,-12821.04,-8691.48
1764434113.5569737,-1321.11,-11748.24,-40455.63,-28508.805,-25303.14,-22059.99,-12816.81,-8688.015
1764434113.5569737,-1319.49,-11744.325,-40451.4,-28507.32,-25300.8,-22062.285,-12810.465,-8682.074999999999
1764434113.5569737,-1323.99,-11748.195,-40455.99,-28512.27,-25305.39,-22066.47,-12815.19,-8686.664999999999
1764434113.5569737,-1322.37,-11748.33,-40458.15,-28512.09,-25304.895,-22061.7,-12818.385,-8689.904999999999
1764434113.5569737,-1319.355,-11747.745,-40460.31,-28509.525,-25302.42,-22054.545,-12821.31,-8693.235
1764434113.5569737,-1316.79,-11747.475,-40462.74,-28508.04,-25301.25,-22046.49,-12826.62,-8697.914999999999
1764434113.5569737,-1312.965,-11746.035,-40461.93,-28505.25,-25298.955,-22038.525,-12828.555,-8699.58
1764434113.5569737,-1309.455,-11743.74,-40457.655,-28501.605,-25295.355,-22036.095,-12823.965,-8695.35
1764434113.5569737,-1307.205,-11739.87,-40452.795,-28498.905,-25291.395,-22037.04,-12818.07,-8688.015
1764434113.5569737,-1310.6699999999998,-11741.715,-40452.93,-28501.605,-25294.23,-22045.32,-12816.27,-8685.63
1764434113.5569737,-1315.71,-11744.235,-40452.48,-28504.665,-25298.325,-22055.985,-12813.03,-8683.11
1764434113.5569737,-1316.205,-11742.345,-40450.005,-28505.61,-25298.055,-22059.27,-12809.34,-8679.015
1764434113.5575943,-1319.445,-11744.505,-40453.245,-28509.705,-25300.395,-22061.655,-12812.715,-8683.11
1764434113.5575943,-1319.805,-11746.215,-40456.845,-28510.29,-25301.88,-22059.045,-12817.215,-8688.96
1764434113.5575943,-1313.73,-11742.885,-40455.585,-28504.35,-25297.38,-22048.74,-12817.8,-8689.32
1764434113.6012456,-1309.5,-11741.31,-40456.665,-28500.795,-25294.365,-22038.84,-12820.23,-8691.885
1764434113.6012456,-1308.78,-11742.615,-40459.14,-28500.705,-25293.42,-22034.52,-12824.145,-8695.395
1764434113.6012456,-1312.11,-11746.305,-40461.21,-28503.675,-25296.705,-22038.93,-12826.44,-8697.824999999999
1764434113.6012456,-1313.1,-11746.305,-40458.915,-28503.63,-25296.885,-22043.43,-12823.29,-8693.955
1764434113.6012456,-1316.745,-11748.015,-40458.735,-28506.69,-25299.45,-22051.35,-12821.13,-8691.975
1764434113.6012456,-1319.895,-11747.115,-40455.99,-28508.31,-25300.845,-22059.54,-12816.495,-8687.34
1764434113.6012456,-1317.645,-11742.57,-40451.355,-28506.33,-25299.135,-22061.205,-12810.69,-8681.22
1764434113.6012456,-1319.355,-11744.82,-40453.65,-28508.67,-25300.89,-22062.6,-12812.805,-8683.74
1764434113.6012456,-1318.455,-11746.53,-40456.53,-28508.76,-25301.115,-22059.045,-12816.09,-8687.789999999999
1764434113.6012456,-1316.385,-11746.8,-40458.78,-28507.68,-25300.44,-22052.295,-12820.995,-8691.345
1764434113.6012456,-1315.08,-11748.375,-40462.65,-28507.005,-25300.215,-22044.915,-12826.89,-8697.33
1764434113.6012456,-1315.395,-11750.445,-40465.89,-28506.42,-25301.115,-22041.225,-12830.58,-8701.83
1764434113.6022637,-1310.94,-11745.63,-40460.76,-28501.74,-25296.66,-22037.265,-12826.08,-8696.699999999999
1764434113.6022637,-1310.76,-11744.505,-40456.665,-28501.515,-25296.12,-22041.045,-12821.985,-8691.975
1764434113.6022637,-1313.055,-11745.27,-40454.55,-28503.45,-25297.02,-22047.525,-12817.89,-8687.475
1764434113.603287,-1317.105,-11745.54,-40453.515,-28506.42,-25298.055,-22056.885,-12813.075,-8683.92
1764434113.603287,-1314.855,-11741.31,-40448.655,-28504.08,-25295.49,-22058.37,-12807.09,-8678.16
1764434113.603287,-1317.33,-11743.245,-40451.535,-28506.42,-25298.01,-22059.315,-12810.105,-8681.67
1764434113.603287,-1315.755,-11742.84,-40453.47,-28505.97,-25297.335,-22054.5,-12813.57,-8685.315
1764434113.603287,-1314.27,-11743.605,-40456.665,-28505.115,-25296.57,-22047.93,-12817.845,-8689.14
1764434113.604279,-1313.055,-11745.81,-40460.805,-28504.665,-25296.345,-22041.495,-12823.38,-8695.44
1764434113.604279,-1306.53,-11741.04,-40457.52,-28497.24,-25290.27,-22032.27,-12821.715,-8693.595
1764434113.604279,-1305.72,-11739.195,-40454.955,-28495.17,-25289.19,-22032.315,-12819.69,-8691.029999999999
1764434113.604279,-1309.995,-11742.165,-40454.505,-28498.545,-25291.665,-22039.74,-12818.34,-8689.23
1764434113.6456535,-1309.95,-11739.285,-40449.6,-28497.69,-25290.27,-22043.7,-12812.715,-8682.84
1764434113.6456535,-1312.245,-11739.105,-40447.08,-28499.49,-25291.575,-22051.98,-12807.765,-8679.105
1764434113.6456535,-1314.765,-11740.59,-40448.16,-28502.145,-25294.815,-22059.135,-12805.92,-8677.845
1764434113.6461685,-1320.345,-11746.08,-40454.685,-28507.95,-25300.44,-22063.905,-12811.32,-8683.74
1764434113.6461685,-1318.185,-11745.315,-40455.585,-28506.915,-25298.91,-22058.235,-12814.425,-8686.44
1764434113.6461685,-1312.155,-11741.49,-40452.93,-28502.28,-25294.095,-22048.47,-12816.36,-8687.295
1764434113.6461685,-1308.285,-11742.12,-40455.765,-28501.065,-25293.69,-22040.46,-12820.59,-8691.93
1764434113.6461685,-1308.24,-11744.19,-40458.645,-28500.885,-25293.87,-22036.545,-12824.19,-8696.115
1764434113.64671,-1306.08,-11741.535,-40455.135,-28497.735,-25290.9,-22034.475,-12821.13,-8692.875
1764434113.64671,-1311.12,-11744.865,-40456.665,-28501.02,-25295.13,-22042.62,-12820.32,-8693.279999999999
1764434113.64671,-1312.65,-11744.46,-40454.1,-28501.74,-25295.625,-22048.695,-12816.36,-8688.105
1764434113.64671,-1311.255,-11739.87,-40446.9,-28500.21,-25292.385,-22053.51,-12808.395,-8679.24
1764434113.64671,-1314.27,-11739.465,-40446.405,-28502.685,-25294.59,-22060.08,-12805.515,-8677.89
1764434113.6477275,-1315.845,-11740.815,-40449.24,-28504.755,-25296.66,-22060.62,-12808.305,-8681.13
1764434113.6477275,-1314.315,-11740.185,-40451.04,-28503.99,-25294.995,-22054.77,-12811.77,-8683.47
1764434113.6477275,-1311.48,-11740.005,-40452.345,-28502.19,-25293.78,-22047.84,-12815.28,-8687.115
1764434113.6477275,-1307.925,-11740.815,-40455.045,-28500.48,-25292.655,-22039.695,-12819.375,-8692.154999999999
1764434113.6477275,-1309.77,-11744.595,-40459.185,-28501.875,-25294.545,-22037.67,-12825.045,-8697.51
1764434113.6477275,-1311.66,-11746.08,-40459.365,-28503.54,-25295.805,-22040.775,-12826.17,-8697.15
1764434113.6477275,-1309.365,-11741.31,-40453.38,-28500.3,-25292.34,-22040.685,-12819.195,-8689.77
1764434113.6477275,-1310.6699999999998,-11740.41,-40450.59,-28501.245,-25292.205,-22046.265,-12814.155,-8684.64
1764434113.6487458,-1313.415,-11740.77,-40448.52,-28503.09,-25293.375,-22055.22,-12809.34,-8680.41
1764434113.692799,-1317.69,-11742.93,-40450.365,-28506.735,-25297.38,-22063.59,-12809.565,-8680.455
1764434113.692799,-1320.84,-11746.575,-40454.055,-28510.155,-25301.295,-22066.02,-12813.705,-8684.685
1764434113.692799,-1321.065,-11748.87,-40458.015,-28512.045,-25302.69,-22062.69,-12818.25,-8690.535
1764434113.692799,-1318.59,-11747.88,-40459.815,-28509.75,-25301.34,-22055.805,-12822.345,-8693.73
1764434113.692799,-1314.495,-11746.89,-40460.76,-28506.15,-25298.415,-22046.49,-12826.08,-8696.97
1764434113.692799,-1308.645,-11743.155,-40458.24,-28500.615,-25292.745,-22036.455,-12825.405,-8695.44
1764434113.692799,-1308.4199999999998,-11742.48,-40456.08,-28499.355,-25290.99,-22036.59,-12823.605,-8692.425
1764434113.692799,-1311.165,-11743.29,-40454.73,-28500.93,-25292.25,-22041.945,-12820.815,-8689.815
1764434113.692799,-1315.08,-11745.54,-40455.27,-28504.44,-25296.165,-22051.575,-12817.845,-8687.97
1764434113.692799,-1315.755,-11743.245,-40451.265,-28504.665,-25295.805,-22058.55,-12811.86,-8681.445
1764434113.692799,-1314.54,-11739.96,-40446.945,-28502.955,-25293.33,-22060.44,-12806.775,-8676.539999999999
1764434113.692799,-1318.095,-11742.885,-40452.03,-28506.645,-25297.155,-22062.87,-12810.375,-8681.22
1764434113.692799,-1312.965,-11739.78,-40451.085,-28502.865,-25294.005,-22054.86,-12811.005,-8681.175
1764434113.692799,-1310.535,-11740.005,-40453.47,-28500.975,-25292.745,-22047.93,-12815.46,-8684.685
1764434113.6938095,-1310.355,-11742.795,-40458.465,-28501.38,-25293.78,-22041.405,-12821.445,-8691.525
1764434113.6938095,-1308.105,-11743.695,-40458.51,-28499.49,-25292.52,-22036.635,-12823.11,-8692.875
1764434113.6938095,-1308.195,-11744.19,-40457.655,-28499.805,-25292.205,-22037.355,-12822.93,-8691.66
1764434113.6938095,-1309.005,-11742.795,-40455.36,-28500.075,-25291.89,-22041.405,-12819.69,-8687.925
1764434113.6938095,-1308.645,-11739.42,-40449.87,-28498.59,-25289.64,-22045.05,-12813.255,-8681.265
1764434113.6938095,-1313.235,-11740.815,-40449.465,-28501.92,-25292.25,-22055.085,-12809.655,-8677.98
1764434113.6938095,-1312.155,-11738.52,-40445.955,-28500.39,-25290.765,-22057.92,-12805.065,-8672.895
1764434113.6938095,-1314.585,-11740.86,-40448.745,-28502.415,-25294.005,-22058.955,-12808.665,-8676.539999999999
1764434113.7418694,-1315.035,-11743.29,-40453.74,-28504.89,-25296.12,-22056.3,-12813.615,-8683.47
1764434113.7428706,-1309.77,-11740.815,-40452.975,-28501.245,-25291.845,-22047.255,-12815.775,-8684.64
1764434113.7428706,-1306.89,-11740.68,-40454.955,-28499.58,-25290.09,-22038.84,-12820.455,-8688.869999999999
1764434113.7438674,-1305.585,-11741.445,-40455.765,-28497.87,-25289.055,-22033.89,-12823.155,-8691.119999999999
1764434113.7438674,-1307.205,-11743.38,-40455.945,-28499.265,-25291.035,-22036.815,-12824.145,-8691.975
1764434113.7438674,-1311.48,-11745.675,-40456.89,-28502.82,-25294.005,-22044.915,-12823.515,-8691.885
1764434113.7438674,-1316.7,-11748.33,-40457.205,-28506.645,-25296.615,-22054.095,-12821.31,-8690.265
1764434113.7438674,-1320.03,-11748.645,-40454.775,-28509.12,-25298.415,-22062.375,-12816.675,-8685.585
1764434113.7438674,-1320.66,-11747.745,-40452.255,-28510.38,-25298.955,-22066.29,-12814.965,-8682.615
1764434113.7438674,-1325.655,-11753.505,-40458.51,-28516.59,-25303.95,-22070.745,-12821.085,-8689.68
1764434113.7438674,-1322.145,-11751.3,-40459.095,-28513.665,-25301.475,-22064.22,-12822.3,-8690.58
1764434113.7438674,-1316.07,-11746.44,-40457.205,-28507.5,-25296.93,-22053.195,-12823.02,-8691.029999999999
1764434113.7438674,-1310.715,-11743.965,-40457.52,-28503.315,-25293.6,-22042.62,-12825.63,-8693.46
1764434113.7438674,-1311.12,-11746.395,-40459.905,-28504.17,-25293.69,-22040.145,-12830.49,-8696.744999999999
1764434113.7438674,-1311.345,-11746.845,-40459.365,-28503.9,-25292.97,-22040.865,-12829.41,-8695.98
1764434113.7438674,-1316.835,-11750.31,-40460.625,-28508.13,-25297.245,-22049.865,-12828.42,-8696.565
1764434113.7438674,-1316.835,-11747.43,-40455.945,-28506.735,-25296.075,-22054.005,-12822.255,-8690.49
1764434113.7438674,-1322.775,-11749.455,-40456.62,-28511.595,-25299.9,-22064.805,-12820.455,-8688.465
1764434113.7438674,-1324.215,-11748.645,-40455.675,-28512.855,-25300.395,-22069.17,-12818.97,-8685.63
1764434113.7438674,-1329.165,-11754.27,-40461.84,-28518.345,-25305.57,-22073.04,-12824.955,-8693.145
1764434113.7438674,-1324.1699999999998,-11750.58,-40460.22,-28514.16,-25301.43,-22064.4,-12825.225,-8692.965
1764434113.7438674,-1323.72,-11751.885,-40464.09,-28514.565,-25301.655,-22058.19,-12829.995,-8698.77
1764434113.7438674,-1316.2949999999998,-11748.825,-40463.46,-28509.93,-25297.11,-22046.94,-12831.435,-8700.3
1764434113.7448716,-1309.32,-11744.19,-40459.32,-28503.945,-25290.945,-22037.535,-12829.23,-8697.51
1764434113.7894447,-1309.185,-11743.38,-40457.43,-28503.045,-25290.495,-22038.57,-12827.205,-8694.945
1764434113.7894447,-1313.955,-11746.17,-40457.835,-28506.105,-25294.14,-22047.75,-12826.395,-8693.19
1764434113.7894447,-1319.355,-11748.825,-40459.095,-28510.92,-25298.1,-22057.38,-12824.19,-8691.795
1764434113.7894447,-1320.93,-11747.16,-40454.685,-28511.595,-25297.515,-22063.545,-12818.88,-8685.99
1764434113.7894447,-1322.685,-11747.745,-40454.64,-28513.485,-25299.135,-22068.585,-12817.44,-8684.46
1764434113.7894447,-1325.475,-11751.165,-40459.545,-28517.805,-25303.32,-22070.925,-12822.48,-8689.545
1764434113.7904336,-1324.305,-11752.29,-40462.56,-28516.86,-25303.23,-22066.335,-12826.215,-8693.64
1764434113.7904336,-1323.09,-11753.955,-40465.845,-28516.005,-25303.23,-22061.025,-12830.67,-8699.895
1764434113.7904336,-1316.565,-11750.535,-40464.27,-28510.695,-25299.09,-22049.865,-12832.47,-8700.84
1764434113.7904336,-1316.34,-11752.245,-40466.34,-28511.1,-25299.09,-22046.58,-12835.305,-8704.125
1764434113.7904336,-1314.63,-11749.005,-40461.975,-28507.635,-25295.445,-22045.5,-12831.345,-8699.265
1764434113.7904336,-1318.59,-11751.705,-40462.425,-28510.425,-25298.37,-22051.89,-12829.95,-8698.32
1764434113.7904336,-1319.94,-11750.625,-40459.59,-28510.29,-25297.56,-22057.47,-12824.64,-8693.82
1764434113.791433,-1321.47,-11748.735,-40455.945,-28510.695,-25297.605,-22064.13,-12820.23,-8687.52
1764434113.791433,-1324.305,-11749.635,-40455.225,-28513.305,-25299.495,-22069.125,-12819.195,-8685.72
1764434113.7919495,-1327.05,-11752.515,-40459.005,-28516.365,-25303.23,-22070.655,-12822.345,-8690.715
1764434113.7919495,-1324.44,-11751.255,-40461.12,-28514.475,-25302.015,-22065.03,-12825.045,-8694.539999999999
1764434113.7919495,-1324.89,-11754.315,-40465.89,-28516.14,-25304.31,-22061.61,-12832.38,-8701.74
1764434113.7919495,-1318.095,-11750.49,-40463.73,-28510.11,-25298.505,-22048.74,-12833.28,-8701.47
1764434113.7919495,-1315.575,-11750.22,-40464.18,-28507.545,-25295.94,-22043.61,-12835.305,-8702.775
1764434113.7919495,-1314.72,-11748.42,-40462.065,-28505.745,-25294.68,-22044.195,-12832.38,-8699.805
1764434113.7919495,-1319.895,-11751.03,-40462.92,-28510.02,-25297.74,-22052.97,-12830.805,-8698.904999999999
1764434113.7919495,-1321.83,-11750.49,-40460.805,-28511.37,-25298.235,-22059.585,-12826.08,-8694.18
1764434113.7919495,-1324.755,-11749.86,-40458.555,-28513.395,-25300.215,-22067.775,-12822.48,-8689.23
1764434113.8359177,-1324.53,-11747.88,-40456.53,-28512.855,-25299.36,-22070.205,-12819.87,-8685.945
1764434113.8359177,-1327.68,-11750.805,-40460.805,-28516.14,-25303.095,-22072.41,-12824.28,-8692.38
1764434113.8359177,-1327.365,-11752.245,-40464.0,-28517.445,-25303.95,-22068.63,-12827.79,-8696.97
1764434113.8359177,-1322.145,-11750.13,-40463.82,-28513.845,-25300.485,-22060.08,-12829.815,-8698.365
1764434113.8359177,-1317.24,-11749.59,-40464.765,-28509.705,-25297.245,-22050.225,-12833.505,-8701.605
1764434113.8359177,-1317.69,-11751.345,-40466.835,-28509.795,-25298.28,-22046.85,-12837.15,-8705.565
1764434113.8359177,-1317.735,-11751.12,-40465.53,-28509.3,-25297.74,-22048.47,-12834.9,-8703.27
1764434113.8359177,-1318.68,-11749.185,-40462.245,-28509.39,-25297.47,-22052.475,-12831.165,-8698.59
1764434113.8369317,-1318.725,-11746.575,-40456.89,-28508.76,-25295.805,-22056.615,-12824.955,-8691.705
1764434113.8369317,-1323.36,-11748.015,-40456.305,-28512.09,-25297.785,-22065.84,-12822.03,-8688.465
1764434113.8369317,-1327.41,-11750.22,-40457.79,-28516.05,-25300.89,-22072.545,-12822.48,-8688.914999999999
1764434113.8369317,-1332.36,-11756.115,-40463.955,-28521.63,-25306.83,-22076.28,-12828.825,-8696.115
1764434113.8369317,-1328.895,-11754.27,-40464.855,-28518.705,-25304.67,-22069.89,-12830.355,-8698.5
1764434113.8369317,-1326.24,-11753.82,-40466.79,-28516.995,-25303.68,-22062.24,-12834.135,-8702.414999999999
1764434113.8369317,-1319.175,-11749.545,-40464.855,-28510.56,-25297.83,-22049.82,-12834.99,-8702.145
1764434113.8369317,-1320.345,-11752.695,-40468.185,-28512.45,-25299.72,-22049.1,-12839.04,-8706.465
1764434113.8369317,-1320.345,-11752.47,-40466.52,-28512.045,-25299.63,-22050.63,-12837.33,-8704.395
1764434113.8369317,-1322.865,-11753.865,-40465.35,-28513.17,-25300.89,-22056.795,-12834.225,-8701.02
1764434113.8369317,-1322.82,-11751.84,-40461.255,-28511.64,-25299.27,-22062.015,-12828.105,-8694.99
1764434113.8369317,-1323.585,-11748.825,-40456.44,-28511.595,-25297.605,-22068.54,-12822.21,-8688.42
1764434113.8369317,-1325.385,-11749.365,-40456.755,-28514.025,-25298.91,-22073.22,-12820.59,-8687.699999999999
1764434113.8381195,-1325.61,-11750.49,-40458.33,-28515.195,-25300.8,-22072.5,-12822.615,-8690.67
1764434113.8381195,-1323.315,-11749.23,-40459.365,-28512.945,-25299.855,-22065.795,-12825.135,-8692.695
1764434113.838628,-1322.28,-11751.3,-40463.505,-28512.765,-25299.225,-22060.53,-12830.58,-8698.32
1764434113.8791263,-1321.065,-11753.46,-40467.645,-28512.63,-25299.36,-22053.6,-12836.07,-8704.574999999999
1764434113.8791263,-1318.32,-11752.605,-40465.935,-28509.165,-25296.975,-22047.12,-12837.465,-8705.115
1764434113.8801265,-1320.93,-11754.495,-40466.565,-28510.38,-25297.965,-22050.99,-12837.06,-8705.295
1764434113.8801265,-1322.595,-11753.64,-40464.855,-28511.685,-25298.325,-22056.21,-12832.92,-8702.145
1764434113.8801265,-1323.72,-11751.93,-40462.47,-28512.09,-25298.505,-22062.24,-12828.465,-8696.25
1764434113.8801265,-1326.4199999999998,-11752.29,-40459.995,-28513.98,-25299.945,-22070.61,-12824.19,-8691.39
1764434113.8811257,-1324.53,-11749.14,-40456.215,-28513.215,-25297.29,-22070.61,-12819.465,-8686.215
1764434113.8811257,-1327.32,-11752.245,-40460.76,-28515.825,-25299.81,-22071.375,-12823.56,-8691.525
1764434113.8811257,-1329.21,-11755.395,-40466.205,-28517.985,-25302.195,-22068.27,-12829.77,-8699.039999999999
1764434113.8811257,-1325.655,-11753.955,-40468.005,-28515.24,-25299.72,-22059.18,-12833.19,-8701.965
1764434113.8811257,-1318.365,-11749.725,-40465.26,-28508.535,-25293.15,-22046.445,-12833.415,-8702.775
1764434113.882125,-1320.435,-11753.145,-40468.545,-28510.155,-25294.545,-22045.005,-12838.095,-8707.59
1764434113.882125,-1318.77,-11751.615,-40465.215,-28507.14,-25292.07,-22044.42,-12834.495,-8703.315
1764434113.882125,-1317.195,-11748.735,-40459.545,-28504.485,-25288.38,-22046.67,-12828.465,-8696.789999999999
1764434113.882125,-1320.57,-11749.185,-40458.33,-28507.59,-25291.17,-22055.085,-12825.36,-8694.0
1764434113.8831253,-1320.7949999999998,-11746.935,-40453.875,-28507.95,-25291.26,-22061.97,-12819.33,-8686.44
1764434113.8831253,-1321.695,-11746.215,-40453.65,-28509.705,-25293.285,-22066.38,-12817.395,-8684.82
1764434113.8831253,-1324.305,-11749.185,-40457.88,-28513.71,-25297.47,-22068.315,-12822.39,-8690.355
1764434113.8841257,-1324.305,-11750.985,-40461.84,-28515.24,-25299.45,-22065.93,-12827.88,-8695.71
1764434113.8841257,-1324.1699999999998,-11753.46,-40466.43,-28515.645,-25301.34,-22061.52,-12833.775,-8702.775
1764434113.8841257,-1317.465,-11750.31,-40464.72,-28509.795,-25296.705,-22050.045,-12835.755,-8703.404999999999
1764434113.8841257,-1320.075,-11753.775,-40469.04,-28512.27,-25299.63,-22051.035,-12841.11,-8708.625
1764434113.924974,-1319.265,-11751.795,-40467.105,-28511.82,-25299.45,-22053.105,-12838.59,-8705.61
1764434113.924974,-1318.68,-11750.22,-40463.28,-28512.72,-25299.99,-22059.0,-12834.72,-8700.93
1764434113.924974,-1318.77,-11747.79,-40458.15,-28511.955,-25299.315,-22064.49,-12828.825,-8693.595
1764434113.924974,-1321.785,-11747.565,-40455.855,-28513.845,-25300.89,-22073.715,-12824.46,-8688.779999999999
1764434113.924974,-1323.765,-11748.645,-40456.53,-28517.67,-25304.58,-22079.97,-12824.325,-8688.645
1764434113.924974,-1327.455,-11752.695,-40462.335,-28522.215,-25309.53,-22081.86,-12829.995,-8695.035
1764434113.924974,-1328.94,-11756.205,-40467.78,-28523.565,-25311.96,-22078.665,-12835.305,-8701.83
1764434113.924974,-1326.33,-11756.745,-40469.31,-28521.855,-25308.765,-22070.475,-12839.58,-8705.25
1764434113.924974,-1318.455,-11751.345,-40464.945,-28514.07,-25301.16,-22056.48,-12837.96,-8704.305
1764434113.924974,-1317.015,-11751.525,-40465.53,-28511.775,-25299.945,-22052.655,-12838.95,-8705.789999999999
1764434113.924974,-1318.59,-11753.505,-40466.07,-28512.63,-25300.485,-22054.815,-12838.275,-8705.565
1764434113.924974,-1318.995,-11751.795,-40462.155,-28511.82,-25297.965,-22057.83,-12833.505,-8699.805
1764434113.924974,-1323.0,-11752.605,-40460.625,-28514.16,-25298.64,-22064.94,-12828.105,-8696.205
1764434113.924974,-1324.35,-11750.535,-40456.935,-28514.115,-25298.28,-22071.285,-12822.48,-8690.58
1764434113.924974,-1321.425,-11746.215,-40452.66,-28511.55,-25294.905,-22070.745,-12818.16,-8684.775
1764434113.924974,-1325.835,-11751.03,-40458.825,-28516.005,-25298.505,-22072.14,-12823.29,-8691.345
1764434113.9260955,-1327.095,-11754.18,-40464.81,-28518.525,-25300.755,-22068.765,-12829.005,-8698.275
1764434113.9260955,-1324.755,-11754.63,-40466.97,-28516.14,-25299.09,-22060.125,-12832.65,-8702.46
1764434113.9260955,-1320.705,-11753.955,-40467.375,-28512.63,-25296.345,-22050.54,-12836.565,-8705.654999999999
1764434113.9260955,-1317.69,-11753.19,-40466.52,-28510.47,-25294.365,-22046.49,-12837.96,-8705.835
1764434113.9260955,-1319.895,-11754.945,-40467.15,-28511.46,-25296.345,-22050.855,-12836.745,-8705.385
1764434113.9260955,-1322.37,-11755.08,-40465.53,-28512.63,-25297.11,-22056.93,-12833.73,-8701.92
1764434113.9739418,-1324.26,-11754.54,-40463.46,-28514.52,-25298.325,-22064.58,-12830.58,-8697.51
1764434113.9739418,-1325.43,-11751.705,-40458.915,-28514.565,-25297.425,-22070.655,-12824.64,-8691.074999999999
1764434113.9739418,-1327.77,-11753.235,-40460.445,-28517.76,-25300.665,-22075.605,-12825.045,-8691.57
1764434113.9739418,-1331.865,-11757.915,-40465.395,-28521.99,-25305.93,-22078.395,-12831.525,-8698.23
1764434113.9739418,-1325.2949999999998,-11752.785,-40462.335,-28515.51,-25300.125,-22068.225,-12831.075,-8696.61
1764434113.9739418,-1322.37,-11753.19,-40464.765,-28514.61,-25299.045,-22061.115,-12835.395,-8700.75
1764434113.9739418,-1317.96,-11752.11,-40465.35,-28511.91,-25296.345,-22051.26,-12838.005,-8704.215
1764434113.9739418,-1316.925,-11752.335,-40465.53,-28509.795,-25294.455,-22047.615,-12838.365,-8704.89
1764434113.9739418,-1318.05,-11752.515,-40463.415,-28509.57,-25294.635,-22050.855,-12836.52,-8703.494999999999
1764434113.9739418,-1316.61,-11749.005,-40458.555,-28507.905,-25291.98,-22053.105,-12830.085,-8696.16
1764434113.9739418,-1319.895,-11749.59,-40457.43,-28510.83,-25294.05,-22060.98,-12825.945,-8692.38
1764434113.9749603,-1321.605,-11747.745,-40453.155,-28511.595,-25294.275,-22068.045,-12821.49,-8686.98
1764434113.9749603,-1325.655,-11750.67,-40455.99,-28514.97,-25298.055,-22074.165,-12822.795,-8688.42
1764434113.9749603,-1328.895,-11754.945,-40461.84,-28519.02,-25302.105,-22075.11,-12829.095,-8694.315
1764434113.9749603,-1327.77,-11756.295,-40465.035,-28519.695,-25302.285,-22070.97,-12833.415,-8699.445
1764434113.9749603,-1327.995,-11759.355,-40470.3,-28521.18,-25304.22,-22066.245,-12839.895,-8706.914999999999
1764434113.9749603,-1324.485,-11758.59,-40471.74,-28518.03,-25301.43,-22057.56,-12843.405,-8710.47
1764434113.9749603,-1322.73,-11758.815,-40471.155,-28516.455,-25299.54,-22054.05,-12844.53,-8710.695
1764434113.9749603,-1320.84,-11755.44,-40467.51,-28513.08,-25296.12,-22052.745,-12840.12,-8705.835
1764434113.9749603,-1325.745,-11757.915,-40468.05,-28516.905,-25299.99,-22061.16,-12838.32,-8704.8
1764434113.9749603,-1326.96,-11755.665,-40463.865,-28517.085,-25299.945,-22066.83,-12833.19,-8698.904999999999
1764434113.9749603,-1327.23,-11752.29,-40458.915,-28515.555,-25298.73,-22071.69,-12827.52,-8691.345
1764434113.9749603,-1331.145,-11754.99,-40461.3,-28519.29,-25301.925,-22077.045,-12828.105,-8692.695
1764434113.9749603,-1336.14,-11761.155,-40468.23,-28525.77,-25308.135,-22080.915,-12834.585,-8701.065
1764434114.019647,-1332.36,-11759.13,-40468.635,-28523.655,-25306.245,-22074.165,-12836.655,-8702.91
1764434114.019647,-1328.58,-11758.14,-40469.175,-28520.37,-25303.32,-22065.39,-12840.39,-8705.699999999999
1764434114.019647,-1321.065,-11753.865,-40466.745,-28513.485,-25297.38,-22052.835,-12841.065,-8705.88
1764434114.019647,-1319.58,-11754.135,-40467.33,-28512.09,-25296.435,-22049.73,-12841.965,-8707.41
1764434114.019647,-1319.715,-11753.82,-40466.07,-28511.955,-25295.4,-22052.205,-12840.03,-8704.395
1764434114.019647,-1323.495,-11755.98,-40465.89,-28514.97,-25298.1,-22060.62,-12838.68,-8702.279999999999
1764434114.019647,-1326.24,-11756.34,-40464.99,-28517.94,-25300.08,-22068.81,-12833.82,-8698.77
1764434114.019647,-1325.88,-11752.065,-40459.14,-28516.5,-25298.28,-22073.175,-12826.71,-8690.58
1764434114.019647,-1328.04,-11753.235,-40460.085,-28519.155,-25300.35,-22077.585,-12827.34,-8691.029999999999
1764434114.019647,-1329.84,-11756.115,-40464.27,-28521.225,-25303.14,-22077.045,-12831.57,-8695.845
1764434114.019647,-1326.78,-11755.305,-40465.665,-28519.02,-25300.98,-22070.655,-12833.73,-8698.949999999999
1764434114.019647,-1327.185,-11758.14,-40470.84,-28520.1,-25302.15,-22065.345,-12840.345,-8705.97
1764434114.019647,-1320.255,-11754.225,-40468.23,-28513.215,-25296.84,-22053.33,-12841.92,-8705.43
1764434114.019647,-1317.645,-11753.1,-40467.735,-28511.235,-25294.68,-22049.685,-12842.37,-8705.654999999999
1764434114.019647,-1317.915,-11752.605,-40465.08,-28510.47,-25293.645,-22051.44,-12839.355,-8703.315
1764434114.019647,-1323.0449999999998,-11755.71,-40466.295,-28514.205,-25297.92,-22060.62,-12838.68,-8703.404999999999
1764434114.019647,-1324.98,-11754.99,-40463.775,-28515.69,-25298.955,-22067.055,-12833.82,-8698.185
1764434114.019647,-1326.78,-11753.235,-40459.86,-28516.365,-25298.775,-22073.49,-12827.79,-8692.154999999999
1764434114.019647,-1322.595,-11747.07,-40454.28,-28513.08,-25294.32,-22071.555,-12820.59,-8685.63
1764434114.019647,-1325.61,-11750.445,-40459.59,-28517.04,-25298.82,-22072.815,-12825.63,-8691.615
1764434114.019647,-1321.83,-11748.645,-40459.23,-28514.115,-25295.805,-22064.85,-12828.06,-8694.135
1764434114.019647,-1323.945,-11753.325,-40465.8,-28516.14,-25298.01,-22061.88,-12835.98,-8702.279999999999
1764434114.020715,-1318.68,-11751.12,-40465.665,-28511.505,-25294.095,-22051.305,-12837.555,-8703.675
1764434114.020715,-1315.485,-11749.995,-40464.045,-28508.4,-25291.35,-22047.03,-12837.24,-8702.19
1764434114.0633817,-1318.095,-11752.29,-40464.9,-28510.02,-25293.105,-22050.63,-12836.655,-8701.154999999999
1764434114.0633817,-1320.7949999999998,-11752.605,-40462.695,-28510.92,-25293.69,-22055.715,-12834.54,-8698.095
1764434114.0633817,-1326.195,-11755.53,-40463.055,-28515.645,-25297.92,-22066.245,-12832.605,-8697.33
1764434114.0633817,-1327.95,-11754.63,-40460.355,-28517.31,-25298.73,-22074.255,-12827.655,-8692.02
1764434114.0633817,-1325.925,-11751.255,-40457.16,-28515.87,-25296.03,-22074.255,-12824.235,-8687.205
1764434114.0633817,-1329.165,-11755.62,-40461.84,-28520.1,-25299.765,-22075.38,-12830.265,-8694.09
1764434114.0633817,-1329.705,-11757.915,-40466.43,-28521.36,-25301.835,-22072.005,-12835.62,-8700.615
1764434114.0633817,-1323.99,-11754.135,-40465.26,-28516.545,-25297.29,-22061.205,-12837.51,-8701.47
1764434114.0633817,-1319.985,-11753.91,-40466.34,-28514.025,-25295.265,-22052.52,-12840.975,-8705.475
1764434114.0633817,-1314.855,-11750.94,-40462.965,-28509.525,-25290.765,-22047.12,-12839.22,-8702.91
1764434114.0633817,-1316.115,-11751.39,-40462.02,-28509.93,-25290.855,-22050.495,-12837.06,-8700.48
1764434114.0633817,-1317.105,-11750.13,-40459.14,-28509.255,-25289.28,-22054.86,-12832.965,-8695.125
1764434114.0633817,-1320.345,-11750.13,-40457.88,-28512.135,-25290.945,-22063.32,-12829.59,-8692.289999999999
1764434114.0633817,-1327.005,-11754.315,-40460.04,-28518.21,-25297.38,-22075.38,-12828.69,-8691.93
1764434114.0633817,-1327.455,-11753.64,-40460.085,-28518.525,-25297.965,-22077.495,-12827.88,-8690.22
1764434114.0633817,-1329.705,-11755.98,-40464.27,-28520.955,-25300.44,-22077.765,-12832.695,-8695.305
1764434114.0633817,-1327.815,-11755.44,-40465.755,-28519.965,-25299.18,-22071.69,-12836.34,-8698.23
1764434114.0633817,-1327.365,-11756.97,-40470.075,-28520.1,-25299.405,-22065.435,-12842.01,-8704.71
1764434114.0649068,-1319.58,-11751.345,-40466.565,-28512.405,-25292.205,-22051.935,-12840.84,-8703.27
1764434114.0649068,-1316.07,-11749.59,-40464.81,-28509.21,-25288.425,-22047.3,-12840.165,-8701.425
1764434114.0649068,-1316.745,-11749.14,-40463.505,-28509.525,-25288.38,-22050.045,-12837.735,-8698.545
1764434114.0649068,-1323.765,-11753.775,-40466.07,-28515.87,-25294.68,-22060.26,-12837.96,-8699.715
1764434114.11269,-1325.2949999999998,-11753.595,-40463.82,-28517.22,-25295.625,-22067.685,-12833.505,-8695.71
1764434114.11269,-1326.735,-11751.705,-40459.995,-28517.67,-25295.67,-22073.715,-12828.06,-8689.994999999999
1764434114.11269,-1323.72,-11748.285,-40455.765,-28515.375,-25292.34,-22073.04,-12823.605,-8684.64
1764434114.11269,-1327.95,-11753.685,-40462.245,-28519.965,-25297.2,-22075.245,-12830.085,-8692.335
1764434114.1136906,-1323.405,-11750.67,-40461.39,-28515.33,-25293.69,-22067.64,-12831.03,-8693.865
1764434114.1136906,-1322.73,-11752.875,-40466.07,-28515.6,-25294.77,-22062.015,-12836.16,-8700.57
1764434114.1136906,-1318.86,-11751.75,-40466.97,-28512.855,-25292.295,-22052.745,-12839.895,-8703.72
1764434114.1136906,-1314.855,-11747.97,-40463.775,-28508.265,-25287.84,-22046.895,-12839.31,-8700.66
1764434114.1136906,-1313.865,-11746.665,-40460.85,-28506.87,-25286.355,-22048.245,-12835.44,-8696.205
1764434114.1136906,-1317.555,-11748.33,-40460.445,-28509.39,-25289.145,-22056.3,-12832.74,-8694.494999999999
1764434114.1136906,-1323.72,-11751.93,-40461.3,-28514.025,-25293.645,-22066.155,-12830.13,-8692.47
1764434114.1136906,-1326.51,-11752.245,-40459.455,-28516.905,-25295.625,-22074.975,-12826.665,-8689.095
1764434114.1136906,-1324.1699999999998,-11749.545,-40456.53,-28515.51,-25293.555,-22075.47,-12824.145,-8685.404999999999
1764434114.1136906,-1327.14,-11753.055,-40462.11,-28518.795,-25297.38,-22076.01,-12828.465,-8691.164999999999
1764434114.1136906,-1324.665,-11751.75,-40463.685,-28516.32,-25296.255,-22069.665,-12831.165,-8694.09
1764434114.1136906,-1322.1,-11751.93,-40465.755,-28514.43,-25295.085,-22061.655,-12836.43,-8698.86
1764434114.1136906,-1314.9,-11748.105,-40462.965,-28508.58,-25288.83,-22049.505,-12837.015,-8698.68
1764434114.1136906,-1314.585,-11748.645,-40462.74,-28508.22,-25287.345,-22048.065,-12838.59,-8699.265
1764434114.1136906,-1316.025,-11749.23,-40460.895,-28508.49,-25287.84,-22050.765,-12836.34,-8697.195
1764434114.1136906,-1321.245,-11752.92,-40462.605,-28512.855,-25292.16,-22059.72,-12834.99,-8696.97
1764434114.1136906,-1323.0449999999998,-11751.84,-40459.635,-28513.17,-25292.16,-22066.965,-12830.04,-8691.39
1764434114.1136906,-1322.46,-11747.925,-40454.865,-28512.81,-25290.54,-22071.105,-12823.02,-8684.82
1764434114.1136906,-1323.72,-11747.52,-40455.315,-28514.565,-25291.71,-22073.895,-12822.75,-8684.369999999999
1764434114.1136906,-1326.015,-11750.265,-40459.365,-28516.995,-25294.455,-22073.355,-12828.015,-8689.365
1764434114.158555,-1324.395,-11751.3,-40462.38,-28516.365,-25294.59,-22067.775,-12832.515,-8693.73
1764434114.158555,-1323.135,-11753.37,-40466.7,-28517.22,-25294.86,-22062.375,-12838.14,-8700.795
1764434114.158555,-1317.15,-11750.13,-40464.495,-28512.0,-25290.495,-22051.89,-12839.13,-8701.289999999999
1764434114.158555,-1317.33,-11751.57,-40466.25,-28512.09,-25290.765,-22050.315,-12840.39,-8702.595
1764434114.158555,-1314.585,-11747.34,-40461.03,-28507.455,-25287.255,-22049.775,-12835.215,-8696.475
1764434114.159558,-1318.95,-11750.4,-40460.895,-28510.74,-25290.135,-22058.64,-12833.505,-8695.664999999999
1764434114.159558,-1321.875,-11750.67,-40459.77,-28512.9,-25291.89,-22065.84,-12829.41,-8692.56
1764434114.159558,-1322.91,-11748.555,-40456.755,-28513.125,-25292.475,-22072.185,-12824.37,-8687.025
1764434114.159558,-1321.065,-11745.225,-40453.605,-28511.46,-25290.855,-22071.87,-12821.175,-8683.785
1764434114.1605542,-1324.53,-11749.545,-40460.085,-28516.005,-25295.4,-22073.49,-12827.16,-8690.805
1764434114.1605542,-1321.965,-11749.005,-40461.435,-28513.89,-25294.005,-22065.975,-12830.265,-8694.135
1764434114.1605542,-1321.11,-11750.265,-40464.72,-28513.35,-25293.915,-22058.955,-12835.62,-8699.985
1764434114.1605542,-1317.015,-11749.455,-40465.305,-28510.47,-25290.135,-22050.27,-12838.68,-8702.1
1764434114.1605542,-1314.945,-11748.555,-40464.045,-28508.085,-25287.93,-22047.03,-12839.265,-8702.055
1764434114.1605542,-1313.415,-11746.17,-40460.49,-28505.52,-25285.635,-22047.57,-12834.945,-8697.24
1764434114.161724,-1318.905,-11750.22,-40461.93,-28509.39,-25289.865,-22055.895,-12834.315,-8697.15
1764434114.161724,-1317.33,-11745.99,-40455.54,-28507.23,-25287.21,-22058.82,-12826.755,-8688.465
1764434114.161724,-1320.84,-11746.575,-40454.37,-28509.84,-25289.325,-22067.325,-12823.29,-8685.765
1764434114.161724,-1325.025,-11749.23,-40457.43,-28514.34,-25293.015,-22072.68,-12825.27,-8688.465
1764434114.162727,-1328.85,-11753.955,-40464.675,-28518.66,-25297.47,-22075.02,-12831.705,-8695.529999999999
1764434114.162727,-1325.88,-11751.75,-40464.54,-28514.79,-25294.59,-22067.055,-12833.64,-8698.32
1764434114.162727,-1319.445,-11749.275,-40463.505,-28509.615,-25291.44,-22056.03,-12835.755,-8699.445
1764434114.2042978,-1316.25,-11749.5,-40465.215,-28507.68,-25289.865,-22048.11,-12839.67,-8703.494999999999
1764434114.2048306,-1317.96,-11752.29,-40468.005,-28508.805,-25290.855,-22048.29,-12841.965,-8706.105
1764434114.2048306,-1318.59,-11751.165,-40464.9,-28508.04,-25289.865,-22050.585,-12838.545,-8702.595
1764434114.2048306,-1321.47,-11752.245,-40462.695,-28509.255,-25290.855,-22057.425,-12835.845,-8699.355
1764434114.2048306,-1322.55,-11751.165,-40460.085,-28509.795,-25290.99,-22064.58,-12829.995,-8693.685
1764434114.2048306,-1325.52,-11751.345,-40458.285,-28512.63,-25292.25,-22072.185,-12826.8,-8690.13
1764434114.2048306,-1324.305,-11748.96,-40456.215,-28511.595,-25291.17,-22071.78,-12824.955,-8687.565
1764434114.2048306,-1326.375,-11751.615,-40460.49,-28514.385,-25293.375,-22070.565,-12829.275,-8693.505
1764434114.2048306,-1327.14,-11754.675,-40465.395,-28516.68,-25295.67,-22067.91,-12835.08,-8700.164999999999
1764434114.2048306,-1323.63,-11753.775,-40466.295,-28513.485,-25293.735,-22059.36,-12838.86,-8702.82
1764434114.2048306,-1317.195,-11750.85,-40464.9,-28508.49,-25288.695,-22048.29,-12840.48,-8703.675
1764434114.2048306,-1314.54,-11749.365,-40462.695,-28506.105,-25285.815,-22044.555,-12839.715,-8702.01
1764434114.2048306,-1316.565,-11750.355,-40461.57,-28506.96,-25286.355,-22048.695,-12836.295,-8699.58
1764434114.2048306,-1317.465,-11749.365,-40458.06,-28506.78,-25285.725,-22053.06,-12831.795,-8694.72
1764434114.2048306,-1319.49,-11748.915,-40455.135,-28508.04,-25286.445,-22060.44,-12826.89,-8689.32
1764434114.2048306,-1323.09,-11749.77,-40453.875,-28511.19,-25288.38,-22069.395,-12823.965,-8686.529999999999
1764434114.2048306,-1322.64,-11748.915,-40452.84,-28511.955,-25288.695,-22070.07,-12823.11,-8685.045
1764434114.2048306,-1322.955,-11750.445,-40455.72,-28512.99,-25290.045,-22068.045,-12826.89,-8689.455
1764434114.2048306,-1323.405,-11752.47,-40459.95,-28514.475,-25291.35,-22064.445,-12831.795,-8695.619999999999
1764434114.2048306,-1318.995,-11751.795,-40461.345,-28511.28,-25289.325,-22054.86,-12834.99,-8698.14
1764434114.2048306,-1311.75,-11747.52,-40458.87,-28504.845,-25283.7,-22042.845,-12835.665,-8698.14
1764434114.205843,-1312.83,-11748.645,-40459.59,-28505.115,-25283.88,-22042.395,-12837.87,-8699.76
1764434114.205843,-1312.2,-11747.115,-40456.53,-28503.99,-25283.61,-22044.915,-12834.135,-8695.529999999999
1764434114.205843,-1314.18,-11746.755,-40454.28,-28504.89,-25283.745,-22051.035,-12830.175,-8691.75
1764434114.2484157,-1318.095,-11748.015,-40453.875,-28508.31,-25286.085,-22059.315,-12827.07,-8688.24
1764434114.2484157,-1321.56,-11749.14,-40453.425,-28511.82,-25288.74,-22067.415,-12824.37,-8684.955
1764434114.2484157,-1320.7949999999998,-11748.69,-40452.48,-28511.955,-25288.92,-22068.54,-12822.525,-8684.595
1764434114.2484157,-1324.44,-11752.83,-40458.645,-28516.59,-25293.15,-22069.935,-12828.375,-8692.289999999999
1764434114.2484157,-1322.055,-11751.795,-40459.68,-28514.43,-25290.9,-22062.78,-12831.93,-8694.315
1764434114.2484157,-1316.97,-11749.32,-40459.815,-28509.57,-25286.355,-22051.89,-12834.045,-8695.664999999999
1764434114.2484157,-1316.115,-11750.805,-40463.595,-28509.12,-25286.715,-22046.445,-12838.68,-8701.695
1764434114.2484157,-1316.34,-11751.39,-40463.19,-28508.175,-25286.31,-22045.23,-12840.165,-8703.404999999999
1764434114.2484157,-1315.26,-11749.635,-40459.635,-28506.915,-25284.465,-22046.805,-12835.755,-8698.5
1764434114.2484157,-1316.16,-11748.78,-40456.035,-28506.915,-25284.915,-22052.34,-12831.435,-8693.414999999999
1764434114.2494304,-1316.925,-11746.53,-40450.995,-28506.24,-25284.015,-22058.19,-12825.135,-8686.08
1764434114.2494304,-1321.695,-11748.33,-40451.805,-28510.29,-25287.39,-22068.045,-12822.705,-8684.955
1764434114.2494304,-1321.155,-11746.71,-40450.275,-28509.705,-25286.085,-22067.415,-12821.4,-8683.38
1764434114.2494304,-1324.53,-11751.255,-40456.62,-28514.655,-25290.315,-22068.72,-12828.06,-8690.355
1764434114.2494304,-1319.85,-11748.33,-40456.26,-28510.38,-25286.58,-22060.08,-12829.455,-8690.805
1764434114.2494304,-1319.265,-11750.445,-40460.04,-28510.695,-25287.03,-22053.915,-12834.855,-8696.654999999999
1764434114.2494304,-1315.755,-11749.545,-40461.3,-28508.22,-25285.275,-22045.95,-12838.41,-8700.795
1764434114.2494304,-1315.62,-11750.67,-40462.02,-28508.31,-25284.915,-22045.41,-12839.67,-8701.605
1764434114.2494304,-1315.89,-11749.815,-40459.68,-28508.265,-25283.565,-22048.47,-12836.115,-8697.645
1764434114.2494304,-1317.285,-11748.465,-40457.52,-28508.355,-25283.925,-22053.42,-12831.165,-8693.145
1764434114.2494304,-1319.04,-11747.61,-40454.19,-28509.75,-25284.195,-22060.98,-12826.125,-8687.654999999999
1764434114.2494304,-1320.705,-11746.305,-40451.265,-28510.74,-25284.555,-22067.19,-12821.715,-8682.435
1764434114.2494304,-1319.13,-11744.055,-40448.925,-28509.165,-25282.755,-22065.975,-12819.87,-8679.824999999999
1764434114.2494304,-1324.98,-11750.445,-40456.89,-28514.97,-25288.875,-22068.945,-12827.88,-8689.365
1764434114.297619,-1323.0449999999998,-11750.13,-40458.51,-28512.945,-25288.065,-22063.32,-12830.49,-8692.02
1764434114.297619,-1319.085,-11749.59,-40460.13,-28510.155,-25286.67,-22054.86,-12834.72,-8695.755
1764434114.297619,-1311.93,-11745.945,-40457.97,-28503.945,-25281.27,-22043.565,-12835.485,-8695.755
1764434114.297619,-1315.71,-11750.715,-40462.515,-28507.905,-25285.5,-22045.95,-12839.895,-8700.435
1764434114.297619,-1318.005,-11751.435,-40461.39,-28508.67,-25286.895,-22050.18,-12839.355,-8699.4
1764434114.297619,-1320.885,-11752.02,-40459.815,-28510.92,-25287.435,-22056.12,-12837.015,-8696.295
1764434114.297619,-1319.85,-11748.645,-40453.74,-28509.435,-25285.635,-22060.125,-12828.87,-8687.97
1764434114.297619,-1323.18,-11748.6,-40453.11,-28511.64,-25288.515,-22068.18,-12825.0,-8684.865
1764434114.297619,-1320.435,-11744.82,-40449.645,-28509.21,-25285.635,-22066.38,-12821.49,-8681.085
1764434114.297619,-1324.26,-11750.76,-40456.98,-28514.295,-25290.54,-22068.45,-12828.825,-8689.455
1764434114.297619,-1322.325,-11751.48,-40459.275,-28514.205,-25290.225,-22063.185,-12832.92,-8694.045
1764434114.297619,-1319.94,-11752.065,-40462.425,-28513.395,-25289.505,-22056.255,-12838.545,-8699.445
1764434114.297619,-1316.655,-11751.48,-40464.225,-28510.29,-25287.66,-22048.425,-12841.065,-8701.695
1764434114.297619,-1316.745,-11752.38,-40464.225,-28509.705,-25287.615,-22047.075,-12842.37,-8701.965
1764434114.297619,-1317.285,-11751.885,-40461.57,-28509.525,-25286.94,-22050.135,-12839.22,-8698.23
1764434114.297619,-1319.04,-11751.885,-40459.68,-28510.92,-25287.57,-22055.67,-12835.26,-8694.855
1764434114.297619,-1320.255,-11749.14,-40454.415,-28510.515,-25286.985,-22061.34,-12829.32,-8688.105
1764434114.297619,-1324.44,-11750.535,-40454.595,-28514.835,-25290.72,-22070.79,-12826.62,-8686.619999999999
1764434114.297619,-1322.865,-11748.33,-40453.2,-28513.395,-25289.055,-22070.025,-12825.765,-8684.64
1764434114.297619,-1323.585,-11749.59,-40455.945,-28513.755,-25289.28,-22067.145,-12829.32,-8689.365
1764434114.298632,-1321.245,-11749.185,-40457.655,-28511.865,-25287.48,-22060.755,-12831.84,-8692.695
1764434114.298632,-1321.785,-11752.335,-40463.505,-28512.99,-25289.55,-22056.705,-12839.31,-8700.525
1764434114.3420427,-1319.58,-11752.695,-40465.485,-28511.73,-25287.795,-22049.73,-12843.36,-8703.449999999999
1764434114.3420427,-1316.61,-11751.165,-40462.875,-28509.12,-25285.14,-22045.86,-12842.055,-8701.38
1764434114.3420427,-1313.19,-11745.945,-40456.215,-28503.72,-25280.415,-22044.915,-12835.44,-8693.505
1764434114.3420427,-1316.88,-11746.755,-40455.54,-28505.565,-25282.44,-22052.79,-12832.065,-8690.805
1764434114.3420427,-1323.63,-11750.265,-40456.53,-28510.965,-25287.615,-22064.31,-12830.535,-8690.445
1764434114.3420427,-1327.005,-11751.345,-40455.855,-28513.98,-25290.18,-22072.995,-12827.565,-8688.105
1764434114.3420427,-1324.665,-11749.635,-40454.28,-28511.865,-25288.65,-22072.095,-12825.855,-8686.26
1764434114.3420427,-1327.815,-11754.045,-40460.355,-28516.77,-25293.42,-22072.995,-12833.28,-8693.73
1764434114.3420427,-1322.865,-11750.94,-40460.31,-28513.08,-25289.865,-22063.905,-12835.26,-8694.63
1764434114.3420427,-1320.93,-11751.48,-40462.47,-28510.785,-25288.155,-22055.49,-12839.13,-8698.545
1764434114.3420427,-1317.465,-11750.895,-40463.46,-28507.95,-25285.815,-22047.39,-12841.29,-8701.02
1764434114.3420427,-1317.195,-11751.3,-40462.965,-28508.13,-25286.265,-22047.12,-12841.56,-8702.19
1764434114.3420427,-1315.035,-11748.24,-40458.645,-28504.845,-25282.98,-22047.84,-12837.465,-8695.845
1764434114.3420427,-1318.095,-11749.365,-40457.97,-28507.14,-25284.195,-22054.59,-12833.955,-8692.785
1764434114.3420427,-1322.73,-11751.12,-40457.07,-28510.515,-25287.255,-22065.03,-12830.625,-8689.904999999999
1764434114.3420427,-1324.62,-11749.41,-40455.18,-28512.045,-25288.695,-22072.23,-12827.025,-8686.529999999999
1764434114.3420427,-1321.9199999999998,-11745.72,-40452.615,-28509.84,-25286.49,-22070.205,-12824.64,-8683.47
1764434114.3420427,-1320.7949999999998,-11746.395,-40455.045,-28509.795,-25287.345,-22067.055,-12828.42,-8687.07
1764434114.3420427,-1317.915,-11745.225,-40456.44,-28507.5,-25285.32,-22059.09,-12831.345,-8690.085
1764434114.3420427,-1317.105,-11745.945,-40459.455,-28506.87,-25284.42,-22051.395,-12835.935,-8695.755
1764434114.3420427,-1315.35,-11747.52,-40461.345,-28505.79,-25284.15,-22045.365,-12839.13,-8699.22
1764434114.3420427,-1313.415,-11745.27,-40458.69,-28502.505,-25281.18,-22042.485,-12837.825,-8696.97
1764434114.3911731,-1309.68,-11740.905,-40452.075,-28498.365,-25277.22,-22042.305,-12830.49,-8689.545
1764434114.3911731,-1313.64,-11743.155,-40452.705,-28502.055,-25280.73,-22051.215,-12828.69,-8688.195
1764434114.3911731,-1321.425,-11748.69,-40455.81,-28509.12,-25286.85,-22064.265,-12829.005,-8689.05
1764434114.3911731,-1320.84,-11745.855,-40451.94,-28508.76,-25285.59,-22067.73,-12823.695,-8682.795
1764434114.3911731,-1316.79,-11739.78,-40446.63,-28504.935,-25281.72,-22063.815,-12818.43,-8677.935
1764434114.3911731,-1319.6699999999998,-11743.245,-40451.535,-28508.265,-25285.095,-22063.77,-12823.245,-8684.865
1764434114.3911731,-1316.655,-11742.57,-40452.615,-28506.24,-25283.79,-22056.885,-12826.665,-8688.375
1764434114.3911731,-1311.075,-11741.535,-40452.795,-28501.83,-25280.82,-22046.4,-12828.96,-8690.445
1764434114.3911731,-1307.43,-11741.4,-40453.02,-28499.04,-25277.805,-22038.03,-12831.705,-8692.154999999999
1764434114.3921716,-1305.765,-11739.735,-40451.625,-28497.15,-25275.69,-22035.825,-12831.165,-8690.535
1764434114.3921716,-1305.765,-11739.06,-40449.195,-28497.015,-25275.195,-22038.93,-12827.295,-8686.395
1764434114.3921716,-1306.89,-11738.52,-40446.045,-28497.555,-25274.61,-22044.195,-12822.705,-8681.58
1764434114.3921716,-1310.4,-11737.98,-40443.57,-28499.04,-25275.465,-22052.52,-12818.61,-8677.08
1764434114.3921716,-1310.6699999999998,-11734.785,-40439.97,-28498.365,-25273.98,-22056.705,-12813.57,-8671.095
1764434114.3921716,-1312.65,-11736.63,-40442.13,-28501.875,-25276.68,-22059.765,-12814.965,-8673.255
1764434114.3921716,-1315.62,-11741.58,-40448.385,-28505.205,-25280.46,-22059.72,-12820.59,-8680.68
1764434114.3921716,-1313.73,-11741.445,-40449.915,-28503.9,-25279.47,-22053.105,-12824.235,-8684.369999999999
1764434114.3921716,-1308.78,-11738.745,-40449.915,-28499.805,-25276.095,-22042.485,-12828.015,-8686.755
1764434114.3921716,-1306.26,-11739.285,-40452.12,-28497.87,-25275.555,-22036.68,-12831.93,-8690.67
1764434114.3921716,-1309.455,-11742.795,-40454.46,-28499.535,-25277.94,-22039.29,-12833.91,-8693.505
1764434114.3921716,-1309.095,-11740.14,-40450.14,-28498.545,-25276.005,-22040.82,-12829.68,-8688.645
1764434114.3921716,-1312.38,-11741.49,-40449.825,-28501.065,-25278.84,-22048.56,-12826.845,-8685.99
1764434114.3921716,-1312.335,-11738.52,-40446.0,-28500.525,-25277.31,-22054.95,-12819.24,-8678.699999999999
1764434114.3921716,-1309.725,-11734.335,-40440.24,-28498.455,-25274.43,-22057.56,-12811.725,-8670.69
1764434114.4358814,-1311.93,-11736.81,-40442.13,-28500.93,-25276.815,-22060.17,-12813.165,-8673.21
1764434114.4358814,-1313.46,-11738.745,-40446.0,-28502.37,-25278.705,-22057.65,-12817.53,-8678.115
1764434114.4358814,-1312.605,-11739.465,-40449.33,-28501.74,-25278.615,-22052.07,-12823.2,-8683.47
1764434114.4358814,-1311.57,-11741.895,-40453.65,-28501.92,-25279.29,-22045.635,-12829.68,-8690.58
1764434114.4358814,-1307.34,-11739.645,-40452.12,-28497.33,-25275.555,-22036.365,-12831.57,-8690.805
1764434114.4358814,-1307.07,-11740.95,-40451.94,-28496.52,-25275.465,-22036.32,-12831.93,-8690.85
1764434114.4358814,-1310.355,-11743.47,-40452.57,-28499.355,-25277.76,-22042.35,-12830.76,-8689.86
1764434114.4358814,-1309.095,-11739.555,-40446.855,-28497.735,-25274.925,-22044.87,-12824.64,-8682.795
1764434114.4358814,-1312.83,-11739.825,-40445.415,-28500.39,-25277.04,-22053.285,-12820.77,-8679.015
1764434114.4358814,-1316.34,-11740.86,-40445.28,-28503.54,-25279.47,-22060.89,-12817.89,-8677.574999999999
1764434114.4358814,-1311.84,-11736.135,-40441.365,-28499.895,-25275.6,-22056.84,-12813.12,-8673.255
1764434114.4369018,-1313.82,-11739.78,-40445.955,-28502.37,-25278.345,-22056.12,-12818.115,-8679.555
1764434114.4369018,-1310.805,-11739.24,-40447.665,-28500.3,-25276.725,-22050.585,-12821.715,-8682.615
1764434114.4369018,-1305.99,-11736.855,-40448.295,-28496.655,-25273.8,-22040.64,-12824.505,-8685.585
1764434114.4369018,-1303.47,-11736.27,-40448.745,-28494.09,-25270.92,-22032.495,-12826.8,-8687.52
1764434114.4369018,-1303.965,-11737.485,-40448.88,-28495.035,-25271.46,-22033.215,-12828.6,-8688.33
1764434114.4369018,-1302.615,-11734.56,-40445.055,-28492.29,-25270.11,-22034.97,-12824.28,-8682.795
1764434114.4369018,-1305.405,-11734.74,-40443.48,-28493.595,-25271.73,-22042.125,-12821.175,-8679.465
1764434114.4369018,-1311.75,-11738.295,-40444.515,-28499.265,-25275.915,-22055.445,-12818.925,-8678.565
1764434114.4369018,-1311.57,-11735.595,-40441.005,-28499.13,-25275.195,-22059.45,-12812.04,-8672.265
1764434114.4369018,-1310.31,-11732.895,-40439.97,-28497.195,-25273.62,-22057.56,-12810.87,-8671.32
1764434114.4369018,-1312.875,-11737.125,-40444.56,-28500.615,-25277.22,-22057.2,-12817.395,-8678.115
1764434114.4369018,-1309.59,-11735.685,-40445.775,-28498.32,-25275.195,-22049.955,-12820.77,-8680.725
1764434114.4369018,-1309.635,-11738.43,-40451.355,-28499.535,-25277.355,-22044.285,-12827.925,-8687.744999999999
1764434114.480714,-1307.2949999999998,-11739.105,-40452.705,-28497.87,-25276.635,-22038.48,-12831.57,-8690.355
1764434114.480714,-1306.035,-11738.79,-40450.905,-28495.665,-25275.24,-22037.94,-12830.715,-8689.68
1764434114.480714,-1305.495,-11737.305,-40448.16,-28495.215,-25273.665,-22040.73,-12827.205,-8685.225
1764434114.480714,-1305.945,-11735.19,-40444.38,-28494.495,-25272.405,-22045.005,-12821.535,-8679.105
1764434114.480714,-1311.3,-11737.845,-40444.875,-28498.905,-25276.365,-22055.58,-12818.25,-8676.855
1764434114.480714,-1313.955,-11738.205,-40443.75,-28500.93,-25276.905,-22060.755,-12815.325,-8674.11
1764434114.480714,-1310.085,-11734.29,-40440.645,-28497.735,-25272.45,-22057.245,-12811.995,-8670.015
1764434114.480714,-1310.13,-11735.955,-40444.515,-28498.77,-25274.025,-22054.815,-12816.63,-8674.74
1764434114.480714,-1309.005,-11737.305,-40447.665,-28499.535,-25275.015,-22050.315,-12821.13,-8680.14
1764434114.480714,-1305.54,-11735.73,-40448.07,-28496.07,-25272.18,-22039.965,-12824.775,-8683.515
1764434114.480714,-1305.855,-11737.485,-40450.815,-28496.115,-25272.09,-22035.645,-12830.355,-8688.465
1764434114.480714,-1307.61,-11740.455,-40453.245,-28497.915,-25273.62,-22038.39,-12831.795,-8690.805
1764434114.480714,-1308.555,-11740.365,-40451.625,-28498.23,-25274.565,-22043.07,-12829.005,-8687.744999999999
1764434114.480714,-1310.445,-11739.24,-40448.115,-28498.59,-25274.52,-22049.28,-12824.235,-8682.39
1764434114.480714,-1311.7949999999998,-11737.845,-40444.875,-28499.13,-25274.61,-22056.39,-12818.745,-8676.449999999999
1764434114.480714,-1311.48,-11735.01,-40442.085,-28498.545,-25273.935,-22060.17,-12814.155,-8671.41
1764434114.480714,-1314.72,-11736.945,-40445.055,-28501.92,-25276.635,-22062.33,-12815.955,-8674.289999999999
1764434114.4818516,-1314.27,-11737.8,-40447.575,-28502.19,-25276.95,-22058.955,-12818.88,-8677.529999999999
1764434114.4818516,-1311.03,-11737.62,-40448.34,-28499.58,-25274.745,-22051.44,-12820.995,-8680.949999999999
1764434114.4818516,-1307.52,-11736.81,-40448.88,-28496.745,-25272.27,-22041.945,-12824.64,-8684.414999999999
1764434114.4818516,-1305.63,-11737.395,-40450.68,-28494.72,-25270.965,-22035.78,-12827.565,-8687.97
1764434114.4818516,-1307.205,-11739.465,-40451.715,-28495.395,-25271.145,-22036.455,-12828.195,-8689.005
1764434114.4818516,-1306.08,-11737.17,-40447.575,-28493.55,-25269.21,-22038.03,-12823.245,-8683.83
1764434114.4818516,-1308.96,-11738.34,-40446.135,-28494.945,-25270.29,-22045.545,-12819.105,-8680.545
1764434114.5309212,-1309.005,-11735.82,-40440.96,-28494.54,-25269.255,-22052.205,-12812.67,-8673.48
1764434114.5309212,-1312.155,-11736.99,-40441.185,-28497.6,-25271.82,-22058.82,-12809.97,-8671.365
1764434114.5309212,-1309.86,-11733.93,-40439.07,-28495.53,-25269.705,-22056.615,-12808.35,-8669.61
1764434114.5309212,-1311.12,-11735.955,-40443.885,-28498.545,-25272.315,-22055.4,-12813.435,-8676.315
1764434114.5309212,-1306.215,-11734.11,-40443.21,-28495.395,-25268.895,-22046.265,-12815.685,-8677.89
1764434114.5309212,-1305.27,-11736.315,-40447.395,-28494.945,-25269.165,-22038.57,-12822.075,-8684.279999999999
1764434114.5309212,-1298.97,-11732.805,-40444.65,-28489.275,-25263.855,-22028.85,-12822.165,-8683.289999999999
1764434114.5309212,-1298.52,-11733.255,-40444.785,-28489.14,-25263.045,-22029.795,-12822.48,-8682.885
1764434114.5309212,-1302.3,-11734.74,-40445.055,-28491.075,-25265.115,-22036.32,-12821.67,-8681.67
1764434114.5309212,-1307.52,-11737.53,-40446.135,-28494.765,-25268.895,-22045.185,-12820.635,-8680.14
1764434114.5309212,-1308.645,-11735.28,-40441.905,-28494.675,-25268.265,-22051.035,-12815.19,-8673.57
1764434114.5309212,-1309.86,-11734.2,-40440.51,-28495.98,-25269.75,-22056.615,-12810.78,-8669.61
1764434114.5309212,-1308.33,-11733.03,-40439.43,-28495.35,-25269.165,-22055.49,-12808.845,-8668.395
1764434114.5309212,-1308.87,-11734.65,-40441.995,-28496.835,-25270.11,-22052.97,-12812.85,-8672.715
1764434114.531917,-1308.87,-11736.765,-40446.36,-28497.42,-25271.19,-22048.245,-12818.61,-8678.52
1764434114.531917,-1304.19,-11735.64,-40447.89,-28494.27,-25268.805,-22038.93,-12823.38,-8682.119999999999
1764434114.531917,-1298.565,-11731.905,-40444.65,-28488.825,-25264.395,-22029.03,-12822.84,-8681.76
1764434114.531917,-1299.645,-11733.345,-40445.19,-28488.6,-25264.53,-22030.29,-12823.515,-8681.805
1764434114.531917,-1302.57,-11735.19,-40445.19,-28490.895,-25266.24,-22036.5,-12822.3,-8680.05
1764434114.531917,-1306.62,-11736.945,-40445.505,-28495.08,-25268.715,-22044.78,-12819.915,-8678.789999999999
1764434114.531917,-1307.025,-11734.515,-40440.42,-28493.865,-25267.32,-22050.405,-12814.155,-8671.545
1764434114.531917,-1310.535,-11735.415,-40439.79,-28496.52,-25269.84,-22057.47,-12811.77,-8669.789999999999
1764434114.575646,-1311.93,-11736.99,-40441.41,-28498.32,-25272.09,-22058.55,-12813.525,-8672.22
1764434114.575646,-1312.875,-11739.33,-40445.505,-28500.12,-25273.305,-22056.075,-12819.87,-8678.43
1764434114.575646,-1309.815,-11737.71,-40446.765,-28497.555,-25271.37,-22047.66,-12823.38,-8681.895
1764434114.575646,-1306.08,-11737.08,-40449.105,-28494.945,-25268.445,-22037.985,-12826.98,-8685.494999999999
1764434114.5771978,-1306.44,-11739.6,-40452.705,-28494.945,-25268.31,-22033.845,-12831.12,-8690.67
1764434114.5771978,-1306.89,-11740.05,-40452.705,-28494.945,-25267.77,-22034.115,-12832.155,-8690.265
1764434114.5771978,-1305.54,-11738.07,-40447.8,-28492.02,-25265.34,-22035.6,-12827.07,-8683.74
1764434114.5771978,-1311.48,-11741.355,-40448.205,-28496.565,-25268.895,-22044.87,-12825.45,-8683.47
1764434114.5771978,-1313.235,-11740.005,-40444.965,-28497.105,-25268.805,-22051.845,-12820.545,-8678.205
1764434114.5771978,-1315.62,-11740.545,-40444.245,-28499.985,-25270.92,-22059.72,-12818.43,-8675.73
1764434114.5787525,-1315.62,-11740.995,-40445.685,-28501.65,-25272.945,-22060.755,-12820.455,-8676.945
1764434114.5787525,-1317.645,-11742.975,-40450.68,-28504.44,-25275.285,-22059.63,-12826.08,-8683.65
1764434114.5787525,-1318.5449999999998,-11745.63,-40456.08,-28506.015,-25277.49,-22056.975,-12832.605,-8690.94
1764434114.5787525,-1311.705,-11742.795,-40454.37,-28501.245,-25273.44,-22046.355,-12835.215,-8691.705
1764434114.5787525,-1307.88,-11742.075,-40454.82,-28499.49,-25272.045,-22040.505,-12837.6,-8693.865
1764434114.5803125,-1310.445,-11744.55,-40456.89,-28501.02,-25274.16,-22044.15,-12839.4,-8695.619999999999
1764434114.5803125,-1310.355,-11742.255,-40453.425,-28500.57,-25274.475,-22048.065,-12835.305,-8690.355
1764434114.5803125,-1311.03,-11740.77,-40450.14,-28501.605,-25274.565,-22054.545,-12830.67,-8685.09
1764434114.5803125,-1316.07,-11743.695,-40450.32,-28506.555,-25279.785,-22066.74,-12828.375,-8683.425
1764434114.5803125,-1316.925,-11742.39,-40447.98,-28506.555,-25280.01,-22071.24,-12825.315,-8679.555
1764434114.5803125,-1319.04,-11743.29,-40450.23,-28509.615,-25282.62,-22073.535,-12828.015,-8682.66
1764434114.581323,-1321.47,-11747.115,-40456.08,-28513.665,-25287.48,-22073.535,-12834.9,-8689.904999999999
1764434114.6253233,-1315.53,-11743.83,-40454.145,-28508.49,-25282.98,-22063.905,-12834.855,-8689.59
1764434114.6253233,-1315.08,-11746.53,-40458.69,-28508.76,-25283.52,-22057.605,-12840.75,-8696.835
1764434114.6253233,-1309.95,-11743.515,-40456.665,-28503.405,-25278.84,-22047.84,-12841.11,-8695.755
1764434114.6253233,-1312.065,-11746.305,-40458.195,-28504.845,-25279.515,-22049.325,-12841.56,-8697.779999999999
1764434114.6253233,-1313.28,-11746.575,-40455.99,-28504.71,-25278.12,-22052.205,-12838.095,-8694.315
1764434114.6253233,-1312.335,-11743.74,-40450.59,-28502.64,-25275.33,-22054.59,-12831.345,-8686.755
1764434114.6253233,-1317.645,-11746.395,-40451.04,-28506.69,-25279.29,-22065.525,-12828.105,-8685.585
1764434114.6253233,-1321.02,-11746.44,-40450.905,-28508.94,-25280.955,-22071.33,-12826.395,-8683.695
1764434114.6253233,-1320.165,-11745.315,-40451.085,-28508.31,-25280.055,-22068.99,-12825.945,-8684.145
1764434114.6253233,-1322.775,-11750.58,-40457.385,-28511.28,-25283.7,-22068.405,-12832.245,-8692.335
1764434114.6253233,-1320.57,-11751.165,-40459.41,-28509.39,-25282.845,-22061.43,-12835.71,-8696.205
1764434114.6253233,-1316.25,-11749.77,-40460.085,-28505.52,-25279.515,-22050.855,-12838.815,-8698.815
1764434114.6253233,-1312.29,-11747.79,-40458.96,-28502.055,-25275.915,-22042.62,-12839.085,-8698.994999999999
1764434114.6253233,-1311.39,-11747.16,-40457.745,-28501.425,-25275.195,-22043.475,-12837.915,-8696.475
1764434114.6253233,-1311.345,-11746.35,-40454.955,-28501.74,-25274.565,-22047.39,-12833.415,-8691.21
1764434114.6253233,-1313.82,-11746.395,-40452.75,-28502.505,-25275.105,-22053.87,-12829.545,-8687.295
1764434114.6253233,-1314.675,-11743.875,-40448.295,-28501.965,-25274.7,-22060.395,-12823.74,-8681.4
1764434114.6253233,-1319.985,-11746.845,-40450.545,-28507.545,-25279.38,-22069.53,-12824.145,-8682.48
1764434114.6253233,-1318.5,-11744.595,-40449.24,-28506.24,-25278.03,-22067.01,-12824.865,-8681.985
1764434114.6253233,-1318.185,-11746.035,-40452.615,-28506.6,-25279.56,-22064.085,-12829.32,-8686.529999999999
1764434114.6253233,-1316.43,-11746.575,-40454.955,-28505.52,-25280.19,-22058.595,-12832.605,-8690.67
1764434114.6253233,-1310.805,-11744.325,-40455.0,-28500.93,-25276.095,-22047.435,-12835.215,-8691.93
1764434114.6253233,-1307.745,-11742.705,-40454.955,-28497.555,-25273.8,-22040.1,-12837.105,-8693.82
1764434114.6253233,-1307.7,-11742.3,-40454.145,-28497.33,-25273.44,-22040.46,-12836.475,-8692.425
1764434114.670504,-1309.5449999999998,-11743.02,-40452.66,-28499.04,-25274.61,-22045.86,-12833.685,-8689.815
1764434114.670504,-1316.16,-11748.105,-40454.28,-28504.125,-25280.595,-22056.03,-12833.19,-8690.265
1764434114.670504,-1318.815,-11747.745,-40451.895,-28505.97,-25281.72,-22065.075,-12828.465,-8685.99
1764434114.670504,-1320.12,-11747.295,-40450.275,-28507.23,-25281.495,-22068.81,-12825.0,-8683.154999999999
1764434114.670504,-1320.12,-11746.8,-40450.725,-28506.69,-25281.63,-22067.82,-12825.18,-8683.695
1764434114.670504,-1323.63,-11751.57,-40457.88,-28511.055,-25287.12,-22068.36,-12833.46,-8691.795
1764434114.670504,-1320.3,-11750.175,-40459.095,-28509.345,-25285.365,-22060.08,-12836.97,-8694.855
1764434114.670504,-1317.555,-11751.21,-40461.12,-28507.455,-25283.88,-22051.62,-12841.83,-8700.21
1764434114.670504,-1313.01,-11749.005,-40459.995,-28502.955,-25279.38,-22044.285,-12841.965,-8700.255
1764434114.670504,-1312.02,-11746.62,-40456.89,-28500.525,-25276.455,-22043.07,-12840.48,-8697.195
1764434114.670504,-1316.43,-11749.095,-40457.61,-28503.945,-25279.335,-22050.72,-12838.68,-8697.015
1764434114.670504,-1320.075,-11749.905,-40457.43,-28506.6,-25281.99,-22059.045,-12836.43,-8694.494999999999
1764434114.670504,-1323.18,-11749.545,-40454.595,-28509.57,-25283.61,-22067.19,-12832.065,-8689.59
1764434114.670504,-1324.89,-11748.87,-40452.39,-28510.83,-25284.195,-22071.465,-12829.32,-8686.71
1764434114.670504,-1321.965,-11746.62,-40450.905,-28508.13,-25282.395,-22068.045,-12827.97,-8685.63
1764434114.670504,-1320.66,-11746.755,-40453.47,-28507.455,-25281.99,-22063.455,-12831.48,-8689.275
1764434114.670504,-1318.365,-11746.89,-40455.99,-28505.88,-25280.865,-22057.065,-12835.17,-8693.279999999999
1764434114.670504,-1318.005,-11750.445,-40461.75,-28507.23,-25281.99,-22051.62,-12842.37,-8700.795
1764434114.670504,-1313.19,-11748.24,-40459.455,-28502.82,-25277.76,-22044.42,-12843.045,-8700.3
1764434114.670504,-1316.88,-11751.03,-40461.3,-28504.98,-25279.92,-22047.12,-12844.665,-8701.695
1764434114.670504,-1315.845,-11747.835,-40456.665,-28502.505,-25277.67,-22048.74,-12838.905,-8695.755
1764434114.670504,-1320.93,-11751.03,-40456.395,-28506.87,-25281.99,-22058.19,-12837.24,-8694.18
1764434114.670504,-1322.91,-11750.445,-40452.84,-28508.265,-25282.845,-22066.425,-12831.93,-8689.005
1764434114.670504,-1323.18,-11748.33,-40450.725,-28508.67,-25281.99,-22070.115,-12828.555,-8685.404999999999
1764434114.7172282,-1323.855,-11748.69,-40452.93,-28509.39,-25282.53,-22070.385,-12829.905,-8687.25
1764434114.7182484,-1327.68,-11754.27,-40459.905,-28513.665,-25287.12,-22069.98,-12837.915,-8695.935
1764434114.7182484,-1323.27,-11752.965,-40460.67,-28511.01,-25284.465,-22061.88,-12840.975,-8698.68
1764434114.7182484,-1323.0,-11755.17,-40465.215,-28510.875,-25285.32,-22055.49,-12847.59,-8705.654999999999
1764434114.7182484,-1316.115,-11750.67,-40460.94,-28504.305,-25279.92,-22045.41,-12845.43,-8702.55
1764434114.7182484,-1317.78,-11751.39,-40460.805,-28504.665,-25280.46,-22047.03,-12844.665,-8702.685
1764434114.7182484,-1316.52,-11747.655,-40455.315,-28502.55,-25278.075,-22048.74,-12838.77,-8695.71
1764434114.7182484,-1323.405,-11752.245,-40457.52,-28508.355,-25283.385,-22059.54,-12838.95,-8696.16
1764434114.7182484,-1324.26,-11750.22,-40454.1,-28508.85,-25283.52,-22066.2,-12834.27,-8690.625
1764434114.7182484,-1324.395,-11748.78,-40452.525,-28509.345,-25284.285,-22071.285,-12830.985,-8687.789999999999
1764434114.7182484,-1324.98,-11749.68,-40453.83,-28510.38,-25284.15,-22071.78,-12832.155,-8689.32
1764434114.7182484,-1326.825,-11753.82,-40459.23,-28513.53,-25287.75,-22069.935,-12839.22,-8696.34
1764434114.7182484,-1324.845,-11754.99,-40461.93,-28512.315,-25288.2,-22063.86,-12843.63,-8701.65
1764434114.7182484,-1321.47,-11755.26,-40464.09,-28510.47,-25285.995,-22055.31,-12847.725,-8706.51
1764434114.7182484,-1316.925,-11752.695,-40462.695,-28506.465,-25282.665,-22048.83,-12847.77,-8706.375
1764434114.7182484,-1317.87,-11753.415,-40462.515,-28506.375,-25283.52,-22050.0,-12847.275,-8705.295
1764434114.7182484,-1321.875,-11754.495,-40462.38,-28508.67,-25285.23,-22056.435,-12844.44,-8703.09
1764434114.7182484,-1323.45,-11753.37,-40459.365,-28509.66,-25285.365,-22062.825,-12840.165,-8698.59
1764434114.7182484,-1323.27,-11750.175,-40453.47,-28508.355,-25283.205,-22067.235,-12833.1,-8689.635
1764434114.7182484,-1325.52,-11750.985,-40453.335,-28510.56,-25285.23,-22072.32,-12831.345,-8688.015
1764434114.7182484,-1326.6,-11752.02,-40455.945,-28511.91,-25286.49,-22072.41,-12833.19,-8690.805
1764434114.7182484,-1329.57,-11756.52,-40462.74,-28516.23,-25290.9,-22072.14,-12840.48,-8699.039999999999
1764434114.7182484,-1325.385,-11755.665,-40463.19,-28514.115,-25288.02,-22063.995,-12843.81,-8701.65
1764434114.7182484,-1317.555,-11750.04,-40460.4,-28506.87,-25281.36,-22050.18,-12843.945,-8701.244999999999
1764434114.7631028,-1314.63,-11749.545,-40459.815,-28503.09,-25278.03,-22044.285,-12844.305,-8702.369999999999
1764434114.7631028,-1318.86,-11753.73,-40462.605,-28506.645,-25281.765,-22049.73,-12847.095,-8705.744999999999
1764434114.7631028,-1318.995,-11751.615,-40459.365,-28505.745,-25281.45,-22053.465,-12842.91,-8700.21
1764434114.7631028,-1324.485,-11754.945,-40459.455,-28510.245,-25285.41,-22062.87,-12840.705,-8699.355
1764434114.7631028,-1324.44,-11751.885,-40454.325,-28510.2,-25283.655,-22068.0,-12833.91,-8692.244999999999
1764434114.7641215,-1327.635,-11752.38,-40455.18,-28513.395,-25286.13,-22074.795,-12832.245,-8690.94
1764434114.764634,-1324.935,-11749.995,-40454.19,-28511.55,-25284.69,-22071.555,-12832.245,-8689.68
1764434114.764634,-1325.79,-11752.56,-40457.205,-28512.675,-25286.805,-22068.765,-12837.465,-8695.755
1764434114.764634,-1322.82,-11751.93,-40458.42,-28510.56,-25285.095,-22061.79,-12840.03,-8699.039999999999
1764434114.764634,-1322.55,-11753.955,-40463.64,-28509.84,-25285.635,-22055.67,-12845.925,-8705.34
1764434114.7656517,-1315.62,-11749.275,-40459.815,-28503.855,-25279.695,-22046.31,-12843.99,-8702.414999999999
1764434114.7656517,-1316.565,-11750.355,-40460.22,-28504.935,-25280.28,-22048.515,-12844.035,-8701.425
1764434114.7656517,-1320.39,-11753.1,-40460.13,-28507.86,-25282.755,-22055.94,-12842.28,-8700.074999999999
1764434114.7656517,-1323.45,-11753.37,-40458.24,-28509.48,-25284.15,-22063.32,-12839.04,-8696.295
1764434114.7656517,-1325.745,-11752.245,-40455.9,-28510.605,-25284.645,-22071.195,-12833.595,-8691.21
1764434114.7656517,-1327.23,-11751.93,-40455.09,-28512.63,-25286.31,-22076.01,-12831.345,-8689.005
1764434114.7656517,-1324.98,-11749.14,-40454.595,-28510.56,-25284.96,-22073.085,-12831.435,-8688.914999999999
1764434114.7656517,-1328.625,-11755.035,-40462.02,-28515.285,-25289.64,-22073.4,-12839.535,-8697.779999999999
1764434114.7656517,-1326.69,-11755.485,-40464.315,-28513.89,-25288.65,-22067.37,-12843.765,-8702.19
1764434114.7656517,-1320.615,-11752.785,-40463.01,-28508.985,-25284.24,-22056.21,-12846.915,-8704.125
1764434114.7672348,-1317.78,-11751.345,-40462.155,-28505.97,-25281.945,-22049.145,-12847.14,-8704.664999999999
1764434114.7672348,-1319.22,-11753.1,-40462.965,-28506.735,-25282.755,-22051.665,-12846.15,-8704.664999999999
1764434114.7672348,-1320.12,-11752.74,-40460.4,-28507.14,-25283.115,-22056.795,-12842.64,-8700.795
1764434114.7672348,-1323.27,-11753.1,-40458.42,-28509.525,-25284.42,-22063.68,-12839.355,-8698.005
1764434114.8097532,-1325.52,-11752.47,-40456.395,-28511.415,-25285.14,-22071.69,-12834.315,-8692.335
1764434114.8097532,-1326.015,-11751.615,-40455.225,-28512.63,-25285.86,-22076.73,-12832.02,-8689.275
1764434114.8104718,-1325.34,-11750.49,-40454.37,-28510.785,-25284.51,-22073.76,-12832.02,-8689.365
1764434114.8104718,-1327.635,-11754.99,-40460.85,-28514.025,-25288.605,-22072.68,-12838.635,-8697.375
1764434114.8104718,-1324.125,-11753.595,-40461.84,-28511.91,-25286.67,-22063.95,-12841.335,-8700.029999999999
1764434114.8104718,-1319.22,-11751.93,-40461.57,-28507.32,-25283.43,-22052.88,-12843.585,-8702.46
1764434114.8104718,-1312.245,-11746.35,-40456.935,-28500.66,-25276.95,-22043.835,-12841.785,-8699.265
1764434114.8104718,-1313.37,-11746.935,-40457.025,-28501.74,-25277.355,-22046.49,-12841.065,-8698.5
1764434114.8114831,-1318.32,-11749.77,-40458.285,-28504.8,-25280.955,-22054.5,-12840.255,-8698.41
1764434114.8114831,-1319.49,-11748.69,-40455.045,-28505.205,-25280.82,-22060.305,-12835.8,-8693.1
1764434114.8114831,-1323.0449999999998,-11749.095,-40452.84,-28507.815,-25283.025,-22069.575,-12832.065,-8689.14
1764434114.8114831,-1326.015,-11750.22,-40454.145,-28511.505,-25285.68,-22075.245,-12832.065,-8688.869999999999
1764434114.8114831,-1327.32,-11751.57,-40455.765,-28513.215,-25287.21,-22075.155,-12834.18,-8691.029999999999
1764434114.8114831,-1328.085,-11754.72,-40459.86,-28514.295,-25289.82,-22073.265,-12840.255,-8697.105
1764434114.8114831,-1326.195,-11754.315,-40462.425,-28512.945,-25288.74,-22066.29,-12843.72,-8701.289999999999
1764434114.8114831,-1325.52,-11756.34,-40467.015,-28513.08,-25289.28,-22059.315,-12849.345,-8707.545
1764434114.8114831,-1319.265,-11752.605,-40462.47,-28507.365,-25283.475,-22049.955,-12847.41,-8704.935
1764434114.8114831,-1321.02,-11754.135,-40462.605,-28508.49,-25284.465,-22052.88,-12846.78,-8705.565
1764434114.8124824,-1320.7949999999998,-11752.38,-40459.86,-28507.455,-25283.97,-22057.425,-12842.055,-8700.885
1764434114.8124824,-1324.845,-11753.64,-40459.185,-28510.335,-25286.22,-22066.38,-12839.895,-8698.275
1764434114.8124824,-1325.97,-11752.065,-40455.0,-28510.965,-25286.58,-22073.31,-12833.91,-8692.02
1764434114.8124824,-1326.69,-11750.58,-40453.11,-28511.685,-25287.21,-22076.19,-12831.03,-8689.32
1764434114.856079,-1324.98,-11748.33,-40452.435,-28510.245,-25285.77,-22072.41,-12831.345,-8689.365
1764434114.856079,-1325.475,-11750.715,-40456.395,-28511.28,-25286.805,-22069.125,-12836.295,-8694.72
1764434114.856079,-1324.89,-11753.55,-40460.355,-28512.045,-25287.885,-22064.445,-12841.47,-8700.795
1764434114.856079,-1319.445,-11751.3,-40460.13,-28507.14,-25283.475,-22053.69,-12844.89,-8703.09
1764434114.856079,-1318.365,-11751.84,-40460.895,-28506.105,-25283.07,-22049.73,-12846.51,-8704.71
1764434114.856079,-1317.915,-11750.895,-40458.69,-28504.44,-25281.405,-22049.865,-12844.215,-8701.56
1764434114.856079,-1318.365,-11749.14,-40454.865,-28503.945,-25280.505,-22053.195,-12839.04,-8695.89
1764434114.856079,-1320.345,-11748.105,-40452.57,-28504.44,-25281.45,-22059.315,-12834.045,-8691.345
1764434114.856079,-1324.1699999999998,-11748.825,-40451.49,-28507.095,-25284.375,-22068.36,-12830.715,-8687.475
1764434114.856079,-1326.78,-11749.995,-40451.805,-28509.075,-25286.4,-22074.03,-12828.24,-8687.025
1764434114.856079,-1324.755,-11748.915,-40451.895,-28508.04,-25284.69,-22070.7,-12828.555,-8686.935
1764434114.856079,-1327.59,-11753.55,-40458.78,-28511.415,-25287.84,-22070.07,-12835.53,-8694.18
1764434114.856079,-1323.18,-11752.155,-40458.6,-28508.22,-25284.915,-22061.115,-12837.555,-8696.88
1764434114.856079,-1317.465,-11748.96,-40457.565,-28502.82,-25279.74,-22049.325,-12840.345,-8698.455
1764434114.856079,-1314.63,-11746.89,-40456.26,-28499.49,-25276.545,-22043.565,-12840.48,-8698.005
1764434114.856079,-1318.365,-11750.715,-40458.78,-28502.73,-25280.505,-22049.145,-12842.145,-8700.029999999999
1764434114.856079,-1320.615,-11751.255,-40457.745,-28504.395,-25281.27,-22054.23,-12839.49,-8697.105
1764434114.856079,-1320.435,-11748.15,-40452.795,-28503.09,-25279.605,-22058.955,-12834.315,-8690.13
1764434114.856079,-1324.44,-11749.635,-40451.58,-28507.095,-25282.71,-22068.18,-12830.67,-8687.295
1764434114.856079,-1324.1699999999998,-11748.33,-40449.69,-28506.6,-25281.18,-22070.205,-12827.52,-8683.92
1764434114.856079,-1323.54,-11748.555,-40451.355,-28506.24,-25281.585,-22068.54,-12828.87,-8685.27
1764434114.856079,-1323.315,-11749.815,-40454.415,-28506.285,-25282.665,-22064.76,-12833.64,-8690.175
1764434114.9033267,-1320.57,-11749.365,-40457.115,-28504.26,-25280.73,-22057.74,-12837.015,-8694.449999999999
1764434114.9043462,-1320.21,-11751.435,-40460.985,-28504.395,-25281.405,-22051.44,-12842.145,-8700.975
1764434114.9043462,-1317.06,-11749.14,-40458.555,-28500.795,-25278.165,-22045.32,-12842.595,-8700.705
1764434114.9043462,-1320.48,-11752.155,-40460.175,-28503.315,-25281.45,-22049.775,-12843.765,-8702.64
1764434114.9043462,-1320.48,-11751.075,-40457.34,-28502.01,-25280.595,-22053.465,-12839.31,-8696.925
1764434114.9043462,-1320.03,-11748.105,-40451.94,-28500.705,-25278.705,-22057.605,-12832.92,-8690.039999999999
1764434114.9043462,-1324.35,-11749.905,-40451.355,-28504.44,-25281.495,-22067.91,-12829.455,-8687.07
1764434114.9043462,-1322.28,-11745.585,-40447.215,-28502.775,-25278.93,-22068.36,-12824.505,-8681.13
1764434114.9043462,-1321.605,-11744.865,-40448.43,-28501.92,-25278.705,-22066.425,-12825.765,-8682.48
1764434114.9043462,-1322.055,-11747.16,-40452.165,-28502.64,-25280.235,-22062.87,-12831.66,-8688.555
1764434114.9043462,-1319.6699999999998,-11747.565,-40454.73,-28501.785,-25279.245,-22055.355,-12835.755,-8693.055
1764434114.9043462,-1322.01,-11752.56,-40461.84,-28505.115,-25282.35,-22051.845,-12844.755,-8701.695
1764434114.9043462,-1320.48,-11752.74,-40461.975,-28503.54,-25281.405,-22047.93,-12847.14,-8702.64
1764434114.905342,-1319.355,-11751.39,-40458.78,-28501.965,-25279.29,-22047.705,-12844.17,-8699.715
1764434114.905342,-1319.175,-11748.87,-40453.83,-28500.255,-25277.85,-22050.54,-12839.13,-8694.404999999999
1764434114.905342,-1326.96,-11753.505,-40456.8,-28506.78,-25284.06,-22062.96,-12839.175,-8695.08
1764434114.905342,-1328.265,-11751.705,-40453.47,-28508.49,-25284.645,-22070.43,-12834.135,-8689.815
1764434114.905342,-1326.735,-11747.835,-40449.285,-28506.465,-25282.08,-22071.105,-12829.5,-8685.0
1764434114.905342,-1326.24,-11748.24,-40450.365,-28505.7,-25281.81,-22069.305,-12830.805,-8686.305
1764434114.905342,-1326.105,-11750.58,-40455.0,-28506.24,-25283.295,-22065.795,-12836.16,-8692.065
1764434114.905342,-1325.16,-11752.56,-40458.96,-28507.77,-25284.195,-22061.25,-12841.515,-8697.914999999999
1764434114.905342,-1320.615,-11751.345,-40459.59,-28504.53,-25281.09,-22050.99,-12844.215,-8701.154999999999
1764434114.905342,-1316.88,-11750.13,-40458.42,-28500.975,-25278.57,-22045.095,-12844.305,-8700.705
1764434114.905342,-1318.5449999999998,-11750.94,-40458.645,-28500.93,-25279.515,-22047.84,-12843.585,-8699.625
1764434114.9494524,-1319.355,-11749.5,-40455.315,-28500.255,-25278.03,-22052.655,-12838.95,-8694.315
1764434114.9504523,-1322.955,-11750.67,-40454.19,-28502.73,-25279.83,-22060.845,-12836.115,-8691.345
1764434114.9504523,-1326.915,-11751.615,-40453.2,-28506.69,-25282.935,-22070.43,-12833.28,-8688.42
1764434114.9509678,-1327.815,-11751.615,-40452.975,-28508.22,-25284.195,-22074.12,-12830.58,-8687.115
1764434114.9509678,-1326.555,-11750.715,-40452.93,-28507.32,-25282.215,-22071.24,-12831.795,-8687.699999999999
1764434114.9509678,-1329.165,-11754.63,-40458.825,-28510.695,-25285.32,-22069.44,-12838.635,-8695.485
1764434114.9509678,-1324.53,-11752.56,-40458.33,-28507.005,-25282.71,-22060.215,-12841.335,-8697.869999999999
1764434114.9519918,-1323.585,-11754.495,-40462.56,-28506.78,-25283.7,-22054.095,-12847.815,-8703.855
1764434114.9519918,-1317.4199999999998,-11750.085,-40458.96,-28501.02,-25278.525,-22046.04,-12845.79,-8701.335
1764434114.952921,-1319.94,-11751.93,-40460.04,-28502.235,-25279.92,-22050.27,-12845.88,-8700.975
1764434114.952921,-1321.2,-11751.345,-40458.465,-28503.315,-25280.1,-22054.905,-12841.605,-8696.744999999999
1764434114.952921,-1323.675,-11751.12,-40455.675,-28505.205,-25281.18,-22061.565,-12837.42,-8692.154999999999
1764434114.952921,-1324.71,-11749.275,-40451.58,-28505.16,-25281.09,-22068.63,-12831.435,-8686.215
1764434114.952921,-1324.305,-11748.465,-40451.04,-28506.15,-25281.27,-22071.42,-12829.68,-8683.965
1764434114.952921,-1322.055,-11746.845,-40451.13,-28504.71,-25279.74,-22067.46,-12829.995,-8683.92
1764434114.952921,-1324.395,-11751.03,-40456.755,-28507.77,-25282.17,-22065.3,-12836.34,-8691.48
1764434114.952921,-1316.79,-11745.99,-40453.11,-28501.11,-25275.51,-22052.565,-12836.25,-8690.039999999999
1764434114.952921,-1312.47,-11744.325,-40453.245,-28497.195,-25273.125,-22042.53,-12838.095,-8692.695
1764434114.952921,-1311.885,-11744.19,-40453.515,-28495.62,-25271.685,-22039.29,-12838.77,-8694.045
1764434114.952921,-1316.655,-11748.735,-40456.26,-28500.3,-25275.42,-22045.545,-12841.74,-8697.195
1764434114.952921,-1317.555,-11747.655,-40453.965,-28500.705,-25275.69,-22050.09,-12838.32,-8692.695
1764434114.952921,-1320.75,-11747.835,-40451.715,-28502.595,-25276.995,-22057.335,-12834.0,-8688.33
1764434114.952921,-1323.09,-11746.845,-40449.195,-28504.08,-25277.94,-22065.615,-12829.005,-8683.47
1764434114.9539447,-1321.245,-11743.965,-40446.63,-28503.27,-25276.365,-22066.875,-12825.315,-8679.779999999999
1764434114.9934225,-1319.895,-11743.29,-40447.98,-28503.135,-25276.635,-22063.95,-12826.35,-8681.715
1764434114.9934225,-1320.165,-11744.775,-40451.715,-28503.9,-25277.4,-22060.89,-12831.345,-8686.935
1764434114.9934225,-1319.895,-11747.16,-40456.44,-28504.755,-25278.615,-22055.445,-12837.015,-8693.19
