Timestamp,Channel1,Channel2,Channel3,Channel4,Channel5,Channel6,Channel7,Channel8
1764434658.870691,27722.88,14276.97,57797.055,-7814.565,-35528.49,-45352.845,-7775.415,9779.085
1764434658.870691,27727.515,14277.87,57796.56,-7812.54,-35524.89,-45347.985,-7783.29,9776.385
1764434658.870691,27726.48,14274.27,57792.195,-7814.655,-35526.51,-45348.345,-7793.37,9769.59
1764434658.870691,27727.695,14275.71,57794.31,-7811.91,-35524.619999999995,-45345.87,-7792.83,9770.04
1764434658.8716877,27731.295,14281.605,57801.24,-7806.33,-35520.119999999995,-45341.82,-7784.37,9776.835
1764434658.8716877,27728.235,14282.145,57803.22,-7806.195,-35521.335,-45343.98,-7777.125,9778.86
1764434658.8716877,27721.53,14279.85,57801.735,-7809.615,-35526.105,-45349.695,-7770.33,9780.03
1764434658.8716877,27723.465,14282.775,57805.83,-7807.32,-35524.305,-45349.38,-7759.125,9787.635
1764434658.8716877,27722.475,14282.325,57805.02,-7809.255,-35525.115,-45350.685,-7758.405,9788.04
1764434658.8716877,27719.685,14278.5,57800.43,-7812.585,-35527.725,-45352.305,-7765.695,9782.46
1764434658.8716877,27725.58,14281.47,57802.095,-7808.219999999999,-35523.135,-45346.59,-7769.34,9783.36
1764434658.8716877,27730.98,14282.055,57800.745,-7808.264999999999,-35522.055,-45344.745,-7779.735,9780.03
1764434658.8716877,27733.23,14281.56,57799.26,-7808.4,-35521.425,-45342.81,-7788.87,9776.07
1764434658.8716877,27731.97,14279.67,57797.82,-7808.309999999999,-35522.865,-45343.8,-7790.13,9775.305
1764434658.8716877,27731.34,14281.155,57800.61,-7805.655,-35521.515,-45343.08,-7782.75,9778.365
1764434658.8722036,27728.64,14281.38,57802.68,-7805.205,-35522.775,-45344.88,-7774.514999999999,9780.885
1764434658.8722036,27721.89,14278.545,57801.015,-7807.905,-35527.05,-45350.01,-7767.855,9781.92
1764434658.8722036,27720.36,14279.625,57803.31,-7808.804999999999,-35528.22,-45351.945,-7758.54,9785.655
1764434658.8722036,27723.06,14282.595,57805.695,-7808.355,-35526.285,-45350.595,-7755.525,9788.58
1764434658.8722036,27721.53,14279.535,57800.835,-7812.315,-35529.075,-45353.565,-7763.759999999999,9783.54
1764434658.8722036,27726.885,14281.965,57802.815,-7808.759999999999,-35524.125,-45348.57,-7768.125,9783.945
1764434658.8722036,27729.54,14280.255,57799.485,-7809.48,-35524.125,-45346.455,-7779.195,9779.445
1764434658.8722036,27727.425,14274.9,57793.095,-7813.349999999999,-35527.905,-45348.03,-7791.255,9771.93
1764434658.9160547,27727.56,14275.845,57794.985,-7811.639999999999,-35525.925,-45346.905,-7791.389999999999,9772.2
1764434658.91707,27731.115,14280.525,57801.51,-7805.205,-35521.695,-45342.9,-7780.86,9778.905
1764434658.91707,27728.505,14281.695,57803.76,-7805.07,-35522.369999999995,-45344.565,-7773.03,9782.01
1764434658.91707,27722.925,14280.75,57803.535,-7807.23,-35524.395,-45348.075,-7764.929999999999,9783.855
1764434658.91707,27722.925,14283.27,57807.045,-7805.655,-35524.35,-45348.12,-7754.804999999999,9789.3
1764434658.91707,27720.045,14279.535,57803.175,-7810.83,-35529.03,-45352.665,-7757.099999999999,9786.96
1764434658.91707,27724.23,14281.245,57803.76,-7809.705,-35526.96,-45350.415,-7760.25,9788.085
1764434658.91707,27726.03,14279.445,57800.52,-7811.144999999999,-35527.59,-45350.595,-7769.295,9783.9
1764434658.91707,27726.39,14275.98,57795.795,-7813.889999999999,-35528.85,-45351.18,-7782.57,9776.835
1764434658.91707,27731.205,14277.78,57797.37,-7810.019999999999,-35524.53,-45345.735,-7787.745,9776.115
1764434658.91707,27727.785,14274.72,57794.625,-7812.269999999999,-35527.005,-45348.57,-7791.03,9772.56
1764434658.91707,27727.29,14276.7,57797.505,-7810.2,-35525.61,-45347.535,-7783.785,9775.08
1764434658.91707,27728.82,14280.975,57802.995,-7805.924999999999,-35522.46,-45345.015,-7772.355,9782.28
1764434658.91707,27725.445,14281.245,57804.255,-7805.79,-35523.72,-45346.815,-7762.679999999999,9786.375
1764434658.91707,27720.045,14279.22,57803.175,-7809.165,-35528.49,-45352.395,-7757.415,9786.87
1764434658.91707,27716.49,14275.35,57798.54,-7814.969999999999,-35534.07,-45358.65,-7761.33,9782.73
1764434658.9185834,27721.485,14277.87,57799.755,-7812.945,-35530.244999999995,-45354.24,-7763.445,9785.07
1764434658.9185834,27723.78,14277.15,57797.73,-7813.485,-35529.93,-45352.89,-7770.87,9781.56
1764434658.9185834,27726.435,14275.53,57794.85,-7813.394999999999,-35529.255,-45350.64,-7780.815,9776.205
1764434658.9185834,27729.045,14275.215,57794.04,-7812.045,-35527.32,-45348.48,-7788.285,9772.92
1764434658.9613109,27727.65,14273.325,57793.14,-7812.719999999999,-35529.255,-45350.01,-7792.019999999999,9769.95
1764434658.961843,27730.035,14278.545,57799.35,-7807.95,-35524.98,-45345.96,-7783.019999999999,9775.935
1764434658.961843,27727.695,14279.58,57802.005,-7807.769999999999,-35525.34,-45347.76,-7775.955,9779.4
1764434658.961843,27720.18,14276.07,57799.935,-7811.91,-35529.39,-45353.34,-7768.62,9780.255
1764434658.9623756,27720.09,14279.31,57803.58,-7808.94,-35527.545,-45351.765,-7757.82,9786.24
1764434658.9623756,27718.65,14276.745,57800.43,-7812.855,-35530.83,-45355.545,-7759.575,9785.07
1764434658.9623756,27723.825,14278.995,57801.42,-7811.639999999999,-35527.455,-45352.44,-7763.085,9784.755
1764434658.9623756,27725.085,14277.555,57798.27,-7812.45,-35527.545,-45351.405,-7770.78,9780.705
1764434658.9623756,27722.52,14270.805,57790.44,-7817.58,-35531.91,-45354.42,-7786.08,9772.02
1764434658.9623756,27727.065,14272.605,57791.745,-7813.844999999999,-35527.77,-45350.055,-7790.985,9770.085
1764434658.9623756,27732.06,14278.5,57799.08,-7807.139999999999,-35520.93,-45343.98,-7787.25,9773.865
1764434658.9623756,27728.775,14277.645,57799.305,-7807.995,-35522.28,-45346.05,-7784.099999999999,9774.18
1764434658.9623756,27729.675,14280.435,57801.555,-7807.59,-35523.585,-45347.13,-7773.929999999999,9781.335
1764434658.9623756,27723.735,14278.185,57800.835,-7810.514999999999,-35527.545,-45351.765,-7764.795,9783.36
1764434658.96339,27717.57,14274.81,57798.99,-7814.924999999999,-35532.135,-45356.13,-7760.34,9782.505
1764434658.96339,27719.55,14276.655,57800.205,-7813.98,-35530.02,-45354.06,-7758.269999999999,9784.755
1764434658.96339,27717.615,14272.605,57795.435,-7817.085,-35532.9,-45357.255,-7767.54,9778.86
1764434658.96339,27721.44,14273.19,57794.58,-7815.915,-35530.83,-45354.69,-7773.795,9777.465
1764434658.96339,27728.235,14275.935,57795.48,-7813.08,-35526.375,-45349.29,-7780.95,9776.61
1764434658.96339,27728.37,14273.64,57793.365,-7813.394999999999,-35526.24,-45348.165,-7789.139999999999,9771.57
1764434658.96339,27731.835,14278.77,57798.45,-7808.355,-35521.335,-45342.855,-7784.91,9775.89
1764434658.96339,27732.96,14282.055,57802.5,-7805.115,-35519.04,-45341.55,-7777.08,9780.57
1764434658.96339,27730.26,14283.45,57804.66,-7804.98,-35519.895,-45343.305,-7768.71,9783.81
1764434658.96339,27724.86,14282.46,57804.885,-7806.195,-35522.82,-45347.49,-7759.844999999999,9786.69
1764434659.0102332,27721.44,14281.83,57804.435,-7808.13,-35525.61,-45350.415,-7754.04,9789.12
1764434659.0112488,27720.9,14280.795,57803.04,-7809.344999999999,-35526.42,-45351.18,-7754.715,9788.895
1764434659.0112488,27719.73,14276.97,57798.36,-7812.764999999999,-35528.76,-45352.8,-7763.715,9784.305
1764434659.0112488,27718.65,14273.145,57792.825,-7817.13,-35531.865,-45355.32,-7774.83,9777.645
1764434659.0112488,27721.935,14271.975,57790.485,-7816.905,-35531.369999999995,-45353.385,-7785.54,9772.875
1764434659.0112488,27724.905,14272.155,57790.485,-7815.33,-35529.615,-45350.415,-7791.66,9770.58
1764434659.0112488,27726.3,14274.135,57793.005,-7812.945,-35527.365,-45347.58,-7789.32,9772.47
1764434659.0112488,27730.305,14280.525,57800.88,-7806.195,-35521.515,-45342.495,-7778.25,9780.21
1764434659.0112488,27729.45,14282.595,57804.345,-7804.394999999999,-35520.84,-45342.675,-7769.474999999999,9784.98
1764434659.0112488,27725.445,14282.46,57804.885,-7805.7,-35523.314999999995,-45346.23,-7759.755,9788.085
1764434659.0112488,27721.53,14281.56,57804.21,-7808.219999999999,-35526.465,-45350.01,-7754.04,9789.885
1764434659.0112488,27718.065,14277.06,57799.35,-7813.53,-35529.84,-45354.15,-7758.045,9786.06
1764434659.0112488,27719.64,14275.935,57797.1,-7814.34,-35529.39,-45353.25,-7764.615,9783.585
1764434659.0112488,27724.68,14278.005,57797.64,-7812.0,-35525.97,-45349.875,-7769.745,9783.18
1764434659.0112488,27725.67,14274.99,57793.32,-7813.844999999999,-35526.869999999995,-45350.1,-7782.03,9776.745
1764434659.0112488,27730.98,14278.23,57796.155,-7809.299999999999,-35521.83,-45343.98,-7784.955,9777.285
1764434659.0112488,27728.64,14276.25,57794.985,-7810.92,-35524.26,-45345.555,-7786.665,9774.405
1764434659.0112488,27728.145,14277.465,57797.685,-7809.12,-35523.494999999995,-45345.69,-7779.599999999999,9776.925
1764434659.0122445,27729.27,14282.1,57803.715,-7805.295,-35519.715,-45344.115,-7767.63,9784.485
1764434659.0122445,27722.7,14280.345,57802.995,-7808.849999999999,-35523.314999999995,-45349.335,-7760.384999999999,9785.97
1764434659.0122445,27719.955,14280.21,57803.13,-7810.74,-35526.555,-45352.755,-7754.085,9787.365
1764434659.0122445,27722.025,14281.605,57803.13,-7809.255,-35524.89,-45350.82,-7753.275,9790.065
1764434659.0122445,27719.235,14275.08,57796.47,-7814.295,-35529.21,-45354.87,-7763.174999999999,9783.495
1764434659.0122445,27721.395,14272.875,57794.445,-7815.285,-35530.74,-45354.105,-7771.724999999999,9779.805
1764434659.055597,27725.4,14272.65,57792.06,-7815.014999999999,-35528.805,-45350.73,-7782.75,9774.99
1764434659.055597,27729.0,14274.72,57793.32,-7812.54,-35525.564999999995,-45346.77,-7787.384999999999,9773.505
1764434659.055597,27732.105,14277.51,57797.055,-7808.67,-35522.505,-45342.36,-7784.19,9776.07
1764434659.055597,27729.9,14277.645,57798.585,-7808.625,-35523.54,-45343.08,-7777.755,9778.41
1764434659.055597,27730.935,14282.685,57805.425,-7804.44,-35520.255,-45341.145,-7765.29,9786.15
1764434659.056594,27726.03,14282.145,57806.055,-7805.88,-35522.955,-45345.735,-7756.74,9788.67
1764434659.056594,27721.845,14280.615,57805.515,-7807.5,-35525.25,-45349.965,-7751.88,9789.3
1764434659.056594,27722.79,14280.21,57804.84,-7808.04,-35525.385,-45350.64,-7752.375,9789.255
1764434659.056594,27723.735,14278.095,57802.14,-7810.65,-35525.925,-45350.28,-7759.755,9786.285
1764434659.056594,27722.295,14273.91,57795.57,-7814.88,-35529.119999999995,-45352.89,-7771.23,9779.715
1764434659.0575902,27723.915,14271.705,57792.06,-7815.915,-35529.975,-45351.72,-7783.019999999999,9774.135
1764434659.0575902,27727.605,14273.145,57793.005,-7813.44,-35526.689999999995,-45347.715,-7787.924999999999,9772.695
1764434659.0575902,27727.47,14273.37,57793.815,-7812.855,-35526.6,-45347.355,-7786.98,9772.335
1764434659.0575902,27727.02,14275.08,57797.28,-7810.38,-35524.98,-45346.14,-7780.005,9775.485
1764434659.0575902,27729.09,14281.155,57804.48,-7804.259999999999,-35520.119999999995,-45343.305,-7767.585,9783.765
1764434659.0575902,27722.295,14278.32,57801.96,-7808.715,-35526.195,-45349.965,-7761.014999999999,9784.08
1764434659.0575902,27720.765,14278.725,57802.815,-7808.894999999999,-35527.185,-45351.855,-7754.445,9787.59
1764434659.0575902,27724.32,14281.785,57805.29,-7807.139999999999,-35524.215,-45348.84,-7751.565,9792.27
1764434659.0575902,27725.085,14279.895,57802.41,-7808.67,-35524.755,-45348.84,-7758.134999999999,9788.58
1764434659.0575902,27726.165,14278.185,57799.035,-7809.48,-35524.035,-45347.76,-7767.134999999999,9784.17
1764434659.0575902,27728.91,14276.43,57795.705,-7811.099999999999,-35523.54,-45346.815,-7778.835,9778.905
1764434659.0575902,27730.98,14276.475,57795.57,-7809.84,-35522.46,-45344.34,-7784.415,9776.115
1764434659.0580995,27727.605,14274.225,57794.445,-7810.695,-35525.07,-45345.645,-7785.855,9773.595
1764434659.0580995,27724.995,14274.63,57796.38,-7809.795,-35525.115,-45346.32,-7779.375,9775.8
1764434659.104728,27726.795,14279.94,57802.545,-7805.88,-35522.145,-45344.115,-7767.179999999999,9783.405
1764434659.104728,27724.41,14280.525,57805.065,-7805.34,-35523.494999999995,-45347.58,-7756.965,9787.995
1764434659.104728,27720.585,14277.96,57803.31,-7808.67,-35527.59,-45353.025,-7753.41,9787.86
1764434659.104728,27721.395,14278.455,57802.005,-7809.165,-35527.32,-45353.115,-7754.174999999999,9787.77
1764434659.1057312,27724.275,14279.22,57802.095,-7807.769999999999,-35524.439999999995,-45349.11,-7757.099999999999,9787.545
1764434659.1057312,27726.075,14277.06,57798.585,-7808.759999999999,-35525.295,-45348.57,-7766.639999999999,9783.9
1764434659.1057312,27725.625,14273.055,57792.555,-7812.495,-35527.68,-45350.01,-7780.049999999999,9775.08
1764434659.1057312,27731.97,14278.32,57797.01,-7806.059999999999,-35522.369999999995,-45343.305,-7780.995,9777.015
1764434659.1057312,27731.745,14278.635,57799.035,-7803.855,-35521.38,-45342.09,-7780.005,9777.735
1764434659.1057312,27727.56,14277.24,57798.0,-7805.88,-35524.575,-45345.915,-7778.384999999999,9776.295
1764434659.1057312,27727.74,14279.67,57801.24,-7804.215,-35523.54,-45346.05,-7767.9,9782.37
1764434659.1057312,27721.305,14277.015,57800.655,-7807.455,-35527.32,-45351.405,-7760.07,9783.495
1764434659.1057312,27720.63,14279.265,57802.725,-7807.995,-35527.59,-45352.35,-7753.275,9787.545
1764434659.1057312,27716.76,14274.405,57796.29,-7813.304999999999,-35532.314999999995,-45357.39,-7758.764999999999,9783.54
1764434659.1057312,27719.325,14274.585,57795.3,-7813.665,-35531.145,-45355.59,-7764.344999999999,9781.83
1764434659.1057312,27725.535,14278.41,57797.91,-7809.57,-35526.015,-45350.325,-7768.665,9782.955
1764434659.1057312,27727.47,14275.71,57793.635,-7810.605,-35525.744999999995,-45349.29,-7780.679999999999,9777.6
1764434659.1057312,27725.85,14272.02,57789.36,-7813.575,-35527.95,-45351.135,-7789.634999999999,9771.12
1764434659.1057312,27728.28,14276.34,57794.67,-7809.075,-35523.81,-45346.995,-7784.505,9774.54
1764434659.1057312,27729.63,14280.21,57800.925,-7803.99,-35521.064999999995,-45343.845,-7775.82,9780.03
1764434659.1057312,27727.695,14281.92,57803.13,-7802.955,-35521.47,-45345.33,-7766.505,9784.17
1764434659.1057312,27722.61,14279.985,57802.185,-7805.519999999999,-35524.619999999995,-45348.795,-7757.639999999999,9787.185
1764434659.1057312,27719.595,14278.815,57801.42,-7807.455,-35526.825,-45351.495,-7752.69,9789.435
1764434659.1057312,27715.725,14273.595,57796.56,-7813.575,-35531.82,-45357.255,-7758.495,9784.845
1764434659.1511936,27716.76,14272.11,57793.41,-7815.42,-35532.314999999995,-45357.165,-7765.245,9780.93
1764434659.1511936,27721.08,14273.685,57793.455,-7812.719999999999,-35529.21,-45353.745,-7771.634999999999,9778.815
1764434659.1511936,27728.01,14275.845,57794.22,-7809.389999999999,-35525.34,-45348.705,-7778.969999999999,9777.375
1764434659.1511936,27726.93,14272.56,57790.305,-7811.235,-35526.195,-45348.84,-7787.295,9772.74
1764434659.1511936,27725.805,14272.605,57791.88,-7810.469999999999,-35525.25,-45348.3,-7785.54,9773.055
1764434659.1511936,27728.235,14277.33,57797.82,-7805.924999999999,-35521.83,-45345.78,-7776.764999999999,9778.86
1764434659.1511936,27725.58,14278.32,57799.755,-7805.205,-35522.91,-45347.58,-7769.025,9782.235
1764434659.1511936,27720.81,14277.285,57799.395,-7808.13,-35526.24,-45352.44,-7760.115,9784.755
1764434659.1511936,27714.96,14273.055,57795.705,-7813.08,-35531.55,-45358.965,-7757.28,9783.225
1764434659.1511936,27714.87,14272.155,57793.59,-7815.105,-35532.54,-45359.73,-7759.665,9781.425
1764434659.1511936,27717.345,14271.66,57791.52,-7815.24,-35531.955,-45358.605,-7765.605,9779.895
1764434659.1511936,27719.64,14270.4,57789.135,-7815.554999999999,-35531.235,-45356.715,-7774.38,9776.61
1764434659.1511936,27724.23,14270.355,57788.145,-7814.519999999999,-35528.85,-45352.98,-7784.235,9773.64
1764434659.1511936,27729.855,14275.395,57792.735,-7807.59,-35523.09,-45345.87,-7785.405,9775.71
1764434659.1511936,27728.73,14276.07,57794.04,-7806.69,-35522.145,-45345.375,-7783.74,9776.16
1764434659.1511936,27727.83,14277.96,57796.65,-7806.465,-35522.55,-45345.87,-7776.54,9779.4
1764434659.1511936,27725.265,14278.545,57798.315,-7806.014999999999,-35523.945,-45347.13,-7768.259999999999,9782.595
1764434659.1511936,27720.495,14277.51,57798.495,-7808.04,-35527.005,-45351.405,-7759.44,9784.89
1764434659.1511936,27714.96,14274.45,57795.795,-7813.215,-35531.46,-45356.895,-7756.29,9783.315
1764434659.152705,27717.255,14275.98,57796.74,-7811.639999999999,-35529.57,-45355.185,-7755.434999999999,9785.25
1764434659.152705,27716.535,14271.975,57791.7,-7815.33,-35532.405,-45358.155,-7764.84,9779.805
1764434659.152705,27722.295,14274.54,57791.565,-7812.54,-35529.03,-45353.97,-7771.23,9779.805
1764434659.1957958,27721.26,14270.22,57785.355,-7815.735,-35531.775,-45354.6,-7785.405,9771.66
1764434659.1957958,27723.105,14270.175,57785.31,-7813.575,-35529.795,-45351.45,-7790.759999999999,9769.32
1764434659.1957958,27726.795,14274.225,57790.89,-7807.995,-35524.395,-45347.22,-7785.495,9773.55
1764434659.1957958,27726.435,14277.285,57795.12,-7805.519999999999,-35522.775,-45346.455,-7776.54,9777.69
1764434659.1977994,27724.275,14279.085,57798.18,-7804.665,-35522.775,-45347.31,-7766.73,9781.335
1764434659.1977994,27718.56,14277.735,57797.91,-7807.59,-35526.24,-45351.765,-7758.54,9783.765
1764434659.1977994,27712.575,14273.46,57793.455,-7812.495,-35531.73,-45358.155,-7758.045,9781.515
1764434659.198812,27712.98,14273.01,57792.15,-7814.07,-35533.26,-45359.145,-7761.195,9779.85
1764434659.198812,27715.05,14272.245,57791.115,-7814.429999999999,-35532.63,-45357.885,-7766.684999999999,9778.545
1764434659.199323,27721.53,14275.755,57792.15,-7811.639999999999,-35528.67,-45352.395,-7770.599999999999,9779.445
1764434659.199323,27721.89,14272.11,57786.525,-7814.34,-35530.244999999995,-45353.79,-7784.82,9771.3
1764434659.199323,27723.96,14272.47,57787.335,-7812.36,-35527.814999999995,-45350.505,-7789.005,9769.95
1764434659.199323,27725.58,14275.98,57791.61,-7807.005,-35523.09,-45345.51,-7783.065,9773.145
1764434659.1998255,27724.815,14278.635,57795.525,-7804.755,-35522.055,-45345.915,-7775.054999999999,9777.285
1764434659.1998255,27722.385,14278.5,57796.83,-7805.79,-35524.17,-45349.335,-7767.315,9779.895
1764434659.1998255,27715.23,14274.63,57794.58,-7811.415,-35529.885,-45356.13,-7761.87,9780.12
1764434659.1998255,27713.43,14274.18,57794.535,-7812.809999999999,-35531.505,-45358.695,-7756.965,9782.73
1764434659.1998255,27715.905,14275.755,57794.985,-7811.235,-35529.795,-45357.57,-7756.695,9784.755
1764434659.1998255,27716.355,14272.92,57790.665,-7813.62,-35531.369999999995,-45357.57,-7764.255,9780.57
1764434659.2003324,27716.49,14269.41,57786.12,-7816.365,-35532.405,-45358.02,-7774.74,9774.9
1764434659.2003324,27723.87,14272.965,57788.37,-7811.639999999999,-35526.869999999995,-45351.045,-7780.679999999999,9774.855
1764434659.2003324,27725.805,14273.19,57788.37,-7810.29,-35525.835,-45349.47,-7786.125,9771.75
1764434659.2409585,27721.17,14268.78,57785.13,-7813.17,-35529.39,-45352.845,-7788.87,9768.195
1764434659.2409585,27723.15,14274.045,57792.105,-7808.219999999999,-35525.385,-45349.155,-7778.429999999999,9774.54
1764434659.2409585,27719.055,14273.28,57793.05,-7809.434999999999,-35527.68,-45352.665,-7771.769999999999,9776.43
1764434659.2409585,27714.195,14272.11,57793.77,-7811.549999999999,-35530.38,-45356.49,-7762.815,9779.985
1764434659.2409585,27712.125,14271.66,57793.5,-7813.62,-35532.0,-45359.46,-7757.91,9780.93
1764434659.2409585,27710.595,14268.735,57790.035,-7816.59,-35535.15,-45362.655,-7761.78,9777.96
1764434659.2409585,27715.995,14271.435,57791.16,-7814.295,-35532.045,-45358.425,-7764.48,9779.58
1764434659.2419786,27720.0,14272.245,57790.08,-7813.62,-35530.425,-45355.77,-7772.985,9776.925
1764434659.2419786,27721.035,14269.23,57785.49,-7815.014999999999,-35530.74,-45355.995,-7786.17,9769.86
1764434659.2419786,27719.595,14265.72,57781.485,-7817.49,-35532.225,-45356.58,-7793.325,9765.27
1764434659.2419786,27722.475,14269.77,57787.02,-7812.719999999999,-35528.04,-45351.675,-7787.519999999999,9769.41
1764434659.2419786,27721.98,14272.47,57790.62,-7810.469999999999,-35527.095,-45351.045,-7779.33,9773.775
1764434659.2419786,27717.255,14271.93,57790.845,-7811.955,-35529.975,-45355.095,-7772.759999999999,9774.945
1764434659.2419786,27709.785,14269.14,57789.18,-7816.094999999999,-35534.79,-45361.395,-7766.325,9775.035
1764434659.2419786,27706.815,14266.62,57787.155,-7819.469999999999,-35538.66,-45365.22,-7761.69,9776.115
1764434659.2419786,27708.885,14266.71,57787.11,-7819.29,-35538.39,-45365.265,-7763.174999999999,9776.43
1764434659.2419786,27712.17,14267.7,57786.21,-7818.434999999999,-35536.59,-45362.745,-7770.554999999999,9775.485
1764434659.2419786,27717.255,14269.545,57786.885,-7815.69,-35532.9,-45357.39,-7776.09,9774.945
1764434659.2419786,27717.345,14265.54,57781.665,-7818.434999999999,-35534.16,-45358.02,-7788.285,9768.33
1764434659.2419786,27719.82,14266.44,57782.655,-7815.915,-35531.64,-45354.465,-7791.929999999999,9766.935
1764434659.2436907,27725.805,14273.595,57790.755,-7808.219999999999,-35524.485,-45347.895,-7784.505,9773.055
1764434659.2436907,27724.365,14274.585,57792.96,-7807.815,-35524.575,-45348.165,-7778.205,9775.62
1764434659.2447052,27724.095,14277.915,57797.55,-7805.384999999999,-35523.314999999995,-45346.995,-7765.469999999999,9782.91
1764434659.2447052,27720.315,14277.87,57798.045,-7807.455,-35525.43,-45351.405,-7755.884999999999,9786.285
1764434659.2913015,27718.11,14277.375,57797.775,-7809.615,-35527.41,-45354.465,-7751.88,9788.085
1764434659.2913015,27716.85,14275.17,57794.85,-7811.639999999999,-35529.795,-45355.365,-7756.2,9786.06
1764434659.2913015,27719.235,14274.405,57792.69,-7812.09,-35529.03,-45353.52,-7762.905,9783.81
1764434659.2913015,27724.68,14276.43,57792.555,-7809.299999999999,-35525.07,-45349.425,-7768.98,9782.505
1764434659.2913015,27726.57,14274.225,57788.82,-7810.29,-35525.295,-45348.525,-7779.87,9777.06
1764434659.2913015,27725.985,14272.605,57786.885,-7812.315,-35525.34,-45349.245,-7786.17,9772.605
1764434659.2913015,27728.64,14276.43,57791.565,-7808.49,-35522.145,-45346.14,-7780.905,9776.61
1764434659.2913015,27725.445,14276.16,57792.51,-7808.355,-35523.045,-45348.12,-7775.19,9777.87
1764434659.2913015,27726.795,14281.785,57799.215,-7803.855,-35520.165,-45345.87,-7762.545,9785.295
1764434659.2913015,27721.395,14280.66,57799.485,-7806.195,-35524.08,-45350.145,-7753.905,9787.635
1764434659.2913015,27715.365,14275.62,57794.985,-7811.325,-35529.255,-45356.67,-7753.769999999999,9785.115
1764434659.2913015,27715.68,14274.63,57793.32,-7812.315,-35530.29,-45357.345,-7755.57,9784.035
1764434659.2913015,27719.325,14274.945,57792.195,-7812.269999999999,-35528.895,-45355.455,-7761.33,9782.685
1764434659.2913015,27721.125,14273.055,57789.405,-7813.575,-35528.535,-45354.285,-7771.32,9777.825
1764434659.2913015,27725.58,14273.415,57789.405,-7810.965,-35524.845,-45350.01,-7779.69,9775.26
1764434659.2928336,27729.72,14276.655,57792.555,-7806.735,-35520.03,-45345.105,-7781.309999999999,9776.07
1764434659.2928336,27733.41,14281.155,57796.875,-7802.37,-35516.43,-45340.875,-7775.28,9780.93
1764434659.2928336,27732.555,14282.91,57799.89,-7800.795,-35515.439999999995,-45341.37,-7766.865,9784.935
1764434659.2928336,27729.405,14283.36,57802.005,-7801.019999999999,-35516.115,-45343.215,-7758.045,9788.085
1764434659.2928336,27720.855,14278.68,57798.18,-7806.509999999999,-35523.09,-45351.54,-7753.049999999999,9787.23
1764434659.2928336,27718.875,14279.04,57797.685,-7807.724999999999,-35524.575,-45353.655,-7748.594999999999,9788.58
1764434659.2928336,27723.825,14282.37,57801.06,-7803.945,-35520.93,-45349.695,-7746.299999999999,9792.72
1764434659.2928336,27727.38,14282.01,57799.305,-7804.125,-35520.345,-45347.805,-7752.78,9791.46
1764434659.2928336,27730.035,14281.65,57796.47,-7805.115,-35519.58,-45345.825,-7762.005,9787.68
1764434659.340315,27732.78,14280.93,57794.625,-7803.674999999999,-35517.689999999995,-45342.99,-7771.679999999999,9783.27
1764434659.340315,27734.94,14282.055,57795.03,-7802.639999999999,-35515.619999999995,-45340.47,-7776.179999999999,9781.245
1764434659.340315,27734.985,14283.045,57797.1,-7800.615,-35515.125,-45339.21,-7772.894999999999,9782.37
1764434659.340315,27730.755,14282.28,57797.325,-7801.559999999999,-35516.835,-45341.955,-7767.764999999999,9783.405
1764434659.340315,27730.755,14285.925,57802.5,-7799.04,-35514.54,-45340.515,-7755.974999999999,9790.335
1764434659.340315,27723.42,14282.01,57800.115,-7804.125,-35521.335,-45347.895,-7750.53,9789.39
1764434659.340315,27722.97,14282.955,57800.61,-7804.62,-35521.29,-45349.38,-7745.04,9792.45
1764434659.340315,27726.075,14285.25,57801.195,-7802.28,-35519.985,-45347.175,-7745.355,9794.34
1764434659.340315,27728.46,14284.485,57799.71,-7802.415,-35519.49,-45345.78,-7752.465,9792.63
1764434659.340315,27731.205,14283.36,57797.82,-7803.315,-35517.869999999995,-45343.575,-7762.005,9789.39
1764434659.340315,27733.185,14281.155,57794.355,-7803.585,-35517.33,-45341.82,-7773.21,9783.135
1764434659.340315,27733.905,14279.76,57793.185,-7803.405,-35517.195,-45341.37,-7778.88,9779.805
1764434659.340315,27729.405,14277.555,57792.015,-7805.16,-35519.715,-45343.845,-7778.655,9777.555
1764434659.340315,27728.82,14280.075,57796.065,-7802.46,-35517.33,-45341.82,-7769.7,9782.055
1764434659.340315,27730.71,14285.205,57802.185,-7798.59,-35513.91,-45339.795,-7755.795,9789.795
1764434659.340315,27723.78,14281.56,57799.755,-7803.9,-35520.525,-45347.58,-7749.945,9789.435
1764434659.340315,27722.025,14281.2,57798.81,-7806.15,-35522.955,-45350.28,-7747.38,9790.02
1764434659.3413062,27723.33,14280.885,57797.685,-7806.375,-35522.775,-45349.875,-7750.62,9789.795
1764434659.3413062,27726.75,14281.155,57796.65,-7805.34,-35521.92,-45347.895,-7755.795,9789.075
1764434659.3413062,27726.03,14276.43,57791.205,-7808.759999999999,-35523.945,-45349.83,-7767.945,9781.695
1764434659.3413062,27728.55,14275.035,57789.18,-7809.255,-35522.82,-45347.715,-7778.655,9776.745
1764434659.3413062,27730.755,14276.025,57790.035,-7806.915,-35520.255,-45344.835,-7781.49,9775.575
1764434659.3413062,27730.305,14277.015,57791.835,-7805.25,-35520.03,-45344.295,-7778.655,9777.33
1764434659.3413062,27729.675,14279.67,57796.155,-7803.09,-35518.455,-45342.855,-7769.79,9781.605
1764434659.3853493,27731.205,14284.575,57802.86,-7798.679999999999,-35515.619999999995,-45340.74,-7756.335,9789.435
1764434659.3853493,27723.555,14280.93,57800.475,-7803.764999999999,-35521.38,-45347.94,-7750.53,9789.57
1764434659.3853493,27722.295,14281.155,57800.97,-7804.844999999999,-35522.955,-45350.145,-7745.804999999999,9791.73
1764434659.3853493,27725.31,14283.045,57801.87,-7803.54,-35521.29,-45348.615,-7746.705,9793.08
1764434659.3853493,27724.995,14280.21,57797.505,-7805.519999999999,-35523.18,-45349.065,-7755.84,9788.535
1764434659.3853493,27726.93,14278.185,57793.86,-7806.87,-35523.81,-45348.03,-7764.884999999999,9784.305
1764434659.3853493,27725.49,14273.685,57788.685,-7810.019999999999,-35525.34,-45349.155,-7778.835,9776.16
1764434659.3853493,27727.47,14274.855,57789.99,-7807.455,-35522.595,-45347.04,-7781.804999999999,9774.9
1764434659.3853493,27730.485,14278.995,57794.805,-7802.594999999999,-35519.22,-45342.63,-7775.594999999999,9780.12
1764434659.3853493,27730.755,14281.515,57798.54,-7800.929999999999,-35518.14,-45341.865,-7767.224999999999,9784.845
1764434659.3853493,27727.785,14282.37,57800.025,-7801.469999999999,-35519.49,-45343.71,-7757.91,9787.905
1764434659.3853493,27721.17,14279.22,57798.63,-7805.07,-35523.494999999995,-45349.065,-7751.205,9788.67
1764434659.3863575,27721.485,14281.02,57800.565,-7804.934999999999,-35523.045,-45349.65,-7745.04,9792.315
1764434659.3863575,27724.905,14283.135,57801.51,-7804.125,-35520.795,-45347.985,-7745.174999999999,9793.44
1764434659.3863575,27723.6,14279.31,57795.705,-7807.455,-35523.54,-45350.145,-7755.344999999999,9787.77
1764434659.3863575,27730.305,14282.685,57797.865,-7803.764999999999,-35518.68,-45344.295,-7760.61,9788.67
1764434659.3863575,27732.645,14281.02,57795.525,-7803.764999999999,-35517.24,-45342.495,-7771.545,9783.495
1764434659.3863575,27732.78,14278.77,57793.32,-7803.719999999999,-35518.14,-45342.54,-7777.259999999999,9779.985
1764434659.3863575,27728.145,14276.295,57791.475,-7805.429999999999,-35520.525,-45345.105,-7777.17,9778.275
1764434659.3863575,27728.145,14279.22,57796.65,-7802.549999999999,-35518.545,-45343.485,-7767.719999999999,9782.865
1764434659.3863575,27730.08,14284.89,57803.58,-7798.049999999999,-35515.26,-45341.19,-7754.219999999999,9791.145
1764434659.3863575,27722.88,14281.155,57800.025,-7803.54,-35521.785,-45348.885,-7748.73,9791.01
1764434659.3863575,27721.62,14280.3,57799.89,-7805.519999999999,-35523.72,-45350.955,-7745.13,9792.36
1764434659.3863575,27725.76,14283.18,57802.005,-7803.674999999999,-35520.975,-45347.535,-7745.445,9794.385
1764434659.4308083,27726.075,14280.795,57798.36,-7804.934999999999,-35521.605,-45348.12,-7753.455,9790.695
1764434659.4308083,27724.23,14275.215,57791.205,-7809.48,-35524.35,-45350.595,-7766.82,9782.55
1764434659.4308083,27726.66,14274.9,57789.18,-7808.804999999999,-35522.235,-45347.625,-7776.36,9778.995
1764434659.4308083,27732.15,14279.085,57792.78,-7803.315,-35516.835,-45341.415,-7775.415,9781.38
1764434659.4308083,27730.125,14277.96,57792.285,-7803.54,-35518.59,-45342.99,-7773.705,9780.615
1764434659.4308083,27731.79,14282.55,57798.18,-7799.894999999999,-35515.845,-45340.2,-7762.905,9786.78
1764434659.4308083,27728.685,14283.18,57799.98,-7799.894999999999,-35517.15,-45342.63,-7754.849999999999,9789.57
1764434659.4308083,27723.375,14281.605,57799.53,-7803.764999999999,-35522.1,-45347.805,-7747.514999999999,9790.515
1764434659.4308083,27721.71,14280.975,57798.81,-7805.519999999999,-35524.08,-45350.01,-7743.96,9791.325
1764434659.4308083,27719.91,14277.555,57794.76,-7808.535,-35527.095,-45352.98,-7749.36,9788.085
1764434659.4308083,27721.71,14277.105,57792.42,-7808.804999999999,-35527.05,-45351.45,-7756.38,9785.34
1764434659.4308083,27726.21,14278.5,57791.61,-7807.365,-35523.81,-45347.22,-7763.625,9783.27
1764434659.4308083,27733.095,14281.83,57794.13,-7803.0,-35518.185,-45341.145,-7769.88,9783.045
1764434659.4308083,27735.57,14282.55,57795.03,-7800.389999999999,-35516.25,-45338.22,-7772.174999999999,9782.055
1764434659.4308083,27731.475,14279.49,57792.825,-7802.73,-35519.04,-45341.1,-7771.815,9779.76
1764434659.4308083,27730.305,14281.56,57795.75,-7801.605,-35518.725,-45340.695,-7763.715,9784.215
1764434659.4308083,27730.845,14285.79,57801.015,-7799.04,-35516.43,-45339.795,-7751.79,9790.515
1764434659.4318187,27723.465,14281.785,57798.405,-7804.215,-35522.055,-45346.635,-7746.255,9789.885
1764434659.4318187,27721.8,14280.66,57798.315,-7805.34,-35524.305,-45349.155,-7743.24,9790.965
1764434659.4318187,27723.375,14280.885,57797.01,-7805.429999999999,-35523.99,-45348.525,-7745.94,9789.93
1764434659.4318187,27726.795,14281.245,57795.705,-7805.205,-35521.83,-45346.59,-7752.554999999999,9788.04
1764434659.4318187,27733.185,14284.53,57797.325,-7801.424999999999,-35516.88,-45340.605,-7757.415,9788.535
1764434659.4318187,27734.895,14282.46,57793.635,-7801.469999999999,-35516.475,-45338.895,-7768.125,9782.595
1764434659.4318187,27730.8,14278.14,57789.855,-7804.035,-35519.265,-45340.83,-7776.0,9776.7
1764434659.4747405,27730.62,14279.085,57792.375,-7802.684999999999,-35518.635,-45340.515,-7771.905,9778.185
1764434659.475253,27733.365,14284.575,57800.205,-7797.24,-35514.494999999995,-45337.095,-7759.98,9785.97
1764434659.475253,27731.205,14286.195,57803.355,-7796.7,-35514.99,-45338.355,-7749.99,9790.47
1764434659.475253,27726.345,14285.16,57802.86,-7799.849999999999,-35518.095,-45342.945,-7742.295,9792.135
1764434659.475253,27722.97,14282.46,57799.89,-7802.955,-35521.56,-45346.86,-7741.844999999999,9791.505
1764434659.475253,27719.91,14277.87,57794.805,-7807.815,-35526.015,-45350.73,-7748.684999999999,9786.96
1764434659.475253,27722.295,14277.42,57793.005,-7807.905,-35525.25,-45349.425,-7755.84,9783.9
1764434659.475253,27729.18,14280.21,57794.715,-7803.585,-35519.85,-45343.755,-7761.78,9784.485
1764434659.475253,27731.385,14278.59,57792.42,-7804.17,-35518.095,-45341.775,-7771.905,9779.31
1764434659.475253,27728.91,14275.62,57789.585,-7805.924999999999,-35520.39,-45342.945,-7778.025,9774.945
1764434659.475253,27730.305,14279.22,57793.815,-7802.73,-35517.869999999995,-45340.065,-7771.41,9778.41
1764434659.475253,27726.885,14278.86,57794.4,-7803.045,-35519.715,-45342.315,-7766.325,9779.895
1764434659.475253,27727.335,14283.18,57799.935,-7799.625,-35517.42,-45340.92,-7753.32,9787.23
1764434659.475253,27720.36,14279.625,57797.46,-7804.394999999999,-35523.494999999995,-45348.03,-7747.74,9787.23
1764434659.475253,27720.945,14281.56,57799.17,-7804.62,-35522.189999999995,-45348.12,-7742.519999999999,9790.605
1764434659.475253,27720.135,14279.58,57796.38,-7807.23,-35524.08,-45349.65,-7747.38,9787.995
1764434659.475253,27718.515,14274.585,57790.71,-7811.865,-35527.185,-45352.395,-7758.405,9781.11
1764434659.475253,27722.655,14274.27,57789.135,-7811.099999999999,-35525.43,-45350.235,-7767.0,9778.41
1764434659.475253,27728.415,14277.105,57790.305,-7807.005,-35520.48,-45344.745,-7773.615,9777.87
1764434659.475253,27730.125,14277.915,57791.07,-7804.62,-35518.68,-45341.82,-7776.585,9777.105
1764434659.5229378,27728.19,14277.96,57792.195,-7803.9,-35519.805,-45342.495,-7773.66,9777.285
1764434659.5229378,27724.365,14276.88,57792.87,-7805.519999999999,-35522.01,-45344.925,-7767.045,9779.04
1764434659.5229378,27725.445,14282.235,57798.72,-7802.639999999999,-35519.4,-45342.945,-7753.365,9786.69
1764434659.5229378,27721.935,14282.775,57799.98,-7802.639999999999,-35521.064999999995,-45345.96,-7744.32,9790.11
1764434659.5229378,27720.36,14281.515,57799.35,-7803.495,-35522.73,-45348.75,-7742.835,9791.145
1764434659.5229378,27721.62,14279.985,57797.1,-7806.014999999999,-35523.99,-45349.65,-7746.75,9789.21
1764434659.5229378,27720.72,14276.34,57792.195,-7809.615,-35525.744999999995,-45350.955,-7756.74,9783.09
1764434659.5229378,27727.965,14279.85,57793.095,-7804.889999999999,-35520.255,-45344.565,-7762.23,9783.72
1764434659.5229378,27731.16,14279.175,57791.43,-7803.945,-35518.905,-45342.045,-7771.769999999999,9780.03
1764434659.5229378,27731.565,14278.635,57792.06,-7803.719999999999,-35518.095,-45340.605,-7774.92,9778.32
1764434659.5229378,27730.26,14279.4,57793.905,-7802.73,-35518.23,-45340.92,-7771.094999999999,9779.805
1764434659.5229378,27728.01,14280.03,57795.705,-7801.74,-35518.814999999995,-45341.37,-7763.49,9782.595
1764434659.5229378,27724.23,14279.805,57797.01,-7802.415,-35521.11,-45344.52,-7755.21,9785.475
1764434659.5229378,27716.04,14275.17,57793.635,-7808.625,-35527.905,-45351.585,-7750.889999999999,9784.35
1764434659.5229378,27714.825,14274.72,57793.32,-7810.514999999999,-35529.075,-45353.52,-7747.11,9786.195
1764434659.524444,27717.795,14276.16,57793.995,-7809.165,-35527.275,-45351.63,-7748.82,9786.375
1764434659.524444,27715.185,14270.625,57787.2,-7813.575,-35531.235,-45355.23,-7760.79,9778.995
1764434659.524444,27717.57,14268.51,57784.455,-7814.519999999999,-35530.83,-45353.97,-7771.545,9773.91
1764434659.524444,27720.99,14269.32,57784.23,-7812.99,-35528.445,-45350.775,-7779.644999999999,9771.03
1764434659.524444,27726.795,14273.82,57788.145,-7807.905,-35522.91,-45344.475,-7778.565,9773.955
1764434659.524444,27726.39,14274.99,57790.71,-7806.33,-35521.74,-45344.34,-7773.974999999999,9776.16
1764434659.524444,27722.565,14274.18,57790.575,-7807.005,-35523.314999999995,-45347.535,-7768.575,9777.33
1764434659.524444,27723.555,14278.635,57796.605,-7803.269999999999,-35520.75,-45345.285,-7754.219999999999,9785.25
1764434659.524444,27720.36,14279.445,57797.685,-7803.719999999999,-35523.09,-45347.49,-7745.849999999999,9788.445
1764434659.5671349,27718.155,14277.825,57795.93,-7806.285,-35525.88,-45350.82,-7743.915,9788.895
1764434659.5671349,27716.76,14273.595,57790.8,-7809.929999999999,-35529.48,-45354.42,-7750.62,9784.53
1764434659.5671349,27718.65,14272.56,57788.55,-7810.74,-35529.165,-45353.205,-7758.0,9780.705
1764434659.5671349,27724.455,14274.945,57788.82,-7808.264999999999,-35525.115,-45347.94,-7765.469999999999,9779.13
1764434659.5676458,27724.455,14272.335,57785.13,-7809.974999999999,-35525.385,-45347.76,-7777.035,9772.83
1764434659.5676458,27730.53,14278.545,57790.89,-7802.955,-35519.175,-45341.415,-7773.84,9777.465
1764434659.5676458,27730.53,14279.67,57793.185,-7801.65,-35518.365,-45341.91,-7769.34,9779.49
1764434659.5676458,27726.3,14278.14,57792.735,-7803.495,-35521.244999999995,-45344.97,-7764.12,9779.805
1764434659.5676458,27726.93,14283.18,57798.405,-7800.344999999999,-35519.04,-45343.8,-7751.025,9787.05
1764434659.5676458,27720.0,14279.805,57796.56,-7804.53,-35524.17,-45349.965,-7744.995,9787.545
1764434659.5676458,27720.045,14280.39,57797.91,-7803.269999999999,-35523.405,-45349.785,-7741.035,9790.83
1764434659.5676458,27719.145,14277.51,57793.86,-7806.24,-35525.115,-45351.18,-7746.705,9787.365
1764434659.5676458,27723.735,14278.32,57792.915,-7805.429999999999,-35522.82,-45348.57,-7751.969999999999,9785.79
1764434659.5676458,27723.87,14275.44,57788.28,-7807.32,-35524.17,-45348.39,-7763.13,9780.255
1764434659.5676458,27729.09,14276.88,57789.585,-7803.99,-35519.49,-45343.845,-7770.554999999999,9778.32
1764434659.5676458,27728.415,14275.485,57787.965,-7803.945,-35520.165,-45343.845,-7774.83,9775.53
1764434659.5676458,27731.34,14280.435,57792.87,-7798.724999999999,-35516.115,-45339.795,-7767.315,9780.795
1764434659.5676458,27730.71,14283.945,57796.695,-7796.79,-35514.99,-45339.255,-7758.09,9785.205
1764434659.5676458,27727.515,14284.17,57798.9,-7797.87,-35516.835,-45341.91,-7747.424999999999,9788.895
1764434659.5676458,27719.145,14279.085,57794.49,-7804.394999999999,-35523.405,-45349.695,-7743.69,9787.635
1764434659.5676458,27718.335,14278.005,57794.085,-7805.384999999999,-35524.53,-45352.125,-7742.34,9787.86
1764434659.5676458,27721.35,14279.67,57794.67,-7803.764999999999,-35523.27,-45349.83,-7743.78,9788.31
1764434659.5676458,27727.245,14282.685,57796.245,-7799.894999999999,-35518.68,-45344.97,-7747.29,9789.3
1764434659.5676458,27730.305,14282.145,57794.265,-7799.804999999999,-35517.645,-45342.585,-7757.28,9785.61
1764434659.615178,27731.16,14280.03,57790.485,-7801.245,-35517.689999999995,-45341.865,-7767.945,9780.03
1764434659.615178,27732.285,14280.435,57790.98,-7800.57,-35516.34,-45340.11,-7770.42,9779.13
1764434659.615178,27731.7,14281.47,57793.545,-7799.04,-35515.305,-45339.48,-7765.83,9781.56
1764434659.615178,27731.025,14284.17,57796.56,-7797.24,-35514.045,-45339.39,-7757.099999999999,9785.52
1764434659.615178,27729.81,14286.735,57799.89,-7796.745,-35513.595,-45340.47,-7746.03,9791.145
1764434659.615178,27724.41,14284.8,57799.125,-7800.344999999999,-35517.24,-45345.195,-7739.639999999999,9792.855
1764434659.615178,27718.56,14279.49,57793.59,-7805.79,-35523.405,-45352.26,-7742.474999999999,9788.535
1764434659.615178,27720.045,14278.68,57791.655,-7805.565,-35523.09,-45351.54,-7746.165,9787.77
1764434659.6161983,27722.385,14277.96,57789.405,-7805.429999999999,-35522.955,-45349.83,-7752.644999999999,9784.71
1764434659.6161983,27729.135,14281.38,57791.61,-7802.009999999999,-35517.869999999995,-45343.89,-7758.045,9784.035
1764434659.6161983,27732.105,14280.795,57789.63,-7802.235,-35516.295,-45341.595,-7767.63,9779.94
1764434659.6161983,27729.225,14277.195,57786.885,-7804.394999999999,-35518.635,-45343.44,-7772.804999999999,9776.475
1764434659.6161983,27730.395,14280.21,57790.89,-7800.525,-35516.79,-45341.325,-7765.74,9779.76
1764434659.6161983,27727.425,14280.795,57792.375,-7800.075,-35517.645,-45342.855,-7758.9,9782.01
1764434659.6161983,27726.885,14284.755,57797.46,-7796.969999999999,-35515.08,-45341.865,-7746.165,9788.445
1764434659.6161983,27721.395,14281.875,57796.47,-7800.48,-35519.67,-45348.12,-7740.179999999999,9788.985
1764434659.6161983,27717.075,14276.745,57791.61,-7805.655,-35525.564999999995,-45353.925,-7742.205,9786.15
1764434659.6161983,27718.47,14276.295,57789.945,-7805.88,-35525.655,-45353.115,-7746.165,9785.07
1764434659.6161983,27723.465,14278.86,57790.755,-7803.764999999999,-35522.145,-45348.615,-7751.34,9785.61
1764434659.6161983,27728.325,14279.265,57789.72,-7802.009999999999,-35518.905,-45345.285,-7759.259999999999,9783.405
1764434659.6171954,27730.485,14277.645,57788.055,-7801.65,-35517.645,-45343.08,-7768.44,9778.545
1764434659.6171954,27728.955,14276.52,57785.985,-7801.38,-35518.59,-45342.99,-7773.255,9774.81
1764434659.6630175,27727.92,14277.96,57788.46,-7799.445,-35517.33,-45342.36,-7767.99,9777.555
1764434659.6630175,27730.755,14283.27,57795.435,-7795.755,-35514.675,-45339.705,-7755.84,9784.98
1764434659.6630175,27729.72,14286.15,57799.98,-7794.179999999999,-35513.46,-45339.39,-7743.69,9791.28
1764434659.6630175,27724.905,14284.53,57799.485,-7797.69,-35516.744999999995,-45345.105,-7737.255,9792.405
1764434659.6630175,27721.935,14282.055,57796.47,-7801.11,-35520.119999999995,-45348.84,-7738.019999999999,9790.92
1764434659.6630175,27719.37,14278.23,57792.105,-7804.62,-35523.54,-45351.315,-7745.13,9786.42
1764434659.6630175,27724.41,14280.03,57792.285,-7802.82,-35520.75,-45348.12,-7750.08,9785.34
1764434659.6630175,27727.74,14279.58,57790.44,-7802.46,-35519.04,-45345.645,-7758.855,9781.92
1764434659.6630175,27731.25,14278.905,57787.965,-7801.875,-35518.14,-45343.44,-7767.495,9777.915
1764434659.6630175,27731.43,14278.725,57787.875,-7800.48,-35516.88,-45342.27,-7769.969999999999,9776.565
1764434659.6630175,27726.345,14274.945,57785.94,-7803.54,-35520.705,-45345.915,-7769.34,9774.495
1764434659.6630175,27725.805,14276.88,57790.35,-7801.695,-35519.67,-45345.87,-7760.115,9779.265
1764434659.6630175,27725.355,14281.335,57795.48,-7799.13,-35518.68,-45345.465,-7747.38,9786.24
1764434659.6630175,27719.235,14278.095,57793.635,-7803.224999999999,-35523.945,-45352.395,-7742.34,9786.96
1764434659.6630175,27721.395,14280.615,57795.48,-7801.29,-35522.145,-45351.405,-7737.974999999999,9790.38
1764434659.6630175,27724.23,14280.93,57795.03,-7801.74,-35521.29,-45350.37,-7741.575,9789.885
1764434659.6630175,27725.535,14278.545,57791.205,-7804.304999999999,-35522.145,-45349.92,-7749.674999999999,9785.88
1764434659.6630175,27725.04,14273.955,57784.725,-7808.04,-35524.439999999995,-45350.91,-7762.679999999999,9777.78
1764434659.6630175,27729.81,14276.61,57786.075,-7804.44,-35520.075,-45345.195,-7768.304999999999,9777.285
1764434659.6630175,27731.34,14278.455,57788.145,-7801.74,-35518.095,-45342.45,-7768.485,9777.465
1764434659.6630175,27727.56,14276.52,57787.065,-7803.09,-35520.48,-45345.015,-7766.46,9775.395
1764434659.6630175,27725.76,14277.06,57789.405,-7801.424999999999,-35520.615,-45345.555,-7758.495,9778.23
1764434659.6630175,27726.57,14281.425,57796.155,-7797.285,-35517.42,-45344.295,-7744.724999999999,9786.51
1764434659.6630175,27723.33,14281.785,57797.1,-7798.545,-35519.58,-45347.76,-7736.985,9789.435
1764434659.7076094,27722.025,14281.695,57796.92,-7800.12,-35521.155,-45348.93,-7735.094999999999,9790.425
1764434659.7076094,27719.91,14277.87,57791.16,-7805.115,-35524.53,-45352.215,-7742.88,9785.745
1764434659.7076094,27721.035,14275.98,57788.46,-7805.429999999999,-35524.17,-45351.99,-7751.565,9781.47
1764434659.7076094,27725.76,14276.295,57787.425,-7804.215,-35522.64,-45348.255,-7760.295,9778.905
1764434659.7094092,27730.17,14277.645,57788.01,-7801.38,-35519.04,-45343.35,-7766.415,9777.285
1764434659.7094092,27727.56,14275.44,57786.255,-7802.865,-35520.525,-45344.205,-7770.96,9773.595
1764434659.7094092,27727.245,14276.565,57788.505,-7801.875,-35519.58,-45343.89,-7765.875,9775.755
1764434659.7094092,27727.02,14279.805,57792.285,-7799.445,-35518.14,-45342.63,-7755.84,9781.29
1764434659.7094092,27728.235,14285.16,57798.495,-7795.44,-35515.665,-45340.695,-7742.25,9790.29
1764434659.7094092,27725.22,14284.53,57799.215,-7797.87,-35518.545,-45343.89,-7734.105,9793.17
1764434659.7094092,27723.555,14283.99,57798.27,-7799.309999999999,-35520.345,-45346.365,-7732.98,9793.485
1764434659.7094092,27724.23,14282.73,57795.93,-7800.84,-35521.47,-45346.725,-7738.92,9790.695
1764434659.7094092,27722.115,14276.835,57789.27,-7805.745,-35525.295,-45350.37,-7751.25,9783.54
1764434659.7094092,27725.04,14275.935,57786.255,-7804.934999999999,-35523.945,-45347.445,-7760.969999999999,9779.895
1764434659.7094092,27730.755,14278.545,57787.92,-7800.929999999999,-35519.67,-45341.235,-7766.37,9779.67
1764434659.7094092,27730.17,14278.545,57787.695,-7800.705,-35519.355,-45341.01,-7768.349999999999,9778.32
1764434659.7094092,27731.34,14282.1,57792.375,-7796.7,-35515.935,-45338.625,-7760.655,9782.865
1764434659.7094092,27731.07,14284.485,57796.605,-7794.719999999999,-35514.54,-45339.165,-7751.429999999999,9787.68
1764434659.7094092,27727.56,14284.53,57797.91,-7795.665,-35516.88,-45342.0,-7741.934999999999,9791.28
1764434659.7094092,27722.925,14283.675,57797.28,-7797.87,-35519.58,-45345.915,-7734.644999999999,9793.08
1764434659.7094092,27721.8,14283.27,57795.885,-7799.13,-35520.705,-45347.715,-7733.655,9794.07
1764434659.7094092,27724.455,14283.045,57794.715,-7798.815,-35519.445,-45346.68,-7736.94,9792.54
1764434659.7525177,27726.66,14282.145,57792.51,-7800.57,-35518.814999999995,-45345.33,-7744.679999999999,9788.625
1764434659.7525177,27728.64,14279.805,57788.82,-7801.965,-35518.365,-45343.89,-7755.884999999999,9783.765
1764434659.7525177,27725.805,14273.955,57782.385,-7805.115,-35521.515,-45346.275,-7769.115,9775.35
1764434659.7525177,27726.885,14275.44,57784.23,-7803.224999999999,-35520.705,-45344.52,-7770.014999999999,9774.855
1764434659.7525177,27730.71,14281.65,57792.105,-7797.96,-35515.98,-45339.66,-7759.799999999999,9781.785
1764434659.7525177,27727.605,14281.155,57792.555,-7798.455,-35517.78,-45342.27,-7753.32,9783.81
1764434659.7525177,27726.39,14283.99,57797.055,-7797.24,-35516.88,-45342.72,-7740.855,9789.795
1764434659.7525177,27721.8,14281.875,57796.74,-7800.12,-35520.57,-45346.725,-7734.059999999999,9791.415
1764434659.753537,27717.3,14277.105,57790.89,-7805.969999999999,-35526.015,-45352.395,-7737.929999999999,9787.905
1764434659.753537,27718.83,14277.195,57789.45,-7806.644999999999,-35525.295,-45351.495,-7742.7,9786.06
1764434659.754052,27722.385,14276.745,57788.055,-7805.924999999999,-35523.99,-45349.29,-7749.269999999999,9784.26
1764434659.754052,27728.46,14278.68,57789.36,-7803.179999999999,-35519.67,-45343.17,-7756.245,9783.135
1764434659.754052,27729.675,14277.42,57786.57,-7802.955,-35518.905,-45342.135,-7766.054999999999,9778.095
1764434659.754052,27726.93,14274.81,57783.33,-7804.98,-35521.155,-45344.7,-7770.24,9773.775
1764434659.754052,27724.455,14275.26,57784.68,-7804.665,-35522.189999999995,-45345.6,-7765.424999999999,9774.945
1764434659.754052,27724.77,14278.32,57789.81,-7801.785,-35519.985,-45343.935,-7754.849999999999,9780.615
1764434659.754052,27724.68,14281.785,57794.445,-7799.219999999999,-35517.96,-45343.62,-7742.25,9787.86
1764434659.754052,27716.805,14277.06,57790.755,-7805.115,-35524.845,-45351.855,-7739.639999999999,9786.465
1764434659.754052,27717.795,14277.33,57791.295,-7805.34,-35525.25,-45353.205,-7737.884999999999,9788.175
1764434659.754052,27715.77,14272.695,57784.635,-7810.83,-35529.885,-45356.535,-7747.38,9782.28
1764434659.754052,27717.57,14271.795,57781.71,-7812.045,-35529.3,-45354.6,-7754.94,9778.725
1764434659.754052,27723.87,14275.17,57783.42,-7807.769999999999,-35523.63,-45348.615,-7761.735,9777.465
1764434659.754052,27724.365,14273.505,57780.27,-7808.94,-35524.485,-45348.84,-7771.679999999999,9772.245
1764434659.754052,27725.67,14274.855,57781.53,-7806.554999999999,-35522.01,-45346.68,-7771.365,9773.01
1764434659.7989566,27727.065,14277.555,57785.22,-7803.405,-35519.895,-45344.97,-7764.615,9777.285
1764434659.7989566,27728.73,14282.55,57791.475,-7799.04,-35516.88,-45342.225,-7752.42,9784.485
1764434659.7989566,27724.095,14281.47,57792.42,-7800.48,-35520.345,-45345.51,-7744.184999999999,9786.285
1764434659.799972,27715.5,14276.16,57787.56,-7806.825,-35527.545,-45354.015,-7742.34,9784.125
1764434659.799972,27714.24,14275.08,57785.895,-7809.615,-35529.885,-45356.67,-7742.384999999999,9782.82
1764434659.801757,27716.49,14274.855,57784.455,-7809.795,-35528.715,-45355.59,-7746.03,9781.965
1764434659.801757,27720.945,14276.295,57784.23,-7808.219999999999,-35525.655,-45351.405,-7750.889999999999,9781.605
1764434659.801757,27721.17,14271.93,57778.56,-7810.514999999999,-35527.5,-45351.63,-7764.48,9774.405
1764434659.801757,27724.185,14271.885,57778.56,-7808.535,-35525.655,-45348.615,-7772.355,9771.885
1764434659.8027751,27724.68,14272.965,57780.18,-7807.184999999999,-35523.405,-45346.815,-7772.085,9772.605
1764434659.8027751,27724.77,14275.845,57783.51,-7804.394999999999,-35522.145,-45345.42,-7764.705,9776.475
1764434659.8027751,27725.22,14279.085,57788.145,-7801.92,-35520.39,-45344.115,-7753.769999999999,9782.19
1764434659.8027751,27727.2,14285.16,57796.11,-7796.519999999999,-35516.205,-45341.145,-7738.469999999999,9791.325
1764434659.8027751,27721.26,14282.01,57794.535,-7801.155,-35521.515,-45347.49,-7734.42,9791.37
1764434659.8037658,27717.345,14277.42,57789.9,-7805.88,-35525.655,-45352.89,-7737.299999999999,9787.86
1764434659.8037658,27722.07,14279.445,57791.205,-7803.719999999999,-35522.189999999995,-45349.83,-7739.505,9789.165
1764434659.804769,27723.825,14277.555,57787.785,-7804.08,-35522.64,-45349.02,-7748.099999999999,9785.385
1764434659.804769,27722.16,14272.785,57780.63,-7807.769999999999,-35526.42,-45350.415,-7762.365,9777.51
1764434659.804769,27725.265,14272.83,57780.45,-7806.195,-35524.215,-45347.85,-7770.42,9774.36
1764434659.804769,27731.205,14279.04,57787.47,-7798.995,-35517.015,-45340.695,-7764.795,9779.31
1764434659.804769,27730.755,14280.39,57790.485,-7797.465,-35515.935,-45339.93,-7758.63,9782.145
1764434659.804769,27729.855,14281.83,57793.635,-7796.61,-35515.845,-45340.74,-7749.495,9786.285
1764434659.804769,27725.58,14282.73,57795.75,-7797.014999999999,-35518.095,-45343.575,-7740.045,9790.155
1764434659.804769,27718.245,14278.455,57791.34,-7803.09,-35524.71,-45351.18,-7737.344999999999,9788.445
1764434659.848853,27717.21,14277.15,57789.225,-7804.44,-35525.97,-45353.07,-7736.67,9788.22
1764434659.848853,27722.115,14279.22,57790.35,-7802.775,-35522.595,-45350.145,-7739.19,9789.075
1764434659.848853,27727.29,14281.425,57791.205,-7800.705,-35519.625,-45345.735,-7744.545,9788.13
1764434659.848853,27727.02,14276.61,57784.95,-7804.035,-35521.83,-45346.545,-7758.315,9780.345
1764434659.8492856,27734.13,14280.255,57788.145,-7798.815,-35515.439999999995,-45339.345,-7762.005,9781.56
1764434659.8492856,27732.78,14279.67,57788.19,-7798.995,-35515.485,-45339.66,-7762.995,9779.535
1764434659.8492856,27731.88,14281.65,57791.43,-7796.835,-35514.27,-45339.39,-7756.65,9782.1
1764434659.8492856,27728.01,14280.705,57792.06,-7797.87,-35516.52,-45342.72,-7750.665,9784.035
1764434659.8492856,27726.66,14283.225,57795.84,-7796.519999999999,-35516.52,-45343.665,-7738.875,9789.795
1764434659.8492856,27720.405,14279.76,57793.185,-7800.795,-35520.975,-45349.515,-7734.465,9789.435
1764434659.8492856,27720.18,14279.085,57791.61,-7801.74,-35522.64,-45350.91,-7734.915,9789.21
1764434659.8492856,27722.88,14279.265,57790.98,-7801.559999999999,-35522.055,-45348.84,-7738.559999999999,9788.355
1764434659.8492856,27729.18,14281.785,57791.565,-7798.86,-35517.645,-45344.115,-7742.565,9789.12
1764434659.8492856,27730.53,14279.715,57787.245,-7800.795,-35517.6,-45343.485,-7754.445,9783.855
1764434659.8492856,27735.21,14282.325,57789.675,-7797.24,-35513.595,-45338.22,-7759.17,9782.91
1764434659.8492856,27734.22,14281.38,57788.595,-7796.969999999999,-35514.27,-45338.265,-7760.79,9781.245
1764434659.849861,27735.705,14285.475,57794.04,-7792.559999999999,-35511.21,-45335.385,-7752.42,9786.69
1764434659.849861,27731.43,14284.53,57794.535,-7794.315,-35513.055,-45339.12,-7746.12,9788.49
1764434659.849861,27732.195,14289.255,57799.98,-7790.58,-35509.86,-45337.815,-7732.08,9796.23
1764434659.849861,27729.81,14289.21,57800.16,-7791.884999999999,-35510.895,-45339.66,-7724.34,9799.38
1764434659.849861,27730.755,14289.615,57800.565,-7792.469999999999,-35510.985,-45339.48,-7723.08,9800.91
1764434659.849861,27732.51,14289.66,57798.9,-7792.424999999999,-35510.939999999995,-45339.255,-7728.57,9799.65
1764434659.849861,27735.3,14288.85,57796.56,-7792.514999999999,-35510.625,-45337.815,-7736.219999999999,9796.14
1764434659.849861,27737.145,14286.645,57793.14,-7793.73,-35509.994999999995,-45336.06,-7748.054999999999,9790.02
1764434659.892916,27738.675,14285.79,57791.52,-7794.0,-35509.095,-45334.08,-7756.155,9786.15
1764434659.892916,27739.935,14288.085,57793.41,-7790.894999999999,-35507.34,-45331.875,-7755.075,9787.23
1764434659.892916,27740.16,14290.155,57796.56,-7788.69,-35506.08,-45330.84,-7747.605,9790.785
1764434659.892916,27737.73,14291.145,57799.17,-7788.059999999999,-35506.755,-45332.685,-7739.19,9794.295
1764434659.892916,27731.745,14289.075,57798.675,-7790.49,-35510.76,-45338.22,-7731.09,9795.96
1764434659.892916,27725.67,14286.105,57795.795,-7795.259999999999,-35515.665,-45343.89,-7727.264999999999,9794.925
1764434659.892916,27729.405,14289.12,57798.585,-7793.594999999999,-35513.505,-45340.92,-7724.115,9799.245
1764434659.892916,27728.505,14285.385,57793.455,-7798.094999999999,-35516.88,-45343.44,-7732.755,9794.07
1764434659.892916,27731.88,14284.485,57790.8,-7798.275,-35516.16,-45341.505,-7740.54,9791.325
1764434659.892916,27738.495,14286.735,57792.42,-7795.259999999999,-35511.435,-45335.205,-7746.57,9791.01
1764434659.892916,27738.495,14284.125,57789.405,-7796.205,-35511.03,-45334.305,-7755.57,9785.745
1764434659.892916,27739.71,14285.7,57792.42,-7792.65,-35508.33,-45332.01,-7754.355,9786.555
1764434659.892916,27735.21,14283.855,57790.71,-7795.44,-35512.02,-45336.33,-7752.195,9785.295
1764434659.892916,27734.085,14286.915,57794.895,-7793.82,-35511.119999999995,-45336.51,-7742.655,9789.885
1764434659.892916,27735.3,14291.82,57801.87,-7790.04,-35508.689999999995,-45334.935,-7728.434999999999,9798.57
1764434659.892916,27728.865,14287.95,57798.36,-7795.259999999999,-35514.72,-45341.73,-7725.42,9797.085
1764434659.892916,27730.575,14289.66,57798.855,-7794.719999999999,-35513.64,-45340.605,-7722.945,9798.84
1764434659.892916,27729.63,14286.555,57793.905,-7797.825,-35515.619999999995,-45342.315,-7730.639999999999,9794.475
1764434659.8944614,27734.4,14287.455,57793.995,-7795.53,-35512.695,-45338.67,-7736.58,9793.89
1764434659.8944614,27735.165,14284.935,57790.395,-7796.88,-35512.875,-45337.545,-7748.639999999999,9787.95
1764434659.8944614,27741.6,14287.815,57792.96,-7792.245,-35507.835,-45331.65,-7752.24,9788.085
1764434659.8944614,27741.645,14287.455,57792.825,-7791.165,-35507.475,-45330.75,-7753.094999999999,9787.545
1764434659.9429195,27736.785,14285.52,57791.745,-7793.19,-35510.715,-45334.575,-7750.17,9786.825
1764434659.9429195,27733.995,14286.465,57793.95,-7792.605,-35511.705,-45335.745,-7741.62,9789.615
1764434659.9429195,27733.995,14290.605,57798.63,-7789.86,-35510.22,-45334.755,-7727.715,9796.635
1764434659.9429195,27727.335,14286.24,57794.76,-7795.125,-35516.115,-45341.55,-7725.24,9795.285
1764434659.9429195,27726.66,14285.07,57793.635,-7797.105,-35517.645,-45343.215,-7725.33,9794.52
1764434659.9429195,27729.9,14284.845,57793.32,-7797.059999999999,-35515.125,-45342.135,-7730.144999999999,9793.53
1764434659.9429195,27735.705,14288.355,57795.03,-7792.83,-35510.355,-45336.87,-7734.644999999999,9794.385
1764434659.9429195,27738.36,14287.59,57792.51,-7793.19,-35509.455,-45334.98,-7745.94,9789.435
1764434659.9429195,27736.245,14282.37,57787.29,-7796.79,-35512.515,-45337.68,-7757.054999999999,9781.785
1764434659.9429195,27737.055,14283.495,57789.54,-7794.495,-35510.265,-45335.835,-7756.065,9782.955
1764434659.9429195,27734.805,14284.485,57791.07,-7793.054999999999,-35510.04,-45336.105,-7749.99,9785.97
1764434659.9429195,27733.545,14286.915,57793.905,-7792.155,-35510.175,-45336.42,-7740.63,9790.38
1764434659.9429195,27736.11,14292.63,57801.555,-7787.969999999999,-35506.305,-45334.305,-7726.005,9799.605
1764434659.9429195,27731.07,14289.57,57798.945,-7792.335,-35511.03,-45339.885,-7722.045,9799.785
1764434659.9429195,27725.445,14283.405,57792.96,-7798.275,-35516.97,-45346.275,-7727.715,9795.375
1764434659.9429195,27726.66,14282.145,57790.305,-7799.085,-35517.195,-45345.555,-7734.42,9792.9
1764434659.9429195,27729.945,14282.37,57788.055,-7798.724999999999,-35515.53,-45343.305,-7741.394999999999,9790.515
1764434659.9429195,27735.66,14284.26,57788.46,-7796.115,-35511.84,-45338.13,-7749.315,9788.265
1764434659.9429195,27734.49,14279.85,57784.14,-7798.41,-35513.91,-45339.21,-7759.799999999999,9780.885
1764434659.9429195,27734.445,14280.255,57784.23,-7796.969999999999,-35513.369999999995,-45338.085,-7759.665,9780.615
1764434659.9429195,27733.545,14282.505,57788.145,-7795.755,-35512.335,-45337.905,-7752.554999999999,9784.08
1764434659.9429195,27733.005,14285.385,57792.78,-7793.73,-35511.21,-45337.545,-7742.34,9788.355
1764434659.9867327,27734.31,14290.38,57799.485,-7789.724999999999,-35508.105,-45335.565,-7726.95,9796.905
1764434659.987754,27728.19,14286.645,57796.2,-7794.809999999999,-35514.09,-45342.18,-7723.844999999999,9796.05
1764434660.034841,27728.28,14285.97,57795.93,-7795.665,-35515.35,-45342.72,-7724.295,9796.005
1764434660.0353906,27733.14,14288.13,57796.155,-7793.594999999999,-35512.2,-45339.255,-7727.264999999999,9796.995
1764434660.0353906,27731.745,14283.63,57789.405,-7797.465,-35514.494999999995,-45341.37,-7739.684999999999,9790.695
1764434660.0353906,27733.32,14280.93,57785.535,-7799.4,-35514.945,-45340.47,-7751.519999999999,9784.62
1764434660.0353906,27736.335,14281.695,57786.255,-7796.79,-35512.29,-45337.005,-7756.83,9782.235
1764434660.0353906,27740.205,14286.42,57791.385,-7791.75,-35507.564999999995,-45332.37,-7752.465,9786.33
1764434660.0353906,27735.255,14284.125,57790.305,-7794.405,-35510.805,-45335.385,-7749.405,9785.565
1764434660.0353906,27737.955,14290.965,57797.91,-7788.78,-35506.305,-45332.055,-7736.309999999999,9794.16
1764434660.0353906,27736.38,14293.395,57801.465,-7787.969999999999,-35505.675,-45333.225,-7724.205,9800.955
1764434660.0353906,27731.52,14290.245,57798.45,-7792.11,-35509.994999999995,-45338.355,-7719.974999999999,9800.775
1764434660.0353906,27726.255,14285.34,57792.87,-7798.545,-35515.305,-45343.53,-7725.195,9796.185
1764434660.0353906,27729.45,14285.52,57791.655,-7797.87,-35514.45,-45341.775,-7730.955,9795.06
1764434660.0353906,27733.68,14285.07,57790.935,-7796.474999999999,-35512.74,-45339.57,-7738.424999999999,9792.36
1764434660.0353906,27739.26,14287.095,57791.655,-7793.594999999999,-35508.869999999995,-45334.71,-7745.58,9790.56
1764434660.0353906,27741.33,14287.14,57789.945,-7793.19,-35507.88,-45332.955,-7752.599999999999,9787.635
1764434660.0353906,27740.655,14286.06,57790.035,-7792.605,-35507.7,-45331.74,-7753.23,9786.87
1764434660.0353906,27736.425,14284.125,57789.405,-7794.09,-35510.04,-45334.89,-7749.045,9786.78
1764434660.0353906,27738.18,14289.48,57796.155,-7789.275,-35506.71,-45333.0,-7736.759999999999,9794.295
1764434660.0353906,27734.805,14290.605,57798.9,-7789.455,-35508.42,-45336.015,-7726.86,9798.345
1764434660.0353906,27727.74,14285.925,57794.22,-7795.71,-35514.855,-45342.99,-7724.969999999999,9796.545
1764434660.0353906,27726.705,14284.485,57791.79,-7797.735,-35517.105,-45344.475,-7726.724999999999,9795.285
1764434660.0353906,27728.1,14283.36,57789.405,-7798.679999999999,-35516.97,-45344.34,-7732.844999999999,9792.72
1764434660.0353906,27729.855,14282.595,57787.425,-7799.264999999999,-35516.07,-45342.72,-7741.575,9789.3
1764434660.0353906,27734.895,14284.26,57787.83,-7795.98,-35511.39,-45336.915,-7748.639999999999,9787.275
1764434660.0353906,27736.335,14283.63,57786.435,-7794.764999999999,-35510.76,-45335.52,-7755.84,9783.72
1764434660.0353906,27733.905,14282.055,57784.365,-7796.655,-35512.92,-45336.69,-7756.695,9781.605
1764434660.0353906,27734.085,14284.98,57788.73,-7794.405,-35511.119999999995,-45335.97,-7749.179999999999,9785.52
1764434660.0353906,27730.125,14284.035,57789.72,-7795.98,-35513.82,-45339.255,-7743.15,9786.735
1764434660.0353906,27730.845,14288.49,57795.93,-7792.605,-35511.615,-45338.265,-7728.389999999999,9795.555
1764434660.0353906,27724.41,14284.395,57791.7,-7797.554999999999,-35516.744999999995,-45344.205,-7725.735,9794.25
1764434660.0353906,27725.355,14284.26,57790.62,-7798.724999999999,-35517.825,-45344.565,-7726.32,9793.98
1764434660.0353906,27731.61,14287.995,57793.32,-7795.035,-35513.369999999995,-45339.39,-7728.12,9796.14
1764434660.0353906,27734.04,14287.185,57791.61,-7796.07,-35512.29,-45337.77,-7736.849999999999,9792.945
1764434660.0353906,27735.975,14285.16,57788.595,-7797.78,-35512.244999999995,-45336.375,-7748.37,9787.995
1764434660.0369132,27733.59,14280.93,57783.42,-7801.2,-35514.63,-45337.995,-7758.315,9781.245
1764434660.0369132,27733.77,14281.695,57784.59,-7799.355,-35513.64,-45336.195,-7756.965,9782.01
1764434660.0369132,27734.985,14284.71,57790.08,-7795.665,-35511.93,-45334.26,-7748.73,9787.185
1764434660.0369132,27738.36,14291.46,57797.955,-7789.815,-35506.755,-45330.255,-7734.465,9796.86
1764434660.0369132,27734.85,14292.36,57800.52,-7790.219999999999,-35508.15,-45333.225,-7723.755,9799.65
1764434660.0369132,27730.575,14289.93,57798.855,-7793.325,-35512.02,-45337.545,-7719.884999999999,9800.235
1764434660.0369132,27729.54,14287.905,57795.615,-7795.62,-35514.09,-45340.065,-7722.674999999999,9798.255
1764434660.0369132,27727.785,14283.135,57789.36,-7799.94,-35517.78,-45343.17,-7732.575,9791.685
1764434660.0389276,27730.17,14282.055,57786.705,-7800.165,-35517.24,-45341.955,-7741.44,9788.13
1764434660.0389276,27733.455,14281.47,57785.355,-7799.49,-35514.99,-45338.445,-7751.115,9784.215
1764434660.0389276,27737.1,14283.81,57786.57,-7796.429999999999,-35511.93,-45334.35,-7756.019999999999,9783.36
1764434660.0389276,27734.715,14282.055,57784.635,-7797.509999999999,-35513.055,-45335.655,-7755.929999999999,9781.155
1764434660.0400145,27735.255,14284.71,57789.63,-7794.405,-35511.119999999995,-45334.17,-7746.525,9785.925
1764434660.0400145,27731.16,14283.495,57790.485,-7795.44,-35513.595,-45337.185,-7739.865,9787.725
1764434660.085777,27730.08,14287.185,57794.85,-7793.009999999999,-35512.244999999995,-45336.87,-7727.355,9794.61
1764434660.085777,27723.87,14282.82,57790.17,-7798.815,-35518.005,-45344.34,-7726.049999999999,9792.54
1764434660.085777,27726.03,14283.81,57791.475,-7798.139999999999,-35516.835,-45342.945,-7725.105,9794.88
1764434660.085777,27728.46,14283.18,57790.08,-7798.23,-35515.89,-45341.73,-7730.415,9792.27
1764434660.085777,27730.98,14282.01,57787.65,-7797.69,-35515.215,-45340.02,-7738.559999999999,9788.76
1764434660.085777,27733.95,14281.02,57785.76,-7796.429999999999,-35513.235,-45336.375,-7748.865,9784.935
1764434660.085777,27734.31,14279.67,57784.32,-7796.384999999999,-35513.145,-45335.34,-7755.705,9781.56
1764434660.085777,27732.33,14279.58,57784.275,-7796.88,-35513.91,-45335.88,-7755.21,9780.84
1764434660.085777,27734.76,14284.485,57789.63,-7793.19,-35510.895,-45332.91,-7745.58,9786.915
1764434660.085777,27733.68,14287.095,57793.68,-7791.12,-35508.915,-45333.99,-7736.355,9792.045
1764434660.0867767,27730.08,14287.05,57794.94,-7792.83,-35510.985,-45338.625,-7726.905,9796.14
1764434660.0867767,27724.95,14284.395,57791.835,-7797.375,-35515.8,-45343.35,-7724.115,9795.51
1764434660.0867767,27728.82,14287.365,57793.95,-7795.215,-35513.955,-45340.47,-7721.639999999999,9798.255
1764434660.0867767,27729.405,14285.43,57789.9,-7797.33,-35514.855,-45341.235,-7729.245,9794.16
1764434660.0867767,27729.135,14281.335,57785.22,-7800.795,-35516.52,-45341.82,-7740.405,9787.995
1764434660.0867767,27735.12,14283.0,57784.995,-7797.059999999999,-35511.615,-45336.24,-7747.695,9786.465
1764434660.0867767,27732.78,14278.275,57780.09,-7799.894999999999,-35515.215,-45338.31,-7757.415,9779.58
1764434660.0867767,27734.22,14280.57,57783.78,-7798.005,-35513.145,-45336.33,-7753.95,9781.785
1764434660.0867767,27737.82,14286.555,57791.07,-7792.514999999999,-35508.42,-45332.19,-7742.519999999999,9789.255
1764434660.0867767,27734.445,14287.41,57792.735,-7792.38,-35509.185,-45334.08,-7734.69,9792.99
1764434660.0867767,27735.21,14292.405,57798.945,-7788.465,-35506.619999999995,-45332.73,-7720.785,9801.855
1764434660.0867767,27730.215,14289.075,57796.155,-7793.639999999999,-35511.39,-45337.86,-7718.04,9800.955
1764434660.1302211,27725.085,14282.685,57788.64,-7801.155,-35517.465,-45344.34,-7725.33,9795.555
1764434660.1302211,27725.49,14280.795,57784.995,-7802.73,-35518.455,-45344.385,-7733.384999999999,9791.73
1764434660.1302211,27729.135,14280.525,57783.645,-7802.594999999999,-35517.24,-45342.135,-7741.304999999999,9788.22
1764434660.1302211,27735.525,14283.855,57785.985,-7797.644999999999,-35511.975,-45334.71,-7746.57,9788.535
1764434660.1302211,27737.505,14284.44,57786.345,-7795.575,-35509.5,-45332.1,-7751.7,9786.69
1764434660.1302211,27733.725,14282.01,57784.14,-7797.014999999999,-35512.155,-45334.665,-7753.95,9784.215
1764434660.1302211,27733.815,14285.025,57789.135,-7794.179999999999,-35510.175,-45333.09,-7744.815,9789.435
1764434660.1302211,27731.07,14285.16,57790.755,-7794.9,-35511.84,-45335.79,-7736.58,9792.495
1764434660.1302211,27731.205,14288.625,57795.795,-7792.245,-35509.95,-45335.34,-7722.674999999999,9800.145
1764434660.1302211,27724.635,14283.36,57790.98,-7798.634999999999,-35516.07,-45342.495,-7721.73,9797.58
1764434660.1302211,27724.14,14281.515,57788.55,-7801.155,-35517.915,-45344.565,-7724.655,9795.33
1764434660.1302211,27729.45,14283.495,57788.82,-7798.59,-35514.765,-45340.83,-7727.894999999999,9795.24
1764434660.1302211,27732.015,14282.28,57786.885,-7798.95,-35513.505,-45338.58,-7736.4,9791.73
1764434660.1302211,27735.255,14281.695,57784.41,-7798.32,-35512.515,-45335.745,-7747.2,9787.725
1764434660.1302211,27735.255,14279.895,57782.475,-7798.59,-35512.92,-45335.88,-7754.264999999999,9783.675
1764434660.1302211,27732.06,14278.05,57781.71,-7799.445,-35514.405,-45337.86,-7754.894999999999,9781.695
1764434660.1302211,27730.71,14280.12,57784.545,-7797.825,-35513.64,-45338.355,-7747.65,9784.935
1764434660.1302211,27729.27,14282.325,57787.515,-7796.205,-35512.92,-45338.58,-7737.389999999999,9789.525
1764434660.1302211,27728.73,14285.88,57792.78,-7793.639999999999,-35511.75,-45338.22,-7725.24,9796.455
1764434660.1302211,27721.17,14279.67,57787.38,-7800.48,-35519.085,-45345.78,-7725.599999999999,9792.99
1764434660.131237,27721.35,14278.455,57785.76,-7802.054999999999,-35520.255,-45346.905,-7727.58,9792.18
1764434660.131237,27726.57,14280.795,57786.525,-7800.21,-35516.7,-45343.44,-7731.09,9792.45
1764434660.131237,27729.045,14280.03,57783.69,-7800.48,-35516.07,-45341.505,-7739.639999999999,9788.985
1764434660.131237,27731.655,14278.41,57780.945,-7800.84,-35516.07,-45339.39,-7750.755,9784.17
1764434660.176162,27732.645,14277.465,57780.315,-7800.165,-35515.395,-45337.815,-7756.74,9781.65
1764434660.176162,27736.335,14282.685,57785.985,-7794.0,-35509.545,-45332.82,-7750.035,9787.005
1764434660.176162,27735.03,14284.98,57789.36,-7792.019999999999,-35508.645,-45332.865,-7742.295,9790.38
1764434660.176162,27730.71,14283.63,57789.81,-7794.09,-35511.03,-45336.69,-7735.634999999999,9791.595
1764434660.176162,27731.565,14288.76,57795.3,-7790.94,-35509.68,-45335.88,-7721.865,9799.02
1764434660.176162,27726.345,14284.755,57792.06,-7796.384999999999,-35514.9,-45341.73,-7720.38,9797.67
1764434660.1766696,27729.45,14287.185,57792.96,-7794.99,-35513.055,-45339.705,-7719.299999999999,9800.1
1764434660.1766696,27730.665,14285.07,57789.63,-7795.98,-35512.74,-45338.58,-7726.094999999999,9796.32
1764434660.1766696,27732.195,14283.18,57786.615,-7797.014999999999,-35512.2,-45337.995,-7736.13,9791.145
1764434660.1766696,27735.165,14282.505,57783.915,-7797.42,-35511.119999999995,-45335.385,-7746.57,9786.735
1764434660.1766696,27732.87,14278.365,57779.1,-7799.985,-35513.64,-45337.185,-7755.84,9780.84
1764434660.1766696,27733.23,14280.525,57781.71,-7797.735,-35511.75,-45335.16,-7752.96,9782.28
1764434660.1776843,27738.0,14288.31,57791.025,-7790.4,-35505.494999999995,-45329.175,-7739.639999999999,9791.46
1764434660.1776843,27737.775,14291.91,57796.065,-7787.519999999999,-35504.145,-45328.68,-7728.344999999999,9798.57
1764434660.1776843,27734.535,14291.82,57798.405,-7788.69,-35505.72,-45331.56,-7717.545,9802.035
1764434660.1776843,27730.35,14288.985,57795.975,-7792.695,-35509.994999999995,-45336.24,-7714.575,9801.54
1764434660.1776843,27729.045,14286.105,57792.195,-7795.755,-35512.38,-45338.49,-7718.715,9798.66
1764434660.1776843,27734.625,14288.805,57793.14,-7793.37,-35508.735,-45334.935,-7722.269999999999,9799.2
1764434660.1776843,27736.83,14286.96,57790.08,-7793.775,-35508.42,-45334.215,-7731.405,9796.005
1764434660.1776843,27739.035,14285.97,57787.245,-7793.505,-35507.835,-45331.47,-7742.295,9791.55
1764434660.1776843,27738.495,14284.035,57785.4,-7793.91,-35508.6,-45331.29,-7749.45,9786.87
1764434660.1776843,27742.23,14288.67,57791.16,-7788.554999999999,-35503.38,-45326.52,-7742.655,9791.955
1764434660.1776843,27740.835,14289.57,57793.86,-7787.565,-35503.695,-45326.79,-7735.41,9795.105
1764434660.1776843,27737.28,14289.525,57794.895,-7788.644999999999,-35506.305,-45329.67,-7728.03,9796.185
1764434660.222007,27737.01,14293.26,57799.35,-7786.665,-35504.369999999995,-45329.805,-7714.799999999999,9803.25
1764434660.222007,27732.42,14289.93,57796.02,-7791.21,-35509.185,-45335.61,-7712.955,9802.26
1764434660.222007,27734.535,14291.595,57796.695,-7790.67,-35507.61,-45334.17,-7712.415,9803.97
1764434660.222007,27736.29,14291.145,57793.995,-7791.48,-35506.89,-45333.315,-7719.57,9801.585
1764434660.222007,27736.965,14288.13,57789.99,-7793.28,-35508.105,-45333.09,-7730.46,9795.87
1764434660.2233284,27737.73,14284.215,57785.355,-7795.71,-35509.725,-45332.82,-7743.69,9788.625
1764434660.2233284,27741.33,14286.42,57786.885,-7791.57,-35506.125,-45328.815,-7746.48,9787.995
1764434660.2233284,27737.505,14284.26,57786.075,-7792.065,-35508.105,-45330.795,-7747.245,9786.24
1764434660.2233284,27735.93,14285.295,57788.19,-7791.795,-35508.735,-45332.01,-7740.99,9789.03
1764434660.2243235,27737.91,14290.02,57794.13,-7788.644999999999,-35505.09,-45330.075,-7728.48,9796.995
1764434660.2243235,27735.705,14291.64,57797.28,-7788.014999999999,-35505.494999999995,-45331.965,-7716.78,9801.81
1764434660.2243235,27729.81,14287.455,57793.635,-7793.505,-35510.22,-45337.68,-7715.295,9799.38
1764434660.2243235,27733.005,14289.66,57795.21,-7792.155,-35508.78,-45335.475,-7714.259999999999,9801.0
1764434660.2253244,27736.47,14289.885,57794.22,-7791.389999999999,-35508.915,-45333.675,-7719.57,9800.01
1764434660.226492,27738.18,14287.905,57790.26,-7792.83,-35509.23,-45333.405,-7730.054999999999,9795.24
1764434660.226492,27741.105,14286.735,57787.875,-7792.335,-35507.88,-45330.03,-7740.9,9790.56
1764434660.226492,27741.825,14286.195,57787.335,-7791.48,-35506.8,-45328.545,-7745.894999999999,9787.41
1764434660.226492,27741.735,14287.455,57789.315,-7789.905,-35505.675,-45327.69,-7742.61,9788.76
1764434660.226492,27739.485,14288.715,57791.61,-7789.769999999999,-35505.54,-45328.68,-7736.219999999999,9791.46
1764434660.226492,27737.55,14289.885,57795.3,-7788.554999999999,-35505.314999999995,-45329.49,-7726.184999999999,9795.645
1764434660.226492,27733.545,14289.75,57797.055,-7789.455,-35507.475,-45332.64,-7716.285,9799.2
1764434660.226492,27727.83,14284.98,57792.78,-7795.485,-35513.64,-45339.48,-7716.105,9796.995
1764434660.2668493,27729.81,14286.465,57792.96,-7795.17,-35512.695,-45337.815,-7716.554999999999,9798.345
1764434660.2668493,27729.36,14282.91,57788.325,-7797.24,-35513.28,-45339.75,-7726.005,9792.9
1764434660.2668493,27733.59,14283.135,57787.335,-7795.844999999999,-35511.255,-45337.635,-7734.42,9790.92
1764434660.2668493,27740.655,14286.285,57789.0,-7791.84,-35506.439999999995,-45330.48,-7740.9,9790.38
1764434660.267866,27742.275,14287.005,57789.27,-7790.985,-35505.18,-45327.96,-7745.445,9788.625
1764434660.267866,27739.71,14286.96,57790.125,-7791.03,-35505.72,-45328.095,-7744.23,9788.625
1764434660.267866,27733.68,14283.45,57787.47,-7793.594999999999,-35509.95,-45333.585,-7741.755,9786.645
1764434660.267866,27731.385,14284.44,57788.82,-7793.775,-35510.85,-45335.34,-7732.394999999999,9790.56
1764434660.267866,27731.115,14287.86,57794.67,-7791.165,-35509.77,-45334.89,-7719.615,9797.535
1764434660.267866,27728.775,14286.87,57794.13,-7793.054999999999,-35512.38,-45338.13,-7717.275,9797.94
1764434660.267866,27725.58,14282.145,57787.785,-7798.365,-35516.97,-45342.63,-7723.394999999999,9792.855
1764434660.267866,27728.055,14281.605,57785.355,-7798.769999999999,-35516.34,-45341.46,-7730.009999999999,9790.56
1764434660.267866,27727.335,14277.195,57779.64,-7801.875,-35518.77,-45343.125,-7742.79,9783.945
1764434660.267866,27734.355,14280.3,57781.62,-7797.42,-35513.189999999995,-45336.195,-7748.73,9784.485
1764434660.267866,27735.48,14280.435,57781.485,-7797.285,-35512.244999999995,-45334.26,-7752.599999999999,9782.01
1764434660.267866,27736.74,14283.315,57784.995,-7793.82,-35509.455,-45332.145,-7747.695,9785.07
1764434660.267866,27740.61,14289.705,57792.735,-7787.429999999999,-35503.244999999995,-45327.465,-7735.23,9793.665
1764434660.267866,27739.08,14291.685,57796.785,-7786.035,-35502.975,-45328.005,-7724.79,9798.795
1764434660.267866,27734.58,14290.83,57797.37,-7788.15,-35505.27,-45332.01,-7715.655,9801.945
1764434660.267866,27727.38,14285.565,57791.745,-7795.259999999999,-35512.064999999995,-45339.48,-7717.139999999999,9798.615
1764434660.267866,27726.66,14283.945,57788.73,-7796.7,-35513.865,-45340.965,-7721.505,9796.185
1764434660.267866,27727.695,14282.64,57786.57,-7798.455,-35514.675,-45341.28,-7729.29,9792.18
1764434660.3162868,27730.62,14282.01,57783.6,-7798.724999999999,-35513.46,-45339.255,-7737.66,9788.67
1764434660.3162868,27738.63,14285.7,57785.985,-7792.559999999999,-35507.564999999995,-45331.965,-7742.969999999999,9789.66
1764434660.3162868,27740.97,14287.005,57787.245,-7789.545,-35504.82,-45329.22,-7745.985,9788.85
1764434660.3162868,27740.52,14288.085,57789.36,-7787.924999999999,-35503.965,-45328.365,-7742.835,9790.02
1764434660.3162868,27739.395,14289.255,57791.61,-7787.205,-35503.83,-45329.58,-7735.769999999999,9793.08
1764434660.3162868,27736.875,14290.965,57794.22,-7786.98,-35504.46,-45330.57,-7726.634999999999,9798.12
1764434660.3162868,27733.95,14292.36,57796.74,-7786.62,-35505.405,-45331.515,-7715.79,9803.25
1764434660.3162868,27732.015,14291.595,57796.11,-7788.195,-35507.205,-45334.35,-7711.965,9804.6
1764434660.3162868,27733.32,14291.055,57795.03,-7789.365,-35507.115,-45334.575,-7714.53,9803.43
1764434660.3162868,27736.605,14290.515,57793.59,-7789.5,-35506.125,-45333.09,-7720.965,9801.45
1764434660.3162868,27739.62,14289.795,57791.16,-7789.59,-35504.325,-45330.93,-7730.144999999999,9797.985
1764434660.3162868,27741.105,14288.715,57788.46,-7790.445,-35503.74,-45328.995,-7741.799999999999,9792.81
1764434660.3162868,27739.845,14285.97,57786.255,-7791.929999999999,-35505.494999999995,-45330.39,-7748.28,9787.815
1764434660.3162868,27741.33,14289.75,57789.9,-7787.61,-35502.525,-45327.195,-7742.924999999999,9790.92
1764434660.3162868,27737.55,14288.67,57789.81,-7788.735,-35505.405,-45330.075,-7738.019999999999,9791.82
1764434660.3172865,27741.15,14295.285,57797.865,-7783.695,-35501.04,-45325.53,-7722.315,9801.585
1764434660.3172865,27739.935,14298.3,57802.23,-7781.309999999999,-35499.555,-45325.62,-7709.58,9808.02
1764434660.3172865,27734.355,14294.115,57797.73,-7785.99,-35505.63,-45332.955,-7710.75,9805.05
1764434660.3172865,27737.055,14295.15,57798.18,-7785.224999999999,-35504.865,-45331.155,-7711.65,9806.31
1764434660.3172865,27739.26,14293.845,57796.11,-7785.585,-35504.01,-45330.435,-7718.804999999999,9803.745
1764434660.3172865,27739.17,14290.47,57791.07,-7788.78,-35505.675,-45330.84,-7730.28,9797.085
1764434660.3172865,27738.405,14285.925,57785.22,-7791.75,-35507.655,-45330.885,-7743.69,9789.12
1764434660.318288,27740.7,14287.5,57786.255,-7789.23,-35505.27,-45327.645,-7746.12,9788.49
1764434660.318288,27744.48,14292.495,57792.825,-7783.019999999999,-35499.915,-45322.695,-7738.559999999999,9794.88
1764434660.3624306,27742.86,14293.575,57795.57,-7782.705,-35499.869999999995,-45323.19,-7731.36,9798.03
1764434660.3624306,27741.285,14295.375,57798.855,-7781.759999999999,-35499.915,-45324.315,-7721.639999999999,9802.8
1764434660.3624306,27738.405,14296.095,57800.61,-7781.94,-35501.04,-45326.7,-7711.83,9807.12
1764434660.3624306,27734.895,14294.25,57798.72,-7785.045,-35504.369999999995,-45330.03,-7709.625,9807.03
1764434660.3624306,27734.13,14292.63,57795.75,-7786.844999999999,-35505.45,-45331.335,-7713.269999999999,9805.275
1764434660.3624306,27734.67,14289.66,57792.24,-7788.69,-35507.07,-45332.82,-7722.179999999999,9800.955
1764434660.3624306,27734.49,14284.44,57786.21,-7792.245,-35510.58,-45335.34,-7735.679999999999,9793.26
1764434660.3624306,27737.235,14283.225,57784.455,-7792.065,-35508.33,-45332.19,-7745.94,9788.895
1764434660.3624306,27741.6,14286.78,57788.46,-7787.295,-35503.335,-45327.42,-7745.94,9790.92
1764434660.3624306,27739.035,14286.285,57788.235,-7787.835,-35504.73,-45328.95,-7745.04,9790.38
1764434660.3624306,27740.025,14290.155,57792.78,-7784.955,-35502.795,-45327.735,-7734.78,9795.735
1764434660.3624306,27738.27,14292.36,57796.875,-7782.84,-35502.84,-45327.69,-7723.98,9801.225
1764434660.3624306,27733.68,14291.235,57796.83,-7784.955,-35507.295,-45332.28,-7715.79,9803.7
1764434660.3624306,27728.37,14286.51,57792.51,-7790.04,-35512.335,-45338.445,-7716.599999999999,9800.955
1764434660.3624306,27730.98,14288.355,57792.78,-7789.049999999999,-35510.22,-45336.33,-7717.32,9801.81
1764434660.3624306,27731.52,14286.195,57789.675,-7790.94,-35510.58,-45336.375,-7725.509999999999,9797.805
1764434660.3624306,27736.56,14287.77,57789.585,-7788.599999999999,-35507.925,-45332.19,-7732.889999999999,9796.095
1764434660.3624306,27737.685,14285.655,57785.31,-7789.365,-35508.33,-45330.57,-7744.724999999999,9790.02
1764434660.3624306,27738.9,14285.655,57785.895,-7787.565,-35506.53,-45328.68,-7747.74,9788.22
1764434660.3624306,27742.185,14290.515,57792.15,-7782.48,-35501.31,-45324.765,-7740.09,9793.53
1764434660.3634484,27741.06,14291.955,57794.58,-7781.58,-35501.22,-45325.17,-7732.394999999999,9796.995
1764434660.3634484,27738.18,14292.9,57796.515,-7781.49,-35502.615,-45326.745,-7723.215,9800.505
1764434660.3634484,27734.4,14292.72,57797.415,-7783.065,-35505.27,-45330.75,-7714.394999999999,9803.475
1764434660.3634484,27727.65,14286.96,57792.555,-7789.005,-35511.93,-45338.355,-7716.465,9800.415
1764434660.4070485,27727.38,14285.295,57789.9,-7791.344999999999,-35513.64,-45339.66,-7720.605,9798.615
1764434660.4070485,27729.405,14284.08,57788.73,-7791.929999999999,-35512.02,-45338.445,-7727.445,9796.095
1764434660.4070485,27732.87,14283.225,57786.48,-7791.75,-35510.805,-45335.88,-7736.445,9792.18
1764434660.4070485,27737.145,14283.63,57785.535,-7790.13,-35508.105,-45331.65,-7745.67,9789.03
1764434660.4070485,27740.97,14287.905,57788.865,-7785.855,-35503.2,-45326.7,-7745.04,9791.055
1764434660.4070485,27739.305,14288.355,57790.17,-7784.37,-35503.425,-45326.925,-7741.665,9791.73
1764434660.4070485,27735.255,14287.545,57790.845,-7786.665,-35506.439999999995,-45330.12,-7736.264999999999,9792.495
1764434660.4070485,27738.135,14294.16,57798.225,-7782.03,-35502.57,-45327.195,-7721.82,9800.775
1764434660.4070485,27733.95,14294.205,57798.72,-7783.11,-35505.314999999995,-45331.56,-7713.045,9804.33
1764434660.4080682,27728.235,14289.165,57793.68,-7788.915,-35511.705,-45338.94,-7714.889999999999,9801.36
1764434660.4080682,27732.78,14291.19,57795.21,-7787.25,-35509.095,-45335.88,-7715.7,9803.295
1764434660.4080682,27734.355,14290.425,57792.69,-7787.34,-35508.915,-45334.125,-7723.799999999999,9801.045
1764434660.4080682,27733.14,14286.015,57786.57,-7791.12,-35511.21,-45336.015,-7736.445,9793.845
1764434660.4080682,27736.29,14285.16,57785.175,-7790.804999999999,-35509.455,-45333.63,-7745.625,9789.525
1764434660.4080682,27738.495,14285.925,57785.895,-7788.554999999999,-35507.205,-45331.02,-7748.505,9788.535
1764434660.4080682,27738.81,14287.095,57789.0,-7786.844999999999,-35505.18,-45329.355,-7744.455,9790.785
1764434660.4080682,27736.2,14288.22,57791.295,-7785.585,-35506.08,-45330.75,-7737.66,9794.07
1764434660.4080682,27733.41,14289.03,57793.365,-7785.945,-35507.115,-45332.28,-7727.94,9797.67
1764434660.4080682,27731.61,14291.685,57796.965,-7785.764999999999,-35506.215,-45333.405,-7716.509999999999,9802.8
1764434660.4080682,27728.235,14288.895,57794.445,-7789.094999999999,-35509.77,-45337.14,-7715.384999999999,9802.26
1764434660.4080682,27728.01,14286.87,57791.16,-7791.344999999999,-35511.165,-45338.76,-7720.019999999999,9799.56
1764434660.4080682,27731.295,14286.87,57789.945,-7791.255,-35509.545,-45336.78,-7726.545,9797.76
1764434660.456586,27733.5,14286.105,57787.245,-7791.165,-35508.51,-45334.17,-7735.545,9794.16
1764434660.456586,27737.01,14285.61,57786.3,-7789.41,-35505.99,-45330.57,-7744.365,9790.56
1764434660.456586,27739.35,14287.185,57787.245,-7786.98,-35504.955,-45328.14,-7746.705,9790.02
1764434660.456586,27740.16,14289.48,57790.305,-7784.82,-35503.83,-45326.79,-7741.98,9792.81
1764434660.456586,27739.755,14292.72,57794.895,-7782.389999999999,-35502.615,-45325.125,-7732.799999999999,9797.04
1764434660.456586,27738.855,14295.105,57799.485,-7779.554999999999,-35500.095,-45325.53,-7721.37,9802.08
1764434660.456586,27737.28,14296.68,57801.33,-7779.599999999999,-35500.994999999995,-45327.69,-7710.344999999999,9807.885
1764434660.456586,27733.815,14294.295,57798.495,-7783.74,-35504.955,-45332.1,-7709.445,9806.985
1764434660.456586,27730.62,14289.66,57792.735,-7789.724999999999,-35510.265,-45336.69,-7717.545,9801.405
1764434660.456586,27733.275,14288.49,57790.62,-7789.679999999999,-35508.915,-45334.53,-7724.655,9798.975
1764434660.456586,27736.74,14288.31,57789.18,-7788.375,-35506.53,-45330.93,-7733.295,9796.095
1764434660.456586,27740.52,14288.49,57788.595,-7787.295,-35504.82,-45327.78,-7741.349999999999,9793.62
1764434660.457602,27743.535,14290.425,57790.665,-7784.639999999999,-35501.715,-45323.595,-7742.565,9794.07
1764434660.457602,27746.91,14295.51,57797.595,-7778.7,-35496.945,-45319.77,-7734.105,9799.605
1764434660.457602,27745.2,14296.275,57800.205,-7777.98,-35497.17,-45320.805,-7726.139999999999,9802.35
1764434660.457602,27740.565,14295.69,57801.24,-7778.969999999999,-35499.78,-45324.27,-7718.4,9804.735
1764434660.457602,27740.88,14299.605,57806.28,-7775.955,-35498.07,-45323.865,-7705.485,9811.935
1764434660.457602,27735.255,14294.835,57800.97,-7782.615,-35503.92,-45329.67,-7707.105,9808.2
1764434660.457602,27735.75,14294.205,57798.765,-7784.19,-35504.415,-45329.94,-7710.615,9806.4
1764434660.457602,27741.375,14296.635,57799.62,-7780.545,-35500.68,-45325.35,-7714.98,9806.985
1764434660.457602,27743.22,14295.465,57796.605,-7780.32,-35500.59,-45324.495,-7724.969999999999,9802.62
1764434660.4591143,27744.3,14292.9,57793.365,-7781.715,-35501.085,-45323.595,-7736.445,9796.77
1764434660.4591143,27749.655,14296.455,57797.82,-7777.53,-35496.45,-45318.555,-7735.769999999999,9798.885
1764434660.4591143,27749.61,14298.12,57800.61,-7775.325,-35494.605,-45317.34,-7731.179999999999,9801.63
1764434660.5026486,27744.345,14296.095,57799.26,-7777.08,-35497.485,-45321.615,-7726.545,9801.18
1764434660.5026486,27744.885,14300.64,57805.11,-7773.389999999999,-35495.505,-45319.815,-7713.54,9808.335
1764434660.5026486,27742.005,14301.135,57806.145,-7774.92,-35497.35,-45322.515,-7704.315,9812.07
1764434660.5026486,27737.55,14297.175,57802.455,-7779.87,-35502.345,-45327.645,-7705.17,9810.045
1764434660.5026486,27742.005,14299.56,57803.58,-7777.575,-35499.825,-45324.45,-7705.889999999999,9811.62
1764434660.5026486,27742.77,14297.265,57799.755,-7779.915,-35499.689999999995,-45325.44,-7714.62,9807.075
1764434660.5026486,27747.36,14299.47,57799.125,-7777.889999999999,-35496.72,-45321.21,-7722.09,9805.635
1764434660.5026486,27747.99,14296.635,57794.67,-7779.42,-35498.205,-45320.94,-7734.059999999999,9799.56
1764434660.5026486,27750.375,14298.48,57797.415,-7776.09,-35495.145,-45317.205,-7734.42,9800.46
1764434660.5026486,27752.445,14303.43,57802.41,-7771.094999999999,-35490.915,-45313.605,-7727.04,9804.735
1764434660.5026486,27750.51,14304.51,57805.11,-7770.105,-35490.689999999995,-45314.145,-7719.48,9808.425
1764434660.5026486,27746.595,14303.25,57805.2,-7772.535,-35493.615,-45318.015,-7712.594999999999,9810.045
1764434660.5026486,27747.36,14307.48,57810.33,-7768.394999999999,-35491.365,-45317.655,-7699.545,9817.56
1764434660.5026486,27743.355,14304.33,57807.225,-7772.715,-35495.595,-45322.425,-7699.724999999999,9816.03
1764434660.5026486,27747.945,14306.535,57808.305,-7770.87,-35492.805,-45319.725,-7700.535,9817.695
1764434660.5026486,27749.43,14304.96,57806.145,-7772.445,-35492.715,-45319.32,-7708.769999999999,9814.185
1764434660.5026486,27747.99,14300.145,57799.845,-7776.764999999999,-35496.405,-45321.975,-7722.63,9805.41
1764434660.5026486,27751.005,14299.47,57798.045,-7775.37,-35494.515,-45318.42,-7731.99,9801.585
1764434660.5026486,27755.235,14302.395,57800.97,-7771.455,-35490.78,-45314.145,-7731.764999999999,9802.935
1764434660.5026486,27750.42,14300.055,57799.035,-7773.299999999999,-35494.155,-45317.34,-7731.405,9801.27
1764434660.5026486,27748.71,14302.35,57802.86,-7771.005,-35492.67,-45317.25,-7721.82,9806.175
1764434660.5026486,27748.215,14305.365,57808.17,-7768.665,-35491.05,-45316.935,-7710.12,9812.745
1764434660.5458295,27743.805,14303.835,57808.35,-7771.049999999999,-35494.425,-45321.165,-7702.514999999999,9814.455
1764434660.546343,27737.28,14298.12,57801.33,-7778.205,-35501.04,-45328.95,-7705.71,9809.01
1764434660.546343,27738.27,14297.355,57799.44,-7779.644999999999,-35501.895,-45328.635,-7710.434999999999,9807.795
1764434660.546343,27743.355,14300.055,57800.835,-7777.17,-35497.89,-45324.315,-7714.62,9808.515
1764434660.546343,27743.58,14295.735,57795.525,-7779.554999999999,-35499.285,-45325.44,-7727.13,9801.99
1764434660.546343,27746.91,14295.96,57794.715,-7778.565,-35496.855,-45321.03,-7735.769999999999,9798.75
1764434660.546343,27751.86,14300.82,57799.53,-7772.759999999999,-35491.86,-45314.55,-7734.285,9802.395
1764434660.546343,27750.105,14300.73,57800.385,-7771.724999999999,-35491.455,-45315.63,-7730.415,9803.025
1764434660.546343,27744.57,14298.435,57799.035,-7774.38,-35495.1,-45321.345,-7726.139999999999,9802.755
1764434660.546343,27741.735,14298.795,57801.24,-7775.099999999999,-35496.675,-45322.965,-7715.969999999999,9807.39
1764434660.5468514,27742.86,14303.25,57807.405,-7772.174999999999,-35494.56,-45320.58,-7702.965,9815.67
1764434660.5468514,27742.815,14303.385,57807.585,-7772.759999999999,-35495.28,-45321.705,-7700.894999999999,9817.245
1764434660.5468514,27743.58,14301.81,57805.02,-7773.84,-35495.82,-45322.965,-7705.665,9814.86
1764434660.5468514,27741.69,14297.4,57799.62,-7777.799999999999,-35498.88,-45324.855,-7716.465,9808.335
1764434660.5468514,27747.18,14299.335,57799.395,-7774.514999999999,-35495.325,-45320.175,-7723.08,9806.85
1764434660.5468514,27746.955,14295.6,57795.03,-7776.63,-35496.405,-45320.58,-7735.455,9800.145
1764434660.5468514,27750.78,14298.66,57798.0,-7772.309999999999,-35492.445,-45316.08,-7734.96,9801.36
1764434660.5468514,27748.17,14297.85,57798.225,-7772.49,-35493.975,-45317.88,-7732.844999999999,9801.18
1764434660.5468514,27748.71,14302.53,57803.31,-7769.474999999999,-35492.04,-45315.855,-7721.73,9807.795
1764434660.5468514,27747.045,14304.825,57807.27,-7768.755,-35491.275,-45315.945,-7710.12,9813.105
1764434660.5468514,27743.4,14302.98,57807.585,-7770.554999999999,-35494.515,-45319.68,-7702.065,9815.265
1764434660.5478756,27737.595,14297.715,57802.005,-7776.585,-35501.13,-45325.98,-7705.44,9811.17
1764434660.5478756,27738.9,14297.445,57800.835,-7777.889999999999,-35500.905,-45325.305,-7709.94,9810.945
1764434660.5478756,27743.895,14299.785,57802.635,-7774.965,-35497.215,-45321.345,-7713.719999999999,9812.115
1764434660.5969355,27743.895,14296.32,57796.965,-7776.945,-35498.88,-45321.525,-7726.32,9804.78
1764434660.5969355,27745.83,14295.42,57794.67,-7776.495,-35497.71,-45318.825,-7735.905,9800.055
1764434660.5969355,27749.655,14298.3,57798.81,-7772.264999999999,-35493.84,-45314.145,-7734.33,9802.53
1764434660.5969355,27746.685,14297.355,57798.81,-7773.615,-35495.64,-45316.305,-7732.215,9802.71
1764434660.5969355,27748.125,14302.035,57804.705,-7769.115,-35492.265,-45314.37,-7721.19,9809.19
1764434660.5969355,27747.36,14305.275,57808.62,-7766.91,-35491.275,-45314.595,-7709.04,9814.275
1764434660.5969355,27743.49,14304.42,57809.07,-7769.565,-35494.2,-45318.105,-7701.21,9817.155
1764434660.5969355,27738.0,14298.21,57803.535,-7776.9,-35500.545,-45325.17,-7704.63,9813.33
1764434660.5969355,27737.91,14295.78,57799.53,-7778.835,-35502.255,-45327.24,-7710.03,9809.145
1764434660.5969355,27741.87,14297.4,57799.26,-7776.585,-35498.97,-45323.865,-7715.565,9808.605
1764434660.5969355,27741.195,14293.44,57793.365,-7779.375,-35501.67,-45325.62,-7728.974999999999,9801.405
1764434660.5969355,27743.85,14292.45,57790.98,-7779.059999999999,-35500.59,-45323.955,-7738.695,9797.22
1764434660.5969355,27745.245,14293.035,57792.735,-7776.945,-35498.34,-45320.625,-7739.955,9796.86
1764434660.5969355,27747.45,14297.76,57798.0,-7771.95,-35494.47,-45316.89,-7731.945,9802.53
1764434660.5969355,27745.56,14299.065,57800.88,-7771.23,-35495.055,-45318.33,-7723.889999999999,9805.995
1764434660.5969355,27743.67,14301.18,57805.02,-7770.195,-35494.695,-45319.14,-7712.684999999999,9810.855
1764434660.5969355,27741.42,14301.855,57806.1,-7770.644999999999,-35496.0,-45321.57,-7703.37,9814.545
1764434660.5969355,27737.01,14297.715,57801.69,-7775.415,-35500.68,-45326.79,-7706.115,9811.62
1764434660.5969355,27738.63,14296.59,57799.575,-7776.719999999999,-35502.119999999995,-45327.645,-7710.255,9809.91
1764434660.5969355,27743.895,14298.66,57799.665,-7774.65,-35498.79,-45323.595,-7714.665,9810.045
1764434660.5969355,27746.235,14297.49,57796.875,-7774.245,-35497.755,-45321.57,-7724.79,9805.815
1764434660.5969355,27746.055,14295.015,57793.275,-7775.594999999999,-35498.43,-45321.165,-7736.355,9799.83
1764434660.5969355,27747.585,14295.285,57794.13,-7773.66,-35496.45,-45319.095,-7738.019999999999,9799.695
1764434660.5969355,27749.565,14299.2,57798.54,-7769.565,-35493.255,-45316.035,-7729.92,9803.52
1764434660.6428316,27743.805,14297.355,57797.82,-7772.535,-35497.665,-45320.715,-7724.61,9803.205
1764434660.6428316,27744.57,14302.125,57803.94,-7768.53,-35495.28,-45318.87,-7711.559999999999,9811.17
1764434660.6428316,27743.805,14304.465,57806.64,-7767.9,-35495.415,-45320.265,-7701.795,9816.165
1764434660.6428316,27741.735,14301.45,57803.13,-7771.815,-35498.925,-45323.865,-7701.884999999999,9814.995
1764434660.6428316,27737.55,14295.96,57796.245,-7776.99,-35504.189999999995,-45328.77,-7711.29,9808.83
1764434660.6428316,27739.98,14295.6,57794.31,-7777.889999999999,-35503.11,-45327.105,-7718.309999999999,9805.815
1764434660.6428316,27746.595,14297.625,57795.21,-7774.965,-35499.105,-45321.57,-7725.285,9805.905
1764434660.6428316,27746.01,14294.43,57790.935,-7776.719999999999,-35500.32,-45321.705,-7736.804999999999,9799.335
1764434660.6428316,27745.29,14293.845,57791.385,-7775.549999999999,-35500.14,-45320.445,-7738.92,9797.94
1764434660.6428316,27745.83,14296.05,57795.075,-7771.679999999999,-35497.755,-45319.275,-7733.025,9801.18
1764434660.6428316,27748.35,14301.765,57801.51,-7767.179999999999,-35493.93,-45316.935,-7720.875,9807.975
1764434660.6428316,27746.1,14304.105,57804.795,-7766.73,-35494.47,-45317.88,-7710.165,9813.105
1764434660.6428316,27742.32,14302.755,57804.48,-7769.474999999999,-35497.755,-45321.48,-7703.235,9815.445
1764434660.6428316,27736.47,14295.735,57797.91,-7776.134999999999,-35503.965,-45328.455,-7706.79,9810.09
1764434660.6428316,27738.585,14295.825,57796.65,-7776.63,-35503.02,-45327.78,-7710.84,9808.56
1764434660.6428316,27743.535,14298.435,57797.37,-7774.065,-35499.105,-45323.37,-7715.745,9808.83
1764434660.6428316,27745.785,14297.13,57794.625,-7775.009999999999,-35498.655,-45321.48,-7726.455,9803.745
1764434660.6428316,27747.855,14295.735,57792.915,-7774.38,-35497.755,-45319.41,-7735.275,9799.38
1764434660.6428316,27745.335,14292.81,57791.16,-7775.955,-35499.015,-45320.715,-7739.415,9795.195
1764434660.6428316,27747.315,14296.545,57796.74,-7772.04,-35495.189999999995,-45317.34,-7731.45,9800.865
1764434660.6428316,27742.095,14293.8,57795.255,-7774.559999999999,-35498.88,-45321.84,-7727.13,9801.09
1764434660.6428316,27740.835,14296.86,57799.035,-7772.894999999999,-35499.105,-45322.065,-7715.429999999999,9806.58
1764434660.6868055,27743.31,14302.53,57805.56,-7768.394999999999,-35495.1,-45319.455,-7701.615,9815.355
1764434660.6868055,27741.195,14301.585,57802.995,-7770.78,-35497.755,-45321.84,-7702.29,9815.085
1764434660.6868055,27739.125,14297.13,57797.19,-7775.054999999999,-35501.13,-45325.17,-7709.894999999999,9809.46
1764434660.6868055,27741.105,14295.87,57794.805,-7775.505,-35500.545,-45324.45,-7717.094999999999,9806.67
1764434660.6868055,27747.945,14299.245,57796.335,-7771.995,-35495.28,-45318.555,-7724.07,9806.715
1764434660.6868055,27751.68,14299.83,57796.29,-7769.88,-35492.355,-45314.28,-7731.09,9804.06
1764434660.6868055,27749.34,14297.67,57795.48,-7770.69,-35493.795,-45314.865,-7734.195,9800.865
1764434660.6868055,27750.645,14300.82,57800.16,-7766.73,-35491.59,-45312.795,-7727.264999999999,9805.095
1764434660.6868055,27745.92,14298.435,57799.08,-7769.205,-35495.145,-45316.755,-7722.54,9806.445
1764434660.6868055,27745.02,14300.595,57802.815,-7767.809999999999,-35495.01,-45316.935,-7710.389999999999,9812.16
1764434660.6878183,27748.305,14307.03,57809.295,-7763.49,-35490.869999999995,-45314.37,-7696.665,9821.835
1764434660.6878183,27745.155,14303.745,57805.74,-7767.63,-35494.02,-45318.195,-7698.195,9819.18
1764434660.6878183,27742.95,14298.885,57800.25,-7771.815,-35498.205,-45321.255,-7706.7,9813.375
1764434660.6878183,27748.26,14300.955,57800.88,-7768.889999999999,-35494.83,-45316.485,-7711.514999999999,9813.735
1764434660.6878183,27748.035,14297.31,57795.525,-7771.23,-35496.405,-45317.79,-7724.79,9806.31
1764434660.6878183,27752.355,14298.48,57795.93,-7769.25,-35493.48,-45314.19,-7732.53,9803.61
1764434660.6878183,27754.92,14301.18,57798.27,-7765.74,-35489.475,-45310.23,-7730.549999999999,9805.59
1764434660.6878183,27754.47,14302.755,57801.195,-7764.344999999999,-35488.485,-45309.6,-7724.745,9808.38
1764434660.6878183,27752.805,14304.645,57805.11,-7762.679999999999,-35488.485,-45310.05,-7715.924999999999,9812.79
1764434660.6878183,27750.15,14306.715,57808.44,-7761.915,-35489.25,-45311.67,-7705.08,9817.92
1764434660.6878183,27747.855,14307.3,57810.195,-7763.4,-35490.375,-45314.1,-7696.889999999999,9822.195
1764434660.6878183,27745.92,14305.725,57807.54,-7766.19,-35492.939999999995,-45316.98,-7696.71,9820.98
1764434660.731905,27745.92,14302.53,57803.4,-7769.34,-35495.91,-45318.555,-7703.73,9816.885
1764434660.731905,27750.195,14303.61,57803.76,-7767.719999999999,-35493.119999999995,-45315.54,-7710.21,9815.76
1764434660.731905,27749.475,14299.47,57798.18,-7770.96,-35494.695,-45317.385,-7724.115,9807.705
1764434660.731905,27754.38,14300.865,57798.855,-7767.63,-35491.23,-45312.21,-7729.74,9807.03
1764434660.731905,27753.075,14299.605,57797.37,-7768.08,-35491.77,-45312.75,-7731.9,9805.185
1764434660.731905,27753.12,14302.08,57801.015,-7766.325,-35490.285,-45311.805,-7725.78,9807.975
1764434660.731905,27747.72,14299.515,57800.655,-7769.115,-35493.57,-45315.99,-7721.235,9807.75
1764434660.731905,27746.325,14302.17,57804.795,-7767.09,-35492.715,-45316.305,-7708.679999999999,9814.635
1764434660.731905,27746.235,14305.455,57808.62,-7765.29,-35491.185,-45315.495,-7696.799999999999,9821.61
1764434660.731905,27743.715,14303.43,57805.92,-7768.394999999999,-35494.74,-45318.915,-7697.969999999999,9819.9
1764434660.7329216,27748.755,14305.455,57806.82,-7766.775,-35492.04,-45316.35,-7701.344999999999,9820.17
1764434660.7329216,27751.005,14304.645,57803.985,-7767.855,-35491.455,-45315.405,-7709.849999999999,9817.515
1764434660.7329216,27753.12,14303.655,57801.24,-7768.62,-35491.68,-45313.605,-7720.695,9812.88
1764434660.7329216,27753.21,14300.73,57797.91,-7769.07,-35493.345,-45313.11,-7730.82,9806.94
1764434660.7329216,27756.9,14305.095,57802.005,-7765.019999999999,-35488.305,-45308.79,-7727.715,9809.28
1764434660.7329216,27757.035,14306.895,57805.695,-7763.174999999999,-35486.145,-45307.08,-7721.28,9813.06
1764434660.7329216,27755.01,14308.11,57808.35,-7762.455,-35486.46,-45307.935,-7713.045,9816.3
1764434660.7329216,27752.31,14309.73,57811.455,-7760.969999999999,-35486.775,-45309.555,-7702.469999999999,9820.62
1764434660.7329216,27749.835,14309.1,57812.085,-7762.094999999999,-35488.575,-45311.67,-7695.09,9823.59
1764434660.7329216,27749.205,14308.245,57810.375,-7764.929999999999,-35490.465,-45313.83,-7694.865,9822.825
1764434660.7329216,27749.835,14306.715,57807.18,-7766.82,-35492.22,-45314.595,-7700.985,9820.17
1764434660.7329216,27749.25,14301.63,57801.285,-7770.33,-35494.47,-45315.99,-7712.28,9813.735
1764434660.7329216,27754.875,14304.33,57802.23,-7766.639999999999,-35489.385,-45311.715,-7719.525,9812.61
1764434660.7329216,27756.63,14303.205,57799.62,-7766.28,-35489.25,-45310.23,-7728.615,9808.245
1764434660.780478,27758.16,14304.33,57801.42,-7763.355,-35487.494999999995,-45307.35,-7727.58,9808.875
1764434660.780478,27752.85,14302.125,57799.845,-7765.11,-35489.97,-45310.77,-7725.78,9807.93
1764434660.780478,27751.41,14304.96,57803.445,-7763.894999999999,-35488.755,-45310.14,-7716.69,9812.61
1764434660.780478,27754.83,14313.06,57812.535,-7757.325,-35482.994999999995,-45305.46,-7699.23,9823.86
1764434660.780478,27755.145,14315.49,57815.73,-7756.38,-35483.04,-45306.54,-7688.655,9829.53
1764434660.780478,27753.885,14312.835,57813.255,-7759.62,-35486.28,-45310.68,-7689.825,9828.405
1764434660.780478,27752.85,14309.73,57809.655,-7762.5,-35487.855,-45311.985,-7697.025,9824.31
1764434660.780478,27750.465,14303.925,57803.175,-7767.179999999999,-35492.265,-45314.865,-7709.4,9816.57
1764434660.780478,27757.08,14306.67,57803.85,-7764.12,-35488.215,-45309.555,-7716.105,9816.165
1764434660.780478,27761.31,14307.66,57804.255,-7762.005,-35484.21,-45305.19,-7722.945,9814.41
1764434660.780478,27760.185,14306.085,57803.805,-7762.545,-35485.064999999995,-45305.19,-7725.105,9811.665
1764434660.780478,27760.005,14308.785,57807.135,-7760.115,-35483.31,-45302.94,-7718.49,9814.905
1764434660.780478,27752.76,14305.32,57804.435,-7763.715,-35488.305,-45308.835,-7715.655,9813.285
1764434660.780478,27750.735,14307.075,57807.72,-7763.174999999999,-35489.025,-45310.77,-7704.54,9818.46
1764434660.780478,27754.155,14312.745,57814.02,-7758.945,-35485.425,-45307.44,-7691.219999999999,9826.875
1764434660.780478,27754.425,14312.52,57813.12,-7759.889999999999,-35487.045,-45309.375,-7691.219999999999,9826.695
1764434660.780478,27751.32,14306.85,57806.235,-7765.83,-35491.545,-45313.695,-7701.57,9819.945
1764434660.780478,27752.265,14305.005,57802.68,-7767.134999999999,-35492.22,-45313.02,-7710.255,9815.535
1764434660.780478,27755.19,14305.005,57801.015,-7766.955,-35490.78,-45310.095,-7720.469999999999,9811.53
1764434660.780478,27759.735,14306.625,57801.87,-7763.715,-35486.73,-45306.18,-7725.96,9810.585
1764434660.780478,27763.83,14310.45,57806.955,-7758.495,-35481.645,-45301.23,-7722.134999999999,9814.635
1764434660.780478,27759.33,14308.785,57807.18,-7759.665,-35485.2,-45303.93,-7719.615,9814.23
1764434660.780478,27758.115,14309.415,57809.88,-7758.54,-35486.055,-45305.235,-7710.929999999999,9817.335
1764434660.780478,27759.51,14314.455,57816.45,-7754.804999999999,-35482.365,-45303.12,-7696.665,9826.02
1764434660.8280013,27757.62,14316.48,57818.205,-7754.445,-35481.78,-45303.66,-7687.799999999999,9831.015
1764434660.8280013,27754.56,14313.33,57814.155,-7758.809999999999,-35486.145,-45308.205,-7690.184999999999,9828.36
1764434660.8280013,27753.525,14309.37,57808.935,-7761.96,-35489.295,-45310.545,-7698.15,9823.545
1764434660.8285332,27759.06,14311.215,57808.935,-7759.08,-35485.515,-45306.54,-7703.19,9823.41
1764434660.8285332,27759.24,14307.21,57803.445,-7762.32,-35486.91,-45307.44,-7716.69,9815.76
1764434660.8285332,27764.145,14309.46,57804.885,-7758.9,-35482.095,-45302.355,-7721.73,9814.995
1764434660.8285332,27762.975,14309.055,57805.2,-7758.315,-35481.465,-45301.32,-7722.224999999999,9813.915
1764434660.8285332,27757.98,14307.165,57803.895,-7760.295,-35484.615,-45304.65,-7720.2,9812.61
1764434660.8285332,27756.9,14308.56,57807.18,-7759.889999999999,-35485.38,-45306.405,-7711.11,9816.795
1764434660.8285332,27757.305,14313.87,57814.02,-7755.255,-35481.78,-45303.3,-7695.719999999999,9825.21
1764434660.8285332,27754.875,14313.78,57814.155,-7757.054999999999,-35484.345,-45306.27,-7687.844999999999,9828.495
1764434660.8285332,27754.155,14311.89,57812.085,-7759.62,-35486.189999999995,-45309.69,-7690.139999999999,9826.875
1764434660.8285332,27753.57,14308.11,57807.495,-7762.905,-35488.665,-45312.66,-7699.32,9821.88
1764434660.8285332,27754.83,14306.355,57804.435,-7764.66,-35488.89,-45312.39,-7707.105,9818.685
1764434660.8285332,27759.42,14307.615,57803.985,-7763.355,-35486.189999999995,-45307.845,-7715.79,9816.975
1764434660.8290646,27758.61,14304.06,57800.07,-7764.75,-35487.675,-45307.53,-7726.815,9810.855
1764434660.8290646,27759.555,14305.095,57801.69,-7762.41,-35485.965,-45305.325,-7726.995,9811.035
1764434660.8290646,27760.41,14308.56,57806.37,-7759.215,-35483.67,-45303.255,-7719.165,9815.49
1764434660.8290646,27760.275,14310.135,57809.565,-7757.82,-35483.625,-45303.975,-7709.715,9820.26
1764434660.8290646,27762.075,14316.345,57816.81,-7752.599999999999,-35480.52,-45301.59,-7693.695,9828.81
1764434660.8722205,27760.905,14318.46,57819.69,-7752.33,-35480.79,-45302.76,-7684.559999999999,9833.22
1764434660.8722205,27758.61,14316.435,57816.495,-7755.165,-35483.265,-45306.0,-7686.495,9831.285
1764434660.8722205,27758.88,14313.285,57812.355,-7757.955,-35485.155,-45307.845,-7693.83,9827.235
1764434660.8722205,27756.855,14308.335,57805.83,-7762.32,-35487.855,-45310.095,-7706.519999999999,9820.89
1764434660.8722205,27758.25,14306.265,57801.96,-7762.455,-35487.585,-45308.79,-7717.724999999999,9814.995
1764434660.8722205,27765.0,14309.685,57804.21,-7757.37,-35482.725,-45303.165,-7722.134999999999,9815.04
1764434660.8722205,27763.065,14308.785,57803.67,-7758.045,-35483.939999999995,-45304.02,-7723.755,9812.61
1764434660.8722205,27766.665,14314.635,57811.545,-7752.24,-35478.72,-45298.935,-7712.955,9820.665
1764434660.8722205,27764.82,14316.21,57813.615,-7751.384999999999,-35478.27,-45299.115,-7704.405,9825.12
1764434660.8722205,27757.08,14312.16,57811.185,-7756.469999999999,-35484.795,-45306.81,-7697.79,9824.085
1764434660.8722205,27755.01,14312.88,57813.165,-7757.144999999999,-35485.605,-45308.97,-7690.23,9827.505
1764434660.8722205,27751.095,14308.56,57808.305,-7762.32,-35490.915,-45314.1,-7695.224999999999,9824.04
1764434660.8722205,27753.165,14308.155,57806.55,-7762.905,-35490.24,-45313.11,-7699.995,9822.78
1764434660.8722205,27758.475,14309.91,57807.585,-7760.384999999999,-35486.189999999995,-45308.88,-7704.945,9822.645
1764434660.8722205,27759.735,14307.12,57803.715,-7761.42,-35485.695,-45307.755,-7717.275,9816.57
1764434660.8722205,27758.61,14303.835,57799.665,-7763.174999999999,-35487.494999999995,-45307.935,-7727.67,9810.36
1764434660.8722205,27763.02,14308.875,57804.345,-7757.37,-35482.905,-45302.805,-7723.71,9814.23
1764434660.8722205,27763.965,14312.25,57809.385,-7753.455,-35479.89,-45301.05,-7715.429999999999,9818.73
1764434660.8722205,27762.48,14314.005,57812.67,-7752.78,-35479.215,-45301.905,-7705.44,9823.005
1764434660.8722205,27760.545,14315.31,57815.28,-7752.33,-35479.755,-45303.705,-7693.245,9828.135
1764434660.8722205,27757.305,14315.085,57815.145,-7754.309999999999,-35482.005,-45306.54,-7687.485,9829.935
1764434660.8722205,27752.04,14309.91,57808.98,-7760.295,-35487.855,-45312.165,-7693.065,9824.94
1764434660.8722205,27754.47,14309.595,57807.72,-7760.07,-35487.494999999995,-45310.905,-7698.375,9824.175
1764434660.8722205,27760.005,14311.755,57808.62,-7757.28,-35483.67,-45306.18,-7703.325,9824.355
1764434660.8722205,27759.33,14306.49,57802.32,-7761.24,-35486.28,-45308.205,-7718.355,9816.345
1764434660.8722205,27760.455,14305.14,57800.115,-7761.24,-35485.92,-45306.81,-7726.769999999999,9812.835
1764434660.9195316,27760.23,14305.725,57800.88,-7760.429999999999,-35485.29,-45305.82,-7726.139999999999,9812.16
1764434660.9200544,27759.42,14306.895,57803.805,-7758.764999999999,-35484.975,-45305.145,-7719.705,9814.995
1764434660.9200544,27759.96,14310.495,57809.52,-7755.525,-35482.455,-45303.57,-7708.769999999999,9821.205
1764434660.9200544,27756.045,14310.18,57810.555,-7756.514999999999,-35483.939999999995,-45306.63,-7699.275,9824.13
1764434660.9200544,27757.755,14314.23,57814.92,-7753.815,-35481.465,-45304.875,-7688.115,9832.005
1764434660.9200544,27757.17,14313.285,57813.435,-7755.03,-35483.265,-45306.99,-7689.78,9831.78
1764434660.9200544,27755.46,14309.19,57807.495,-7759.934999999999,-35486.505,-45310.275,-7698.825,9825.615
1764434660.9200544,27759.465,14310.315,57806.505,-7758.495,-35483.85,-45306.405,-7705.259999999999,9824.535
1764434660.9200544,27759.15,14305.95,57801.105,-7760.969999999999,-35486.145,-45307.08,-7718.804999999999,9816.705
1764434660.9200544,27761.04,14305.77,57800.34,-7759.17,-35484.21,-45304.56,-7724.835,9813.6
1764434660.9200544,27761.535,14307.165,57802.23,-7757.865,-35482.77,-45303.03,-7723.394999999999,9813.735
1764434660.9200544,27761.715,14310.405,57806.28,-7754.804999999999,-35481.555,-45301.68,-7716.15,9818.46
1764434660.9200544,27756.135,14308.11,57805.02,-7757.82,-35485.785,-45306.54,-7711.065,9818.235
1764434660.9200544,27756.63,14312.745,57810.645,-7755.299999999999,-35482.86,-45305.325,-7696.844999999999,9826.2
1764434660.9200544,27753.615,14312.34,57811.86,-7755.75,-35483.67,-45306.945,-7689.42,9828.945
1764434660.9200544,27751.5,14310.18,57809.16,-7758.764999999999,-35486.955,-45309.87,-7691.715,9826.47
1764434660.9200544,27752.85,14307.705,57804.885,-7760.655,-35488.619999999995,-45310.95,-7699.365,9822.78
1764434660.9200544,27758.745,14310.585,57806.685,-7757.415,-35484.3,-45305.865,-7704.9,9823.095
1764434660.9200544,27759.96,14307.93,57802.32,-7759.349999999999,-35485.02,-45306.09,-7717.59,9817.245
1764434660.9200544,27757.485,14303.205,57797.19,-7762.815,-35488.439999999995,-45307.845,-7728.84,9810.405
1764434660.9200544,27757.53,14304.645,57799.08,-7761.375,-35486.64,-45306.09,-7727.58,9811.08
1764434660.9200544,27759.195,14308.83,57803.805,-7756.83,-35483.265,-45303.345,-7718.94,9816.57
1764434660.9200544,27762.615,14314.365,57810.735,-7751.115,-35479.395,-45300.24,-7706.025,9825.12
1764434660.9200544,27762.075,14318.01,57816.585,-7748.82,-35477.955,-45300.015,-7693.065,9832.005
1764434660.968449,27759.825,14317.875,57816.63,-7750.304999999999,-35479.215,-45302.265,-7686.405,9834.345
1764434660.968449,27753.165,14310.135,57808.53,-7758.179999999999,-35486.189999999995,-45309.87,-7693.875,9828.0
1764434660.968449,27754.2,14308.605,57805.695,-7759.62,-35487.135,-45309.915,-7700.4,9825.03
1764434660.9689748,27761.625,14313.195,57808.71,-7754.264999999999,-35481.42,-45302.94,-7703.099999999999,9826.875
1764434660.9689748,27765.495,14313.195,57806.46,-7753.005,-35479.395,-45299.745,-7713.719999999999,9823.095
1764434660.9689748,27762.885,14309.415,57801.825,-7755.434999999999,-35481.15,-45300.87,-7723.844999999999,9816.57
1764434660.9689748,27763.29,14310.135,57804.03,-7754.219999999999,-35479.89,-45299.79,-7723.08,9816.705
1764434660.9689748,27766.08,14314.5,57809.97,-7749.9,-35477.01,-45296.775,-7713.179999999999,9822.645
1764434660.9689748,27760.32,14311.845,57808.08,-7753.59,-35482.095,-45302.13,-7708.5,9821.745
1764434660.9689748,27757.575,14313.51,57810.78,-7753.455,-35482.68,-45303.84,-7696.844999999999,9826.29
1764434660.9689748,27758.205,14316.255,57815.1,-7751.655,-35481.285,-45302.4,-7687.17,9832.32
1764434660.9689748,27757.125,14313.87,57812.13,-7754.264999999999,-35482.86,-45304.695,-7689.42,9831.33
1764434660.9689748,27759.195,14313.195,57809.61,-7755.12,-35482.68,-45304.245,-7695.269999999999,9829.08
1764434660.9689748,27760.86,14312.205,57806.685,-7755.929999999999,-35481.869999999995,-45302.625,-7703.73,9824.625
1764434660.9689748,27761.76,14308.875,57802.455,-7757.955,-35483.04,-45302.895,-7716.87,9818.055
1764434660.9689748,27761.04,14306.31,57798.99,-7760.295,-35484.615,-45303.84,-7726.724999999999,9812.025
1764434660.9689748,27760.14,14307.075,57800.16,-7758.855,-35483.985,-45303.255,-7725.69,9812.16
1764434660.9689748,27760.275,14310.18,57804.165,-7756.335,-35482.14,-45302.265,-7717.184999999999,9817.02
1764434660.9689748,27762.21,14315.895,57811.23,-7751.565,-35478.0,-45298.53,-7703.82,9825.885
1764434660.9689748,27761.535,14318.505,57815.685,-7749.09,-35477.73,-45298.845,-7692.075,9832.095
1764434660.9689748,27757.98,14315.895,57813.795,-7751.88,-35481.689999999995,-45302.625,-7688.384999999999,9833.355
1764434660.9689748,27752.31,14309.37,57807.0,-7759.08,-35487.63,-45309.33,-7694.505,9827.01
1764434660.9689748,27756.45,14311.125,57807.315,-7757.639999999999,-35485.02,-45307.305,-7697.79,9826.695
1764434660.9689748,27762.435,14314.455,57808.62,-7753.32,-35479.845,-45300.915,-7701.795,9828.0
1764434661.0133705,27763.605,14312.07,57803.985,-7754.58,-35480.115,-45299.97,-7713.315,9821.52
1764434661.0133705,27770.175,14316.345,57808.035,-7749.405,-35474.535,-45293.445,-7714.665,9823.59
1764434661.0133705,27771.435,14317.92,57810.735,-7747.335,-35472.78,-45292.275,-7712.955,9824.76
1764434661.0133705,27770.265,14319.36,57812.715,-7745.715,-35472.689999999995,-45292.86,-7706.655,9827.775
1764434661.0133705,27767.25,14319.675,57814.65,-7745.309999999999,-35473.905,-45294.525,-7697.969999999999,9831.15
1764434661.0133705,27760.905,14317.155,57813.57,-7749.63,-35478.405,-45299.79,-7690.95,9832.365
1764434661.0133705,27760.68,14319.135,57815.685,-7749.315,-35478.585,-45301.14,-7683.795,9836.415
1764434661.0133705,27754.92,14312.43,57808.305,-7756.019999999999,-35485.29,-45307.8,-7690.32,9829.845
1764434661.0133705,27756.18,14310.27,57805.425,-7757.91,-35486.145,-45308.43,-7697.655,9826.695
1764434661.0133705,27760.545,14310.945,57805.2,-7756.065,-35483.085,-45305.595,-7703.955,9825.03
1764434661.0133705,27764.055,14310.81,57803.265,-7754.67,-35480.97,-45301.95,-7713.269999999999,9821.43
1764434661.0133705,27769.41,14314.77,57807.315,-7749.945,-35475.93,-45295.29,-7715.79,9823.275
1764434661.0138805,27768.735,14314.68,57808.26,-7749.495,-35475.03,-45294.84,-7715.25,9822.375
1764434661.0138805,27761.67,14311.17,57804.435,-7753.815,-35479.89,-45300.285,-7713.99,9820.17
1764434661.0138805,27758.34,14311.395,57805.335,-7754.4,-35481.555,-45302.49,-7706.429999999999,9822.24
1764434661.0138805,27759.87,14316.705,57812.4,-7749.495,-35478.045,-45301.23,-7691.49,9830.34
1764434661.0138805,27758.745,14316.84,57813.345,-7750.53,-35480.295,-45303.705,-7685.144999999999,9833.625
1764434661.0138805,27754.515,14312.07,57807.855,-7755.615,-35484.75,-45308.205,-7689.915,9829.575
1764434661.0138805,27750.87,14305.455,57800.52,-7761.42,-35489.07,-45311.85,-7701.12,9821.97
1764434661.0138805,27754.65,14305.815,57799.53,-7760.519999999999,-35487.27,-45308.835,-7708.769999999999,9819.495
1764434661.0138805,27762.255,14308.335,57800.925,-7756.155,-35481.825,-45301.995,-7716.33,9819.09
1764434661.014415,27763.74,14307.66,57800.025,-7755.705,-35480.655,-45299.475,-7721.955,9815.805
1764434661.0533752,27766.035,14310.945,57804.075,-7752.014999999999,-35477.28,-45295.965,-7717.59,9818.46
1764434661.0533752,27762.39,14309.955,57804.12,-7753.184999999999,-35479.26,-45298.755,-7713.179999999999,9818.73
1764434661.0533752,27763.065,14314.05,57809.7,-7749.63,-35477.595,-45297.855,-7701.48,9825.435
1764434661.0533752,27760.41,14315.22,57812.22,-7749.315,-35478.405,-45299.745,-7690.905,9829.44
1764434661.0533752,27756.81,14313.33,57810.645,-7752.33,-35481.735,-45304.065,-7687.17,9829.665
1764434661.0533752,27754.785,14310.09,57806.55,-7755.84,-35484.48,-45306.54,-7691.13,9826.965
1764434661.0533752,27753.795,14305.95,57801.33,-7759.62,-35487.855,-45308.655,-7700.804999999999,9821.565
1764434661.0533752,27756.9,14306.265,57800.25,-7758.9,-35486.325,-45306.54,-7708.95,9819.18
1764434661.0533752,27761.445,14306.67,57798.945,-7757.28,-35483.265,-45302.265,-7717.769999999999,9816.93
1764434661.0533752,27766.98,14310.135,57802.14,-7752.24,-35477.865,-45296.145,-7719.48,9816.975
1764434661.0533752,27766.845,14311.215,57803.4,-7750.62,-35477.1,-45296.28,-7717.41,9818.055
1764434661.0533752,27761.625,14308.92,57802.95,-7753.545,-35480.925,-45300.24,-7714.08,9817.785
1764434661.0533752,27758.385,14308.785,57804.57,-7754.13,-35482.365,-45302.22,-7707.014999999999,9820.98
1764434661.0533752,27756.72,14311.575,57808.305,-7752.78,-35481.825,-45303.255,-7694.73,9827.1
1764434661.0533752,27760.995,14317.335,57813.93,-7748.865,-35478.99,-45300.015,-7683.48,9834.975
1764434661.0533752,27759.825,14315.13,57810.96,-7751.88,-35481.42,-45302.445,-7686.719999999999,9832.95
1764434661.0533752,27757.71,14309.955,57804.885,-7756.335,-35485.02,-45304.875,-7697.205,9826.83
1764434661.0533752,27761.895,14310.315,57804.93,-7754.4,-35481.869999999995,-45301.77,-7703.91,9825.165
1764434661.0533752,27764.46,14308.92,57801.87,-7754.715,-35480.564999999995,-45299.7,-7714.844999999999,9819.54
1764434661.0533752,27765.18,14307.345,57800.565,-7754.174999999999,-35480.025,-45298.35,-7721.639999999999,9815.805
1764434661.0533752,27768.735,14312.97,57806.415,-7748.684999999999,-35474.985,-45292.68,-7715.565,9820.935
1764434661.0533752,27766.395,14313.78,57807.54,-7748.639999999999,-35475.84,-45294.435,-7709.355,9823.185
1764434661.1008146,27764.91,14315.805,57810.285,-7748.054999999999,-35476.47,-45295.38,-7699.59,9827.91
1764434661.1023624,27763.695,14318.37,57813.885,-7746.255,-35475.93,-45295.2,-7686.719999999999,9834.84
1764434661.1023624,27764.82,14321.97,57816.855,-7744.995,-35474.58,-45294.66,-7677.764999999999,9839.745
1764434661.1023624,27763.2,14318.685,57814.425,-7747.424999999999,-35477.189999999995,-45297.945,-7681.724999999999,9836.415
1764434661.1023624,27760.545,14312.88,57808.44,-7752.059999999999,-35481.645,-45301.815,-7692.929999999999,9829.755
1764434661.1023624,27761.76,14310.585,57804.525,-7753.95,-35482.095,-45301.14,-7702.335,9825.21
1764434661.1023624,27765.63,14309.685,57802.41,-7752.599999999999,-35480.07,-45297.855,-7712.91,9821.52
1764434661.1023624,27770.895,14312.79,57805.2,-7747.019999999999,-35474.895,-45291.78,-7714.665,9822.06
1764434661.1023624,27771.93,14314.77,57807.945,-7744.32,-35472.375,-45289.485,-7711.245,9824.04
1764434661.1023624,27770.175,14315.895,57810.96,-7743.87,-35471.385,-45289.215,-7703.505,9827.28
1764434661.1023624,27767.07,14316.165,57812.58,-7744.23,-35473.365,-45291.87,-7695.54,9830.025
1764434661.1023624,27765.36,14318.505,57816.63,-7742.79,-35473.455,-45292.59,-7684.11,9835.47
1764434661.1023624,27764.55,14318.955,57817.17,-7743.69,-35474.265,-45294.255,-7678.665,9838.215
1764434661.1023624,27761.625,14315.4,57812.265,-7748.37,-35478.045,-45297.72,-7682.94,9835.38
1764434661.1023624,27760.365,14311.305,57807.45,-7752.059999999999,-35480.97,-45300.015,-7692.66,9829.755
1764434661.1023624,27765.54,14312.34,57807.855,-7750.08,-35477.82,-45295.47,-7698.96,9828.945
1764434661.1023624,27765.585,14308.605,57802.41,-7752.014999999999,-35479.305,-45295.47,-7711.875,9821.295
1764434661.1023624,27766.845,14308.65,57802.77,-7750.44,-35477.91,-45293.22,-7716.87,9818.685
1764434661.1023624,27769.635,14312.295,57807.81,-7746.389999999999,-35474.67,-45289.665,-7711.875,9821.835
1764434661.1023624,27770.13,14315.67,57810.51,-7744.32,-35472.689999999995,-45289.71,-7704.179999999999,9826.335
1764434661.1023624,27767.655,14315.67,57811.41,-7745.715,-35474.625,-45292.59,-7696.62,9829.665
1764434661.1023624,27766.35,14318.235,57815.775,-7743.87,-35474.13,-45292.455,-7684.065,9835.47
1764434661.1492078,27768.24,14321.655,57819.285,-7741.125,-35472.42,-45291.06,-7674.974999999999,9841.14
1764434661.1492078,27766.8,14318.685,57816.225,-7743.69,-35474.895,-45294.21,-7679.295,9839.07
1764434661.1492078,27767.025,14316.21,57812.4,-7745.67,-35476.785,-45294.93,-7687.62,9835.245
1764434661.1492078,27768.195,14314.32,57808.755,-7747.65,-35477.28,-45294.525,-7697.34,9830.025
1764434661.1492078,27767.655,14310.135,57803.58,-7750.62,-35479.035,-45295.515,-7711.245,9821.835
1764434661.1492078,27770.22,14311.395,57803.76,-7748.054999999999,-35476.695,-45292.545,-7714.98,9820.26
1764434661.1492078,27772.245,14315.04,57807.495,-7745.219999999999,-35474.265,-45289.08,-7710.57,9823.32
1764434661.1492078,27772.38,14318.28,57812.445,-7741.889999999999,-35471.43,-45286.65,-7700.759999999999,9828.585
1764434661.1492078,27769.275,14318.145,57814.155,-7742.34,-35473.005,-45289.44,-7693.019999999999,9831.6
1764434661.1492078,27765.27,14317.605,57814.65,-7744.59,-35475.525,-45293.355,-7684.38,9834.57
1764434661.1492078,27767.205,14320.44,57817.845,-7742.519999999999,-35474.265,-45292.32,-7676.054999999999,9840.105
1764434661.1492078,27765.09,14318.01,57814.245,-7745.849999999999,-35476.92,-45295.065,-7679.655,9837.63
1764434661.1492078,27762.435,14312.385,57807.81,-7750.889999999999,-35480.655,-45298.755,-7691.13,9830.43
1764434661.1492078,27766.485,14313.105,57807.585,-7748.415,-35477.91,-45295.695,-7698.24,9829.395
1764434661.1492078,27769.905,14312.385,57805.65,-7747.514999999999,-35476.02,-45292.455,-7708.005,9825.12
1764434661.1492078,27769.86,14310.72,57804.03,-7747.514999999999,-35475.975,-45291.96,-7714.394999999999,9820.62
1764434661.1502154,27772.74,14315.31,57809.16,-7743.105,-35472.105,-45287.55,-7708.59,9825.075
1764434661.1502154,27770.67,14316.48,57810.78,-7742.07,-35472.42,-45288.18,-7701.705,9827.595
1764434661.1502154,27765.27,14314.275,57809.61,-7744.679999999999,-35475.93,-45293.67,-7695.855,9828.045
1764434661.1502154,27764.145,14316.885,57814.065,-7743.554999999999,-35475.3,-45294.615,-7683.48,9834.435
1764434661.1502154,27767.295,14321.205,57818.61,-7740.63,-35473.095,-45292.095,-7673.985,9841.635
1764434661.1502154,27762.075,14314.95,57810.96,-7747.245,-35479.215,-45298.395,-7682.355,9834.57
1764434661.1502154,27764.1,14313.87,57808.62,-7748.19,-35479.035,-45297.945,-7688.429999999999,9832.095
1764434661.1502154,27770.355,14316.705,57810.735,-7744.59,-35473.14,-45292.275,-7693.155,9833.805
1764434661.1972694,27769.77,14313.645,57805.785,-7746.299999999999,-35474.625,-45293.175,-7706.429999999999,9825.885
1764434661.1972694,27771.93,14314.185,57806.055,-7745.174999999999,-35473.005,-45290.16,-7710.795,9823.995
1764434661.1972694,27774.54,14317.11,57810.78,-7741.17,-35469.765,-45287.145,-7706.429999999999,9826.965
1764434661.1972694,27773.955,14319.045,57813.885,-7739.144999999999,-35468.64,-45286.695,-7698.105,9831.825
1764434661.1972694,27769.5,14318.685,57814.02,-7741.44,-35471.52,-45289.71,-7690.545,9834.435
1764434661.1972694,27766.845,14319.9,57816.315,-7740.764999999999,-35471.88,-45291.465,-7679.429999999999,9839.025
1764434661.1972694,27767.385,14321.88,57818.655,-7739.955,-35471.295,-45291.195,-7673.174999999999,9842.985
1764434661.1972694,27762.57,14314.815,57811.59,-7746.795,-35477.189999999995,-45296.685,-7681.545,9836.82
1764434661.1972694,27763.29,14312.43,57808.035,-7748.054999999999,-35477.685,-45297.135,-7688.924999999999,9832.635
1764434661.1972694,27766.395,14312.925,57806.865,-7747.469999999999,-35475.57,-45293.895,-7696.889999999999,9829.98
1764434661.1972694,27767.43,14310.495,57801.96,-7749.045,-35476.2,-45293.85,-7708.769999999999,9823.59
1764434661.1972694,27774.36,14315.67,57806.46,-7742.924999999999,-35469.72,-45286.965,-7708.769999999999,9826.56
1764434661.1972694,27773.325,14316.885,57808.935,-7740.9,-35467.695,-45285.345,-7705.62,9827.505
1764434661.1972694,27770.85,14317.56,57810.42,-7741.035,-35469.494999999995,-45287.01,-7699.455,9829.44
1764434661.1972694,27765.225,14314.32,57808.53,-7744.95,-35475.03,-45292.995,-7694.37,9829.395
