Timestamp,Channel1,Channel2,Channel3,Channel4,Channel5,Channel6,Channel7,Channel8
1764434034.8671975,33734.52,21369.375,63494.595,-5892.84,-32961.78,-46604.52,-6684.344999999999,12221.235
1764434034.8671975,33736.41,21368.97,63494.325,-5889.599999999999,-32959.89,-46601.73,-6692.715,12217.635
1764434034.8671975,33734.744999999995,21368.115,63496.035,-5887.395,-32957.46,-46599.93,-6692.04,12215.385
1764434034.8671975,33730.47,21366.495,63495.855,-5889.15,-32959.305,-46601.91,-6686.73,12214.575
1764434034.8671975,33723.494999999995,21362.805,63493.335,-5894.685,-32965.605,-46608.75,-6681.915,12213.18
1764434034.8671975,33715.575,21358.71,63491.13,-5899.77,-32971.23,-46615.185,-6673.815,12213.18
1764434034.8671975,33714.81,21360.69,63492.57,-5900.085,-32972.355,-46617.795,-6665.219999999999,12217.77
1764434034.8671975,33719.13,21364.47,63494.865,-5898.915,-32970.6,-46616.04,-6662.07,12221.415
1764434034.8671975,33720.795,21362.175,63491.76,-5901.57,-32971.86,-46617.255,-6669.764999999999,12218.805
1764434034.8671975,33722.145,21359.88,63487.395,-5902.965,-32972.04,-46615.545,-6679.665,12215.61
1764434034.8671975,33730.02,21363.795,63488.745,-5899.23,-32966.685,-46608.39,-6687.945,12216.69
1764434034.8671975,33739.92,21371.76,63496.26,-5889.33,-32956.965,-46597.77,-6687.045,12222.0
1764434034.8671975,33741.765,21375.0,63500.895,-5882.355,-32953.365,-46594.89,-6685.56,12222.63
1764434034.8671975,33738.119999999995,21374.19,63501.84,-5882.13,-32954.49,-46597.32,-6681.014999999999,12222.585
1764434034.8671975,33728.625,21367.26,63497.34,-5889.96,-32960.835,-46605.24,-6675.884999999999,12219.795
1764434034.8671975,33716.475,21358.17,63489.78,-5900.715,-32972.49,-46616.67,-6671.25,12214.845
1764434034.8671975,33715.71,21360.555,63492.345,-5902.02,-32976.18,-46620.765,-6666.705,12216.24
1764434034.8671975,33721.155,21365.91,63497.655,-5898.24,-32971.455,-46615.905,-6662.384999999999,12222.045
1764434034.8671975,33720.93,21361.14,63491.58,-5900.04,-32969.115,-46614.33,-6669.27,12219.66
1764434034.8671975,33725.34,21361.545,63489.87,-5900.264999999999,-32968.845,-46613.34,-6678.134999999999,12218.175
1764434034.8671975,33736.635,21370.32,63498.825,-5888.07,-32957.595,-46600.74,-6681.014999999999,12222.945
1764434034.8671975,33739.244999999995,21371.805,63499.905,-5884.335,-32953.32,-46595.925,-6685.875,12221.235
1764434034.8671975,33738.975,21371.445,63499.545,-5884.785,-32953.14,-46595.835,-6685.11,12220.245
1764434034.9122272,33734.835,21369.915,63497.88,-5887.08,-32955.93,-46599.75,-6681.285,12219.84
1764434034.9122272,33728.175,21366.99,63496.62,-5891.175,-32962.275,-46606.23,-6674.67,12220.11
1764434034.9122272,33723.36,21366.36,63498.51,-5892.03,-32964.119999999995,-46608.57,-6661.304999999999,12223.08
1764434034.9122272,33719.76,21366.09,63498.42,-5895.045,-32967.18,-46613.88,-6657.795,12223.35
1764434034.9122272,33721.335,21367.53,63499.32,-5894.639999999999,-32967.09,-46614.735,-6660.0,12224.52
1764434034.9122272,33723.45,21365.235,63495.72,-5897.295,-32968.619999999995,-46614.645,-6666.84,12222.405
1764434034.9122272,33727.994999999995,21364.92,63494.19,-5896.98,-32967.135,-46611.315,-6674.49,12221.505
1764434034.9122272,33730.065,21364.695,63492.345,-5893.965,-32965.515,-46607.805,-6688.17,12217.005
1764434034.9122272,33733.485,21366.18,63494.46,-5887.844999999999,-32959.215,-46600.515,-6692.715,12216.06
1764434034.9122272,33734.565,21368.43,63497.52,-5885.46,-32956.47,-46597.725,-6689.745,12217.095
1764434034.9122272,33734.25,21370.68,63501.075,-5883.795,-32955.57,-46598.445,-6682.005,12219.75
1764434034.9122272,33726.285,21364.92,63496.89,-5890.815,-32963.49,-46607.67,-6677.639999999999,12217.68
1764434034.9122272,33721.155,21362.805,63494.91,-5896.44,-32968.305,-46612.44,-6664.77,12220.785
1764434034.9122272,33716.744999999995,21359.34,63491.31,-5901.12,-32973.66,-46619.19,-6659.91,12220.83
1764434034.9122272,33719.355,21361.41,63492.48,-5902.11,-32973.03,-46618.83,-6659.639999999999,12223.395
1764434034.9122272,33720.39,21362.355,63494.145,-5899.139999999999,-32970.195,-46615.005,-6665.985,12221.01
1764434034.9122272,33724.485,21362.895,63493.335,-5896.44,-32968.305,-46613.07,-6675.344999999999,12219.12
1764434034.9122272,33736.005,21370.05,63496.71,-5889.105,-32959.395,-46602.855,-6680.205,12223.395
1764434034.9122272,33741.405,21373.38,63500.535,-5882.49,-32953.275,-46595.295,-6685.02,12224.565
1764434034.9122272,33737.4,21370.32,63498.645,-5883.255,-32954.49,-46597.545,-6688.125,12219.75
1764434034.9122272,33735.96,21370.86,63499.41,-5887.08,-32959.35,-46601.82,-6682.724999999999,12221.46
1764434034.9122272,33733.98,21372.12,63502.56,-5886.764999999999,-32961.869999999995,-46603.98,-6670.98,12225.375
1764434034.9122272,33724.71,21366.585,63500.31,-5891.13,-32967.585,-46611.18,-6663.24,12223.89
1764434034.9122272,33715.755,21360.105,63494.37,-5897.79,-32971.41,-46616.445,-6660.0,12221.1
1764434034.9608335,33720.66,21364.605,63497.88,-5893.605,-32967.09,-46611.945,-6656.58,12225.285
1764434034.9608335,33724.619999999995,21365.28,63497.61,-5893.065,-32966.1,-46610.145,-6663.915,12224.88
1764434034.9608335,33728.535,21365.73,63496.26,-5893.29,-32965.65,-46608.345,-6673.679999999999,12223.215
1764434034.9608335,33736.185,21369.465,63498.87,-5885.865,-32955.84,-46596.69,-6676.74,12224.655
1764434034.9608335,33738.705,21369.555,63497.745,-5883.525,-32953.68,-46594.755,-6683.49,12221.775
1764434034.9608335,33738.93,21370.095,63497.52,-5884.65,-32954.535,-46595.745,-6684.615,12221.55
1764434034.9608335,33736.185,21369.015,63496.17,-5890.139999999999,-32960.43,-46599.345,-6678.405,12222.63
1764434034.9608335,33732.494999999995,21369.015,63499.635,-5889.195,-32961.465,-46600.65,-6668.235,12224.835
1764434034.9618475,33726.285,21367.89,63501.66,-5889.599999999999,-32965.11,-46606.545,-6659.28,12225.96
1764434034.9618475,33720.525,21363.57,63498.51,-5893.74,-32969.475,-46613.34,-6656.804999999999,12224.52
1764434034.9618475,33726.42,21369.42,63503.235,-5888.655,-32963.04,-46608.39,-6652.215,12231.18
1764434034.9618475,33728.31,21368.61,63500.535,-5889.42,-32961.6,-46607.04,-6659.145,12229.515
1764434034.9618475,33730.92,21368.16,63498.105,-5889.645,-32960.205,-46604.565,-6669.27,12225.285
1764434034.9618475,33734.295,21367.62,63494.685,-5890.679999999999,-32960.205,-46602.72,-6682.365,12220.515
1764434034.9618475,33739.92,21371.4,63498.375,-5885.505,-32956.2,-46597.23,-6686.415,12221.01
1764434034.9618475,33741.045,21372.57,63501.795,-5882.31,-32953.95,-46595.115,-6684.48,12222.135
1764434034.9618475,33738.119999999995,21371.175,63501.075,-5884.56,-32956.74,-46597.095,-6678.045,12223.215
1764434034.9618475,33728.85,21365.73,63497.61,-5889.915,-32963.355,-46604.88,-6673.905,12220.47
1764434034.9618475,33721.335,21361.725,63495.495,-5894.82,-32969.205,-46612.575,-6666.344999999999,12220.11
1764434034.9618475,33719.76,21361.455,63496.035,-5897.115,-32970.78,-46615.185,-6659.37,12222.045
1764434034.9618475,33720.435,21362.22,63496.26,-5897.025,-32968.53,-46612.665,-6658.875,12221.955
1764434034.9618475,33721.56,21359.52,63491.175,-5899.724999999999,-32969.835,-46612.8,-6668.73,12218.445
1764434035.0074763,33729.48,21363.12,63493.245,-5895.945,-32966.73,-46609.29,-6675.705,12219.975
1764434035.0074763,33736.05,21368.07,63496.44,-5889.195,-32960.565,-46600.38,-6682.995,12220.92
1764434035.0074763,33742.035,21371.535,63498.465,-5884.155,-32954.22,-46592.055,-6684.57,12223.035
1764434035.0079904,33744.015,21374.325,63501.75,-5880.285,-32950.619999999995,-46589.04,-6680.34,12225.69
1764434035.0079904,33736.5,21369.78,63499.005,-5883.75,-32955.48,-46595.565,-6679.665,12221.73
1764434035.0079904,33732.63,21368.97,63500.13,-5886.09,-32959.619999999995,-46601.415,-6673.005,12222.945
1764434035.0079904,33723.45,21365.28,63499.095,-5890.275,-32965.74,-46608.03,-6665.49,12221.865
1764434035.0079904,33717.51,21361.815,63495.27,-5895.945,-32971.275,-46614.6,-6661.62,12219.165
1764434035.0079904,33720.795,21362.76,63495.765,-5895.99,-32969.115,-46612.395,-6659.82,12222.045
1764434035.0079904,33721.2,21359.07,63489.96,-5900.715,-32973.165,-46616.04,-6670.665,12218.58
1764434035.0079904,33728.265,21361.455,63490.455,-5897.385,-32968.35,-46610.415,-6676.56,12219.48
1764434035.0079904,33738.93,21368.88,63496.62,-5887.844999999999,-32958.09,-46598.715,-6681.285,12223.53
1764434035.0079904,33744.6,21372.48,63500.22,-5882.67,-32952.105,-46592.055,-6683.535,12223.395
1764434035.0079904,33741.135,21370.095,63498.33,-5885.099999999999,-32955.84,-46595.115,-6684.66,12219.885
1764434035.0079904,33731.775,21365.055,63494.28,-5891.67,-32964.48,-46603.53,-6683.219999999999,12215.925
1764434035.0079904,33723.36,21360.555,63493.02,-5894.19,-32967.54,-46607.805,-6675.344999999999,12215.205
1764434035.0079904,33717.6,21358.44,63493.155,-5897.745,-32971.32,-46614.465,-6668.82,12214.755
1764434035.0079904,33715.575,21357.135,63492.795,-5901.255,-32974.065,-46618.785,-6667.065,12214.98
1764434035.0079904,33721.965,21362.445,63495.99,-5897.745,-32968.53,-46612.395,-6661.889999999999,12222.18
1764434035.0079904,33724.755,21362.715,63493.335,-5897.34,-32966.595,-46609.56,-6666.929999999999,12221.325
1764434035.0079904,33730.244999999995,21363.795,63493.29,-5894.82,-32963.805,-46605.915,-6672.465,12221.685
1764434035.0079904,33733.755,21363.345,63492.03,-5891.58,-32961.555,-46601.595,-6683.625,12217.59
1764434035.0079904,33740.28,21369.51,63498.33,-5882.445,-32954.49,-46595.07,-6686.46,12219.615
1764434035.0079904,33742.8,21372.885,63501.03,-5879.655,-32951.16,-46591.875,-6681.42,12222.855
1764434035.0518973,33734.88,21367.71,63495.585,-5888.16,-32959.44,-46599.345,-6678.45,12218.895
1764434035.0534384,33726.78,21363.885,63495.63,-5890.23,-32962.905,-46605.24,-6673.95,12217.095
1764434035.0534384,33720.21,21360.645,63493.83,-5896.755,-32970.06,-46613.745,-6667.02,12217.185
1764434035.0534384,33716.115,21358.62,63493.2,-5898.554999999999,-32972.04,-46615.95,-6660.9,12217.95
1764434035.0534384,33722.055,21363.57,63497.88,-5893.02,-32966.1,-46610.055,-6656.535,12222.99
1764434035.0534384,33724.619999999995,21362.355,63495.45,-5894.775,-32967.045,-46609.65,-6663.509999999999,12221.73
1764434035.0534384,33731.01,21364.785,63495.36,-5893.155,-32964.345,-46604.115,-6670.935,12222.135
1764434035.0534384,33738.75,21367.62,63496.17,-5888.79,-32960.43,-46599.345,-6681.87,12220.83
1764434035.0534384,33739.92,21367.62,63496.485,-5887.665,-32959.17,-46598.13,-6688.98,12218.31
1764434035.0534384,33738.705,21367.98,63498.015,-5884.695,-32954.445,-46593.54,-6681.42,12220.11
1764434035.0534384,33733.755,21366.72,63499.68,-5883.075,-32955.345,-46594.755,-6673.77,12219.525
1764434035.0534384,33727.14,21363.705,63497.43,-5888.115,-32961.33,-46602.225,-6670.035,12217.05
1764434035.0534384,33716.43,21356.55,63491.94,-5896.889999999999,-32969.07,-46611.855,-6666.929999999999,12213.405
1764434035.0534384,33713.82,21355.605,63491.085,-5900.849999999999,-32974.2,-46616.895,-6660.63,12215.835
1764434035.0534384,33714.54,21354.615,63488.745,-5903.73,-32975.1,-46617.795,-6661.304999999999,12216.195
1764434035.0534384,33714.72,21350.97,63483.3,-5906.88,-32977.935,-46619.73,-6672.105,12211.695
1764434035.0534384,33720.975,21354.48,63486.09,-5899.905,-32972.175,-46613.655,-6680.115,12211.11
1764434035.0534384,33728.94,21359.79,63490.635,-5890.5,-32962.725,-46602.945,-6686.28,12211.605
1764434035.0534384,33737.445,21365.055,63495.405,-5884.695,-32955.795,-46593.99,-6685.65,12215.88
1764434035.0534384,33732.855,21361.365,63491.67,-5889.014999999999,-32959.8,-46597.68,-6687.09,12212.955
1764434035.0554893,33730.695,21363.03,63494.1,-5889.195,-32960.925,-46599.435,-6679.889999999999,12214.8
1764434035.0554893,33723.0,21359.43,63492.345,-5894.415,-32965.695,-46606.635,-6675.48,12212.19
1764434035.1002083,33718.68,21357.9,63493.245,-5897.115,-32968.755,-46610.64,-6664.005,12215.745
1764434035.1002083,33713.505,21353.805,63490.185,-5901.974999999999,-32973.705,-46616.94,-6661.17,12214.395
1764434035.1002083,33713.369999999995,21352.86,63488.205,-5903.415,-32975.55,-46618.605,-6663.915,12213.765
1764434035.1002083,33714.0,21351.51,63486.045,-5904.405,-32976.945,-46617.345,-6672.195,12210.03
1764434035.1002083,33721.785,21355.695,63488.7,-5899.995,-32971.994999999995,-46610.415,-6677.145,12211.875
1764434035.1002083,33731.01,21359.61,63490.86,-5893.92,-32962.905,-46601.73,-6682.815,12214.71
1764434035.1002083,33735.285,21361.635,63492.165,-5890.815,-32958.54,-46597.005,-6687.719999999999,12213.63
1764434035.1002083,33737.58,21366.945,63498.51,-5885.639999999999,-32955.03,-46594.08,-6684.165,12215.655
1764434035.1002083,33732.81,21364.56,63498.105,-5887.665,-32958.765,-46598.715,-6679.665,12215.205
1764434035.1002083,33722.505,21356.775,63492.57,-5896.08,-32967.18,-46609.11,-6677.099999999999,12211.335
1764434035.1002083,33714.54,21354.435,63491.805,-5900.355,-32970.42,-46614.24,-6668.009999999999,12211.785
1764434035.1002083,33710.805,21352.23,63489.465,-5903.73,-32974.47,-46618.29,-6663.105,12212.37
1764434035.1002083,33714.045,21354.885,63491.625,-5901.615,-32973.435,-46616.13,-6662.25,12215.025
1764434035.1002083,33715.98,21353.625,63489.24,-5902.245,-32973.345,-46615.23,-6670.53,12211.74
1764434035.1002083,33720.255,21354.3,63488.205,-5900.445,-32971.095,-46611.405,-6679.395,12210.3
1764434035.1002083,33730.83,21361.275,63492.615,-5892.705,-32961.6,-46600.695,-6684.12,12214.575
1764434035.1002083,33735.915,21364.65,63495.36,-5888.52,-32957.415,-46595.79,-6687.675,12214.98
1764434035.1002083,33729.795,21358.935,63491.355,-5892.03,-32960.7,-46598.85,-6689.52,12210.3
1764434035.1012216,33728.67,21359.97,63493.695,-5892.705,-32961.869999999995,-46600.785,-6680.835,12212.955
1764434035.1012216,33720.885,21356.685,63492.48,-5896.844999999999,-32967.135,-46607.22,-6674.58,12211.245
1764434035.1012216,33710.805,21350.925,63488.745,-5904.764999999999,-32977.08,-46618.38,-6669.675,12208.815
1764434035.1012216,33708.285,21349.755,63488.52,-5907.06,-32980.005,-46622.115,-6664.23,12209.355
1764434035.1012216,33712.605,21353.58,63492.975,-5900.264999999999,-32972.22,-46614.555,-6660.675,12214.035
1764434035.1012216,33715.035,21352.68,63489.42,-5902.74,-32973.885,-46615.23,-6670.125,12211.695
1764434035.14541,33722.82,21356.1,63491.58,-5898.96,-32968.755,-46609.065,-6676.155,12212.37
1764434035.14541,33731.955,21361.86,63495.27,-5891.49,-32960.925,-46599.48,-6682.455,12214.125
1764434035.14541,33739.605,21368.43,63501.12,-5882.804999999999,-32953.275,-46589.4,-6682.365,12217.86
1764434035.14541,33732.494999999995,21363.345,63497.34,-5887.26,-32957.055,-46593.09,-6685.245,12212.235
1764434035.14541,33729.119999999995,21362.49,63496.17,-5890.455,-32958.405,-46596.915,-6679.259999999999,12213.225
1764434035.14541,33722.505,21358.62,63493.02,-5896.349999999999,-32964.615,-46605.555,-6675.165,12210.705
1764434035.14541,33714.855,21354.93,63490.905,-5902.245,-32971.32,-46612.98,-6666.615,12211.155
1764434035.14541,33712.965,21354.705,63492.255,-5901.615,-32974.38,-46617.39,-6662.295,12213.09
1764434035.14541,33717.33,21357.54,63495.495,-5896.935,-32970.51,-46613.115,-6657.66,12217.275
1764434035.14541,33718.635,21355.56,63491.04,-5899.455,-32970.69,-46612.17,-6666.75,12214.305
1764434035.14541,33722.325,21355.47,63488.61,-5899.365,-32969.115,-46609.2,-6677.099999999999,12212.19
1764434035.14541,33732.09,21361.455,63493.11,-5892.12,-32960.97,-46599.525,-6683.985,12214.485
1764434035.14541,33741.81,21368.7,63500.355,-5883.57,-32952.69,-46590.93,-6682.005,12219.075
1764434035.14541,33737.175,21365.145,63497.655,-5887.125,-32956.695,-46595.52,-6684.344999999999,12215.295
1764434035.14541,33730.695,21361.905,63496.755,-5888.925,-32960.43,-46600.605,-6681.69,12212.865
1764434035.14541,33724.98,21358.485,63495.045,-5892.66,-32964.165,-46605.51,-6673.32,12213.855
1764434035.14541,33716.88,21355.11,63492.21,-5900.264999999999,-32971.14,-46612.845,-6663.509999999999,12213.63
1764434035.14541,33712.29,21352.185,63490.32,-5903.145,-32974.74,-46618.56,-6659.639999999999,12212.82
1764434035.14541,33717.285,21355.245,63492.705,-5899.995,-32969.295,-46613.7,-6657.48,12217.095
1764434035.14541,33720.885,21356.955,63491.805,-5899.32,-32968.53,-46612.125,-6665.58,12215.52
1764434035.14541,33724.575,21356.73,63490.68,-5898.105,-32968.305,-46610.37,-6675.705,12213.18
1764434035.14541,33733.845,21361.23,63494.1,-5889.33,-32958.99,-46598.67,-6679.08,12216.06
1764434035.14541,33740.19,21365.685,63498.195,-5883.03,-32952.78,-46592.145,-6679.62,12218.4
1764434035.14541,33739.605,21366.18,63499.77,-5881.77,-32952.33,-46591.92,-6677.099999999999,12218.535
1764434035.189568,33734.205,21364.605,63499.86,-5884.92,-32955.84,-46595.745,-6672.825,12217.365
1764434035.189568,33723.494999999995,21356.91,63493.605,-5894.505,-32965.83,-46605.915,-6671.565,12212.46
1764434035.190606,33714.63,21351.645,63490.5,-5901.12,-32973.165,-46614.96,-6663.915,12212.055
1764434035.1916163,33715.755,21354.12,63492.255,-5900.49,-32971.815,-46614.51,-6654.33,12217.455
1764434035.1916163,33718.095,21354.615,63491.805,-5903.145,-32972.175,-46613.97,-6655.32,12218.895
1764434035.1916163,33716.34,21351.285,63488.16,-5906.25,-32976.45,-46616.67,-6668.955,12212.595
1764434035.1916163,33722.595,21354.255,63491.4,-5899.23,-32971.005,-46610.595,-6676.29,12212.955
1764434035.1916163,33729.48,21355.92,63490.905,-5894.955,-32963.895,-46603.935,-6685.155,12212.37
1764434035.1916163,33733.935,21359.385,63493.56,-5888.969999999999,-32955.885,-46596.24,-6686.865,12213.405
1764434035.1916163,33735.06,21362.265,63497.385,-5885.415,-32952.915,-46592.595,-6681.465,12215.97
1764434035.1916163,33728.355,21358.125,63495.18,-5888.969999999999,-32957.685,-46598.535,-6677.639999999999,12213.765
1764434035.1916163,33724.619999999995,21357.81,63495.945,-5892.974999999999,-32962.77,-46602.855,-6668.639999999999,12215.655
1764434035.1916163,33713.82,21349.44,63489.195,-5904.585,-32974.244999999995,-46615.41,-6664.545,12211.695
1764434035.1916163,33710.445,21347.055,63486.54,-5908.995,-32979.105,-46622.34,-6662.115,12211.785
1764434035.1916163,33715.26,21351.195,63489.69,-5903.639999999999,-32974.425,-46617.795,-6660.855,12215.205
1764434035.1916163,33715.98,21349.53,63485.865,-5905.575,-32976.405,-46619.19,-6670.8,12211.11
1764434035.1916163,33723.945,21353.625,63486.81,-5904.045,-32972.22,-46613.745,-6677.415,12211.695
1764434035.1916163,33734.43,21360.645,63495.045,-5890.815,-32957.055,-46599.84,-6681.78,12214.755
1764434035.1936536,33734.655,21358.35,63493.65,-5888.295,-32954.67,-46597.995,-6686.594999999999,12211.74
1764434035.1936536,33733.035,21358.17,63493.29,-5890.094999999999,-32956.155,-46598.22,-6682.815,12213.45
1764434035.1936536,33733.665,21362.085,63497.835,-5888.52,-32956.244999999995,-46598.22,-6672.014999999999,12218.4
1764434035.1936536,33727.185,21360.285,63498.87,-5889.33,-32957.82,-46601.145,-6664.365,12218.085
1764434035.2382617,33719.445,21357.045,63498.825,-5892.705,-32961.96,-46607.49,-6658.92,12216.465
1764434035.2382617,33710.31,21348.765,63488.7,-5906.16,-32974.65,-46620.405,-6661.844999999999,12211.155
1764434035.2393026,33711.119999999995,21347.055,63485.37,-5908.05,-32975.73,-46620.855,-6664.365,12210.795
1764434035.2393026,33710.04,21343.365,63481.14,-5909.264999999999,-32977.17,-46621.89,-6675.795,12206.025
1764434035.2393026,33717.33,21347.955,63484.02,-5904.764999999999,-32972.85,-46616.13,-6682.545,12207.195
1764434035.2393026,33725.97,21351.555,63486.72,-5899.32,-32967.09,-46609.065,-6688.8,12208.185
1764434035.2393026,33729.84,21354.66,63488.7,-5895.855,-32963.265,-46604.115,-6690.915,12209.31
1764434035.2393026,33726.96,21353.49,63488.52,-5896.44,-32964.255,-46603.395,-6687.315,12208.545
1764434035.2393026,33725.16,21354.21,63491.535,-5894.145,-32962.95,-46603.665,-6678.585,12211.02
1764434035.2393026,33717.555,21350.88,63489.915,-5897.025,-32966.82,-46609.695,-6672.78,12209.625
1764434035.2393026,33716.565,21353.625,63493.695,-5898.06,-32968.8,-46612.395,-6663.24,12214.17
1764434035.2393026,33710.625,21348.765,63488.295,-5906.655,-32976.405,-46620.765,-6663.24,12211.92
1764434035.2393026,33714.405,21350.07,63487.755,-5906.565,-32974.605,-46618.2,-6662.52,12214.845
1764434035.2393026,33716.88,21349.89,63486.405,-5905.395,-32973.615,-46617.165,-6670.304999999999,12212.46
1764434035.2393026,33719.895,21349.44,63485.55,-5903.054999999999,-32969.835,-46610.775,-6676.83,12210.435
1764434035.2393026,33729.21,21355.335,63490.32,-5895.224999999999,-32961.285,-46600.515,-6682.005,12212.055
1764434035.2393026,33729.119999999995,21353.94,63489.375,-5894.37,-32961.645,-46601.19,-6689.295,12208.59
1764434035.2393026,33730.2,21354.525,63490.41,-5893.29,-32961.015,-46601.775,-6686.594999999999,12209.535
1764434035.2393026,33727.994999999995,21355.335,63491.715,-5894.099999999999,-32960.97,-46603.35,-6680.655,12210.66
1764434035.2393026,33718.23,21348.225,63486.36,-5901.615,-32969.655,-46611.945,-6675.57,12207.735
1764434035.2393026,33712.875,21345.12,63484.92,-5906.655,-32975.82,-46619.865,-6666.165,12209.445
1764434035.2393026,33705.675,21340.845,63482.805,-5911.514999999999,-32982.39,-46627.92,-6667.155,12205.035
1764434035.2393026,33706.8,21342.465,63484.38,-5909.715,-32978.97,-46623.96,-6667.29,12205.125
1764434035.2393026,33706.17,21337.875,63477.9,-5913.179999999999,-32980.32,-46624.14,-6677.37,12200.67
1764434035.283504,33714.63,21341.925,63478.98,-5907.78,-32974.155,-46617.255,-6683.895,12202.515
1764434035.283504,33726.78,21349.755,63485.1,-5899.905,-32965.92,-46607.175,-6688.62,12207.555
1764434035.283504,33726.42,21349.89,63487.44,-5895.855,-32962.59,-46603.44,-6692.895,12204.54
1764434035.283504,33725.43,21349.485,63488.07,-5895.63,-32963.22,-46604.205,-6689.295,12204.99
1764434035.283504,33724.17,21350.745,63490.5,-5894.37,-32962.86,-46605.78,-6681.42,12208.14
1764434035.283504,33719.715,21350.745,63492.345,-5895.719999999999,-32965.875,-46611.09,-6673.634999999999,12209.94
1764434035.283504,33712.56,21347.01,63489.6,-5902.425,-32973.03,-46619.19,-6665.175,12209.355
1764434035.283504,33708.285,21343.5,63485.595,-5908.005,-32979.015,-46624.59,-6662.429999999999,12208.545
1764434035.284016,33706.89,21341.88,63483.705,-5909.13,-32978.97,-46623.15,-6666.03,12206.61
1764434035.284016,33705.494999999995,21337.11,63477.54,-5913.585,-32979.645,-46623.195,-6677.415,12201.705
1764434035.284016,33714.405,21343.455,63480.78,-5906.52,-32972.895,-46615.635,-6683.67,12204.18
1764434035.284016,33719.355,21345.075,63481.005,-5901.57,-32968.755,-46610.46,-6694.514999999999,12201.48
1764434035.284016,33726.555,21349.17,63485.37,-5896.125,-32962.455,-46603.35,-6694.965,12203.595
1764434035.284016,33725.385,21348.63,63484.965,-5897.655,-32963.535,-46604.34,-6692.58,12203.19
1764434035.284016,33717.51,21344.85,63482.445,-5902.38,-32969.565,-46610.865,-6689.34,12201.48
1764434035.284016,33714.494999999995,21346.11,63486.63,-5900.94,-32969.97,-46612.305,-6676.785,12205.71
1764434035.2850602,33707.16,21342.96,63485.37,-5905.304999999999,-32975.73,-46618.245,-6667.425,12205.935
1764434035.2850602,33704.415,21341.43,63484.155,-5907.78,-32977.845,-46622.205,-6665.219999999999,12206.205
1764434035.2850602,33705.36,21339.405,63480.015,-5911.514999999999,-32979.915,-46623.06,-6669.764999999999,12205.125
1764434035.2850602,33707.744999999995,21338.415,63476.28,-5913.764999999999,-32980.815,-46623.375,-6678.945,12202.38
1764434035.2850602,33715.89,21343.005,63480.78,-5905.71,-32971.095,-46614.645,-6684.165,12203.595
1764434035.2850602,33725.34,21350.025,63487.71,-5895.945,-32964.39,-46606.23,-6689.52,12205.665
1764434035.3357828,33723.72,21348.135,63486.675,-5895.0,-32964.75,-46604.97,-6692.625,12202.785
1764434035.3357828,33721.965,21345.525,63485.235,-5897.79,-32966.505,-46606.14,-6689.34,12202.785
1764434035.3357828,33719.625,21346.425,63487.395,-5897.88,-32967.494999999995,-46608.615,-6683.535,12203.505
1764434035.3357828,33712.2,21341.16,63483.3,-5903.955,-32973.84,-46616.625,-6682.094999999999,12200.355
1764434035.3357828,33702.975,21335.895,63479.295,-5913.0,-32982.615,-46626.12,-6675.03,12199.365
1764434035.3357828,33704.01,21338.685,63482.22,-5912.37,-32983.335,-46627.515,-6668.054999999999,12202.335
1764434035.3357828,33709.635,21342.195,63484.785,-5908.635,-32979.105,-46622.565,-6666.344999999999,12206.61
1764434035.3357828,33709.994999999995,21339.27,63480.87,-5910.075,-32980.185,-46623.465,-6676.785,12203.91
1764434035.3357828,33718.86,21344.265,63484.335,-5903.594999999999,-32972.895,-46614.465,-6682.005,12206.07
1764434035.3357828,33724.53,21347.145,63485.775,-5897.34,-32963.85,-46605.69,-6689.565,12203.955
1764434035.3357828,33728.13,21348.855,63487.305,-5894.955,-32963.04,-46603.98,-6693.929999999999,12203.91
1764434035.3357828,33725.025,21347.01,63485.55,-5898.014999999999,-32968.125,-46608.885,-6693.389999999999,12203.1
1764434035.3357828,33723.225,21348.405,63488.43,-5896.889999999999,-32968.485,-46609.605,-6682.724999999999,12205.485
1764434035.3357828,33715.485,21344.76,63486.81,-5901.974999999999,-32973.795,-46616.49,-6674.535,12204.585
1764434035.3357828,33703.02,21334.59,63477.585,-5913.675,-32984.505,-46626.93,-6669.81,12200.445
1764434035.3357828,33700.68,21333.96,63475.83,-5917.185,-32985.9,-46630.35,-6668.37,12200.895
1764434035.3357828,33707.835,21341.745,63484.605,-5907.554999999999,-32977.575,-46623.42,-6666.075,12205.98
1764434035.3357828,33710.355,21340.98,63482.04,-5910.344999999999,-32979.33,-46622.655,-6674.985,12203.64
1764434035.3357828,33718.68,21345.885,63486.135,-5902.695,-32971.14,-46612.485,-6679.395,12205.53
1764434035.3357828,33727.95,21351.87,63490.59,-5895.09,-32962.5,-46603.485,-6685.38,12207.51
1764434035.3357828,33731.64,21353.58,63492.255,-5892.389999999999,-32960.34,-46600.02,-6687.54,12208.59
1764434035.3357828,33728.04,21352.14,63491.445,-5893.92,-32963.04,-46602.36,-6685.065,12207.51
1764434035.3357828,33722.55,21349.935,63490.725,-5896.349999999999,-32965.92,-46605.555,-6679.935,12207.51
1764434035.3367765,33715.485,21345.705,63488.385,-5900.67,-32970.78,-46611.54,-6672.915,12207.69
1764434035.380971,33708.69,21342.33,63486.45,-5905.844999999999,-32976.945,-46619.235,-6664.95,12207.015
1764434035.380971,33706.98,21341.07,63485.955,-5907.69,-32978.34,-46621.035,-6661.755,12207.69
1764434035.380971,33711.075,21343.815,63487.62,-5905.844999999999,-32975.64,-46618.29,-6662.25,12210.03
1764434035.380971,33714.27,21344.13,63485.145,-5905.844999999999,-32974.83,-46616.49,-6670.215,12208.455
1764434035.380971,33719.67,21346.02,63485.01,-5903.685,-32970.869999999995,-46611.675,-6679.259999999999,12207.735
1764434035.380971,33726.06,21348.81,63485.82,-5900.175,-32967.765,-46607.31,-6691.23,12205.08
1764434035.380971,33730.065,21350.34,63488.16,-5897.295,-32963.715,-46600.335,-6691.275,12206.655
1764434035.380971,33730.965,21352.5,63492.345,-5893.514999999999,-32960.88,-46597.455,-6685.29,12209.67
1764434035.380971,33723.9,21349.08,63490.815,-5896.08,-32965.29,-46602.81,-6681.285,12207.915
1764434035.380971,33721.02,21350.61,63492.615,-5897.115,-32966.055,-46605.69,-6669.764999999999,12211.605
1764434035.380971,33710.85,21343.77,63486.945,-5906.34,-32973.84,-46617.345,-6665.49,12207.825
1764434035.380971,33707.25,21341.745,63485.28,-5910.389999999999,-32977.53,-46621.305,-6661.665,12208.275
1764434035.380971,33712.74,21345.345,63488.115,-5907.69,-32974.11,-46615.68,-6659.054999999999,12212.91
1764434035.380971,33714.72,21344.445,63485.955,-5906.969999999999,-32975.775,-46616.4,-6671.25,12209.355
1764434035.380971,33723.72,21349.215,63490.32,-5898.195,-32967.99,-46607.715,-6677.37,12211.38
1764434035.380971,33728.04,21349.395,63489.555,-5894.865,-32963.895,-46602.765,-6688.755,12208.095
1764434035.380971,33732.675,21354.12,63494.37,-5889.15,-32958.18,-46596.735,-6688.304999999999,12210.255
1764434035.380971,33724.665,21347.685,63488.385,-5895.54,-32963.175,-46601.685,-6687.54,12205.53
1764434035.380971,33720.21,21346.335,63487.08,-5898.825,-32965.29,-46605.33,-6680.34,12205.125
1764434035.380971,33717.735,21348.18,63490.095,-5900.94,-32970.15,-46609.29,-6670.98,12208.905
1764434035.380971,33704.369999999995,21337.605,63483.48,-5910.03,-32979.24,-46620.675,-6668.145,12204.45
1764434035.380971,33699.915,21334.23,63481.275,-5912.415,-32982.48,-46626.075,-6667.92,12202.515
1764434035.380971,33708.195,21341.565,63486.495,-5907.645,-32976.315,-46618.605,-6664.545,12207.96
1764434035.380971,33711.66,21341.385,63484.245,-5908.32,-32975.46,-46615.905,-6672.42,12205.395
1764434035.4255683,33722.91,21348.855,63490.32,-5901.165,-32967.405,-46608.39,-6678.045,12209.58
1764434035.4255683,33725.61,21347.46,63489.375,-5897.115,-32963.67,-46603.305,-6688.575,12206.205
1764434035.4255683,33730.244999999995,21350.97,63494.01,-5890.905,-32956.83,-46595.79,-6687.315,12208.815
1764434035.4255683,33725.43,21348.495,63491.13,-5895.045,-32961.645,-46601.19,-6687.585,12205.575
1764434035.4255683,33721.38,21346.785,63490.005,-5898.735,-32966.055,-46605.87,-6681.645,12205.395
1764434035.4255683,33714.27,21343.005,63489.24,-5903.235,-32971.365,-46612.935,-6675.12,12205.035
1764434035.4266045,33706.08,21339.63,63487.26,-5908.005,-32976.135,-46618.785,-6667.38,12205.395
1764434035.4266045,33706.26,21340.485,63485.955,-5910.165,-32977.619999999995,-46619.415,-6663.825,12207.42
1764434035.4266045,33714.405,21346.245,63490.095,-5905.844999999999,-32973.525,-46615.68,-6662.115,12213.675
1764434035.4266045,33715.98,21345.165,63487.755,-5905.304999999999,-32971.994999999995,-46613.205,-6669.315,12211.335
1764434035.4266045,33720.525,21344.58,63487.08,-5902.245,-32968.575,-46609.335,-6679.215,12208.725
1764434035.4266045,33727.41,21346.02,63485.235,-5900.085,-32965.65,-46605.15,-6688.485,12208.68
1764434035.4266045,33731.505,21350.295,63488.025,-5897.745,-32963.355,-46600.515,-6689.025,12210.435
1764434035.4266045,33730.92,21355.335,63498.285,-5888.34,-32955.525,-46595.52,-6681.105,12212.37
1764434035.4266045,33724.035,21351.015,63495.54,-5892.705,-32960.97,-46602.18,-6676.92,12209.985
1764434035.4266045,33719.31,21348.405,63494.235,-5898.014999999999,-32966.415,-46608.075,-6668.325,12211.38
1764434035.4266045,33709.5,21341.88,63489.015,-5906.565,-32974.695,-46618.155,-6663.24,12208.635
1764434035.4266045,33709.905,21343.05,63489.51,-5906.429999999999,-32975.055,-46619.415,-6659.009999999999,12211.335
1764434035.4266045,33713.91,21345.615,63490.815,-5904.09,-32972.31,-46616.085,-6660.09,12213.36
1764434035.4266045,33716.205,21343.995,63486.855,-5905.485,-32973.165,-46616.22,-6669.855,12210.21
1764434035.427168,33727.185,21350.88,63492.255,-5897.34,-32963.895,-46605.375,-6673.23,12214.935
1764434035.427168,33734.655,21354.66,63494.64,-5891.715,-32957.055,-46596.33,-6680.115,12215.07
1764434035.427168,33736.185,21354.93,63494.865,-5889.69,-32956.785,-46594.44,-6682.905,12213.315
1764434035.427168,33736.95,21357.495,63498.015,-5887.935,-32955.66,-46592.955,-6677.46,12215.925
1764434035.472448,33727.275,21351.78,63494.28,-5892.929999999999,-32961.285,-46599.75,-6674.219999999999,12212.28
1764434035.472448,33717.6,21346.65,63492.57,-5895.719999999999,-32964.075,-46605.6,-6666.48,12211.335
1764434035.472448,33714.81,21347.46,63494.19,-5898.42,-32968.305,-46610.37,-6656.219999999999,12214.845
1764434035.472448,33710.355,21344.355,63490.185,-5903.82,-32972.13,-46614.69,-6656.04,12212.415
1764434035.472448,33716.655,21348.495,63493.965,-5898.645,-32964.75,-46608.615,-6655.365,12215.97
1764434035.472448,33718.32,21345.885,63490.41,-5901.075,-32967.494999999995,-46609.965,-6665.67,12212.82
1764434035.472448,33728.58,21351.87,63493.605,-5894.37,-32959.935,-46600.47,-6669.81,12216.78
1764434035.472448,33737.31,21356.82,63497.475,-5888.115,-32952.465,-46592.595,-6676.155,12218.355
1764434035.472448,33740.369999999995,21359.835,63500.4,-5884.38,-32948.73,-46589.715,-6678.945,12218.13
1764434035.472448,33732.225,21353.76,63496.17,-5889.78,-32957.64,-46597.455,-6680.34,12212.82
1764434035.472448,33727.68,21352.14,63495.72,-5891.445,-32958.63,-46598.715,-6671.88,12213.27
1764434035.472448,33719.805,21347.595,63493.38,-5894.865,-32961.645,-46605.24,-6665.625,12211.065
1764434035.472448,33712.785,21345.525,63494.28,-5898.15,-32966.82,-46613.34,-6658.2,12211.74
1764434035.472448,33707.835,21341.25,63489.33,-5905.485,-32973.615,-46619.64,-6658.56,12208.995
1764434035.4734504,33714.855,21345.435,63491.85,-5901.795,-32968.98,-46612.8,-6658.2,12213.81
1764434035.4734504,33717.825,21346.335,63490.68,-5900.715,-32967.675,-46610.46,-6667.605,12211.155
1764434035.4734504,33727.95,21352.095,63495.09,-5893.83,-32960.07,-46601.685,-6672.645,12213.9
1764434035.4734504,33731.235,21351.24,63494.235,-5891.04,-32956.92,-46597.41,-6683.355,12209.895
1764434035.4739635,33737.085,21356.01,63498.87,-5885.55,-32950.8,-46591.02,-6681.42,12213.495
1764434035.4739635,33732.36,21351.915,63493.83,-5892.795,-32957.28,-46595.565,-6679.844999999999,12211.245
1764434035.4739635,33727.185,21349.845,63492.255,-5897.385,-32962.815,-46600.965,-6673.094999999999,12211.155
1764434035.4739635,33718.23,21345.345,63490.32,-5900.804999999999,-32968.44,-46609.065,-6665.355,12208.86
1764434035.5184224,33712.11,21343.815,63492.255,-5899.724999999999,-32970.195,-46614.375,-6657.929999999999,12209.22
1764434035.5184224,33713.91,21346.785,63495.81,-5896.935,-32966.82,-46613.115,-6653.61,12212.955
1764434035.5184224,33717.555,21348.99,63496.395,-5896.53,-32965.065,-46610.955,-6655.185,12215.385
1764434035.5184224,33717.285,21344.445,63489.33,-5900.49,-32968.44,-46613.835,-6666.344999999999,12210.03
1764434035.5194366,33724.08,21346.875,63488.475,-5897.025,-32963.175,-46604.97,-6672.825,12209.445
1764434035.5194366,33734.34,21352.725,63494.415,-5888.565,-32954.715,-46594.665,-6677.955,12213.225
1764434035.5194366,33734.16,21351.96,63493.38,-5889.599999999999,-32956.244999999995,-46595.43,-6683.625,12210.615
1764434035.5194366,33728.985,21351.015,63495.045,-5887.889999999999,-32955.21,-46596.33,-6680.7,12209.085
1764434035.5194366,33725.925,21349.35,63494.64,-5891.355,-32958.18,-46599.705,-6673.905,12209.67
1764434035.5194366,33719.535,21346.695,63493.965,-5896.395,-32964.885,-46606.59,-6667.155,12209.535
1764434035.5194366,33714.99,21345.885,63493.56,-5899.545,-32968.8,-46612.125,-6657.705,12212.415
1764434035.5194366,33708.015,21340.71,63487.53,-5905.485,-32974.11,-46618.965,-6657.705,12209.985
1764434035.5194366,33716.385,21345.93,63490.995,-5901.344999999999,-32968.8,-46613.655,-6656.13,12216.015
1764434035.5194366,33717.105,21342.15,63485.1,-5905.755,-32972.265,-46614.375,-6668.145,12210.12
1764434035.5194366,33723.27,21348.045,63490.455,-5897.79,-32965.02,-46606.275,-6675.48,12209.895
1764434035.5194366,33733.71,21354.66,63495.945,-5888.205,-32954.85,-46595.295,-6680.205,12213.45
1764434035.5194366,33735.195,21353.805,63494.82,-5887.935,-32954.94,-46593.0,-6682.679999999999,12212.595
1764434035.5194366,33734.43,21355.875,63499.005,-5883.795,-32952.42,-46591.11,-6676.92,12214.26
1764434035.5194366,33727.86,21351.735,63496.575,-5888.565,-32957.82,-46597.32,-6672.42,12212.505
1764434035.5194366,33721.244999999995,21349.035,63494.955,-5895.09,-32964.03,-46604.61,-6665.49,12212.01
1764434035.5194366,33711.885,21343.185,63490.455,-5904.179999999999,-32974.02,-46616.4,-6661.665,12209.85
1764434035.5194366,33710.04,21342.195,63490.41,-5901.615,-32969.79,-46613.25,-6654.69,12212.685
1764434035.5194366,33715.395,21345.885,63492.165,-5899.59,-32967.494999999995,-46610.82,-6656.445,12214.845
1764434035.5194366,33715.935,21342.42,63486.765,-5903.099999999999,-32969.295,-46612.71,-6669.0,12209.085
1764434035.565872,33721.92,21344.58,63487.8,-5898.915,-32965.29,-46607.805,-6680.25,12207.195
1764434035.565872,33728.94,21348.225,63489.105,-5895.81,-32962.005,-46602.27,-6687.09,12208.32
1764434035.565872,33732.0,21351.285,63492.525,-5891.895,-32958.405,-46596.375,-6685.29,12210.345
1764434035.565872,33731.01,21352.725,63496.35,-5889.195,-32955.795,-46594.44,-6679.125,12212.37
1764434035.565872,33724.619999999995,21349.755,63495.18,-5891.895,-32958.405,-46600.47,-6675.929999999999,12209.67
1764434035.565872,33720.795,21347.46,63494.415,-5893.785,-32961.24,-46604.88,-6665.804999999999,12212.73
1764434035.565872,33714.09,21344.67,63491.445,-5900.67,-32968.215,-46610.955,-6656.175,12214.035
1764434035.565872,33711.255,21342.96,63488.97,-5905.44,-32972.31,-46615.14,-6654.33,12213.135
1764434035.565872,33716.52,21346.785,63492.66,-5901.389999999999,-32966.955,-46609.11,-6655.995,12215.025
1764434035.565872,33715.71,21342.87,63488.295,-5902.785,-32968.98,-46610.505,-6667.785,12209.58
1764434035.565872,33722.73,21345.345,63489.24,-5897.969999999999,-32963.265,-46604.61,-6675.12,12210.12
1764434035.565872,33733.08,21351.78,63493.38,-5890.455,-32953.77,-46593.45,-6678.179999999999,12214.17
1764434035.565872,33736.86,21354.75,63495.765,-5887.8,-32952.555,-46591.2,-6679.575,12215.475
1764434035.565872,33732.945,21352.41,63496.44,-5888.474999999999,-32956.155,-46594.215,-6677.55,12213.315
1764434035.565872,33724.98,21347.01,63492.57,-5894.955,-32961.465,-46601.91,-6674.67,12209.895
1764434035.565872,33717.6,21343.005,63490.005,-5899.905,-32966.055,-46609.2,-6667.38,12209.76
1764434035.565872,33711.57,21341.97,63489.42,-5902.065,-32970.465,-46615.365,-6659.19,12210.48
1764434035.565872,33713.01,21343.77,63492.75,-5899.5,-32967.45,-46613.205,-6653.429999999999,12214.215
1764434035.565872,33715.755,21343.95,63493.38,-5898.195,-32964.615,-46609.65,-6654.42,12215.25
1764434035.565872,33716.925,21341.565,63488.205,-5901.525,-32966.64,-46610.37,-6665.67,12211.11
1764434035.565872,33727.905,21347.82,63490.545,-5896.26,-32959.08,-46602.09,-6670.259999999999,12215.565
1764434035.565872,33735.06,21350.655,63491.085,-5894.145,-32957.055,-46597.725,-6679.8,12214.17
1764434035.612615,33732.81,21349.575,63493.605,-5889.599999999999,-32954.58,-46595.025,-6682.455,12210.39
1764434035.612615,33732.494999999995,21353.31,63498.735,-5884.785,-32951.295,-46593.045,-6675.974999999999,12213.405
1764434035.612615,33728.355,21351.285,63496.62,-5890.815,-32956.92,-46599.93,-6670.485,12213.585
1764434035.612615,33714.81,21340.935,63487.755,-5902.83,-32969.79,-46612.08,-6665.355,12208.32
1764434035.612615,33706.845,21336.93,63485.46,-5908.05,-32974.56,-46618.245,-6657.66,12207.915
1764434035.612615,33709.635,21340.35,63488.61,-5904.945,-32971.815,-46618.02,-6655.905,12210.885
1764434035.613611,33713.145,21341.385,63488.295,-5903.639999999999,-32970.69,-46615.185,-6658.02,12213.135
1764434035.613611,33714.765,21340.26,63486.135,-5903.46,-32968.89,-46612.35,-6666.84,12210.12
1764434035.613611,33723.9,21346.38,63492.165,-5894.145,-32958.494999999995,-46602.405,-6673.455,12212.145
1764434035.613611,33733.935,21353.085,63497.97,-5885.594999999999,-32950.035,-46592.595,-6678.63,12214.935
1764434035.613611,33732.63,21350.205,63495.225,-5889.195,-32952.869999999995,-46593.405,-6682.815,12212.415
1764434035.613611,33728.175,21346.245,63493.56,-5891.264999999999,-32956.695,-46598.22,-6680.7,12210.255
1764434035.613611,33723.45,21344.265,63494.235,-5892.3,-32960.565,-46603.08,-6673.32,12210.795
1764434035.613611,33714.765,21339.81,63490.995,-5899.005,-32966.19,-46609.29,-6665.445,12209.085
1764434035.613611,33708.06,21337.47,63489.06,-5903.865,-32971.365,-46616.355,-6658.56,12209.58
1764434035.613611,33706.98,21336.12,63487.53,-5906.115,-32974.2,-46619.595,-6657.12,12210.48
1764434035.613611,33714.18,21340.89,63490.41,-5902.469999999999,-32969.835,-46613.835,-6656.264999999999,12214.98
1764434035.613611,33717.33,21339.54,63487.62,-5900.849999999999,-32967.45,-46610.19,-6663.69,12212.82
1764434035.613611,33724.845,21342.15,63488.16,-5897.565,-32962.77,-46603.62,-6672.78,12213.135
1764434035.613611,33730.38,21346.38,63492.165,-5891.58,-32957.955,-46597.59,-6680.79,12211.83
1764434035.613611,33731.325,21347.685,63495.63,-5887.304999999999,-32954.355,-46594.8,-6681.375,12210.795
1764434035.613611,33730.47,21348.27,63496.71,-5888.07,-32954.355,-46594.62,-6675.21,12213.045
1764434035.613611,33724.035,21344.94,63494.145,-5893.695,-32960.52,-46601.82,-6672.78,12210.66
1764434035.6141224,33717.51,21341.16,63491.58,-5898.78,-32967.405,-46609.2,-6665.264999999999,12210.345
1764434035.658785,33713.46,21339.63,63491.895,-5901.525,-32970.105,-46613.295,-6654.645,12213.36
1764434035.658785,33708.78,21334.95,63486.72,-5906.565,-32973.48,-46619.46,-6656.219999999999,12210.48
1764434035.658785,33717.195,21341.43,63490.905,-5901.57,-32968.8,-46613.52,-6654.825,12215.655
1764434035.658785,33719.04,21341.16,63490.32,-5900.085,-32965.875,-46608.795,-6661.259999999999,12213.36
1764434035.6597826,33722.73,21340.98,63487.8,-5898.33,-32963.49,-46605.78,-6672.69,12209.985
1764434035.6597826,33733.395,21347.685,63493.965,-5889.195,-32954.895,-46596.06,-6677.73,12212.145
1764434035.6597826,33732.855,21347.505,63495.405,-5887.215,-32953.23,-46595.295,-6680.61,12209.67
1764434035.6597826,33729.255,21345.345,63494.01,-5890.32,-32957.19,-46598.085,-6676.695,12210.255
1764434035.6597826,33727.5,21345.21,63494.91,-5891.94,-32960.025,-46600.65,-6668.37,12213.135
1764434035.6597826,33716.7,21338.37,63489.33,-5900.13,-32967.765,-46610.685,-6664.32,12208.635
1764434035.6597826,33709.23,21334.455,63486.72,-5905.844999999999,-32974.155,-46618.29,-6658.2,12208.455
1764434035.6597826,33708.69,21334.32,63485.91,-5908.455,-32976.18,-46620.63,-6656.355,12209.76
1764434035.6597826,33717.285,21341.745,63491.985,-5902.02,-32968.8,-46612.35,-6654.06,12215.565
1764434035.6597826,33718.635,21339.81,63489.285,-5901.974999999999,-32967.18,-46610.19,-6664.05,12211.605
1764434035.6597826,33721.56,21339.315,63487.44,-5899.545,-32965.38,-46609.155,-6677.594999999999,12207.15
1764434035.6597826,33728.085,21342.105,63488.25,-5894.235,-32961.105,-46602.72,-6684.525,12207.51
1764434035.6597826,33733.08,21347.145,63493.065,-5887.755,-32953.14,-46594.98,-6680.384999999999,12212.01
1764434035.6597826,33732.045,21347.46,63493.605,-5890.455,-32956.74,-46597.815,-6676.155,12212.595
1764434035.6607826,33725.655,21344.895,63494.055,-5893.83,-32961.015,-46602.045,-6669.405,12211.515
1764434035.6607826,33714.99,21338.595,63490.275,-5900.219999999999,-32966.82,-46609.875,-6663.87,12207.69
1764434035.6607826,33709.365,21335.985,63488.025,-5905.844999999999,-32973.075,-46617.345,-6657.165,12209.265
1764434035.6607826,33709.77,21336.255,63488.61,-5905.755,-32972.445,-46616.715,-6653.205,12212.1
1764434035.6607826,33716.79,21340.71,63491.625,-5901.75,-32969.115,-46612.665,-6655.455,12215.07
1764434035.6607826,33720.255,21340.44,63490.23,-5901.12,-32968.215,-46610.19,-6664.679999999999,12213.54
1764434035.702326,33726.51,21343.365,63491.355,-5895.135,-32960.97,-46601.82,-6671.7,12213.81
1764434035.702326,33732.405,21345.93,63492.03,-5891.58,-32957.01,-46596.69,-6679.035,12212.955
1764434035.702326,33734.07,21346.155,63493.155,-5890.679999999999,-32954.67,-46593.945,-6679.349999999999,12213.36
1764434035.702326,33728.49,21342.42,63490.86,-5893.2,-32958.45,-46597.32,-6676.469999999999,12211.29
1764434035.702326,33727.455,21344.895,63495.0,-5892.57,-32959.44,-46598.76,-6665.31,12214.485
1764434035.702326,33720.03,21342.195,63494.73,-5895.224999999999,-32963.49,-46605.195,-6657.929999999999,12212.955
1764434035.702326,33711.93,21337.65,63490.41,-5902.245,-32971.59,-46615.23,-6655.59,12209.58
1764434035.702326,33710.535,21336.12,63488.07,-5906.16,-32975.415,-46618.065,-6655.77,12210.345
1764434035.702326,33719.445,21342.87,63494.28,-5899.094999999999,-32967.405,-46608.255,-6654.69,12215.835
1764434035.702326,33721.335,21341.025,63490.905,-5899.545,-32966.775,-46607.49,-6666.389999999999,12211.875
1764434035.7033255,33726.96,21342.645,63490.455,-5896.304999999999,-32963.175,-46602.045,-6675.435,12210.255
1764434035.7033255,33732.09,21344.58,63490.995,-5892.57,-32959.89,-46597.32,-6681.15,12210.66
1764434035.7038343,33734.565,21346.425,63493.065,-5891.4,-32959.755,-46593.045,-6678.405,12212.505
1764434035.7038343,33734.16,21348.135,63496.08,-5890.815,-32958.945,-46593.225,-6671.429999999999,12214.71
1764434035.7038343,33727.41,21344.355,63494.28,-5895.27,-32960.88,-46598.265,-6667.02,12213.135
1764434035.704879,33720.48,21342.105,63494.37,-5896.8,-32963.22,-46603.89,-6658.514999999999,12214.485
1764434035.704879,33710.445,21335.13,63488.61,-5905.125,-32973.48,-46614.915,-6655.995,12210.075
1764434035.704879,33709.095,21334.32,63486.0,-5907.51,-32974.38,-46615.59,-6654.195,12210.48
1764434035.704879,33716.25,21339.18,63488.52,-5904.63,-32970.105,-46610.55,-6655.679999999999,12214.935
1764434035.705874,33720.03,21338.91,63485.91,-5905.935,-32970.869999999995,-46609.785,-6664.905,12213.36
1764434035.705874,33726.42,21341.835,63487.62,-5902.335,-32966.865,-46603.755,-6672.42,12211.695
1764434035.705874,33734.744999999995,21348.945,63495.81,-5889.915,-32956.92,-46593.045,-6674.355,12213.135
1764434035.750731,33733.98,21347.46,63495.315,-5886.764999999999,-32953.86,-46591.965,-6678.315,12211.515
1764434035.750731,33730.47,21344.985,63493.695,-5889.554999999999,-32958.09,-46595.52,-6675.255,12212.01
1764434035.750731,33726.15,21343.32,63494.145,-5892.66,-32961.915,-46599.57,-6667.605,12212.955
1764434035.750731,33720.795,21341.835,63493.335,-5896.53,-32964.93,-46604.295,-6657.48,12214.305
1764434035.750731,33712.11,21337.11,63489.87,-5904.27,-32972.58,-46613.07,-6654.69,12211.56
1764434035.750731,33710.625,21335.445,63487.98,-5905.665,-32973.93,-46615.59,-6654.735,12211.335
1764434035.750731,33714.855,21336.48,63487.665,-5903.82,-32971.455,-46611.81,-6657.165,12213.27
1764434035.750731,33714.494999999995,21332.745,63482.31,-5907.465,-32974.875,-46611.405,-6666.75,12209.31
1764434035.750731,33724.89,21339.495,63487.035,-5899.995,-32965.515,-46599.39,-6671.295,12212.865
1764434035.750731,33731.55,21343.185,63488.88,-5895.54,-32960.52,-46594.395,-6680.61,12210.48
1764434035.750731,33729.255,21341.43,63488.97,-5894.19,-32962.77,-46596.555,-6685.38,12207.69
1764434035.750731,33727.41,21341.07,63491.175,-5891.895,-32960.88,-46595.565,-6677.73,12209.985
1764434035.750731,33722.82,21338.235,63488.205,-5897.115,-32965.515,-46601.37,-6672.195,12209.355
1764434035.750731,33710.67,21331.665,63482.805,-5906.88,-32976.54,-46613.205,-6668.594999999999,12204.675
1764434035.750731,33704.235,21329.685,63483.795,-5908.455,-32979.195,-46617.705,-6660.719999999999,12204.225
1764434035.7517302,33703.695,21328.515,63481.995,-5912.01,-32981.67,-46620.675,-6660.045,12204.405
1764434035.7517302,33709.365,21331.575,63483.165,-5908.86,-32977.215,-46615.14,-6660.134999999999,12207.78
1764434035.7517302,33709.68,21328.875,63478.755,-5910.389999999999,-32977.755,-46614.78,-6671.295,12203.325
1764434035.7517302,33720.525,21335.355,63484.065,-5901.84,-32968.08,-46603.35,-6676.56,12206.655
1764434035.7517302,33723.36,21334.095,63482.04,-5901.795,-32968.665,-46602.495,-6687.99,12202.785
1764434035.7517302,33726.51,21335.535,63483.345,-5900.175,-32967.045,-46600.335,-6687.45,12204.135
1764434035.7517302,33723.72,21335.445,63484.785,-5900.355,-32968.215,-46602.09,-6683.13,12204.36
1764434035.7965498,33718.185,21334.905,63485.145,-5901.66,-32971.32,-46605.915,-6675.57,12205.035
1764434035.797579,33712.425,21332.655,63484.695,-5903.639999999999,-32973.84,-46610.19,-6664.23,12206.835
1764434035.797579,33703.38,21326.13,63480.285,-5911.38,-32981.31,-46617.93,-6660.315,12204.405
1764434035.797579,33704.01,21326.58,63480.645,-5911.965,-32981.49,-46618.92,-6660.63,12205.755
1764434035.797579,33711.21,21330.945,63483.21,-5909.445,-32977.935,-46613.88,-6662.969999999999,12208.455
1764434035.7985716,33710.445,21327.66,63477.765,-5912.82,-32980.994999999995,-46616.4,-6675.344999999999,12202.11
1764434035.7985716,33717.195,21330.945,63480.375,-5904.99,-32973.3,-46608.525,-6682.995,12202.245
1764434035.7985716,33728.175,21339.135,63487.035,-5895.81,-32963.625,-46596.87,-6684.84,12207.51
1764434035.7985716,33729.885,21341.07,63488.43,-5894.73,-32962.455,-46595.745,-6684.929999999999,12207.285
1764434035.7985716,33728.67,21342.105,63491.085,-5893.11,-32960.744999999995,-46594.8,-6678.045,12209.445
1764434035.7995722,33718.905,21335.265,63487.035,-5899.32,-32967.54,-46603.665,-6674.895,12205.35
1764434035.7995722,33712.47,21333.78,63486.81,-5902.965,-32972.4,-46609.965,-6666.255,12206.205
1764434035.7995722,33711.615,21336.255,63488.835,-5905.575,-32975.775,-46614.06,-6656.13,12210.48
1764434035.7995722,33707.835,21330.585,63482.22,-5910.525,-32978.835,-46615.05,-6654.735,12209.445
1764434035.8005714,33713.775,21333.69,63484.335,-5906.07,-32973.255,-46609.74,-6656.67,12211.65
1764434035.8005714,33715.08,21333.51,63483.39,-5905.395,-32973.03,-46608.57,-6666.884999999999,12208.635
1764434035.8005714,33725.205,21341.205,63490.32,-5895.63,-32964.48,-46599.21,-6671.745,12212.055
1764434035.8005714,33728.4,21340.53,63487.845,-5895.54,-32962.23,-46595.745,-6681.645,12208.86
1764434035.8005714,33731.595,21342.735,63490.095,-5892.929999999999,-32960.025,-46592.37,-6681.599999999999,12210.075
1764434035.8005714,33729.345,21341.88,63489.555,-5894.955,-32963.31,-46594.575,-6677.28,12210.795
1764434035.8015802,33719.58,21337.47,63486.9,-5900.31,-32969.205,-46602.405,-6673.139999999999,12207.42
1764434035.8015802,33712.02,21334.59,63487.125,-5901.929999999999,-32971.86,-46607.94,-6663.915,12207.15
1764434035.8015802,33710.805,21336.165,63489.33,-5900.804999999999,-32970.78,-46609.2,-6654.554999999999,12211.29
1764434035.8015802,33711.075,21334.635,63487.26,-5904.855,-32973.255,-46610.865,-6654.15,12211.785
1764434035.841991,33713.55,21332.925,63483.84,-5907.105,-32975.1,-46610.91,-6659.91,12211.11
1764434035.841991,33715.08,21331.755,63481.005,-5908.41,-32976.225,-46611.09,-6671.295,12207.15
1764434035.841991,33727.77,21341.655,63490.275,-5895.179999999999,-32964.84,-46598.22,-6674.264999999999,12211.29
1764434035.841991,33733.26,21343.77,63490.95,-5891.13,-32960.43,-46592.505,-6679.844999999999,12211.11
1764434035.841991,33734.16,21343.32,63490.545,-5890.41,-32957.19,-46591.065,-6679.62,12210.705
1764434035.8435638,33731.19,21342.69,63491.22,-5891.04,-32956.83,-46593.72,-6676.965,12209.985
1764434035.8435638,33721.56,21337.02,63488.835,-5895.675,-32963.49,-46599.795,-6672.915,12206.88
1764434035.8435638,33714.27,21334.14,63487.305,-5899.995,-32969.295,-46606.815,-6664.634999999999,12206.88
1764434035.8435638,33712.785,21335.445,63489.15,-5901.929999999999,-32971.095,-46610.595,-6654.645,12211.245
1764434035.8435638,33709.05,21331.44,63484.56,-5907.87,-32975.595,-46613.61,-6652.62,12210.66
1764434035.8435638,33711.93,21332.07,63483.345,-5907.645,-32973.66,-46612.53,-6659.955,12209.58
1764434035.8435638,33716.115,21332.205,63481.635,-5906.88,-32973.21,-46611.765,-6670.98,12207.555
1764434035.8435638,33722.01,21333.105,63481.995,-5902.29,-32966.64,-46603.845,-6678.179999999999,12207.285
1764434035.8435638,33724.035,21333.105,63480.105,-5902.065,-32966.325,-46601.865,-6687.27,12203.505
1764434035.8435638,33726.42,21336.255,63484.02,-5898.375,-32964.119999999995,-46599.615,-6686.505,12204.765
1764434035.8435638,33722.73,21335.85,63485.055,-5897.969999999999,-32964.525,-46602.045,-6682.455,12204.99
1764434035.8435638,33719.04,21334.995,63486.405,-5898.69,-32964.615,-46604.7,-6674.04,12206.61
1764434035.8435638,33716.205,21335.85,63488.295,-5901.435,-32967.99,-46608.165,-6662.52,12210.255
1764434035.8435638,33709.5,21332.16,63485.685,-5907.465,-32974.425,-46613.745,-6655.275,12210.345
1764434035.8435638,33705.72,21327.795,63479.43,-5915.745,-32980.815,-46619.19,-6658.65,12207.105
1764434035.8435638,33709.86,21329.505,63479.07,-5914.98,-32978.25,-46616.94,-6663.33,12208.41
1764434035.8435638,33710.805,21326.31,63476.73,-5912.55,-32977.26,-46617.03,-6674.625,12203.775
1764434035.8435638,33721.335,21332.475,63482.76,-5901.075,-32965.695,-46605.105,-6678.45,12206.52
1764434035.8435638,33727.635,21335.895,63483.975,-5900.355,-32963.445,-46599.345,-6684.75,12206.79
1764434035.8875349,33731.415,21342.735,63492.48,-5890.77,-32955.75,-46592.145,-6679.755,12210.705
1764434035.8875349,33727.23,21339.405,63491.265,-5893.02,-32958.135,-46595.115,-6676.11,12209.265
1764434035.8875349,33718.32,21332.88,63486.36,-5900.625,-32966.28,-46603.215,-6672.465,12206.295
1764434035.8875349,33711.075,21329.01,63483.93,-5906.52,-32973.435,-46611.0,-6664.634999999999,12205.98
1764434035.8875349,33705.135,21326.715,63481.545,-5910.929999999999,-32977.485,-46617.165,-6658.2,12206.385
1764434035.8875349,33707.52,21329.28,63483.48,-5908.905,-32976.135,-46616.31,-6656.445,12209.31
1764434035.8875349,33711.75,21331.035,63483.795,-5907.69,-32973.93,-46613.52,-6660.764999999999,12209.31
1764434035.8875349,33715.26,21330.99,63482.085,-5907.42,-32972.49,-46611.315,-6669.09,12208.23
1764434035.8875349,33723.225,21334.455,63484.02,-5901.075,-32965.02,-46602.36,-6675.3,12209.535
1764434035.8875349,33728.355,21336.57,63485.235,-5895.855,-32959.305,-46596.105,-6681.599999999999,12208.275
1764434035.8875349,33726.555,21334.995,63483.57,-5897.565,-32962.5,-46599.03,-6685.83,12205.17
1764434035.8875349,33722.369999999995,21332.97,63483.12,-5900.04,-32965.92,-46602.81,-6682.05,12204.72
1764434035.8875349,33719.805,21333.465,63485.37,-5900.175,-32966.82,-46604.25,-6673.094999999999,12207.33
1764434035.8875349,33712.74,21330.72,63482.715,-5907.69,-32974.605,-46612.665,-6665.355,12207.51
1764434035.8875349,33706.305,21328.245,63482.04,-5910.435,-32977.035,-46617.93,-6658.469999999999,12207.735
1764434035.8875349,33706.035,21327.93,63481.095,-5911.38,-32977.98,-46619.37,-6657.615,12207.78
1764434035.8875349,33708.78,21327.21,63478.665,-5912.19,-32977.665,-46617.075,-6662.34,12207.42
1764434035.8875349,33711.255,21326.625,63478.035,-5909.895,-32975.505,-46613.88,-6672.42,12205.485
1764434035.8875349,33719.445,21332.205,63482.31,-5902.11,-32969.16,-46606.68,-6679.935,12205.89
1764434035.8875349,33723.855,21333.69,63482.265,-5899.32,-32965.065,-46601.28,-6686.505,12203.91
1764434035.8875349,33730.605,21340.17,63487.845,-5894.415,-32959.53,-46594.53,-6682.5,12207.87
1764434035.8875349,33727.14,21338.505,63486.135,-5898.465,-32963.355,-46599.345,-6677.594999999999,12209.4
1764434035.9323833,33720.75,21334.095,63484.785,-5900.04,-32966.369999999995,-46605.375,-6671.835,12208.995
1764434035.9323833,33710.895,21330.225,63484.965,-5902.29,-32970.33,-46612.17,-6664.86,12206.565
1764434035.9323833,33702.525,21325.86,63480.24,-5909.715,-32977.44,-46620.27,-6661.62,12204.63
1764434035.9323833,33703.695,21326.67,63479.79,-5911.469999999999,-32977.98,-46620.63,-6660.63,12206.205
1764434035.9323833,33710.76,21331.305,63483.885,-5906.34,-32973.885,-46615.815,-6661.485,12210.525
1764434035.9339595,33711.345,21328.56,63479.52,-5907.69,-32973.705,-46614.51,-6672.87,12205.935
1764434035.9339595,33719.625,21331.755,63480.42,-5904.224999999999,-32970.869999999995,-46609.335,-6682.139999999999,12205.665
1764434035.9339595,33724.44,21332.205,63480.42,-5901.389999999999,-32968.035,-46603.935,-6687.315,12204.99
1764434035.9339595,33724.305,21332.25,63481.185,-5899.185,-32964.615,-46600.785,-6686.415,12203.46
1764434035.9339595,33722.91,21334.77,63487.215,-5895.27,-32961.825,-46599.48,-6679.575,12204.495
1764434035.9339595,33718.185,21333.24,63487.035,-5897.655,-32964.84,-46604.43,-6673.41,12204.54
1764434035.9339595,33707.52,21325.455,63480.06,-5906.79,-32973.975,-46615.095,-6669.63,12200.445
1764434035.9339595,33704.28,21324.285,63479.52,-5910.795,-32978.475,-46620.045,-6662.655,12202.83
1764434035.9339595,33700.545,21320.55,63475.02,-5917.365,-32985.27,-46625.58,-6666.255,12199.545
1764434035.9355462,33706.215,21323.295,63476.955,-5912.955,-32980.095,-46619.55,-6668.685,12202.11
1764434035.9355462,33707.115,21321.315,63473.445,-5913.045,-32980.545,-46619.28,-6679.98,12198.42
1764434035.9355462,33718.41,21328.785,63477.405,-5904.675,-32971.32,-46608.48,-6682.77,12202.695
1764434035.9355462,33724.08,21331.26,63478.845,-5900.355,-32965.785,-46602.315,-6687.63,12202.245
1764434035.9355462,33721.155,21328.155,63477.63,-5902.74,-32967.81,-46603.845,-6692.085,12198.78
1764434035.9355462,33716.88,21325.725,63476.415,-5906.474999999999,-32972.58,-46607.67,-6687.855,12197.97
1764434035.9355462,33716.07,21328.695,63480.735,-5905.17,-32972.58,-46608.795,-6678.585,12201.57
1764434035.9360578,33708.195,21324.645,63479.205,-5908.139999999999,-32977.17,-46616.49,-6671.79,12200.76
1764434035.9360578,33699.96,21319.56,63474.39,-5913.315,-32983.065,-46623.33,-6666.525,12198.33
1764434035.9360578,33701.76,21321.225,63473.58,-5916.014999999999,-32984.505,-46625.355,-6666.66,12199.635
1764434035.9810734,33705.99,21322.53,63472.86,-5917.275,-32983.965,-46622.43,-6669.315,12201.12
1764434035.9810734,33703.605,21316.32,63467.37,-5918.625,-32983.83,-46621.08,-6679.215,12194.91
1764434035.9810734,33715.305,21323.385,63472.68,-5908.95,-32974.02,-46610.73,-6685.469999999999,12198.285
1764434035.9810734,33722.505,21328.155,63475.875,-5904.135,-32968.935,-46604.88,-6692.04,12199.59
1764434035.9810734,33718.32,21326.535,63476.73,-5902.785,-32969.25,-46606.14,-6695.91,12194.235
1764434035.9810734,33717.869999999995,21327.48,63477.855,-5904.224999999999,-32972.22,-46609.245,-6688.844999999999,12197.61
1764434035.9810734,33708.825,21321.99,63473.13,-5913.495,-32981.67,-46618.425,-6685.11,12195.27
1764434035.9810734,33702.435,21321.36,63476.235,-5913.945,-32982.165,-46619.415,-6672.285,12197.43
1764434035.9810734,33697.215,21318.57,63474.66,-5917.905,-32985.765,-46624.905,-6666.48,12197.79
1764434035.9810734,33698.43,21318.975,63473.985,-5919.3,-32987.34,-46627.965,-6667.11,12199.005
1764434035.9820788,33701.67,21319.11,63472.77,-5917.094999999999,-32982.75,-46623.015,-6671.07,12198.645
1764434035.9820788,33702.345,21315.96,63467.91,-5919.57,-32984.145,-46622.52,-6682.23,12192.84
1764434035.9820788,33710.67,21318.795,63469.08,-5916.51,-32980.185,-46616.355,-6690.735,12193.47
1764434035.9820788,33719.715,21326.58,63476.73,-5905.125,-32970.195,-46606.32,-6693.705,12197.34
1764434035.9820788,33720.57,21328.515,63479.52,-5900.895,-32966.82,-46603.53,-6692.175,12198.285
1764434035.9820788,33715.305,21326.31,63477.72,-5904.09,-32970.78,-46606.95,-6687.315,12196.98
1764434035.9820788,33709.23,21322.755,63475.335,-5909.04,-32976.855,-46614.645,-6683.445,12194.19
1764434035.9820788,33705.54,21323.835,63477.27,-5911.38,-32979.15,-46619.64,-6672.195,12197.295
1764434035.9820788,33697.125,21317.085,63471.555,-5920.514999999999,-32986.619999999995,-46626.57,-6667.245,12196.08
1764434035.9820788,33693.435,21312.945,63466.425,-5925.78,-32990.94,-46631.205,-6671.205,12192.705
1764434035.9820788,33699.645,21317.22,63470.655,-5920.469999999999,-32986.755,-46625.4,-6673.094999999999,12195.945
1764434035.9820788,33701.085,21314.7,63467.415,-5921.19,-32987.07,-46623.87,-6683.67,12192.255
1764434036.0270174,33708.42,21317.31,63468.09,-5916.24,-32980.77,-46616.895,-6692.49,12192.3
1764434036.0270174,33714.945,21321.18,63471.285,-5910.435,-32974.515,-46610.415,-6697.44,12192.435
1764434036.028048,33720.435,21326.58,63477.72,-5903.415,-32968.755,-46605.78,-6693.165,12196.935
1764434036.028048,33715.395,21325.41,63477.585,-5905.035,-32972.895,-46610.235,-6689.655,12195.81
1764434036.028048,33709.86,21323.52,63477.27,-5908.59,-32975.595,-46613.745,-6681.06,12197.025
1764434036.028048,33705.135,21322.755,63477.945,-5911.155,-32978.835,-46617.75,-6669.764999999999,12199.995
1764434036.028048,33696.045,21315.42,63471.375,-5919.84,-32987.34,-46626.57,-6667.74,12195.855
1764434036.028048,33697.305,21316.185,63471.555,-5920.695,-32987.07,-46625.985,-6665.13,12198.375
1764434036.028048,33705.0,21321.27,63475.245,-5915.835,-32981.805,-46620.135,-6665.849999999999,12202.605
1764434036.028048,33705.945,21319.2,63472.815,-5916.42,-32983.38,-46619.775,-6678.315,12196.665
1764434036.028048,33714.0,21321.9,63473.58,-5911.74,-32980.455,-46615.14,-6691.23,12195.585
1764434036.028048,33717.06,21321.225,63471.06,-5912.594999999999,-32977.44,-46612.35,-6699.78,12193.785
1764434036.028048,33716.97,21321.36,63472.41,-5910.03,-32972.355,-46608.03,-6696.09,12194.01
1764434036.028048,33714.45,21322.71,63477.405,-5904.945,-32970.195,-46610.325,-6689.565,12195.855
1764434036.028048,33711.75,21324.105,63479.97,-5903.46,-32971.635,-46613.52,-6680.429999999999,12198.96
1764434036.028048,33702.165,21318.21,63474.48,-5913.99,-32982.39,-46624.815,-6674.58,12195.99
1764434036.028048,33699.15,21317.4,63475.155,-5916.33,-32984.19,-46627.695,-6666.344999999999,12199.185
1764434036.028048,33699.42,21316.995,63474.345,-5916.465,-32983.965,-46627.02,-6665.94,12199.86
1764434036.028048,33702.345,21317.22,63472.905,-5916.15,-32981.67,-46621.89,-6671.025,12198.735
1764434036.028048,33705.855,21318.255,63472.86,-5914.215,-32979.96,-46619.055,-6679.665,12197.115
1764434036.028048,33710.85,21318.93,63472.32,-5911.2,-32977.44,-46614.555,-6690.33,12196.215
1764434036.028048,33716.295,21322.035,63473.895,-5907.014999999999,-32972.715,-46609.065,-6696.09,12195.855
1764434036.028048,33717.645,21323.385,63474.57,-5906.16,-32970.869999999995,-46607.895,-6694.83,12196.485
1764434036.028048,33712.605,21320.235,63472.365,-5910.435,-32976.0,-46613.07,-6690.465,12195.495
1764434036.0737576,33703.83,21316.86,63472.41,-5912.91,-32979.195,-46619.145,-6683.264999999999,12194.01
1764434036.0737576,33696.9,21315.51,63474.435,-5913.36,-32981.13,-46623.105,-6673.365,12194.01
1764434036.0737576,33696.63,21315.735,63473.58,-5917.545,-32985.855,-46626.885,-6665.715,12197.61
1764434036.0737576,33695.685,21314.565,63471.87,-5920.83,-32989.545,-46629.27,-6667.56,12197.115
1764434036.0737576,33699.15,21316.815,63473.13,-5916.375,-32984.64,-46624.365,-6672.105,12196.62
1764434036.0748112,33701.625,21315.24,63469.17,-5917.995,-32984.64,-46623.24,-6682.815,12193.47
1764434036.0748112,33712.785,21321.045,63473.94,-5910.885,-32975.415,-46612.755,-6687.405,12196.98
1764434036.0748112,33717.96,21323.88,63476.46,-5905.44,-32970.69,-46607.04,-6692.715,12197.16
1764434036.0748112,33718.815,21325.455,63478.71,-5903.145,-32968.98,-46604.925,-6691.32,12198.06
1764434036.0748112,33715.575,21325.005,63480.06,-5903.865,-32969.79,-46605.96,-6684.84,12198.42
1764434036.0748112,33712.47,21324.96,63481.095,-5904.99,-32971.59,-46609.245,-6675.974999999999,12199.41
1764434036.0748112,33707.34,21323.88,63481.14,-5908.139999999999,-32977.53,-46616.94,-6667.785,12200.445
1764434036.0748112,33699.42,21317.895,63475.11,-5916.195,-32985.36,-46625.355,-6663.285,12199.995
1764434036.0748112,33696.315,21314.34,63471.375,-5919.48,-32986.44,-46628.01,-6667.02,12197.655
1764434036.0748112,33706.35,21322.17,63477.405,-5911.2,-32977.755,-46618.47,-6666.795,12203.46
1764434036.0748112,33709.41,21320.955,63474.615,-5911.965,-32977.755,-46616.22,-6677.37,12199.68
1764434036.0748112,33721.244999999995,21328.155,63480.465,-5903.325,-32968.26,-46606.095,-6682.32,12203.64
1764434036.0748112,33725.97,21330.63,63481.23,-5900.04,-32964.705,-46601.865,-6688.08,12203.64
1764434036.0748112,33725.655,21330.855,63481.68,-5900.13,-32965.83,-46602.675,-6687.54,12203.28
1764434036.0748112,33721.155,21328.2,63482.445,-5900.895,-32967.63,-46604.655,-6681.599999999999,12202.245
1764434036.0748112,33714.45,21325.86,63482.76,-5903.37,-32971.14,-46609.92,-6675.57,12201.12
1764434036.0748112,33703.38,21318.66,63476.145,-5912.28,-32980.41,-46621.125,-6671.205,12196.89
1764434036.1199274,33701.13,21319.065,63476.415,-5915.115,-32981.805,-46624.23,-6662.925,12200.76
1764434036.1199274,33701.58,21319.29,63475.29,-5916.33,-32983.605,-46624.455,-6664.23,12200.85
1764434036.1199274,33706.53,21321.0,63476.46,-5913.27,-32979.465,-46619.37,-6667.155,12202.695
1764434036.1199274,33708.96,21320.91,63474.525,-5911.514999999999,-32977.53,-46616.715,-6676.65,12199.725
1764434036.1199274,33712.335,21321.315,63473.22,-5908.455,-32974.244999999995,-46611.45,-6687.99,12195.27
1764434036.1209252,33718.455,21324.555,63475.11,-5904.27,-32970.06,-46606.635,-6693.84,12195.18
1764434036.1209252,33723.18,21329.775,63480.195,-5899.77,-32966.325,-46602.27,-6687.179999999999,12201.03
1764434036.1209252,33718.185,21328.02,63479.88,-5902.74,-32969.385,-46606.14,-6681.87,12200.715
1764434036.1209252,33712.2,21325.635,63479.52,-5905.304999999999,-32972.94,-46612.35,-6676.514999999999,12199.725
1764434036.1209252,33700.68,21317.985,63473.13,-5914.665,-32982.03,-46624.275,-6674.58,12194.235
1764434036.1209252,33693.345,21311.01,63468.0,-5922.585,-32989.185,-46629.855,-6668.639999999999,12193.47
1764434036.1209252,33694.29,21310.92,63466.425,-5923.889999999999,-32989.095,-46629.45,-6667.469999999999,12195.495
1764434036.1209252,33705.72,21319.335,63472.23,-5916.554999999999,-32981.58,-46621.575,-6668.145,12201.525
1764434036.1209252,33707.97,21319.83,63471.87,-5914.08,-32979.285,-46619.685,-6678.63,12197.16
1764434036.1209252,33715.44,21323.835,63475.335,-5906.07,-32970.015,-46608.795,-6685.38,12197.61
1764434036.1209252,33724.935,21329.955,63482.04,-5897.25,-32961.645,-46598.94,-6685.605,12202.155
1764434036.1209252,33724.8,21329.505,63482.76,-5896.8,-32961.78,-46600.065,-6685.605,12201.885
1764434036.1209252,33715.26,21323.025,63478.17,-5903.955,-32969.205,-46608.615,-6685.38,12196.125
1764434036.1209252,33709.005,21320.28,63476.145,-5909.58,-32975.415,-46613.565,-6678.315,12196.17
1764434036.1209252,33704.055,21318.705,63476.46,-5912.55,-32979.96,-46619.19,-6668.415,12197.745
1764434036.1209252,33702.885,21319.875,63477.855,-5913.719999999999,-32980.95,-46621.305,-6660.719999999999,12201.525
1764434036.1209252,33699.42,21314.97,63471.6,-5920.245,-32986.035,-46626.66,-6666.255,12197.79
1764434036.1209252,33709.23,21321.36,63475.65,-5914.44,-32978.16,-46619.055,-6666.165,12204.45
1764434036.1209252,33714.945,21324.555,63476.91,-5911.695,-32974.92,-46614.87,-6673.724999999999,12204.18
1764434036.1659896,33722.369999999995,21329.28,63481.995,-5901.255,-32965.965,-46604.79,-6680.565,12204.045
1764434036.1659896,33724.395,21328.785,63481.635,-5898.15,-32964.93,-46600.965,-6687.179999999999,12201.48
1764434036.1659896,33720.48,21324.915,63479.07,-5900.355,-32965.875,-46602.585,-6688.485,12198.06
1764434036.1659896,33719.94,21327.48,63481.185,-5902.02,-32967.135,-46604.43,-6680.565,12201.12
1764434036.1659896,33713.64,21323.34,63478.665,-5905.889999999999,-32970.42,-46609.695,-6673.77,12200.625
1764434036.1659896,33703.244999999995,21315.285,63471.51,-5916.69,-32981.67,-46621.035,-6668.19,12197.88
1764434036.1659896,33694.83,21310.47,63468.63,-5922.495,-32988.645,-46629.09,-6667.155,12194.01
1764434036.1659896,33698.97,21316.545,63475.83,-5915.115,-32980.5,-46622.835,-6663.465,12197.655
1764434036.1659896,33704.28,21318.84,63475.695,-5914.08,-32978.07,-46618.335,-6666.705,12199.32
1764434036.1659896,33706.08,21316.455,63472.095,-5913.945,-32979.15,-46618.2,-6678.27,12194.28
1764434036.1659896,33717.15,21323.43,63477.0,-5904.36,-32969.655,-46607.31,-6682.905,12198.195
1764434036.1659896,33720.119999999995,21324.555,63478.17,-5901.705,-32965.83,-46602.36,-6687.81,12197.385
1764434036.1659896,33717.195,21323.16,63476.91,-5902.785,-32967.27,-46604.43,-6689.07,12194.415
1764434036.1659896,33713.415,21321.63,63476.73,-5904.63,-32970.915,-46608.255,-6685.83,12193.56
1764434036.1659896,33709.95,21320.46,63476.505,-5908.185,-32975.55,-46613.115,-6677.054999999999,12196.215
1764434036.1659896,33705.494999999995,21319.92,63477.0,-5911.335,-32979.869999999995,-46618.74,-6666.66,12199.14
1764434036.1659896,33697.17,21314.385,63472.905,-5917.815,-32986.71,-46627.47,-6665.219999999999,12195.585
1764434036.1669888,33699.645,21315.51,63472.995,-5917.455,-32984.775,-46625.265,-6664.32,12197.97
1764434036.1669888,33705.36,21318.93,63474.48,-5913.495,-32980.545,-46619.055,-6666.389999999999,12199.77
1764434036.1669888,33708.869999999995,21318.84,63473.31,-5911.469999999999,-32978.07,-46616.715,-6675.84,12197.7
1764434036.1669888,33716.52,21322.35,63476.055,-5905.889999999999,-32971.05,-46608.705,-6684.48,12197.745
1764434036.1669888,33720.119999999995,21324.06,63477.18,-5903.054999999999,-32967.945,-46604.88,-6690.195,12197.385
1764434036.2110655,33714.855,21319.605,63472.5,-5908.185,-32972.94,-46608.435,-6690.195,12193.74
1764434036.2110655,33710.31,21317.22,63471.735,-5911.11,-32975.685,-46611.405,-6685.92,12192.21
1764434036.2110655,33710.085,21320.28,63476.865,-5908.23,-32974.74,-46611.99,-6676.38,12196.08
1764434036.2110655,33702.795,21318.93,63477.99,-5910.435,-32979.42,-46619.19,-6666.344999999999,12197.16
1764434036.2110655,33698.43,21315.825,63474.885,-5915.88,-32984.369999999995,-46624.41,-6661.395,12198.06
1764434036.2110655,33698.025,21314.925,63472.86,-5918.04,-32985.405,-46625.49,-6663.645,12197.745
1764434036.2110655,33703.47,21318.03,63475.515,-5914.395,-32981.175,-46620.45,-6666.795,12199.905
1764434036.2110655,33704.46,21315.285,63470.16,-5916.554999999999,-32982.57,-46619.55,-6678.09,12195.495
1764434036.2110655,33712.29,21319.02,63471.15,-5912.415,-32977.575,-46612.26,-6686.415,12195.27
1764434036.2110655,33717.285,21321.855,63473.94,-5908.139999999999,-32974.155,-46609.02,-6691.679999999999,12194.955
1764434036.2110655,33720.66,21325.545,63480.105,-5902.02,-32967.36,-46604.34,-6686.46,12198.96
1764434036.2110655,33713.235,21321.675,63478.035,-5903.82,-32969.61,-46607.49,-6682.905,12196.215
1764434036.2110655,33710.895,21321.945,63479.61,-5906.295,-32973.255,-46609.83,-6672.554999999999,12199.68
1764434036.2110655,33698.79,21313.845,63473.13,-5918.13,-32984.1,-46620.855,-6667.605,12195.495
1764434036.2110655,33696.585,21313.845,63473.31,-5919.84,-32985.0,-46623.105,-6661.395,12197.52
1764434036.2110655,33695.955,21312.495,63471.555,-5918.895,-32984.64,-46624.995,-6667.875,12195.315
1764434036.2110655,33703.47,21316.095,63473.085,-5914.17,-32980.32,-46620.945,-6672.24,12198.285
1764434036.2110655,33703.605,21312.855,63468.315,-5916.42,-32981.985,-46622.025,-6684.389999999999,12193.11
1764434036.2110655,33711.345,21317.04,63470.7,-5911.11,-32976.225,-46614.42,-6691.185,12193.83
1764434036.2110655,33718.95,21321.675,63474.975,-5905.304999999999,-32969.79,-46604.565,-6690.24,12197.88
1764434036.2110655,33717.51,21320.865,63476.595,-5902.92,-32967.09,-46601.595,-6687.495,12197.385
1764434036.2110655,33712.11,21317.355,63473.805,-5908.77,-32971.815,-46607.4,-6684.03,12195.855
1764434036.2110655,33704.505,21313.215,63469.755,-5916.014999999999,-32979.96,-46616.4,-6680.205,12192.84
1764434036.2110655,33697.035,21311.37,63469.665,-5919.344999999999,-32987.07,-46625.13,-6672.554999999999,12192.57
1764434036.2560346,33695.369999999995,21311.82,63472.095,-5918.715,-32986.8,-46626.93,-6664.455,12195.99
1764434036.2560346,33695.325,21311.055,63471.015,-5918.219999999999,-32985.405,-46625.67,-6665.58,12196.215
1764434036.2560346,33701.445,21315.24,63473.58,-5914.8,-32980.725,-46620.54,-6669.495,12197.52
1764434036.257581,33704.91,21314.655,63471.96,-5912.685,-32977.755,-46617.03,-6680.52,12194.55
1764434036.257581,33716.565,21319.38,63472.905,-5908.455,-32972.805,-46609.74,-6687.179999999999,12198.51
1764434036.257581,33721.11,21320.37,63473.715,-5907.599999999999,-32971.32,-46605.87,-6690.825,12199.14
1764434036.257581,33720.48,21324.78,63480.15,-5900.67,-32966.595,-46602.27,-6687.045,12199.32
1764434036.257581,33716.16,21324.06,63479.25,-5902.245,-32969.07,-46606.005,-6682.005,12199.14
1764434036.257581,33710.445,21321.63,63478.845,-5905.844999999999,-32972.985,-46610.64,-6674.175,12200.4
1764434036.2586312,33703.155,21317.85,63476.595,-5911.38,-32979.105,-46618.29,-6666.12,12200.31
1764434036.2586312,33699.6,21315.96,63474.795,-5916.69,-32985.045,-46624.995,-6662.205,12200.13
1764434036.2586312,33700.05,21315.51,63473.49,-5917.86,-32984.055,-46624.365,-6662.655,12200.22
1764434036.2586312,33706.305,21318.57,63476.415,-5913.315,-32980.05,-46617.525,-6665.759999999999,12201.615
1764434036.2586312,33709.994999999995,21318.48,63475.02,-5912.054999999999,-32978.52,-46614.465,-6676.38,12199.32
1764434036.2596328,33715.619999999995,21319.74,63473.715,-5908.59,-32972.985,-46608.435,-6687.27,12197.43
1764434036.2596328,33723.405,21325.635,63477.63,-5902.605,-32965.92,-46599.975,-6687.764999999999,12200.58
1764434036.2596328,33723.405,21327.21,63482.04,-5899.139999999999,-32965.11,-46599.165,-6684.525,12202.47
1764434036.2606268,33719.985,21327.165,63485.145,-5898.195,-32965.56,-46600.47,-6678.495,12202.74
1764434036.2606268,33715.71,21324.645,63483.345,-5902.965,-32969.88,-46605.06,-6671.34,12203.595
1764434036.2606268,33704.415,21316.995,63476.37,-5912.594999999999,-32978.88,-46616.355,-6667.965,12200.085
1764434036.2606268,33695.505,21311.01,63469.935,-5920.605,-32987.655,-46625.355,-6667.605,12196.08
1764434036.2606268,33697.26,21312.18,63469.71,-5920.02,-32986.53,-46624.635,-6666.255,12197.655
1764434036.30614,33707.7,21319.335,63474.84,-5912.91,-32978.97,-46617.255,-6665.445,12204.36
1764434036.30614,33709.185,21316.545,63470.88,-5914.08,-32979.869999999995,-46614.645,-6675.75,12200.805
1764434036.30614,33719.04,21323.16,63477.315,-5905.08,-32970.24,-46603.755,-6681.915,12203.46
1764434036.30614,33720.03,21322.395,63475.38,-5904.719999999999,-32969.655,-46602.585,-6688.889999999999,12199.68
1764434036.30614,33722.775,21325.635,63479.16,-5901.84,-32968.035,-46599.93,-6684.389999999999,12202.245
1764434036.30614,33715.98,21322.665,63478.845,-5903.099999999999,-32970.69,-46604.385,-6681.509999999999,12199.86
1764434036.30714,33706.619999999995,21317.985,63476.28,-5907.195,-32976.09,-46612.98,-6677.145,12196.845
1764434036.30714,33700.905,21316.005,63476.1,-5911.74,-32980.32,-46618.515,-6667.02,12198.42
1764434036.30714,33696.135,21312.495,63471.195,-5918.895,-32987.16,-46626.255,-6664.86,12198.15
1764434036.30714,33699.105,21314.16,63470.835,-5919.12,-32986.665,-46623.465,-6661.98,12201.615
1764434036.30714,33705.135,21317.58,63473.58,-5915.7,-32982.93,-46618.065,-6666.974999999999,12203.145
1764434036.30714,33707.835,21317.355,63473.355,-5911.605,-32978.295,-46614.06,-6677.46,12199.545
1764434036.30714,33714.63,21318.885,63472.635,-5908.455,-32971.725,-46606.725,-6685.695,12198.375
1764434036.30714,33717.285,21319.695,63473.31,-5905.62,-32969.655,-46603.935,-6690.33,12197.43
1764434036.30714,33718.455,21321.945,63476.145,-5904.179999999999,-32969.52,-46603.53,-6687.99,12198.69
1764434036.30714,33717.6,21323.745,63480.285,-5901.705,-32967.675,-46602.675,-6680.025,12201.435
1764434036.30714,33709.68,21319.065,63477.36,-5907.014999999999,-32973.66,-46610.505,-6673.545,12199.635
1764434036.30714,33696.72,21309.885,63468.63,-5920.2,-32986.845,-46624.32,-6670.395,12194.28
1764434036.30714,33693.03,21308.175,63467.01,-5924.969999999999,-32991.57,-46629.405,-6666.929999999999,12194.73
1764434036.308148,33699.195,21313.575,63471.33,-5920.605,-32987.565,-46625.49,-6664.995,12199.23
1764434036.308148,33704.235,21314.655,63470.835,-5917.41,-32982.075,-46619.64,-6668.415,12201.48
1764434036.308148,33708.78,21313.62,63467.145,-5917.59,-32981.715,-46617.615,-6678.045,12199.41
1764434036.308148,33717.015,21317.985,63470.7,-5911.11,-32975.82,-46609.425,-6686.145,12199.365
1764434036.308684,33718.545,21321.18,63477.09,-5900.219999999999,-32968.305,-46603.935,-6691.59,12197.34
1764434036.3535936,33716.744999999995,21320.775,63476.91,-5900.31,-32969.34,-46605.78,-6691.634999999999,12195.09
1764434036.3535936,33714.72,21321.27,63477.945,-5901.66,-32970.15,-46606.995,-6683.04,12197.835
1764434036.3535936,33707.7,21317.085,63474.885,-5908.005,-32975.73,-46612.53,-6676.02,12197.115
1764434036.3535936,33693.435,21308.13,63467.37,-5918.804999999999,-32987.34,-46625.625,-6674.4,12190.545
1764434036.3535936,33689.52,21305.385,63464.22,-5923.17,-32992.515,-46631.79,-6672.24,12190.005
1764434036.3535936,33692.04,21305.835,63463.32,-5923.53,-32992.515,-46632.195,-6673.995,12190.635
1764434036.3541076,33699.33,21310.155,63465.57,-5919.255,-32988.465,-46627.065,-6676.514999999999,12193.92
1764434036.3541076,33701.49,21308.4,63462.555,-5919.389999999999,-32986.44,-46622.205,-6684.929999999999,12190.995
1764434036.3541076,33712.38,21315.555,63467.955,-5910.75,-32975.64,-46610.01,-6689.07,12194.01
1764434036.3541076,33712.605,21314.07,63467.46,-5910.12,-32976.765,-46610.955,-6697.44,12190.095
1764434036.3541076,33712.785,21314.88,63469.035,-5908.815,-32976.09,-46609.425,-6694.29,12191.31
1764434036.3541076,33705.585,21311.28,63465.66,-5914.17,-32983.155,-46616.085,-6691.139999999999,12189.33
1764434036.3541076,33704.055,21314.07,63469.935,-5913.36,-32982.255,-46616.4,-6678.945,12193.47
1764434036.3541076,33697.935,21312.405,63469.35,-5916.825,-32985.72,-46623.015,-6670.98,12194.01
1764434036.3541076,33691.905,21307.68,63466.29,-5920.29,-32989.635,-46629.18,-6669.045,12193.155
1764434036.3541076,33691.86,21305.475,63463.365,-5922.63,-32990.85,-46629.27,-6671.115,12192.885
1764434036.3541076,33697.755,21308.22,63465.84,-5920.29,-32987.565,-46624.995,-6675.75,12193.875
1764434036.3541076,33699.24,21305.7,63462.33,-5918.985,-32985.315,-46623.105,-6688.575,12188.565
1764434036.3541076,33707.61,21311.235,63465.93,-5913.54,-32979.51,-46616.22,-6696.675,12188.61
1764434036.3541076,33711.615,21313.08,63466.245,-5912.82,-32976.494999999995,-46610.37,-6699.15,12189.195
1764434036.3541076,33714.81,21316.68,63470.34,-5909.13,-32972.94,-46606.5,-6692.13,12193.83
1764434036.3541076,33707.07,21311.235,63467.46,-5913.495,-32979.6,-46615.095,-6689.205,12190.905
1764434036.3541076,33701.94,21310.335,63469.17,-5913.945,-32982.795,-46618.605,-6678.719999999999,12192.84
1764434036.3541076,33692.355,21305.565,63465.57,-5920.605,-32989.68,-46626.93,-6673.59,12190.455
1764434036.3994958,33692.67,21307.635,63466.695,-5920.605,-32989.725,-46627.47,-6669.27,12193.47
1764434036.3994958,33690.735,21303.54,63461.34,-5926.905,-32995.035,-46630.845,-6674.04,12190.95
1764434036.3994958,33700.86,21310.29,63465.66,-5922.179999999999,-32990.085,-46624.365,-6675.03,12196.665
1764434036.3994958,33706.35,21312.405,63465.48,-5918.715,-32988.195,-46621.62,-6683.4,12196.44
1764434036.3994958,33710.67,21312.09,63464.715,-5916.24,-32981.355,-46615.14,-6693.21,12193.92
1764434036.3994958,33715.17,21316.905,63472.005,-5904.63,-32969.115,-46603.53,-6693.255,12195.135
1764434036.3994958,33713.775,21316.545,63472.68,-5904.764999999999,-32970.06,-46604.61,-6693.255,12194.01
1764434036.3994958,33705.63,21310.56,63466.155,-5914.304999999999,-32981.22,-46614.42,-6691.905,12189.96
1764434036.3994958,33702.975,21312.54,63469.26,-5913.99,-32982.705,-46617.93,-6680.79,12193.335
1764434036.3994958,33694.244999999995,21307.455,63466.155,-5920.155,-32987.025,-46624.365,-6672.915,12192.615
1764434036.3994958,33685.83,21301.065,63460.305,-5926.545,-32993.19,-46631.34,-6672.06,12188.835
1764434036.3994958,33689.655,21302.775,63461.79,-5925.735,-32992.11,-46630.26,-6673.95,12191.175
1764434036.3994958,33700.32,21309.075,63467.01,-5918.94,-32984.865,-46622.25,-6675.12,12196.935
1764434036.3994958,33702.03,21306.96,63462.24,-5920.02,-32985.72,-46621.395,-6687.719999999999,12192.21
1764434036.3994958,33710.4,21311.955,63465.255,-5913.405,-32978.52,-46613.115,-6694.605,12193.155
1764434036.3994958,33717.42,21318.075,63471.195,-5905.349999999999,-32970.06,-46604.79,-6694.38,12195.63
1764434036.3994958,33715.35,21317.085,63471.735,-5905.935,-32970.96,-46606.95,-6693.03,12194.37
1764434036.3994958,33715.125,21318.795,63475.155,-5904.719999999999,-32971.365,-46607.58,-6683.804999999999,12198.69
1764434036.3994958,33709.41,21315.555,63473.31,-5909.175,-32976.675,-46613.745,-6677.145,12198.69
1764434036.3994958,33699.015,21309.885,63468.99,-5917.455,-32985.09,-46622.745,-6671.429999999999,12195.81
1764434036.3994958,33694.92,21308.76,63467.145,-5920.605,-32987.655,-46627.47,-6668.505,12196.08
1764434036.3994958,33697.53,21310.335,63467.775,-5919.84,-32985.765,-46626.39,-6669.855,12197.745
1764434036.44363,33702.03,21311.685,63468.81,-5917.094999999999,-32981.535,-46621.44,-6673.5,12198.78
1764434036.4441426,33703.02,21308.175,63463.32,-5919.929999999999,-32982.165,-46619.055,-6682.5,12194.28
1764434036.4441426,33714.494999999995,21314.88,63467.82,-5912.01,-32973.885,-46609.38,-6687.719999999999,12197.88
1764434036.4441426,33718.59,21318.165,63472.005,-5906.205,-32969.52,-46605.015,-6691.905,12197.475
1764434036.4441426,33716.07,21318.93,63476.145,-5900.94,-32966.369999999995,-46605.42,-6691.23,12195.81
1764434036.4441426,33709.185,21314.25,63471.195,-5908.185,-32974.425,-46613.61,-6689.115,12193.155
1764434036.4441426,33704.82,21313.305,63470.565,-5911.065,-32977.53,-46617.12,-6679.215,12195.63
1764434036.4441426,33695.145,21307.635,63465.93,-5919.795,-32986.035,-46627.065,-6673.5,12193.38
1764434036.4441426,33695.28,21309.48,63467.46,-5920.74,-32986.485,-46627.47,-6666.57,12197.295
1764434036.4441426,33697.755,21310.245,63467.73,-5919.66,-32985.81,-46626.075,-6667.605,12198.285
1764434036.4441426,33701.67,21311.64,63468.315,-5916.69,-32982.48,-46622.295,-6673.59,12197.205
1764434036.4441426,33701.895,21308.715,63464.355,-5918.175,-32983.38,-46621.53,-6686.73,12191.4
1764434036.4441426,33711.119999999995,21313.485,63466.785,-5911.785,-32976.27,-46612.215,-6693.48,12192.48
1764434036.4441426,33718.455,21319.29,63472.23,-5904.719999999999,-32969.07,-46604.43,-6693.03,12196.755
1764434036.4441426,33716.115,21318.66,63472.05,-5905.349999999999,-32970.33,-46605.69,-6690.465,12196.71
1764434036.444678,33707.16,21312.495,63466.785,-5911.83,-32977.305,-46612.845,-6687.945,12191.94
1764434036.444678,33705.09,21314.43,63470.97,-5910.84,-32977.26,-46614.78,-6675.48,12196.8
1764434036.444678,33699.555,21313.035,63472.23,-5913.315,-32981.13,-46620.945,-6666.48,12197.925
1764434036.444678,33695.91,21310.695,63469.71,-5918.175,-32985.54,-46625.805,-6663.42,12197.745
1764434036.444678,33694.47,21307.185,63464.625,-5922.675,-32989.185,-46628.955,-6668.955,12194.55
1764434036.444678,33704.685,21313.395,63469.89,-5916.599999999999,-32981.175,-46619.955,-6669.134999999999,12199.68
1764434036.444678,33711.03,21314.925,63468.585,-5915.655,-32977.89,-46613.97,-6677.325,12199.77
1764434036.444678,33718.635,21318.84,63470.52,-5909.94,-32970.42,-46605.285,-6684.929999999999,12200.625
1764434036.444678,33720.345,21319.965,63473.175,-5905.62,-32968.665,-46603.62,-6689.835,12198.51
1764434036.492936,33716.205,21317.895,63474.03,-5903.415,-32970.06,-46605.915,-6689.295,12196.26
1764434036.492936,33714.855,21319.515,63476.055,-5903.054999999999,-32969.25,-46605.78,-6679.98,12199.41
1764434036.4939375,33709.86,21318.255,63475.875,-5906.88,-32973.975,-46610.865,-6671.655,12200.445
1764434036.4939375,33701.085,21312.72,63471.465,-5915.52,-32983.065,-46621.755,-6665.94,12199.005
1764434036.4939375,33693.48,21306.825,63466.425,-5921.37,-32989.32,-46629.945,-6667.695,12194.01
1764434036.4944513,33693.795,21305.205,63463.455,-5923.889999999999,-32991.165,-46628.955,-6670.125,12193.65
1764434036.4944513,33703.47,21311.28,63467.1,-5918.355,-32986.395,-46622.025,-6671.205,12199.365
1764434036.4944513,33708.42,21312.9,63467.28,-5914.755,-32982.525,-46618.515,-6680.07,12197.295
1764434036.4944513,33710.445,21311.91,63466.02,-5910.165,-32976.09,-46613.205,-6691.275,12192.93
1764434036.4944513,33713.865,21313.035,63466.56,-5907.915,-32971.994999999995,-46608.345,-6694.695,12192.795
1764434036.4944513,33718.14,21318.57,63472.365,-5903.73,-32969.79,-46605.15,-6687.54,12198.465
1764434036.4944513,33708.825,21312.27,63468.63,-5908.094999999999,-32975.73,-46610.91,-6684.344999999999,12194.91
1764434036.4944513,33701.535,21309.975,63467.91,-5912.73,-32981.58,-46616.895,-6676.155,12193.875
1764434036.4944513,33694.515,21307.77,63466.74,-5916.915,-32986.665,-46623.645,-6667.514999999999,12193.965
1764434036.4944513,33690.465,21304.395,63462.87,-5921.73,-32991.345,-46629.18,-6667.92,12191.535
1764434036.4944513,33694.74,21306.645,63463.635,-5920.469999999999,-32988.96,-46627.245,-6672.014999999999,12193.92
1764434036.4944513,33706.485,21315.06,63470.475,-5912.145,-32982.165,-46619.73,-6673.679999999999,12200.175
1764434036.4944513,33708.869999999995,21313.17,63467.91,-5910.525,-32978.07,-46615.14,-6681.825,12197.925
1764434036.4944513,33712.47,21311.955,63465.39,-5910.795,-32976.225,-46610.055,-6691.32,12194.685
1764434036.4944513,33716.655,21313.62,63467.505,-5908.77,-32975.145,-46606.995,-6694.155,12195.18
1764434036.4944513,33716.025,21316.185,63470.205,-5905.889999999999,-32974.83,-46607.49,-6690.195,12196.395
1764434036.4944513,33714.99,21317.175,63473.58,-5903.639999999999,-32975.955,-46609.74,-6681.735,12198.15
1764434036.4944513,33706.935,21312.36,63470.205,-5910.075,-32981.13,-46616.895,-6675.884999999999,12196.035
1764434036.4944513,33701.445,21311.145,63469.395,-5913.45,-32983.47,-46621.305,-6665.804999999999,12198.285
1764434036.5383267,33692.76,21303.945,63463.41,-5920.514999999999,-32990.265,-46629.855,-6667.695,12194.37
1764434036.5383267,33693.119999999995,21302.28,63461.43,-5922.405,-32991.345,-46631.655,-6672.375,12193.29
1764434036.5383267,33701.805,21308.49,63465.795,-5916.014999999999,-32984.46,-46622.79,-6672.465,12196.755
1764434036.5383267,33706.845,21310.335,63465.57,-5914.349999999999,-32981.085,-46617.165,-6680.115,12196.125
1764434036.5383267,33713.955,21312.72,63465.885,-5911.02,-32976.315,-46610.505,-6688.935,12195.99
1764434036.5383267,33718.68,21316.14,63468.9,-5907.105,-32972.715,-46604.52,-6690.735,12196.89
1764434036.5383267,33722.28,21320.82,63474.345,-5902.02,-32967.18,-46599.705,-6684.929999999999,12200.715
1764434036.5383267,33714.945,21315.96,63472.275,-5905.665,-32971.95,-46606.32,-6680.655,12199.095
1764434036.5383267,33704.73,21309.12,63466.56,-5914.349999999999,-32982.57,-46616.94,-6676.425,12195.9
1764434036.5383267,33698.97,21307.41,63464.355,-5920.785,-32987.79,-46624.05,-6669.0,12196.485
1764434036.5383267,33697.53,21309.66,63468.855,-5916.105,-32985.045,-46624.14,-6663.24,12199.32
1764434036.5383267,33694.605,21304.35,63463.77,-5919.615,-32988.825,-46627.605,-6669.54,12195.225
1764434036.5383267,33702.66,21308.625,63466.02,-5916.915,-32984.145,-46622.025,-6673.32,12198.78
1764434036.5383267,33705.945,21308.31,63462.78,-5917.905,-32983.335,-46619.415,-6685.155,12195.765
1764434036.5383267,33714.494999999995,21314.655,63468.18,-5908.005,-32973.255,-46608.795,-6689.88,12198.06
1764434036.5383267,33714.405,21313.485,63467.55,-5906.205,-32973.39,-46609.92,-6697.304999999999,12193.47
1764434036.5383267,33717.24,21317.805,63472.05,-5904.09,-32973.21,-46609.155,-6692.445,12196.98
1764434036.5383267,33709.41,21310.425,63466.965,-5910.48,-32977.89,-46611.72,-6684.615,12196.44
1764434036.5393689,33701.805,21306.285,63463.68,-5916.42,-32984.325,-46619.19,-6679.215,12194.955
1764434036.5393689,33693.57,21303.315,63462.24,-5923.44,-32992.74,-46629.945,-6674.264999999999,12192.885
1764434036.5393689,33687.765,21300.435,63461.34,-5924.655,-32993.91,-46634.13,-6674.04,12189.69
1764434036.5393689,33691.455,21301.245,63459.135,-5923.844999999999,-32993.369999999995,-46633.23,-6675.795,12190.185
1764434036.5393689,33699.735,21306.285,63462.6,-5919.03,-32986.71,-46625.805,-6677.19,12194.19
1764434036.5393689,33700.994999999995,21304.215,63459.315,-5920.695,-32987.07,-46624.32,-6689.07,12190.23
1764434036.5836928,33712.695,21312.18,63465.66,-5910.344999999999,-32976.855,-46612.485,-6693.21,12194.595
1764434036.5836928,33715.575,21313.395,63466.245,-5908.275,-32973.93,-46608.795,-6695.865,12193.875
1764434036.584741,33709.32,21309.435,63462.51,-5913.045,-32979.6,-46612.395,-6696.224999999999,12189.645
1764434036.584741,33704.055,21307.185,63462.51,-5916.06,-32984.055,-46616.535,-6689.565,12189.33
1764434036.584741,33699.33,21306.645,63463.545,-5918.49,-32986.619999999995,-46620.855,-6679.215,12191.895
1764434036.584741,33694.244999999995,21304.485,63463.635,-5920.965,-32988.285,-46624.86,-6667.38,12194.82
1764434036.584741,33690.735,21301.605,63461.97,-5922.54,-32992.155,-46630.755,-6668.46,12193.02
1764434036.584741,33697.755,21307.095,63465.975,-5917.905,-32986.755,-46625.58,-6668.145,12196.845
1764434036.584741,33701.04,21306.78,63463.545,-5918.67,-32985.0,-46621.215,-6674.58,12197.43
1764434036.584741,33701.49,21302.73,63456.12,-5923.304999999999,-32988.6,-46622.34,-6688.304999999999,12190.95
1764434036.584741,33713.369999999995,21310.92,63462.51,-5913.99,-32980.905,-46614.285,-6694.38,12194.28
1764434036.584741,33716.97,21315.51,63469.44,-5904.45,-32973.03,-46606.32,-6694.605,12195.72
1764434036.584741,33715.619999999995,21315.645,63471.555,-5903.91,-32972.085,-46605.465,-6689.655,12196.35
1764434036.584741,33711.885,21314.07,63470.88,-5907.69,-32976.135,-46609.65,-6683.49,12197.295
1764434036.584741,33704.325,21309.885,63467.955,-5913.495,-32982.255,-46617.66,-6677.505,12196.125
1764434036.584741,33691.005,21300.3,63460.44,-5923.665,-32992.83,-46629.315,-6675.12,12190.23
1764434036.584741,33687.585,21297.51,63459.045,-5926.23,-32995.08,-46632.465,-6671.79,12189.645
1764434036.584741,33694.92,21303.63,63462.645,-5922.585,-32990.58,-46627.38,-6670.215,12194.955
1764434036.584741,33698.43,21304.35,63461.34,-5922.09,-32989.095,-46624.23,-6676.695,12193.83
1764434036.584741,33700.32,21301.92,63458.1,-5922.0,-32989.815,-46623.915,-6690.42,12188.295
1764434036.584741,33712.29,21310.02,63464.67,-5911.83,-32978.655,-46612.71,-6694.605,12192.66
1764434036.5857468,33714.045,21309.795,63464.265,-5911.11,-32977.575,-46610.775,-6699.014999999999,12191.805
1764434036.6294074,33714.855,21312.63,63467.64,-5908.545,-32975.955,-46608.975,-6692.715,12194.64
1764434036.6294074,33705.72,21306.915,63463.5,-5915.025,-32982.705,-46617.3,-6690.014999999999,12189.195
1764434036.6294074,33699.105,21303.135,63461.97,-5919.66,-32988.42,-46624.68,-6682.77,12188.97
1764434036.6299171,33688.395,21295.8,63455.535,-5928.48,-32997.375,-46633.905,-6677.82,12186.045
1764434036.6299171,33688.485,21297.555,63457.02,-5928.255,-32997.015,-46634.715,-6673.139999999999,12188.97
1764434036.6299171,33689.07,21297.33,63455.625,-5929.83,-32997.869999999995,-46634.85,-6678.045,12187.8
1764434036.6299171,33698.61,21303.36,63459.54,-5924.655,-32990.445,-46625.985,-6679.125,12192.57
1764434036.6299171,33704.145,21304.53,63459.09,-5923.215,-32988.105,-46621.44,-6688.17,12190.995
1764434036.6299171,33710.94,21307.455,63460.755,-5918.264999999999,-32984.505,-46616.4,-6697.08,12190.32
1764434036.6319551,33709.905,21305.61,63460.26,-5915.34,-32982.615,-46616.985,-6703.38,12187.08
1764434036.6319551,33710.04,21307.095,63463.095,-5911.74,-32979.869999999995,-46615.77,-6698.835,12188.79
1764434036.6319551,33705.99,21307.32,63464.265,-5915.07,-32981.94,-46616.04,-6691.05,12190.185
1764434036.6319551,33698.07,21304.62,63464.04,-5918.58,-32985.0,-46619.595,-6681.915,12189.06
1764434036.6319551,33687.585,21296.07,63457.74,-5928.615,-32998.68,-46633.68,-6680.07,12184.875
1764434036.6319551,33685.47,21293.64,63455.535,-5929.514999999999,-32998.905,-46636.065,-6676.155,12185.505
1764434036.632961,33686.369999999995,21293.145,63452.97,-5931.405,-33000.39,-46637.865,-6682.59,12182.895
1764434036.632961,33693.57,21297.465,63456.345,-5925.78,-32994.135,-46630.755,-6686.235,12186.495
1764434036.632961,33695.685,21295.71,63453.87,-5925.24,-32992.515,-46628.865,-6698.07,12182.265
1764434036.632961,33702.435,21298.095,63455.31,-5921.505,-32986.98,-46621.665,-6705.045,12182.04
1764434036.632961,33705.855,21300.57,63456.39,-5917.815,-32984.055,-46617.93,-6706.215,12183.345
1764434036.6339548,33707.744999999995,21304.71,63460.665,-5916.599999999999,-32983.515,-46615.995,-6700.23,12186.72
1764434036.6344686,33700.68,21301.11,63460.755,-5918.49,-32985.9,-46620.405,-6695.415,12184.605
1764434036.6344686,33697.26,21301.425,63461.385,-5920.469999999999,-32989.095,-46625.895,-6685.695,12187.125
1764434036.6344686,33687.675,21295.26,63456.345,-5928.389999999999,-32998.545,-46636.065,-6680.565,12184.245
1764434036.6790185,33684.93,21292.56,63453.375,-5932.935,-33002.46,-46639.665,-6678.27,12183.885
1764434036.6790185,33689.07,21294.135,63453.33,-5933.115,-33001.515,-46638.18,-6680.565,12185.64
1764434036.6790185,33699.24,21301.29,63458.865,-5925.96,-32994.18,-46629.72,-6681.15,12190.77
1764434036.6790185,33702.93,21302.37,63458.415,-5921.639999999999,-32991.165,-46624.68,-6690.465,12188.88
1764434036.6790185,33710.76,21307.05,63462.42,-5914.349999999999,-32983.155,-46616.49,-6698.205,12189.465
1764434036.68005,33715.305,21310.155,63466.605,-5908.05,-32975.28,-46609.92,-6701.49,12189.195
1764434036.68005,33710.085,21306.87,63464.58,-5911.11,-32979.285,-46613.835,-6702.165,12184.74
1764434036.68005,33703.29,21303.495,63462.33,-5915.565,-32985.045,-46619.73,-6695.955,12184.155
1764434036.68005,33699.869999999995,21303.405,63463.59,-5917.455,-32988.195,-46624.725,-6683.445,12188.52
1764434036.68005,33688.17,21294.855,63455.535,-5927.715,-32998.32,-46634.67,-6676.74,12184.92
1764434036.6810594,33687.135,21294.855,63454.905,-5929.155,-32999.175,-46636.56,-6674.895,12185.28
1764434036.6810594,33688.619999999995,21295.305,63455.13,-5928.075,-32998.14,-46635.57,-6679.304999999999,12184.38
1764434036.6810594,33691.95,21295.665,63454.365,-5927.535,-32996.79,-46632.51,-6686.955,12183.75
1764434036.6810594,33697.665,21297.735,63454.41,-5924.565,-32993.369999999995,-46627.065,-6695.82,12182.76
1764434036.6810594,33705.675,21302.505,63457.74,-5917.455,-32986.035,-46618.02,-6702.075,12184.425
1764434036.682058,33706.17,21302.685,63457.605,-5916.78,-32985.585,-46615.68,-6704.73,12183.435
1764434036.682058,33697.98,21296.295,63452.52,-5922.54,-32992.155,-46621.755,-6705.045,12178.845
1764434036.682058,33694.244999999995,21294.135,63451.26,-5925.915,-32997.555,-46627.65,-6700.455,12177.945
1764434036.682058,33689.25,21292.47,63451.665,-5929.38,-33001.695,-46634.355,-6694.695,12178.485
1764434036.682058,33681.645,21288.555,63450.18,-5932.665,-33004.215,-46641.105,-6688.665,12177.495
1764434036.682058,33678.27,21286.53,63448.515,-5934.195,-33005.744999999995,-46643.49,-6685.695,12177.81
1764434036.682058,33681.645,21288.87,63449.19,-5934.014999999999,-33004.755,-46640.61,-6686.955,12180.285
1764434036.7282414,33688.53,21292.56,63450.135,-5931.36,-33001.065,-46635.12,-6690.87,12182.355
1764434036.7282414,33689.205,21289.995,63446.535,-5931.135,-33000.84,-46633.95,-6704.145,12175.605
1764434036.7282414,33696.36,21293.325,63449.19,-5924.52,-32993.73,-46625.265,-6710.49,12175.29
1764434036.7282414,33699.555,21295.53,63451.215,-5921.55,-32989.77,-46622.07,-6711.48,12176.865
1764434036.7282414,33699.51,21297.915,63455.13,-5919.389999999999,-32987.79,-46620.27,-6705.855,12179.34
1764434036.7282414,33693.165,21294.495,63453.51,-5923.215,-32992.875,-46626.48,-6701.49,12177.045
1764434036.7282414,33690.465,21295.035,63454.86,-5924.79,-32995.26,-46630.53,-6691.23,12180.105
1764434036.7282414,33679.935,21288.195,63448.65,-5934.915,-33004.98,-46641.33,-6687.945,12176.325
1764434036.7282414,33675.795,21284.37,63445.185,-5939.28,-33009.345,-46646.37,-6687.495,12174.795
1764434036.7282414,33678.72,21284.325,63443.61,-5939.145,-33008.31,-46644.84,-6690.465,12175.965
1764434036.7282414,33686.235,21288.6,63445.86,-5933.88,-33002.28,-46637.955,-6693.705,12179.115
1764434036.7282414,33688.17,21286.485,63441.81,-5934.96,-33002.1,-46635.525,-6704.325,12175.56
1764434036.7282414,33697.485,21292.155,63445.905,-5927.58,-32994.18,-46626.075,-6710.04,12176.91
1764434036.7282414,33706.395,21301.695,63455.4,-5920.469999999999,-32986.395,-46617.795,-6706.71,12182.58
1764434036.7282414,33704.775,21302.28,63457.65,-5919.974999999999,-32986.665,-46618.425,-6702.255,12182.445
1764434036.7282414,33695.955,21296.34,63452.43,-5926.094999999999,-32995.08,-46627.695,-6700.094999999999,12179.88
1764434036.7282414,33685.065,21289.32,63449.325,-5929.92,-33000.165,-46635.21,-6694.469999999999,12176.325
1764434036.7282414,33680.88,21289.32,63450.495,-5933.79,-33004.665,-46640.205,-6684.705,12178.98
1764434036.7282414,33675.39,21285.675,63448.605,-5936.13,-33008.67,-46646.415,-6685.29,12175.92
1764434036.7282414,33681.24,21288.78,63450.135,-5933.429999999999,-33005.565,-46642.68,-6687.27,12178.575
1764434036.7292416,33689.025,21291.795,63451.125,-5931.09,-33000.795,-46637.955,-6693.12,12180.24
1764434036.7292416,33690.825,21289.455,63446.67,-5932.17,-33000.525,-46636.38,-6705.405,12175.605
1764434036.7292416,33699.555,21294.585,63450.315,-5924.52,-32991.39,-46624.77,-6709.32,12176.955
1764434036.7292416,33699.555,21293.73,63450.765,-5922.45,-32989.365,-46622.295,-6711.57,12174.705
1764434036.7292416,33697.665,21293.415,63451.485,-5922.45,-32990.445,-46622.43,-6707.745,12175.695
1764434036.7292416,33693.615,21293.055,63452.61,-5924.295,-32993.505,-46627.02,-6701.264999999999,12177.81
1764434036.7736628,33688.89,21291.345,63453.33,-5927.804999999999,-32997.915,-46634.4,-6693.84,12179.07
1764434036.7736628,33683.31,21289.185,63451.17,-5933.295,-33004.125,-46641.375,-6685.605,12180.15
1764434036.7736628,33679.44,21286.305,63448.56,-5936.94,-33007.23,-46642.32,-6682.679999999999,12179.61
1764434036.7747087,33683.22,21288.285,63449.775,-5934.42,-33002.955,-46638.585,-6685.83,12179.745
1764434036.7747087,33690.195,21291.84,63452.295,-5930.28,-32997.42,-46632.645,-6689.88,12181.995
1764434036.7747087,33691.545,21289.41,63448.245,-5930.73,-32997.24,-46631.52,-6703.155,12176.91
1764434036.7757096,33699.015,21292.83,63449.91,-5926.094999999999,-32990.985,-46623.645,-6710.49,12177.36
1764434036.7757096,33704.955,21298.455,63454.41,-5920.605,-32986.17,-46618.245,-6707.565,12181.77
1764434036.7757096,33701.805,21298.275,63455.94,-5919.48,-32986.17,-46618.515,-6701.715,12181.77
1764434036.7757096,33698.43,21298.23,63459.045,-5918.04,-32986.53,-46621.35,-6695.865,12181.95
1764434036.7757096,33691.725,21294.81,63457.56,-5923.844999999999,-32993.82,-46628.145,-6686.054999999999,12181.95
1764434036.7757096,33684.345,21289.455,63452.97,-5931.719999999999,-33001.965,-46637.055,-6681.014999999999,12181.005
1764434036.7757096,33681.195,21287.07,63450.045,-5936.219999999999,-33004.8,-46642.14,-6682.23,12180.42
1764434036.7757096,33679.935,21285.72,63446.355,-5938.335,-33005.25,-46643.13,-6689.25,12176.82
1764434036.7757096,33688.845,21291.93,63452.115,-5930.19,-32997.285,-46635.165,-6690.69,12181.41
1764434036.7757096,33694.425,21292.335,63451.485,-5926.59,-32991.84,-46627.695,-6698.969999999999,12180.735
1764434036.7757096,33700.095,21294.36,63451.845,-5923.17,-32988.24,-46621.98,-6707.925,12179.7
1764434036.7757096,33698.43,21291.165,63448.695,-5924.655,-32990.49,-46624.05,-6713.955,12175.605
1764434036.7757096,33698.79,21293.46,63453.645,-5922.27,-32988.015,-46622.52,-6707.52,12177.675
1764434036.7757096,33690.69,21289.95,63451.125,-5927.58,-32994.855,-46630.71,-6704.054999999999,12174.57
1764434036.7757096,33685.02,21287.88,63450.63,-5930.82,-32999.31,-46636.11,-6694.605,12176.055
1764434036.7757096,33681.015,21286.53,63452.16,-5932.395,-33000.39,-46639.08,-6684.03,12179.025
1764434036.819593,33674.535,21281.04,63446.625,-5939.505,-33007.275,-46645.83,-6686.37,12175.155
1764434036.819593,33676.695,21281.67,63444.42,-5940.719999999999,-33007.905,-46645.065,-6691.094999999999,12174.705
1764434036.819593,33685.515,21287.295,63448.11,-5935.094999999999,-33000.84,-46636.83,-6694.56,12177.855
1764434036.819593,33689.835,21286.755,63446.715,-5933.385,-32998.68,-46633.995,-6705.945,12174.345
1764434036.819593,33695.415,21288.96,63447.885,-5927.715,-32993.19,-46628.145,-6713.145,12174.075
1764434036.819593,33696.675,21289.095,63447.12,-5926.77,-32992.515,-46626.48,-6715.44,12174.48
1764434036.819593,33694.29,21289.05,63448.38,-5926.679999999999,-32993.82,-46628.595,-6710.895,12174.345
1764434036.819593,33691.68,21289.725,63451.53,-5924.79,-32993.055,-46628.64,-6701.804999999999,12175.425
1764434036.819593,33682.41,21284.01,63447.705,-5932.349999999999,-33001.155,-46638.495,-6697.08,12173.175
1764434036.819593,33674.31,21278.205,63442.71,-5940.135,-33008.76,-46646.415,-6691.185,12172.32
1764434036.819593,33672.51,21277.485,63441.54,-5945.04,-33012.63,-46651.14,-6690.69,12172.23
1764434036.819593,33677.91,21283.605,63446.355,-5938.02,-33004.08,-46643.715,-6689.835,12175.785
1764434036.819593,33687.135,21288.465,63447.435,-5934.87,-32999.4,-46638.09,-6695.054999999999,12178.17
1764434036.819593,33689.34,21286.935,63445.05,-5936.13,-33001.515,-46636.695,-6706.62,12174.615
1764434036.819593,33695.82,21291.255,63451.08,-5923.8,-32990.13,-46625.49,-6710.31,12176.415
1764434036.819593,33696.135,21291.345,63451.485,-5921.505,-32988.15,-46624.23,-6713.415,12174.39
1764434036.819593,33694.83,21291.795,63451.71,-5922.99,-32990.31,-46625.49,-6711.075,12174.705
1764434036.819593,33690.645,21290.31,63451.035,-5926.23,-32994.045,-46628.73,-6703.245,12175.47
1764434036.819593,33682.545,21285.225,63447.705,-5933.34,-33002.369999999995,-46637.64,-6696.945,12173.31
1764434036.819593,33676.92,21283.335,63446.535,-5936.264999999999,-33005.52,-46643.49,-6687.855,12174.705
1764434036.819593,33672.285,21279.285,63442.845,-5938.514999999999,-33007.14,-46646.325,-6687.675,12172.815
1764434036.819593,33672.015,21277.26,63440.325,-5940.45,-33010.02,-46648.665,-6697.98,12168.63
1764434036.819593,33684.165,21284.28,63444.735,-5936.355,-33004.35,-46640.43,-6698.745,12175.515
1764434036.819593,33689.385,21285.54,63444.42,-5933.07,-32999.445,-46634.22,-6706.259999999999,12175.065
1764434036.8643746,33693.66,21286.575,63445.095,-5929.695,-32997.915,-46631.655,-6717.33,12172.05
1764434036.8654182,33697.395,21289.68,63449.775,-5923.44,-32992.244999999995,-46626.615,-6717.554999999999,12173.265
1764434036.8654182,33699.105,21292.38,63454.41,-5919.84,-32989.095,-46623.555,-6710.085,12177.18
1764434036.8654182,33691.635,21289.095,63452.61,-5924.34,-32993.91,-46629.045,-6705.405,12175.65
1764434036.8654182,33686.595,21288.375,63453.015,-5926.905,-32995.755,-46632.915,-6692.804999999999,12178.485
1764434036.8654182,33678.9,21283.875,63449.775,-5933.745,-33003.045,-46641.78,-6685.469999999999,12177.72
1764434036.8654182,33675.21,21280.41,63445.68,-5939.594999999999,-33008.535,-46646.01,-6686.054999999999,12174.885
1764434036.8654182,33682.815,21285.72,63449.955,-5934.645,-33003.0,-46640.655,-6688.8,12178.17
1764434036.8654182,33689.25,21288.06,63450.945,-5930.865,-32998.32,-46634.04,-6694.02,12181.095
1764434036.8654182,33693.795,21288.285,63449.145,-5928.84,-32995.665,-46630.035,-6704.325,12178.71
1764434036.8654182,33697.485,21288.645,63448.335,-5926.77,-32992.38,-46626.255,-6714.495,12174.885
1764434036.8654182,33702.03,21293.055,63452.565,-5921.415,-32987.52,-46621.26,-6713.415,12177.135
1764434036.8654182,33696.945,21289.68,63450.81,-5924.88,-32991.255,-46626.165,-6712.02,12174.795
1764434036.8654182,33690.869999999995,21287.07,63449.46,-5928.48,-32996.205,-46631.565,-6706.8,12173.895
1764434036.8654182,33684.03,21283.875,63448.515,-5932.304999999999,-33000.84,-46636.695,-6697.935,12174.21
1764434036.8664374,33676.83,21278.745,63445.185,-5938.514999999999,-33006.33,-46642.455,-6691.094999999999,12173.805
1764434036.8664374,33678.18,21280.005,63446.67,-5937.66,-33005.79,-46643.22,-6687.495,12176.595
1764434036.8664374,33677.685,21278.205,63443.745,-5938.605,-33006.869999999995,-46644.93,-6693.435,12173.76
1764434036.8664374,33685.92,21283.515,63447.03,-5933.25,-33000.03,-46636.29,-6694.695,12177.63
1764434036.8674145,33692.94,21285.945,63445.365,-5932.44,-32997.645,-46630.575,-6704.82,12177.63
1764434036.8674145,33700.635,21289.41,63447.03,-5927.67,-32993.235,-46624.14,-6712.02,12177.945
1764434036.8674145,33702.345,21292.29,63451.395,-5923.53,-32989.86,-46622.565,-6714.99,12176.73
1764434036.9127634,33695.01,21288.51,63451.035,-5924.34,-32991.48,-46626.705,-6714.405,12173.22
1764434036.9127634,33690.33,21286.395,63449.55,-5926.139999999999,-32992.65,-46626.975,-6704.235,12174.66
1764434036.9127634,33684.84,21283.155,63445.545,-5932.755,-32999.94,-46634.49,-6697.035,12175.11
1764434036.9127634,33677.46,21280.275,63444.96,-5938.514999999999,-33008.175,-46644.03,-6691.95,12174.795
1764434036.9127634,33673.275,21279.735,63446.04,-5938.155,-33007.77,-46644.705,-6689.7,12173.895
1764434036.9127634,33673.77,21277.035,63442.26,-5941.26,-33008.67,-46644.885,-6694.74,12172.095
1764434036.9137616,33683.895,21283.92,63446.49,-5934.554999999999,-33000.57,-46636.245,-6695.73,12176.955
1764434036.9137616,33688.485,21283.875,63444.96,-5932.575,-32997.869999999995,-46632.915,-6707.205,12173.355
1764434036.9137616,33694.605,21286.62,63445.95,-5928.48,-32993.73,-46627.65,-6715.71,12173.31
1764434036.9137616,33696.0,21287.52,63447.66,-5925.69,-32991.615,-46624.5,-6715.935,12173.49
1764434036.9137616,33696.9,21290.805,63451.62,-5922.764999999999,-32989.005,-46622.025,-6707.79,12177.135
1764434036.9137616,33690.69,21287.385,63449.685,-5927.13,-32994.63,-46628.28,-6701.804999999999,12176.505
1764434036.9137616,33678.63,21277.71,63441.945,-5937.885,-33005.655,-46640.88,-6700.545,12171.015
1764434036.9137616,33670.98,21271.905,63436.275,-5947.695,-33014.79,-46651.815,-6699.465,12167.28
1764434036.9137616,33669.135,21272.175,63435.645,-5950.26,-33016.77,-46653.39,-6698.07,12167.91
1764434036.9137616,33676.695,21278.475,63440.055,-5944.005,-33010.11,-46647.27,-6697.8,12172.68
1764434036.9137616,33682.455,21280.725,63442.665,-5937.165,-33002.46,-46639.89,-6702.389999999999,12173.985
1764434036.9137616,33685.56,21280.815,63440.82,-5934.465,-32997.915,-46633.995,-6712.11,12171.195
1764434036.9137616,33688.395,21281.535,63440.325,-5932.844999999999,-32997.78,-46631.835,-6722.639999999999,12168.135
1764434036.9137616,33690.78,21283.335,63441.495,-5931.135,-32996.34,-46629.63,-6723.27,12168.72
1764434036.9137616,33688.619999999995,21282.84,63443.025,-5930.91,-32997.195,-46630.89,-6718.32,12169.215
1764434036.9142754,33685.02,21283.695,63445.455,-5929.469999999999,-32997.555,-46632.555,-6710.13,12170.7
1764434036.9142754,33675.21,21277.44,63440.64,-5938.155,-33006.555,-46642.545,-6704.37,12167.91
1764434036.9142754,33672.24,21276.855,63441.63,-5941.08,-33010.11,-46646.73,-6694.965,12170.97
1764434036.959031,33671.16,21275.595,63440.055,-5944.32,-33012.315,-46649.655,-6694.469999999999,12170.61
1764434036.959031,33673.545,21275.955,63439.38,-5942.88,-33010.38,-46647.36,-6698.745,12170.115
1764434036.959031,33681.33,21280.5,63442.305,-5936.804999999999,-33004.44,-46640.655,-6703.514999999999,12172.95
1764434036.959031,33686.01,21281.13,63440.37,-5935.815,-33004.17,-46639.935,-6715.844999999999,12170.61
1764434036.959031,33693.84,21286.17,63444.915,-5926.905,-32994.494999999995,-46628.415,-6716.474999999999,12174.03
1764434036.959031,33694.515,21285.72,63445.41,-5926.995,-32993.64,-46624.995,-6716.16,12173.85
1764434036.959031,33690.869999999995,21285.09,63446.265,-5928.66,-32996.34,-46628.64,-6713.639999999999,12173.67
1764434036.959031,33687.045,21285.72,63450.045,-5928.705,-32997.285,-46631.385,-6707.474999999999,12174.165
1764434036.959031,33680.07,21281.265,63445.815,-5935.455,-33003.72,-46639.17,-6700.185,12173.22
1764434036.959031,33667.47,21271.41,63435.015,-5947.74,-33013.395,-46650.915,-6697.08,12168.09
1764434036.959031,33670.485,21274.11,63438.66,-5945.04,-33013.125,-46651.32,-6692.535,12172.32
1764434036.959031,33676.02,21277.485,63442.8,-5940.179999999999,-33008.04,-46645.74,-6695.19,12174.84
1764434036.959031,33682.635,21280.545,63444.42,-5936.849999999999,-33003.945,-46640.295,-6699.465,12176.505
1764434036.959031,33687.63,21280.77,63441.675,-5935.635,-33001.515,-46636.74,-6709.95,12174.615
1764434036.959031,33690.96,21280.185,63437.76,-5936.985,-33001.155,-46634.265,-6720.66,12171.51
1764434036.959031,33692.985,21284.19,63443.16,-5933.025,-32998.365,-46630.89,-6720.84,12172.185
1764434036.959031,33692.985,21289.635,63452.88,-5923.26,-32990.265,-46625.895,-6711.3,12175.695
1764434036.959031,33686.055,21284.595,63448.83,-5929.56,-32997.735,-46632.015,-6706.935,12174.03
1764434036.959031,33680.43,21281.985,63446.895,-5933.745,-33002.595,-46637.955,-6696.315,12175.38
1764434036.959031,33678.585,21282.795,63448.605,-5934.33,-33004.44,-46640.745,-6687.27,12179.7
1764434036.959031,33677.19,21281.4,63447.075,-5938.11,-33007.14,-46644.255,-6686.955,12179.52
1764434036.959031,33680.16,21282.12,63446.715,-5937.12,-33004.17,-46642.23,-6691.77,12178.935
1764434037.0040772,33686.865,21285.54,63448.92,-5932.98,-32999.355,-46637.415,-6698.745,12180.33
1764434037.0040772,33690.465,21284.82,63445.905,-5932.665,-32998.23,-46633.77,-6708.24,12176.73
1764434037.0040772,33697.98,21289.635,63449.55,-5924.969999999999,-32989.68,-46622.115,-6709.455,12179.97
1764434037.0040772,33699.015,21290.67,63450.405,-5924.205,-32989.05,-46620.99,-6711.3,12179.835
1764434037.0040772,33696.18,21290.805,63451.17,-5925.554999999999,-32992.11,-46623.555,-6708.465,12178.125
1764434037.0040772,33686.865,21285.45,63447.615,-5931.63,-33000.3,-46632.375,-6706.215,12174.165
1764434037.0040772,33677.64,21280.095,63446.355,-5934.554999999999,-33004.755,-46639.44,-6699.105,12172.905
1764434037.0040772,33670.26,21275.37,63442.305,-5941.17,-33009.57,-46645.335,-6692.264999999999,12172.365
1764434037.0040772,33669.54,21275.055,63440.235,-5945.625,-33014.07,-46648.89,-6693.66,12172.14
1764434037.0040772,33674.58,21277.17,63441.495,-5942.745,-33011.775,-46645.74,-6696.945,12173.49
1764434037.0040772,33687.36,21285.36,63448.38,-5932.44,-33000.57,-46633.725,-6696.945,12179.79
1764434037.0040772,33693.615,21288.195,63449.775,-5928.389999999999,-32997.015,-46629.585,-6709.275,12177.81
1764434037.0040772,33698.07,21289.005,63449.73,-5926.005,-32993.595,-46625.58,-6716.429999999999,12177.81
1764434037.0040772,33698.835,21290.445,63451.755,-5923.44,-32990.355,-46622.52,-6715.844999999999,12177.675
1764434037.0040772,33694.56,21288.195,63451.35,-5925.15,-32991.57,-46624.365,-6711.795,12176.145
1764434037.0040772,33686.46,21283.245,63446.985,-5932.17,-32999.31,-46632.42,-6708.465,12173.175
1764434037.0040772,33678.72,21279.375,63444.285,-5938.2,-33005.295,-46639.755,-6701.13,12172.545
1764434037.0040772,33672.51,21276.36,63443.835,-5941.26,-33010.425,-46646.235,-6695.505,12172.455
1764434037.005116,33672.51,21275.595,63442.71,-5944.094999999999,-33013.08,-46648.395,-6694.56,12173.265
1764434037.005116,33673.635,21275.1,63441.765,-5941.98,-33008.895,-46643.715,-6698.07,12172.32
1764434037.005116,33684.255,21282.21,63446.535,-5934.375,-33001.965,-46636.02,-6702.165,12177.36
1764434037.005116,33689.565,21283.605,63445.68,-5932.215,-32999.76,-46631.97,-6712.965,12175.02
1764434037.048307,33695.325,21286.35,63446.805,-5927.219999999999,-32994.18,-46625.625,-6719.13,12174.435
1764434037.048307,33696.765,21287.385,63448.065,-5925.78,-32994.0,-46625.355,-6719.67,12173.85
1764434037.048307,33690.555,21283.245,63445.635,-5929.56,-32998.815,-46629.945,-6717.42,12171.42
1764434037.048307,33686.685,21282.57,63446.67,-5930.594999999999,-33000.615,-46631.43,-6707.655,12174.165
1764434037.0488217,33678.72,21278.205,63443.295,-5937.21,-33007.32,-46639.71,-6700.59,12172.905
1764434037.0488217,33667.785,21270.87,63436.77,-5947.29,-33017.04,-46650.375,-6698.565,12168.855
1764434037.0488217,33666.119999999995,21269.07,63434.385,-5949.719999999999,-33019.244999999995,-46653.12,-6698.565,12168.09
1764434037.0488217,33671.655,21271.86,63435.33,-5946.57,-33014.97,-46649.16,-6701.264999999999,12169.98
1764434037.0488217,33685.38,21283.56,63445.635,-5934.915,-33002.955,-46636.38,-6701.715,12177.27
1764434037.0488217,33690.105,21285.585,63447.705,-5928.48,-32995.755,-46629.0,-6709.59,12175.92
1764434037.0488217,33696.81,21287.835,63448.245,-5926.05,-32993.505,-46624.995,-6715.98,12177.135
1764434037.0488217,33696.585,21287.025,63448.11,-5924.52,-32993.369999999995,-46624.005,-6717.24,12176.595
1764434037.0488217,33689.52,21281.85,63443.61,-5929.965,-32998.68,-46629.63,-6717.735,12172.095
1764434037.0488217,33684.66,21281.58,63444.735,-5935.005,-33004.98,-46636.92,-6712.875,12171.42
1764434037.0488217,33677.01,21279.915,63446.985,-5935.185,-33006.375,-46640.7,-6703.02,12170.655
1764434037.0488217,33671.205,21277.08,63445.05,-5938.29,-33009.075,-46644.93,-6694.74,12171.555
1764434037.0488217,33664.68,21271.095,63438.165,-5945.715,-33014.61,-46650.195,-6697.889999999999,12167.955
1764434037.0488217,33667.965,21271.68,63437.04,-5945.94,-33013.395,-46646.505,-6701.264999999999,12168.45
1764434037.0488217,33682.005,21282.12,63444.96,-5937.03,-33004.44,-46636.605,-6702.389999999999,12176.505
1764434037.0488217,33688.485,21284.37,63444.78,-5934.69,-33002.145,-46633.77,-6713.415,12174.93
1764434037.0488217,33692.625,21285.18,63444.87,-5930.82,-32998.545,-46629.135,-6721.74,12173.13
1764434037.0488217,33696.675,21289.77,63450.495,-5924.07,-32991.345,-46622.115,-6717.509999999999,12177.675
1764434037.0488217,33693.119999999995,21289.095,63451.305,-5923.349999999999,-32990.805,-46622.565,-6712.065,12178.395
1764434037.0488217,33684.119999999995,21284.055,63447.165,-5930.145,-32999.625,-46631.07,-6709.005,12174.345
1764434037.0488217,33676.065,21279.105,63443.61,-5937.12,-33007.68,-46639.53,-6703.065,12172.95
1764434037.0488217,33671.79,21276.585,63442.935,-5940.764999999999,-33010.065,-46645.29,-6698.655,12172.59
1764434037.0976243,33673.185,21278.25,63443.385,-5939.82,-33006.465,-46644.795,-6695.19,12174.93
1764434037.0976243,33676.11,21278.475,63441.63,-5940.315,-33006.869999999995,-46642.14,-6696.585,12175.695
1764434037.0976243,33682.23,21281.22,63442.665,-5938.425,-33005.565,-46637.955,-6702.84,12176.73
1764434037.0976243,33684.57,21279.285,63440.055,-5937.84,-33003.405,-46634.715,-6715.53,12172.32
1764434037.0976243,33694.515,21286.8,63447.165,-5927.58,-32993.505,-46625.22,-6719.13,12175.92
1764434037.0976243,33697.575,21289.635,63451.26,-5921.82,-32988.015,-46620.315,-6717.599999999999,12177.27
1764434037.0976243,33694.47,21289.41,63452.88,-5922.54,-32990.535,-46622.115,-6711.974999999999,12177.45
1764434037.0976243,33687.36,21284.73,63449.28,-5928.48,-32996.88,-46629.45,-6706.53,12176.73
1764434037.0976243,33679.89,21280.05,63446.355,-5934.285,-33002.46,-46635.435,-6697.17,12176.46
1764434037.0976243,33672.6,21276.405,63443.97,-5939.73,-33008.445,-46642.59,-6691.5,12175.83
1764434037.0976243,33671.205,21276.18,63443.925,-5940.315,-33009.119999999995,-46644.075,-6690.735,12176.01
1764434037.0976243,33676.11,21278.79,63444.69,-5937.885,-33005.115,-46640.16,-6694.425,12176.55
1764434037.0976243,33682.994999999995,21281.58,63445.86,-5934.78,-33001.335,-46635.84,-6702.795,12176.64
1764434037.0976243,33688.755,21283.56,63444.33,-5934.014999999999,-32999.58,-46632.33,-6715.62,12174.345
1764434037.0976243,33692.85,21284.28,63445.59,-5928.615,-32993.19,-46624.545,-6719.49,12174.795
1764434037.0976243,33692.085,21283.56,63445.41,-5927.67,-32994.0,-46625.58,-6721.2,12172.455
1764434037.0976243,33688.26,21281.535,63444.51,-5930.37,-32997.24,-46628.64,-6715.98,12172.095
1764434037.0976243,33682.95,21278.88,63442.98,-5934.42,-33001.785,-46633.5,-6709.815,12171.87
1764434037.0976243,33676.065,21275.82,63441.81,-5939.19,-33007.32,-46640.52,-6701.085,12172.455
1764434037.098632,33670.755,21274.875,63441.405,-5942.655,-33011.01,-46645.65,-6694.155,12173.76
1764434037.098632,33667.29,21271.995,63437.805,-5946.48,-33014.61,-46650.42,-6697.44,12170.475
1764434037.098632,33674.31,21277.395,63442.71,-5939.19,-33008.445,-46643.58,-6698.474999999999,12174.435
1764434037.1439834,33678.585,21278.295,63442.395,-5937.615,-33005.52,-46638.765,-6705.54,12174.615
1764434037.1450222,33681.06,21276.135,63438.345,-5937.795,-33003.765,-46635.525,-6718.32,12169.98
1764434037.1450222,33689.385,21280.77,63440.91,-5931.135,-32996.744999999995,-46627.65,-6722.415,12172.185
1764434037.1450222,33694.335,21284.01,63443.97,-5928.165,-32995.17,-46625.625,-6720.21,12175.155
1764434037.1450222,33687.36,21279.87,63440.595,-5936.58,-33004.035,-46633.68,-6720.344999999999,12171.33
1764434037.1460297,33680.79,21279.51,63445.59,-5932.53,-33001.92,-46634.76,-6712.245,12171.555
1764434037.1460297,33676.785,21278.79,63445.14,-5936.219999999999,-33007.185,-46640.295,-6701.58,12175.425
1764434037.1460297,33666.48,21271.77,63438.885,-5943.87,-33014.43,-46649.25,-6698.429999999999,12171.555
1764434037.1460297,33665.535,21271.995,63439.515,-5944.05,-33014.025,-46649.16,-6697.665,12171.105
1764434037.1460297,33670.485,21274.47,63440.19,-5942.969999999999,-33010.83,-46644.525,-6700.32,12173.355
1764434037.1460297,33680.7,21280.86,63444.645,-5936.445,-33003.855,-46636.065,-6703.02,12176.91
1764434037.1460297,33684.345,21280.68,63442.71,-5934.195,-33002.369999999995,-46633.545,-6716.474999999999,12172.635
1764434037.1460297,33692.895,21286.08,63446.67,-5927.76,-32995.035,-46625.805,-6721.425,12174.21
1764434037.1460297,33690.869999999995,21283.74,63445.095,-5928.525,-32996.07,-46627.29,-6724.035,12171.015
1764434037.1460297,33687.36,21282.615,63446.13,-5928.165,-32996.295,-46628.55,-6716.34,12171.825
1764434037.1460297,33678.135,21276.585,63442.26,-5933.969999999999,-33002.55,-46637.37,-6712.2,12168.855
1764434037.1460297,33672.78,21274.695,63442.08,-5937.165,-33005.475,-46641.96,-6702.929999999999,12169.935
1764434037.1460297,33667.965,21271.95,63439.695,-5943.51,-33012.45,-46648.71,-6698.429999999999,12170.115
1764434037.1460297,33666.435,21269.52,63436.41,-5946.705,-33015.195,-46650.51,-6698.61,12169.395
1764434037.1460297,33672.42,21272.76,63438.39,-5943.285,-33011.46,-46647.09,-6701.985,12171.15
1764434037.1460297,33680.88,21278.745,63442.305,-5937.255,-33005.655,-46638.765,-6705.36,12174.885
1764434037.1460297,33686.1,21280.005,63441.18,-5934.33,-33002.145,-46634.31,-6716.34,12172.77
1764434037.186948,33688.98,21279.645,63439.92,-5933.79,-32998.994999999995,-46630.305,-6723.99,12170.385
1764434037.186948,33691.86,21283.11,63443.43,-5930.594999999999,-32994.945,-46626.3,-6721.155,12173.265
1764434037.186948,33684.705,21278.97,63441.27,-5933.79,-33000.39,-46632.105,-6720.03,12169.575
1764434037.186948,33677.01,21274.92,63440.325,-5936.085,-33004.845,-46638.315,-6714.855,12167.325
1764434037.186948,33669.855,21271.86,63439.155,-5939.955,-33009.885,-46644.345,-6706.755,12167.28
1764434037.187986,33667.02,21272.13,63438.66,-5943.915,-33013.305,-46647.585,-6700.139999999999,12169.08
1764434037.187986,33670.485,21275.28,63440.145,-5943.825,-33012.585,-46647.135,-6698.34,12173.535
1764434037.187986,33672.555,21273.93,63438.525,-5943.195,-33012.045,-46647.045,-6704.415,12172.59
1764434037.1893785,33675.705,21273.21,63438.255,-5940.405,-33007.59,-46642.59,-6710.04,12171.33
1764434037.1893785,33680.744999999995,21275.235,63437.175,-5937.66,-33004.125,-46636.155,-6719.13,12169.485
1764434037.1893785,33686.369999999995,21278.52,63438.795,-5933.565,-33000.075,-46630.305,-6727.05,12168.72
1764434037.1893785,33684.345,21276.54,63437.85,-5934.96,-33001.155,-46630.755,-6729.57,12166.245
1764434037.1893785,33683.67,21278.16,63440.91,-5933.79,-33000.795,-46631.205,-6722.19,12168.765
1764434037.1893785,33673.86,21272.445,63435.96,-5940.405,-33008.265,-46640.52,-6717.915,12164.67
1764434037.1893785,33663.555,21266.595,63432.045,-5947.469999999999,-33015.51,-46648.665,-6709.365,12163.86
1764434037.1893785,33662.744999999995,21268.35,63434.835,-5947.65,-33016.994999999995,-46651.32,-6701.264999999999,12168.36
1764434037.1893785,33665.535,21270.51,63435.78,-5946.57,-33015.645,-46650.645,-6700.59,12170.475
1764434037.1893785,33670.305,21272.58,63436.23,-5944.59,-33011.055,-46646.595,-6705.134999999999,12170.61
1764434037.1893785,33674.805,21273.66,63436.68,-5943.87,-33010.965,-46643.715,-6712.695,12170.025
1764434037.1893785,33678.0,21271.14,63432.63,-5942.474999999999,-33006.6,-46637.82,-6722.639999999999,12167.415
1764434037.1893785,33680.25,21270.555,63429.435,-5942.34,-33006.015,-46635.12,-6730.29,12164.805
1764434037.1893785,33682.545,21275.19,63435.87,-5936.804999999999,-33003.675,-46632.78,-6727.905,12166.155
1764434037.1893785,33679.935,21277.665,63443.295,-5929.065,-32998.095,-46629.945,-6721.29,12166.56
1764434037.1893785,33676.65,21276.585,63441.72,-5933.969999999999,-33002.775,-46635.345,-6717.96,12166.65
1764434037.2382371,33671.744999999995,21273.93,63439.74,-5940.719999999999,-33010.785,-46643.805,-6708.509999999999,12169.485
1764434037.2392354,33663.78,21269.25,63436.275,-5945.895,-33016.77,-46650.78,-6702.255,12168.225
1764434037.2392354,33658.56,21264.435,63432.855,-5949.719999999999,-33020.145,-46654.065,-6705.63,12164.58
1764434037.2392354,33662.295,21265.605,63432.63,-5948.594999999999,-33017.805,-46651.095,-6710.445,12164.805
1764434037.2392354,33671.43,21270.645,63434.79,-5943.15,-33011.28,-46643.58,-6714.63,12167.91
