Timestamp,Channel1,Channel2,Channel3,Channel4,Channel5,Channel6,Channel7,Channel8
1764434346.8402617,-896.7149999999999,-10663.11,-39425.58,-27120.735,-23645.16,-21883.41,-12238.92,-8036.28
1764434346.8402617,-893.0699999999999,-10661.985,-39426.48,-27117.675,-23641.38,-21873.105,-12242.52,-8038.98
1764434346.8402617,-890.37,-10660.905,-39426.795,-27115.245,-23639.355,-21868.11,-12244.23,-8040.105
1764434346.8402617,-891.81,-10662.345,-39427.2,-27115.74,-23640.3,-21870.99,-12244.275,-8039.655
1764434346.8402617,-896.985,-10666.395,-39428.82,-27120.465,-23644.53,-21880.62,-12243.33,-8040.24
1764434346.8402617,-899.235,-10665.99,-39426.57,-27122.355,-23645.925,-21886.83,-12238.92,-8036.009999999999
1764434346.8402617,-898.155,-10663.74,-39422.655,-27122.58,-23644.575,-21892.905,-12231.99,-8028.269999999999
1764434346.8402617,-900.54,-10664.505,-39422.88,-27125.055,-23647.23,-21898.89,-12230.505,-8027.28
1764434346.8402617,-902.115,-10666.125,-39424.815,-27126.765,-23648.76,-21899.205,-12233.07,-8030.429999999999
1764434346.8402617,-900.81,-10665.54,-39425.715,-27125.775,-23647.275,-21893.265,-12236.04,-8033.94
1764434346.8402617,-898.425,-10664.595,-39427.83,-27124.29,-23646.555,-21886.38,-12240.54,-8037.9
1764434346.8402617,-893.475,-10661.805,-39428.055,-27119.7,-23642.73,-21875.58,-12243.105,-8040.195
1764434346.8402617,-892.395,-10660.815,-39427.965,-27117.0,-23640.885,-21870.18,-12245.58,-8041.679999999999
1764434346.8408134,-894.15,-10662.57,-39428.325,-27118.53,-23642.64,-21874.275,-12246.03,-8042.219999999999
1764434346.8408134,-893.43,-10661.94,-39425.4,-27117.945,-23642.01,-21878.055,-12241.26,-8036.82
1764434346.8408134,-894.645,-10662.03,-39422.97,-27118.89,-23642.505,-21883.815,-12236.175,-8031.42
1764434346.8408134,-898.0649999999999,-10663.38,-39420.765,-27121.365,-23644.17,-21892.86,-12231.675,-8027.639999999999
1764434346.8408134,-901.62,-10665.495,-39422.115,-27125.955,-23648.265,-21899.655,-12232.485,-8028.36
1764434346.8408134,-902.34,-10666.53,-39424.545,-27127.305,-23649.75,-21899.205,-12234.69,-8030.88
1764434346.8408134,-899.37,-10664.1,-39424.995,-27123.93,-23647.23,-21891.87,-12236.58,-8033.04
1764434346.8408134,-897.255,-10663.155,-39426.75,-27122.265,-23645.655,-21884.265,-12240.675,-8037.045
1764434346.8408134,-895.275,-10663.29,-39429.315,-27121.32,-23644.665,-21876.75,-12245.895,-8042.309999999999
1764434346.8408134,-896.355,-10665.675,-39432.285,-27122.13,-23645.97,-21875.04,-12250.71,-8046.945
1764434346.888656,-894.24,-10663.695,-39429.36,-27119.88,-23643.09,-21874.005,-12248.64,-8043.525
1764434346.888656,-899.1899999999999,-10668.015,-39430.53,-27124.335,-23647.005,-21882.465,-12247.56,-8044.019999999999
1764434346.888656,-902.88,-10670.13,-39429.45,-27127.215,-23649.165,-21891.555,-12243.87,-8040.87
1764434346.888656,-903.96,-10668.555,-39425.355,-27127.26,-23649.39,-21898.62,-12237.75,-8034.389999999999
1764434346.888656,-906.435,-10669.23,-39426.03,-27129.24,-23651.685,-21903.39,-12237.165,-8033.174999999999
1764434346.888656,-906.705,-10670.4,-39428.415,-27131.175,-23653.215,-21902.22,-12239.415,-8036.415
1764434346.888656,-905.04,-10670.58,-39430.215,-27130.23,-23652.0,-21896.055,-12241.755,-8040.059999999999
1764434346.888656,-899.685,-10667.295,-39429.54,-27125.91,-23647.995,-21886.29,-12244.14,-8041.275
1764434346.888656,-892.755,-10663.425,-39427.38,-27119.385,-23641.965,-21873.915,-12245.985,-8041.769999999999
1764434346.888656,-893.745,-10665.9,-39429.765,-27120.15,-23642.73,-21871.89,-12249.99,-8046.0
1764434346.888656,-890.64,-10662.435,-39424.77,-27116.685,-23638.995,-21870.36,-12245.895,-8040.644999999999
1764434346.888656,-893.61,-10663.38,-39424.545,-27119.79,-23641.02,-21877.83,-12242.79,-8038.53
1764434346.888656,-898.6949999999999,-10667.295,-39425.355,-27123.795,-23645.52,-21887.73,-12240.045,-8036.865
1764434346.888656,-898.8299999999999,-10665.405,-39421.8,-27123.3,-23645.385,-21893.715,-12233.655,-8030.34
1764434346.888656,-901.035,-10666.26,-39422.205,-27125.73,-23646.555,-21898.98,-12232.53,-8029.215
1764434346.888656,-902.745,-10668.645,-39424.815,-27128.25,-23648.67,-21899.43,-12236.31,-8033.13
1764434346.8896518,-902.79,-10669.545,-39428.19,-27127.98,-23649.66,-21894.885,-12240.9,-8038.125
1764434346.8896518,-897.93,-10666.08,-39427.245,-27122.94,-23644.89,-21884.67,-12242.745,-8038.98
1764434346.8896518,-895.185,-10665.585,-39429.405,-27120.42,-23642.775,-21876.435,-12246.84,-8043.03
1764434346.8896518,-891.0,-10663.02,-39426.93,-27115.65,-23638.545,-21870.405,-12247.515,-8042.49
1764434346.8906584,-890.9549999999999,-10662.12,-39425.445,-27115.605,-23638.005,-21870.99,-12245.13,-8039.34
1764434346.8906584,-892.98,-10662.705,-39424.455,-27117.855,-23640.165,-21877.245,-12240.855,-8036.235
1764434346.8906584,-896.5799999999999,-10664.37,-39423.87,-27120.015,-23643.63,-21886.605,-12238.29,-8033.94
1764434346.8906584,-901.935,-10667.79,-39424.185,-27124.74,-23647.95,-21898.035,-12235.77,-8031.96
1764434346.9353442,-900.72,-10665.135,-39421.17,-27124.515,-23646.33,-21899.43,-12231.27,-8027.144999999999
1764434346.9363463,-901.98,-10666.755,-39423.69,-27126.405,-23648.715,-21898.89,-12234.69,-8030.79
1764434346.9363463,-901.755,-10668.015,-39427.065,-27126.99,-23649.21,-21894.795,-12239.865,-8036.28
1764434346.9363463,-896.13,-10664.19,-39425.4,-27121.41,-23644.395,-21884.355,-12241.35,-8036.46
1764434346.9363463,-891.63,-10661.04,-39424.77,-27116.37,-23640.48,-21873.465,-12243.105,-8038.215
1764434346.9363463,-890.37,-10660.995,-39424.41,-27114.165,-23638.14,-21868.965,-12244.23,-8039.295
1764434346.9363463,-894.1949999999999,-10664.865,-39426.615,-27117.72,-23641.92,-21874.815,-12246.12,-8041.545
1764434346.9374895,-896.175,-10665.405,-39426.39,-27118.98,-23643.63,-21880.755,-12242.88,-8038.665
1764434346.9374895,-897.795,-10665.135,-39425.04,-27120.87,-23645.16,-21887.55,-12238.29,-8034.48
1764434346.9374895,-899.865,-10664.82,-39421.89,-27122.67,-23645.745,-21895.2,-12233.43,-8028.855
1764434346.9374895,-897.39,-10660.77,-39417.84,-27120.645,-23643.36,-21895.515,-12228.345,-8023.32
1764434346.9374895,-900.63,-10663.74,-39422.52,-27124.56,-23647.14,-21897.09,-12232.845,-8029.125
1764434346.9374895,-898.29,-10661.355,-39422.205,-27121.86,-23645.115,-21890.025,-12235.365,-8031.195
1764434346.9374895,-898.8299999999999,-10663.38,-39426.885,-27123.03,-23645.565,-21885.66,-12241.845,-8038.08
1764434346.9374895,-894.3299999999999,-10661.13,-39426.975,-27118.665,-23642.055,-21875.265,-12244.995,-8040.554999999999
1764434346.9374895,-889.6949999999999,-10657.215,-39423.51,-27113.445,-23636.925,-21867.255,-12244.23,-8038.665
1764434346.9374895,-892.26,-10659.87,-39424.365,-27116.055,-23638.815,-21871.89,-12244.365,-8039.205
1764434346.9374895,-893.5649999999999,-10661.4,-39422.52,-27117.135,-23640.03,-21877.515,-12240.09,-8035.424999999999
1764434346.9374895,-896.355,-10662.48,-39421.44,-27118.755,-23642.28,-21884.94,-12236.04,-8031.87
1764434346.9374895,-897.8399999999999,-10661.715,-39418.695,-27119.7,-23643.27,-21892.5,-12230.595,-8026.83
1764434346.9374895,-896.85,-10658.835,-39416.13,-27118.89,-23641.92,-21893.805,-12226.86,-8022.87
1764434346.9374895,-898.8299999999999,-10661.76,-39419.46,-27121.455,-23644.98,-21895.245,-12231.36,-8027.955
1764434346.9803896,-897.12,-10661.4,-39420.945,-27120.645,-23643.63,-21889.305,-12234.465,-8030.88
1764434346.9803896,-895.23,-10661.04,-39423.555,-27118.98,-23642.505,-21882.195,-12238.695,-8034.255
1764434346.9803896,-889.6949999999999,-10657.845,-39423.015,-27113.715,-23637.735,-21870.765,-12241.17,-8035.695
1764434346.9803896,-888.795,-10658.88,-39424.41,-27112.77,-23636.79,-21867.93,-12242.745,-8038.394999999999
1764434346.9803896,-888.975,-10658.52,-39423.105,-27112.68,-23636.7,-21869.55,-12240.27,-8035.74
1764434346.9803896,-889.3349999999999,-10657.8,-39420.36,-27112.725,-23637.105,-21873.825,-12235.635,-8030.745
1764434346.9803896,-890.73,-10657.62,-39417.84,-27113.76,-23637.96,-21880.44,-12230.955,-8026.29
1764434346.9803896,-896.805,-10660.815,-39419.28,-27118.755,-23642.91,-21892.68,-12228.75,-8024.355
1764434346.9803896,-894.555,-10657.935,-39416.535,-27118.215,-23641.695,-21893.58,-12224.52,-8020.215
1764434346.9803896,-897.795,-10661.355,-39421.305,-27122.715,-23645.43,-21894.93,-12229.335,-8025.884999999999
1764434346.9803896,-895.86,-10661.04,-39422.88,-27121.14,-23644.71,-21889.845,-12233.25,-8029.799999999999
1764434346.9803896,-892.89,-10660.32,-39423.24,-27118.08,-23642.415,-21881.385,-12237.3,-8033.219999999999
1764434346.9803896,-884.8349999999999,-10655.55,-39419.55,-27111.285,-23636.205,-21867.345,-12237.84,-8032.724999999999
1764434346.9803896,-884.3399999999999,-10655.595,-39420.855,-27110.52,-23636.295,-21865.005,-12240.72,-8034.615
1764434346.98141,-889.11,-10659.555,-39423.645,-27114.795,-23640.21,-21871.89,-12242.52,-8037.495
1764434346.98141,-890.1899999999999,-10659.105,-39420.855,-27114.93,-23640.66,-21876.255,-12238.02,-8033.49
1764434346.98141,-892.485,-10658.52,-39418.245,-27115.515,-23640.705,-21881.925,-12233.25,-8028.315
1764434346.98141,-892.035,-10655.505,-39413.52,-27113.76,-23638.365,-21886.065,-12226.14,-8020.44
1764434346.98141,-891.9,-10654.785,-39412.17,-27113.94,-23638.635,-21888.765,-12223.125,-8017.785
1764434346.98141,-893.52,-10656.99,-39415.14,-27115.605,-23640.165,-21887.505,-12226.14,-8021.745
1764434346.98141,-893.0699999999999,-10658.34,-39418.515,-27115.38,-23639.895,-21881.745,-12230.955,-8027.19
1764434346.98141,-888.525,-10656.27,-39419.1,-27111.825,-23636.115,-21871.89,-12234.15,-8029.62
1764434347.0249028,-881.28,-10650.195,-39416.49,-27104.355,-23628.825,-21858.03,-12235.23,-8028.99
1764434347.0249028,-879.75,-10649.565,-39415.365,-27102.33,-23626.935,-21853.845,-12236.76,-8030.429999999999
1764434347.0249028,-879.3,-10649.115,-39413.34,-27101.16,-23625.765,-21855.15,-12234.285,-8028.045
1764434347.0249028,-883.305,-10651.815,-39413.43,-27104.13,-23628.24,-21862.665,-12232.44,-8025.795
1764434347.0249028,-889.74,-10656.36,-39415.275,-27109.665,-23633.865,-21874.23,-12231.315,-8025.255
1764434347.0249028,-892.5749999999999,-10656.63,-39413.34,-27112.725,-23637.24,-21884.04,-12226.77,-8021.34
1764434347.0249028,-891.63,-10654.875,-39411.315,-27112.59,-23637.42,-21886.335,-12224.655,-8018.82
1764434347.0249028,-892.2149999999999,-10655.685,-39413.295,-27113.715,-23638.815,-21886.425,-12227.67,-8021.969999999999
1764434347.0249028,-889.29,-10653.12,-39414.51,-27111.735,-23636.745,-21880.08,-12229.515,-8024.264999999999
1764434347.0249028,-887.895,-10653.48,-39417.165,-27111.285,-23636.43,-21874.23,-12234.69,-8028.9
1764434347.0249028,-885.6899999999999,-10653.255,-39419.415,-27109.08,-23635.755,-21866.49,-12239.64,-8033.849999999999
1764434347.0249028,-881.01,-10649.61,-39415.455,-27104.4,-23632.02,-21860.46,-12238.515,-8031.285
1764434347.0259206,-883.2149999999999,-10651.5,-39415.86,-27106.29,-23633.865,-21864.915,-12237.435,-8030.205
1764434347.0259206,-888.435,-10656.045,-39418.605,-27111.375,-23639.49,-21874.68,-12236.895,-8030.655
1764434347.0259206,-890.28,-10655.505,-39416.445,-27113.715,-23641.02,-21883.545,-12233.07,-8026.155
1764434347.0259206,-891.7199999999999,-10654.74,-39413.52,-27115.515,-23642.73,-21892.68,-12228.57,-8021.61
1764434347.0259206,-890.5949999999999,-10652.715,-39411.225,-27115.65,-23643.045,-21894.57,-12225.87,-8018.054999999999
1764434347.0259206,-893.5649999999999,-10655.055,-39415.86,-27119.52,-23647.05,-21896.1,-12230.46,-8023.59
1764434347.0259206,-894.6,-10657.44,-39420.54,-27120.645,-23648.04,-21893.175,-12236.22,-8030.519999999999
1764434347.0259206,-889.65,-10653.705,-39418.785,-27115.245,-23642.145,-21880.98,-12237.39,-8030.969999999999
1764434347.0264304,-885.6899999999999,-10652.76,-39419.46,-27110.745,-23637.645,-21870.0,-12240.18,-8033.894999999999
1764434347.0264304,-886.23,-10654.74,-39421.89,-27110.295,-23636.97,-21866.895,-12242.88,-8036.235
1764434347.0269606,-890.37,-10658.745,-39423.78,-27113.94,-23639.49,-21872.475,-12243.465,-8037.179999999999
1764434347.0269606,-893.3399999999999,-10658.97,-39421.665,-27115.155,-23640.255,-21877.605,-12240.54,-8034.525
1764434347.07026,-893.295,-10657.17,-39417.12,-27114.03,-23639.355,-21881.835,-12233.565,-8027.955
1764434347.07026,-898.4699999999999,-10661.22,-39418.425,-27119.07,-23643.99,-21891.465,-12230.64,-8026.65
1764434347.07026,-895.995,-10657.17,-39414.105,-27116.73,-23640.93,-21890.025,-12225.15,-8021.429999999999
1764434347.07026,-897.03,-10658.61,-39416.49,-27118.125,-23641.38,-21888.855,-12228.255,-8025.12
1764434347.07026,-895.005,-10658.205,-39418.335,-27116.37,-23639.4,-21882.105,-12231.72,-8028.315
1764434347.07026,-893.2049999999999,-10658.43,-39420.63,-27114.615,-23637.78,-21873.915,-12236.31,-8032.545
1764434347.07026,-892.35,-10659.825,-39423.915,-27113.94,-23637.915,-21867.435,-12241.98,-8038.71
1764434347.07026,-889.29,-10657.62,-39422.655,-27111.24,-23635.125,-21862.17,-12242.07,-8037.585
1764434347.07026,-886.5899999999999,-10655.325,-39418.02,-27108.99,-23632.695,-21862.8,-12238.83,-8032.094999999999
1764434347.07026,-892.4399999999999,-10659.69,-39420.135,-27113.58,-23637.555,-21872.79,-12238.065,-8032.59
1764434347.07026,-894.24,-10659.42,-39417.93,-27115.02,-23638.68,-21880.845,-12233.115,-8027.639999999999
1764434347.07026,-893.43,-10656.135,-39412.305,-27113.22,-23636.925,-21885.345,-12225.285,-8019.09
1764434347.07026,-893.88,-10655.37,-39411.9,-27114.345,-23638.23,-21888.765,-12222.855,-8017.83
1764434347.07026,-895.3199999999999,-10656.9,-39415.14,-27116.28,-23640.3,-21888.36,-12227.265,-8021.79
1764434347.071952,-893.9699999999999,-10656.54,-39416.625,-27115.47,-23638.77,-21882.375,-12231.765,-8024.94
1764434347.071952,-890.1,-10654.74,-39417.165,-27112.995,-23635.98,-21873.87,-12235.455,-8028.54
1764434347.071952,-886.545,-10653.615,-39418.2,-27109.395,-23633.415,-21865.095,-12239.73,-8031.78
1764434347.071952,-884.61,-10653.21,-39418.29,-27107.505,-23632.425,-21861.315,-12240.765,-8031.96
1764434347.0729654,-884.295,-10653.03,-39416.4,-27107.235,-23631.705,-21863.205,-12237.795,-8029.844999999999
1764434347.0729654,-888.435,-10656.495,-39416.985,-27111.15,-23635.35,-21871.665,-12235.635,-8029.125
1764434347.0729654,-895.275,-10660.905,-39419.19,-27117.405,-23641.245,-21883.815,-12235.005,-8029.125
1764434347.0729654,-898.3349999999999,-10661.22,-39417.795,-27119.205,-23644.08,-21892.095,-12231.09,-8024.715
1764434347.0729654,-897.255,-10658.34,-39415.005,-27118.215,-23642.37,-21892.59,-12228.21,-8021.25
1764434347.0739665,-898.6949999999999,-10661.085,-39419.505,-27121.23,-23644.53,-21892.545,-12232.26,-8025.615
1764434347.1169307,-893.8349999999999,-10657.71,-39418.11,-27117.09,-23640.345,-21883.545,-12233.88,-8025.974999999999
1764434347.1174662,-893.475,-10658.97,-39422.52,-27117.225,-23640.21,-21877.875,-12238.875,-8032.005
1764434347.1174662,-890.5949999999999,-10658.79,-39424.545,-27114.84,-23638.365,-21869.955,-12242.61,-8036.235
1764434347.1174662,-887.49,-10656.54,-39422.43,-27111.51,-23635.215,-21864.42,-12242.205,-8035.695
1764434347.1174662,-887.9399999999999,-10656.99,-39421.44,-27111.69,-23635.17,-21867.255,-12241.305,-8033.58
1764434347.1174662,-888.615,-10657.035,-39418.74,-27111.645,-23635.17,-21871.98,-12236.265,-8029.215
1764434347.1174662,-890.145,-10656.315,-39414.78,-27112.41,-23635.44,-21878.055,-12230.865,-8023.59
1764434347.1174662,-893.5649999999999,-10657.935,-39414.915,-27116.28,-23639.58,-21887.415,-12226.68,-8019.99
1764434347.1174662,-891.9449999999999,-10654.515,-39411.63,-27114.93,-23638.455,-21887.505,-12223.125,-8016.795
1764434347.1174662,-893.3399999999999,-10656.315,-39415.41,-27117.045,-23639.715,-21887.55,-12227.805,-8021.16
1764434347.1174662,-892.0799999999999,-10656.09,-39416.805,-27115.695,-23638.455,-21881.7,-12231.09,-8025.21
1764434347.1174662,-883.98,-10650.24,-39413.34,-27108.765,-23632.245,-21867.84,-12230.01,-8023.634999999999
1764434347.1174662,-880.875,-10650.015,-39415.455,-27107.28,-23630.04,-21859.74,-12233.79,-8027.415
1764434347.1174662,-882.495,-10652.85,-39417.975,-27108.36,-23631.255,-21859.38,-12237.57,-8030.79
1764434347.1174662,-881.28,-10651.59,-39416.265,-27106.965,-23629.86,-21861.585,-12234.375,-8028.0
1764434347.1174662,-880.155,-10649.97,-39412.305,-27106.245,-23627.97,-21864.825,-12228.75,-8021.7
1764434347.1174662,-884.88,-10651.995,-39412.395,-27111.105,-23631.795,-21874.545,-12225.825,-8019.315
1764434347.1174662,-888.8399999999999,-10653.03,-39411.675,-27114.84,-23635.26,-21883.86,-12221.955,-8016.795
1764434347.1174662,-890.9549999999999,-10654.695,-39412.26,-27116.55,-23637.465,-21887.505,-12221.415,-8016.57
1764434347.1174662,-893.2049999999999,-10656.72,-39415.68,-27118.62,-23639.175,-21886.785,-12225.51,-8020.844999999999
1764434347.1174662,-887.535,-10652.445,-39413.745,-27112.59,-23634.09,-21876.39,-12225.915,-8020.799999999999
1764434347.1174662,-884.79,-10651.05,-39415.14,-27110.745,-23632.245,-21868.29,-12229.38,-8024.219999999999
1764434347.1668472,-876.6899999999999,-10645.605,-39411.945,-27102.645,-23625.045,-21854.61,-12229.47,-8021.79
1764434347.1668472,-876.4649999999999,-10646.37,-39413.16,-27101.97,-23624.505,-21853.485,-12231.405,-8023.32
1764434347.1668472,-877.005,-10645.74,-39411.54,-27102.33,-23624.28,-21855.78,-12228.795,-8021.295
1764434347.1668472,-879.48,-10646.595,-39410.37,-27103.905,-23626.215,-21861.855,-12224.88,-8018.235
1764434347.1668472,-885.105,-10651.095,-39411.09,-27109.395,-23630.67,-21873.015,-12223.485,-8017.29
1764434347.1668472,-887.4449999999999,-10650.645,-39409.245,-27111.51,-23632.29,-21880.17,-12218.49,-8012.07
1764434347.1668472,-885.15,-10647.27,-39406.77,-27109.53,-23629.905,-21879.9,-12215.115,-8007.75
1764434347.1668472,-884.88,-10647.495,-39408.48,-27109.935,-23630.22,-21877.74,-12217.545,-8010.719999999999
1764434347.1668472,-882.405,-10646.64,-39409.2,-27107.595,-23629.05,-21871.395,-12220.515,-8013.825
1764434347.1668472,-879.795,-10645.83,-39410.64,-27105.48,-23627.475,-21863.565,-12224.43,-8018.144999999999
1764434347.1668472,-880.0649999999999,-10648.53,-39415.23,-27106.02,-23628.42,-21857.985,-12231.945,-8025.165
1764434347.1668472,-877.9499999999999,-10647.81,-39414.78,-27104.445,-23626.485,-21854.565,-12232.8,-8025.255
1764434347.1668472,-878.4449999999999,-10646.865,-39412.395,-27104.805,-23626.215,-21857.22,-12229.92,-8022.195
1764434347.1668472,-879.255,-10647.0,-39409.605,-27105.075,-23627.52,-21863.34,-12224.97,-8018.235
1764434347.1668472,-882.045,-10648.755,-39408.885,-27107.82,-23629.365,-21872.205,-12220.92,-8015.13
1764434347.1668472,-884.115,-10648.98,-39406.455,-27109.395,-23630.355,-21879.9,-12215.79,-8010.36
1764434347.1668472,-881.415,-10645.38,-39402.99,-27107.55,-23628.15,-21879.405,-12211.29,-8005.094999999999
1764434347.1668472,-882.9449999999999,-10646.91,-39406.185,-27109.665,-23629.995,-21878.55,-12214.98,-8009.054999999999
1764434347.1668472,-883.8,-10648.44,-39409.38,-27109.98,-23631.345,-21874.59,-12219.84,-8014.545
1764434347.1668472,-880.6949999999999,-10647.045,-39411.18,-27108.225,-23629.455,-21865.32,-12223.62,-8017.83
1764434347.1668472,-875.52,-10643.805,-39410.82,-27103.815,-23625.585,-21854.97,-12226.86,-8019.179999999999
1764434347.1668472,-869.76,-10640.07,-39406.095,-27098.19,-23620.095,-21848.13,-12224.745,-8015.264999999999
1764434347.2125468,-871.3349999999999,-10641.015,-39405.195,-27098.955,-23620.5,-21852.09,-12223.17,-8014.769999999999
1764434347.2125468,-877.275,-10645.02,-39407.94,-27104.4,-23625.315,-21861.99,-12222.99,-8015.58
1764434347.2125468,-879.93,-10645.515,-39405.465,-27106.155,-23626.305,-21869.145,-12217.905,-8010.405
1764434347.2135406,-881.145,-10645.155,-39403.62,-27107.685,-23627.655,-21876.705,-12212.73,-8005.634999999999
1764434347.2135406,-883.53,-10647.0,-39405.69,-27110.655,-23630.895,-21880.935,-12213.225,-8007.03
1764434347.2135406,-886.14,-10649.88,-39410.01,-27113.805,-23633.685,-21880.08,-12217.815,-8012.969999999999
1764434347.2135406,-879.39,-10644.615,-39407.85,-27107.595,-23627.88,-21869.1,-12217.995,-8011.485
1764434347.2135406,-874.89,-10642.725,-39407.625,-27103.68,-23624.91,-21860.64,-12220.47,-8013.42
1764434347.2135406,-872.415,-10642.185,-39409.11,-27102.015,-23623.47,-21852.54,-12223.98,-8017.92
1764434347.2135406,-867.87,-10637.955,-39405.33,-27097.065,-23618.565,-21845.745,-12222.405,-8014.23
1764434347.2135406,-867.285,-10637.415,-39402.63,-27095.94,-23618.385,-21847.77,-12219.075,-8011.259999999999
1764434347.2135406,-870.3,-10638.765,-39401.505,-27097.83,-23621.13,-21854.79,-12215.88,-8008.65
1764434347.2145443,-872.145,-10639.125,-39398.985,-27099.18,-23623.245,-21862.71,-12210.705,-8004.465
1764434347.2145443,-873.63,-10639.17,-39395.655,-27101.07,-23624.19,-21870.27,-12205.08,-7998.929999999999
1764434347.2145443,-873.405,-10637.55,-39394.44,-27100.8,-23623.74,-21872.43,-12202.38,-7996.95
1764434347.2145443,-874.665,-10639.125,-39398.265,-27102.465,-23625.315,-21871.62,-12207.015,-8002.08
1764434347.2145443,-872.415,-10638.495,-39400.02,-27101.385,-23624.1,-21865.32,-12210.795,-8005.41
1764434347.2145443,-869.85,-10637.64,-39401.19,-27099.135,-23622.615,-21856.815,-12214.845,-8008.469999999999
1764434347.2150636,-866.745,-10636.47,-39402.225,-27095.265,-23619.42,-21847.725,-12218.085,-8011.44
1764434347.2150636,-865.98,-10635.885,-39401.19,-27094.05,-23617.485,-21845.655,-12218.67,-8012.565
1764434347.2150636,-867.6899999999999,-10637.325,-39401.055,-27094.95,-23618.385,-21849.705,-12217.275,-8010.764999999999
1764434347.2150636,-872.145,-10640.88,-39402.54,-27098.82,-23621.895,-21857.805,-12214.485,-8009.639999999999
1764434347.2150636,-873.675,-10640.34,-39400.065,-27100.17,-23623.785,-21865.545,-12209.175,-8005.23
1764434347.2150636,-872.73,-10636.965,-39394.8,-27099.135,-23623.02,-21870.72,-12202.785,-7997.174999999999
1764434347.2547002,-876.24,-10640.115,-39398.13,-27104.04,-23626.665,-21876.21,-12205.17,-8000.009999999999
1764434347.2547002,-878.355,-10642.905,-39402.405,-27106.92,-23628.915,-21876.03,-12209.58,-8005.094999999999
1764434347.2547002,-873.18,-10639.305,-39400.605,-27102.195,-23624.64,-21866.67,-12210.705,-8004.915
1764434347.2547002,-872.8199999999999,-10640.385,-39404.97,-27102.195,-23625.09,-21860.55,-12216.42,-8010.674999999999
1764434347.2547002,-869.355,-10638.855,-39405.42,-27098.955,-23621.67,-21851.37,-12219.57,-8013.735
1764434347.2547002,-865.89,-10636.245,-39402.54,-27095.625,-23618.295,-21847.005,-12218.49,-8011.485
1764434347.2547002,-865.755,-10635.255,-39399.795,-27095.04,-23617.44,-21849.345,-12215.52,-8008.019999999999
1764434347.2547002,-866.3399999999999,-10634.805,-39397.005,-27095.13,-23618.07,-21854.61,-12210.12,-8003.655
1764434347.2547002,-867.645,-10634.265,-39394.485,-27095.49,-23618.295,-21861.36,-12205.17,-7998.03
1764434347.256256,-873.27,-10638.27,-39395.97,-27101.025,-23623.425,-21872.205,-12202.47,-7996.86
1764434347.256256,-871.74,-10635.975,-39393.72,-27099.855,-23622.48,-21872.655,-12199.275,-7993.53
1764434347.256256,-872.37,-10636.965,-39396.465,-27100.71,-23623.2,-21870.315,-12203.235,-7997.49
1764434347.256256,-869.4449999999999,-10635.84,-39397.59,-27098.37,-23621.13,-21863.565,-12206.655,-8000.19
1764434347.2572677,-865.665,-10633.905,-39398.535,-27094.68,-23618.565,-21854.385,-12210.615,-8003.295
1764434347.2572677,-863.685,-10633.23,-39398.985,-27092.385,-23616.225,-21845.475,-12214.26,-8006.849999999999
1764434347.2572677,-864.18,-10635.21,-39400.695,-27092.88,-23617.035,-21844.89,-12216.15,-8009.955
1764434347.2572677,-861.39,-10631.97,-39396.555,-27090.45,-23614.02,-21845.295,-12210.975,-8003.429999999999
1764434347.2572677,-864.855,-10634.58,-39396.6,-27093.33,-23616.81,-21853.845,-12208.545,-8002.035
1764434347.2572677,-865.89,-10633.68,-39393.405,-27093.69,-23616.765,-21860.595,-12203.01,-7996.23
1764434347.258268,-871.1999999999999,-10636.74,-39394.755,-27099.405,-23621.895,-21870.945,-12201.21,-7995.195
1764434347.258268,-870.66,-10635.435,-39393.36,-27099.63,-23621.31,-21872.565,-12199.95,-7994.07
1764434347.258268,-873.405,-10638.9,-39398.265,-27103.455,-23624.28,-21873.06,-12205.98,-8000.46
1764434347.258268,-868.14,-10634.85,-39395.61,-27097.29,-23618.745,-21863.115,-12206.61,-8000.235
1764434347.258268,-865.8449999999999,-10634.49,-39397.815,-27095.265,-23617.35,-21854.79,-12210.795,-8004.87
1764434347.3029854,-864.3149999999999,-10634.895,-39400.155,-27093.69,-23616.045,-21846.285,-12215.475,-8009.91
1764434347.3029854,-861.93,-10633.14,-39398.4,-27090.585,-23612.67,-21841.83,-12215.205,-8008.695
1764434347.3029854,-865.8,-10636.83,-39399.57,-27093.51,-23615.91,-21847.725,-12215.07,-8009.28
1764434347.3029854,-872.55,-10643.265,-39403.665,-27100.215,-23622.795,-21859.515,-12217.185,-8011.71
1764434347.3029854,-874.35,-10643.085,-39401.37,-27101.655,-23623.515,-21866.805,-12213.225,-8006.264999999999
1764434347.3029854,-877.905,-10643.265,-39399.615,-27104.58,-23625.765,-21875.04,-12209.58,-8002.889999999999
1764434347.3029854,-879.93,-10644.075,-39401.19,-27106.785,-23627.475,-21877.605,-12209.445,-8004.059999999999
1764434347.3029854,-880.155,-10644.885,-39404.115,-27107.145,-23628.195,-21875.895,-12212.865,-8007.615
1764434347.3029854,-878.13,-10643.85,-39405.195,-27105.57,-23627.88,-21869.64,-12216.375,-8010.809999999999
1764434347.3029854,-876.915,-10644.795,-39409.155,-27105.255,-23627.88,-21862.53,-12221.955,-8016.705
1764434347.3029854,-872.28,-10642.14,-39407.805,-27100.17,-23623.245,-21852.045,-12224.295,-8018.775
1764434347.3029854,-874.8449999999999,-10645.335,-39411.135,-27101.565,-23625.18,-21853.08,-12226.95,-8022.735
1764434347.3029854,-876.3299999999999,-10646.145,-39410.28,-27102.375,-23625.72,-21856.275,-12225.06,-8020.17
1764434347.3029854,-877.68,-10646.37,-39407.625,-27104.04,-23627.43,-21862.89,-12221.505,-8015.894999999999
1764434347.3029854,-879.03,-10646.325,-39405.06,-27105.345,-23628.24,-21870.675,-12217.455,-8011.08
1764434347.3029854,-886.5,-10651.815,-39408.75,-27112.5,-23635.17,-21882.24,-12217.185,-8012.745
1764434347.3029854,-886.545,-10650.33,-39407.715,-27113.265,-23634.9,-21883.005,-12215.925,-8011.53
1764434347.3029854,-887.895,-10652.715,-39411.405,-27115.155,-23637.6,-21882.42,-12221.055,-8016.165
1764434347.3029854,-882.225,-10648.44,-39410.19,-27110.295,-23633.415,-21872.925,-12222.405,-8015.94
1764434347.3029854,-881.73,-10649.97,-39413.925,-27109.98,-23632.965,-21866.49,-12228.255,-8022.24
1764434347.35131,-875.475,-10646.19,-39411.585,-27103.68,-23627.07,-21854.565,-12229.38,-8022.465
1764434347.3523166,-875.43,-10646.595,-39411.495,-27103.545,-23626.71,-21853.17,-12230.37,-8022.69
1764434347.3523166,-879.525,-10649.655,-39413.295,-27106.245,-23629.59,-21860.1,-12230.64,-8023.32
1764434347.3523166,-879.615,-10648.305,-39409.47,-27104.85,-23628.69,-21864.78,-12225.24,-8017.605
1764434347.3523166,-883.665,-10649.925,-39408.885,-27108.45,-23631.84,-21874.095,-12222.0,-8014.32
1764434347.3523166,-889.8299999999999,-10653.57,-39411.225,-27114.84,-23637.42,-21885.255,-12220.515,-8014.139999999999
1764434347.3523166,-888.795,-10651.905,-39409.74,-27113.67,-23635.8,-21885.03,-12218.895,-8012.34
1764434347.3523166,-890.37,-10653.615,-39413.25,-27116.19,-23638.05,-21883.815,-12223.485,-8017.514999999999
1764434347.3533306,-888.3449999999999,-10654.065,-39415.23,-27116.145,-23637.15,-21877.785,-12227.49,-8021.429999999999
1764434347.3533306,-888.12,-10655.055,-39418.335,-27115.83,-23637.375,-21870.9,-12233.655,-8027.325
1764434347.3533306,-881.8199999999999,-10650.915,-39415.95,-27109.665,-23631.705,-21859.335,-12234.51,-8026.965
1764434347.3533306,-883.98,-10654.02,-39418.74,-27111.06,-23633.505,-21860.955,-12238.065,-8030.34
1764434347.3533306,-884.295,-10653.12,-39416.49,-27110.7,-23632.65,-21864.195,-12234.78,-8027.054999999999
1764434347.3533306,-883.53,-10650.555,-39412.44,-27110.25,-23631.705,-21868.74,-12229.245,-8021.295
1764434347.3533306,-889.38,-10655.325,-39413.205,-27115.65,-23637.24,-21881.07,-12227.22,-8020.44
1764434347.3533306,-893.385,-10656.45,-39412.26,-27119.745,-23640.12,-21890.025,-12224.115,-8017.695
1764434347.3533306,-892.26,-10655.01,-39411.36,-27119.205,-23639.535,-21890.07,-12222.72,-8015.804999999999
1764434347.3533306,-895.365,-10658.475,-39417.615,-27122.49,-23643.315,-21890.295,-12229.065,-8023.005
1764434347.3533306,-893.3399999999999,-10657.575,-39419.19,-27120.33,-23641.965,-21883.365,-12232.755,-8025.48
1764434347.3533306,-889.29,-10655.55,-39419.37,-27117.18,-23638.455,-21873.24,-12235.995,-8028.269999999999
1764434347.3533306,-882.9449999999999,-10650.69,-39416.715,-27110.115,-23631.93,-21861.81,-12236.58,-8028.045
1764434347.3533306,-882.5849999999999,-10650.69,-39416.13,-27109.62,-23630.625,-21860.37,-12236.265,-8028.495
1764434347.3533306,-886.5899999999999,-10655.28,-39418.515,-27114.21,-23634.315,-21867.39,-12236.085,-8029.125
1764434347.3533306,-890.64,-10657.665,-39419.19,-27117.36,-23638.725,-21875.535,-12234.555,-8027.775
1764434347.3533306,-894.015,-10658.925,-39417.435,-27119.655,-23641.38,-21884.445,-12230.64,-8023.769999999999
1764434347.3543117,-893.8349999999999,-10658.205,-39413.88,-27119.88,-23641.92,-21890.25,-12224.61,-8018.549999999999
1764434347.3987684,-891.135,-10655.505,-39411.855,-27118.71,-23640.255,-21889.485,-12222.135,-8015.309999999999
1764434347.3987684,-892.2149999999999,-10656.81,-39415.815,-27120.555,-23641.56,-21887.865,-12226.995,-8020.394999999999
1764434347.3987684,-890.775,-10656.945,-39417.615,-27119.61,-23640.21,-21881.88,-12231.27,-8024.309999999999
1764434347.3987684,-890.3249999999999,-10658.025,-39421.575,-27119.34,-23640.21,-21874.995,-12237.12,-8029.844999999999
1764434347.3987684,-884.52,-10654.065,-39419.325,-27113.13,-23635.26,-21863.79,-12237.84,-8030.07
1764434347.399766,-886.14,-10656.63,-39421.8,-27115.02,-23636.25,-21864.24,-12240.135,-8032.32
1764434347.399766,-884.655,-10654.155,-39418.47,-27112.41,-23633.82,-21865.32,-12235.635,-8026.965
1764434347.399766,-888.03,-10655.37,-39417.03,-27114.3,-23635.98,-21872.295,-12232.35,-8024.264999999999
1764434347.399766,-894.4649999999999,-10660.41,-39417.885,-27120.015,-23641.38,-21884.805,-12230.73,-8024.445
1764434347.399766,-896.895,-10660.815,-39416.58,-27122.67,-23642.91,-21892.05,-12227.445,-8020.485
1764434347.400765,-896.49,-10659.96,-39416.13,-27123.165,-23643.45,-21892.905,-12227.49,-8020.215
1764434347.400765,-901.035,-10664.19,-39421.845,-27127.665,-23647.455,-21894.705,-12234.195,-8028.45
1764434347.400765,-896.355,-10661.175,-39421.44,-27123.525,-23643.81,-21885.705,-12236.76,-8029.665
1764434347.400765,-890.505,-10657.17,-39419.685,-27117.045,-23638.77,-21872.79,-12237.48,-8029.71
1764434347.401766,-888.39,-10656.36,-39421.485,-27114.93,-23637.015,-21864.645,-12240.765,-8033.264999999999
1764434347.401766,-886.275,-10654.65,-39419.19,-27112.05,-23634.54,-21860.775,-12239.595,-8031.644999999999
1764434347.401766,-890.73,-10659.195,-39421.305,-27117.045,-23638.77,-21869.19,-12240.585,-8033.174999999999
1764434347.401766,-895.185,-10661.625,-39421.935,-27121.32,-23642.595,-21877.47,-12239.28,-8031.915
1764434347.402768,-898.245,-10662.93,-39420.63,-27123.255,-23644.89,-21886.56,-12235.095,-8027.19
1764434347.402768,-899.5949999999999,-10661.985,-39418.02,-27124.515,-23645.88,-21892.905,-12231.315,-8022.33
1764434347.402768,-899.1899999999999,-10660.905,-39417.255,-27124.83,-23646.6,-21893.04,-12231.225,-8021.745
1764434347.402768,-901.395,-10663.965,-39421.89,-27127.26,-23648.94,-21892.005,-12236.85,-8027.415
1764434347.402768,-902.295,-10665.09,-39425.49,-27128.025,-23649.795,-21887.595,-12242.025,-8034.03
1764434347.402768,-897.8399999999999,-10663.515,-39426.57,-27124.56,-23646.915,-21877.56,-12245.67,-8037.45
1764434347.4441226,-891.4499999999999,-10659.915,-39424.815,-27118.755,-23641.38,-21866.49,-12246.66,-8038.08
1764434347.4441226,-889.515,-10658.97,-39423.42,-27116.82,-23639.175,-21864.33,-12245.715,-8037.134999999999
1764434347.4441226,-890.865,-10660.32,-39421.98,-27118.395,-23640.93,-21868.83,-12243.465,-8035.019999999999
1764434347.4441226,-896.4449999999999,-10663.695,-39423.78,-27123.21,-23645.655,-21878.865,-12242.025,-8034.929999999999
1764434347.4441226,-897.795,-10662.795,-39419.865,-27123.3,-23646.645,-21886.065,-12236.22,-8028.54
1764434347.4441226,-900.3149999999999,-10664.325,-39419.505,-27126.36,-23649.57,-21894.84,-12233.52,-8025.57
1764434347.4441226,-901.89,-10665.18,-39421.305,-27128.79,-23650.695,-21897.36,-12234.78,-8027.009999999999
1764434347.4441226,-903.195,-10666.305,-39424.095,-27130.23,-23651.865,-21895.335,-12239.28,-8032.094999999999
1764434347.4441226,-900.72,-10665.045,-39424.995,-27128.565,-23649.84,-21888.675,-12242.88,-8034.84
1764434347.4441226,-899.55,-10665.945,-39428.595,-27127.53,-23649.615,-21881.61,-12248.46,-8041.094999999999
1764434347.4441226,-892.53,-10661.355,-39426.165,-27121.005,-23643.09,-21869.28,-12248.145,-8039.88
1764434347.4441226,-892.665,-10662.57,-39426.66,-27121.815,-23643.45,-21868.875,-12249.09,-8041.184999999999
1764434347.4441226,-892.4399999999999,-10661.355,-39423.69,-27120.06,-23642.37,-21871.62,-12245.265,-8035.875
1764434347.4441226,-897.66,-10664.955,-39425.535,-27124.83,-23647.23,-21880.98,-12243.24,-8034.705
1764434347.445125,-901.035,-10666.395,-39424.455,-27127.935,-23650.02,-21890.61,-12239.73,-8031.644999999999
1764434347.445125,-903.195,-10666.62,-39423.24,-27130.095,-23651.505,-21898.08,-12236.76,-8028.63
1764434347.445125,-903.06,-10665.99,-39422.295,-27129.78,-23651.1,-21897.54,-12237.03,-8027.639999999999
1764434347.445125,-903.06,-10667.25,-39424.815,-27131.13,-23652.54,-21894.57,-12239.82,-8031.465
1764434347.445125,-899.235,-10664.505,-39425.49,-27128.07,-23649.345,-21886.92,-12240.99,-8033.309999999999
1764434347.445125,-898.29,-10665.405,-39429.135,-27126.945,-23649.03,-21879.225,-12246.84,-8038.665
1764434347.445125,-893.5649999999999,-10662.525,-39428.37,-27122.895,-23644.665,-21868.74,-12249.72,-8039.835
1764434347.445125,-896.265,-10665.54,-39429.855,-27124.56,-23646.51,-21870.99,-12252.42,-8042.715
1764434347.4901292,-895.8149999999999,-10664.505,-39427.245,-27123.3,-23645.43,-21873.825,-12248.64,-8039.115
1764434347.4901292,-897.5699999999999,-10664.145,-39425.265,-27123.84,-23646.465,-21879.675,-12244.005,-8034.615
1764434347.4901292,-900.135,-10665.495,-39424.05,-27126.495,-23649.615,-21889.215,-12239.73,-8031.33
1764434347.4901292,-901.62,-10664.91,-39421.665,-27128.385,-23650.74,-21895.74,-12235.05,-8027.82
1764434347.4901292,-899.28,-10662.885,-39420.135,-27127.62,-23648.76,-21894.12,-12232.755,-8024.894999999999
1764434347.4901292,-901.35,-10665.855,-39424.455,-27129.195,-23651.055,-21892.59,-12238.29,-8030.61
1764434347.4901292,-900.945,-10666.17,-39427.02,-27128.07,-23650.83,-21887.055,-12242.925,-8035.38
1764434347.4901292,-894.1949999999999,-10660.68,-39424.14,-27121.005,-23643.45,-21873.465,-12243.645,-8034.03
1764434347.4901292,-890.055,-10658.295,-39423.78,-27117.54,-23639.31,-21864.6,-12246.48,-8036.054999999999
1764434347.4901292,-889.875,-10659.645,-39424.005,-27117.045,-23638.815,-21863.655,-12246.57,-8037.045
1764434347.4906137,-894.555,-10663.02,-39424.905,-27120.33,-23642.325,-21870.855,-12245.895,-8036.684999999999
1764434347.4906137,-898.74,-10665.54,-39424.68,-27124.47,-23645.565,-21879.72,-12244.5,-8035.514999999999
1764434347.4906137,-900.675,-10666.53,-39422.115,-27126.585,-23647.77,-21887.955,-12239.955,-8031.465
1764434347.491126,-902.925,-10665.72,-39419.91,-27127.935,-23649.48,-21894.615,-12235.32,-8027.37
1764434347.491126,-901.305,-10663.605,-39418.605,-27127.17,-23647.815,-21893.85,-12233.565,-8025.165
1764434347.491126,-902.88,-10665.495,-39422.88,-27129.555,-23650.11,-21892.005,-12238.605,-8030.429999999999
1764434347.491126,-902.25,-10666.575,-39425.85,-27129.24,-23650.065,-21886.92,-12243.555,-8036.054999999999
1764434347.491126,-896.49,-10663.515,-39425.175,-27124.11,-23644.98,-21875.94,-12246.03,-8037.63
1764434347.491126,-895.005,-10663.335,-39427.425,-27121.905,-23643.63,-21869.145,-12249.315,-8040.87
1764434347.491126,-890.505,-10659.78,-39422.52,-27116.505,-23639.445,-21864.24,-12245.4,-8036.955
1764434347.492127,-891.99,-10660.14,-39420.495,-27117.63,-23639.805,-21867.48,-12242.205,-8033.535
1764434347.492127,-896.355,-10663.02,-39421.8,-27121.77,-23643.495,-21877.335,-12240.855,-8032.455
1764434347.492127,-899.9549999999999,-10664.55,-39420.81,-27125.28,-23645.97,-21887.415,-12237.615,-8030.16
1764434347.492127,-901.35,-10664.46,-39418.965,-27126.27,-23647.725,-21894.165,-12232.98,-8026.245
1764434347.5363097,-900.765,-10663.965,-39418.695,-27126.405,-23648.4,-21894.03,-12233.565,-8025.165
1764434347.5363097,-904.59,-10668.465,-39425.715,-27131.13,-23652.9,-21895.065,-12240.855,-8034.255
1764434347.5363097,-901.755,-10665.63,-39425.49,-27127.89,-23650.155,-21886.83,-12243.78,-8036.28
1764434347.5363097,-899.1899999999999,-10664.64,-39426.795,-27124.515,-23647.905,-21877.02,-12248.37,-8039.88
1764434347.5363097,-892.395,-10660.455,-39423.555,-27117.495,-23641.785,-21865.455,-12248.46,-8039.07
1764434347.5363097,-892.035,-10660.86,-39423.69,-27116.955,-23640.57,-21864.69,-12247.875,-8038.44
1764434347.5363097,-894.3299999999999,-10662.165,-39423.69,-27119.205,-23641.965,-21869.775,-12245.76,-8036.775
1764434347.5363097,-898.8299999999999,-10665.405,-39423.87,-27123.48,-23646.24,-21878.955,-12243.51,-8035.92
1764434347.5363097,-904.905,-10669.995,-39425.085,-27129.69,-23651.82,-21891.87,-12242.295,-8035.83
1764434347.5363097,-903.915,-10667.475,-39421.35,-27129.06,-23650.65,-21895.695,-12236.265,-8029.755
1764434347.5363097,-904.41,-10667.07,-39421.98,-27129.78,-23651.82,-21896.91,-12236.895,-8030.519999999999
1764434347.5363097,-906.975,-10670.58,-39427.74,-27133.47,-23654.745,-21896.28,-12242.43,-8036.325
1764434347.5363097,-901.17,-10666.395,-39426.255,-27127.845,-23650.065,-21885.57,-12243.42,-8035.469999999999
1764434347.537321,-897.795,-10665.675,-39427.2,-27124.605,-23647.68,-21876.345,-12247.02,-8039.429999999999
1764434347.537321,-891.5849999999999,-10660.59,-39424.005,-27117.765,-23641.155,-21864.96,-12246.57,-8038.08
1764434347.537321,-892.26,-10661.22,-39423.78,-27117.765,-23640.84,-21864.915,-12246.75,-8038.799999999999
1764434347.537321,-893.8349999999999,-10661.67,-39422.16,-27118.17,-23641.47,-21869.145,-12244.545,-8035.605
1764434347.537321,-898.425,-10664.505,-39422.385,-27122.355,-23645.52,-21877.065,-12242.745,-8034.84
1764434347.537321,-903.465,-10667.7,-39422.745,-27126.945,-23649.975,-21887.73,-12239.37,-8032.769999999999
1764434347.537321,-900.045,-10662.615,-39416.22,-27123.795,-23646.42,-21890.25,-12230.19,-8023.5
1764434347.537321,-900.675,-10662.66,-39417.03,-27125.055,-23646.645,-21892.14,-12230.595,-8023.815
1764434347.537321,-902.565,-10665.135,-39421.62,-27128.025,-23649.345,-21890.835,-12236.76,-8030.429999999999
1764434347.537321,-900.045,-10664.505,-39424.275,-27126.495,-23648.76,-21884.265,-12240.495,-8034.255
1764434347.537321,-893.88,-10660.14,-39423.24,-27120.555,-23643.0,-21871.845,-12242.385,-8035.155
1764434347.5822184,-892.53,-10661.355,-39425.445,-27118.89,-23642.325,-21865.77,-12246.615,-8039.474999999999
1764434347.5827577,-889.92,-10658.835,-39422.16,-27115.65,-23638.905,-21862.53,-12244.05,-8036.73
1764434347.5827577,-890.64,-10657.845,-39418.92,-27115.92,-23638.23,-21865.815,-12240.135,-8031.96
1764434347.5827577,-891.27,-10656.495,-39416.49,-27117.0,-23638.59,-21871.665,-12235.815,-8026.83
1764434347.5827577,-895.14,-10658.25,-39414.96,-27119.34,-23641.245,-21880.44,-12231.72,-8022.69
1764434347.5827577,-898.0649999999999,-10659.555,-39414.915,-27122.31,-23643.855,-21888.0,-12229.02,-8020.485
1764434347.5827577,-899.9549999999999,-10661.895,-39417.48,-27125.505,-23646.735,-21890.34,-12230.685,-8023.365
1764434347.5827577,-903.645,-10666.89,-39423.87,-27129.915,-23651.37,-21890.88,-12237.795,-8031.33
1764434347.5827577,-900.0899999999999,-10664.64,-39423.915,-27127.17,-23647.905,-21882.33,-12240.63,-8032.995
1764434347.5827577,-893.9699999999999,-10661.355,-39423.015,-27121.32,-23643.09,-21870.27,-12243.015,-8034.615
1764434347.5827577,-894.015,-10663.11,-39426.3,-27120.78,-23643.405,-21865.41,-12248.46,-8039.655
1764434347.5827577,-894.915,-10663.65,-39426.57,-27121.05,-23643.495,-21866.22,-12248.955,-8039.969999999999
1764434347.5827577,-894.06,-10662.57,-39423.24,-27120.015,-23642.28,-21869.145,-12244.23,-8035.514999999999
1764434347.583312,-894.42,-10662.345,-39420.675,-27120.51,-23642.775,-21874.815,-12240.225,-8029.53
1764434347.583312,-899.4599999999999,-10664.82,-39420.72,-27125.01,-23646.915,-21885.705,-12237.39,-8026.74
1764434347.583312,-901.35,-10664.37,-39418.29,-27125.595,-23647.32,-21890.745,-12232.53,-8023.23
1764434347.583312,-901.575,-10664.37,-39419.37,-27127.485,-23647.95,-21892.05,-12233.07,-8024.264999999999
1764434347.583312,-902.79,-10666.71,-39424.14,-27129.825,-23649.93,-21890.295,-12239.28,-8031.105
1764434347.583312,-902.745,-10669.005,-39428.145,-27129.735,-23650.47,-21885.57,-12245.175,-8037.495
1764434347.583312,-899.3249999999999,-10667.205,-39429.36,-27127.17,-23648.265,-21875.94,-12249.54,-8041.545
1764434347.627949,-894.4649999999999,-10663.38,-39427.29,-27121.59,-23643.675,-21865.95,-12249.315,-8041.32
1764434347.627949,-892.125,-10661.175,-39424.365,-27117.495,-23639.535,-21861.99,-12246.615,-8037.99
1764434347.627949,-890.28,-10659.105,-39420.27,-27115.47,-23637.015,-21863.655,-12241.89,-8032.679999999999
1764434347.627949,-893.115,-10660.32,-39419.28,-27117.495,-23638.59,-21870.765,-12239.1,-8030.474999999999
1764434347.627949,-896.985,-10662.165,-39417.57,-27120.42,-23640.615,-21879.945,-12233.835,-8026.514999999999
1764434347.627949,-902.745,-10666.44,-39419.91,-27126.09,-23645.97,-21889.98,-12234.105,-8027.415
1764434347.627949,-903.06,-10666.035,-39420.135,-27126.72,-23645.7,-21889.215,-12235.23,-8027.82
1764434347.627949,-904.59,-10668.105,-39424.455,-27129.195,-23647.545,-21886.155,-12240.045,-8033.67
1764434347.627949,-898.11,-10663.515,-39422.52,-27122.67,-23641.965,-21875.4,-12240.99,-8033.67
1764434347.627949,-893.88,-10661.49,-39422.79,-27118.89,-23638.23,-21865.95,-12244.32,-8036.28
1764434347.627949,-890.73,-10659.96,-39422.925,-27116.28,-23636.475,-21858.795,-12247.695,-8038.349999999999
1764434347.627949,-888.615,-10658.025,-39420.945,-27113.715,-23635.26,-21857.94,-12245.85,-8036.009999999999
1764434347.627949,-888.93,-10657.125,-39418.38,-27114.21,-23636.07,-21862.98,-12241.395,-8031.915
1764434347.627949,-893.2049999999999,-10659.915,-39418.875,-27118.575,-23640.93,-21873.42,-12239.775,-8030.34
1764434347.627949,-900.045,-10665.225,-39421.44,-27125.595,-23646.915,-21887.37,-12239.28,-8030.7
1764434347.627949,-900.3149999999999,-10662.48,-39418.74,-27126.54,-23646.555,-21892.41,-12235.32,-8025.929999999999
1764434347.627949,-899.8199999999999,-10661.625,-39418.56,-27126.9,-23646.375,-21893.04,-12235.005,-8025.389999999999
1764434347.627949,-900.495,-10663.38,-39421.845,-27128.43,-23648.805,-21890.925,-12240.36,-8030.205
1764434347.6294875,-897.8399999999999,-10662.255,-39423.645,-27127.35,-23648.04,-21884.94,-12244.545,-8034.075
1764434347.6294875,-897.75,-10662.84,-39427.785,-27127.89,-23648.445,-21878.55,-12250.125,-8040.42
1764434347.6294875,-893.52,-10660.545,-39426.615,-27124.38,-23645.205,-21871.71,-12252.42,-8041.545
1764434347.6294875,-890.145,-10657.665,-39423.24,-27120.96,-23642.505,-21869.28,-12249.72,-8037.54
1764434347.6294875,-894.6899999999999,-10661.805,-39425.715,-27125.46,-23647.275,-21877.74,-12249.135,-8037.764999999999
1764434347.6294875,-896.625,-10661.94,-39422.79,-27127.215,-23647.725,-21884.13,-12245.94,-8033.219999999999
1764434347.6735568,-901.665,-10665.45,-39422.565,-27132.255,-23651.055,-21894.615,-12242.295,-8031.014999999999
1764434347.6735568,-901.08,-10662.12,-39418.155,-27130.05,-23648.94,-21896.73,-12236.445,-8024.94
1764434347.6735568,-902.565,-10663.515,-39420.045,-27130.905,-23649.48,-21896.46,-12238.02,-8026.875
1764434347.6735568,-903.555,-10666.125,-39424.23,-27132.21,-23649.39,-21892.77,-12242.52,-8032.724999999999
1764434347.6745763,-903.555,-10667.655,-39428.505,-27131.94,-23649.66,-21886.425,-12247.56,-8037.495
1764434347.6745763,-899.055,-10665.495,-39428.73,-27127.62,-23645.205,-21875.535,-12250.305,-8040.15
1764434347.6745763,-894.8249999999999,-10662.57,-39427.65,-27122.4,-23641.245,-21866.04,-12251.07,-8040.33
1764434347.6745763,-891.9449999999999,-10659.78,-39423.285,-27118.215,-23637.465,-21861.855,-12247.605,-8036.19
1764434347.6745763,-893.745,-10660.545,-39421.17,-27118.26,-23637.285,-21866.355,-12244.32,-8033.67
1764434347.6745763,-896.49,-10662.255,-39420.855,-27120.555,-23638.365,-21873.24,-12240.54,-8031.554999999999
1764434347.6745763,-899.37,-10663.245,-39419.595,-27123.345,-23640.57,-21882.33,-12235.05,-8027.73
1764434347.6755698,-904.41,-10667.07,-39421.98,-27129.555,-23646.195,-21892.095,-12235.095,-8028.224999999999
1764434347.6755698,-905.355,-10667.52,-39422.565,-27131.535,-23647.635,-21893.265,-12237.12,-8029.394999999999
1764434347.676079,-907.695,-10670.58,-39427.74,-27133.695,-23651.055,-21891.78,-12242.61,-8035.245
1764434347.676079,-903.015,-10667.385,-39426.84,-27129.78,-23648.22,-21882.24,-12243.915,-8035.83
1764434347.676079,-898.38,-10665.45,-39427.515,-27125.055,-23643.99,-21871.53,-12247.38,-8038.665
1764434347.6770878,-892.665,-10661.67,-39424.77,-27119.61,-23637.69,-21861.54,-12247.47,-8038.125
1764434347.6770878,-893.52,-10661.805,-39423.78,-27119.97,-23638.005,-21862.53,-12247.065,-8037.9
1764434347.6770878,-894.6899999999999,-10661.58,-39421.755,-27120.465,-23639.22,-21867.93,-12244.185,-8033.985
1764434347.6770878,-895.86,-10661.58,-39419.865,-27121.14,-23640.345,-21874.14,-12239.865,-8029.53
1764434347.678091,-901.26,-10665.135,-39420.675,-27126.72,-23645.115,-21884.985,-12237.165,-8028.09
1764434347.678091,-900.18,-10661.265,-39416.58,-27125.91,-23643.855,-21888.72,-12231.765,-8022.69
1764434347.679089,-900.3149999999999,-10660.995,-39417.075,-27126.945,-23644.665,-21889.35,-12232.35,-8023.95
1764434347.679089,-900.63,-10663.2,-39420.99,-27128.565,-23645.745,-21886.92,-12237.66,-8029.215
1764434347.7231393,-898.515,-10662.795,-39422.07,-27127.125,-23644.17,-21879.54,-12241.17,-8033.13
1764434347.7231393,-897.75,-10663.56,-39424.995,-27126.27,-23643.99,-21871.89,-12246.57,-8039.25
1764434347.7231393,-891.765,-10659.285,-39422.07,-27119.655,-23638.455,-21861.765,-12246.255,-8037.9
1764434347.7246563,-891.63,-10659.42,-39422.16,-27118.98,-23637.78,-21862.575,-12246.255,-8036.865
1764434347.7246563,-894.87,-10661.445,-39421.935,-27121.23,-23639.58,-21869.28,-12244.77,-8035.83
1764434347.7246563,-900.81,-10665.675,-39423.78,-27126.945,-23644.485,-21879.855,-12243.555,-8035.74
1764434347.7246563,-902.34,-10664.82,-39421.125,-27128.25,-23645.835,-21886.695,-12238.335,-8030.429999999999
1764434347.7246563,-905.355,-10666.755,-39421.8,-27131.715,-23648.715,-21894.255,-12236.58,-8030.115
1764434347.7246563,-905.94,-10666.98,-39422.79,-27132.57,-23648.895,-21894.705,-12236.715,-8031.285
1764434347.7246563,-908.145,-10670.49,-39427.65,-27134.865,-23651.82,-21893.265,-12242.205,-8037.36
1764434347.7246563,-903.42,-10667.385,-39427.515,-27131.04,-23648.445,-21883.32,-12244.455,-8038.665
1764434347.7246563,-897.165,-10664.145,-39426.03,-27125.325,-23643.135,-21871.845,-12246.615,-8039.115
1764434347.7246563,-897.3449999999999,-10665.72,-39428.955,-27125.1,-23643.405,-21868.875,-12251.295,-8044.019999999999
1764434347.7246563,-896.85,-10664.64,-39427.74,-27124.74,-23642.64,-21868.47,-12250.215,-8042.4
1764434347.7246563,-895.5899999999999,-10662.84,-39423.69,-27123.39,-23641.155,-21870.315,-12245.355,-8036.549999999999
1764434347.7246563,-897.7049999999999,-10663.605,-39422.115,-27124.605,-23643.63,-21877.83,-12242.745,-8033.715
1764434347.7246563,-901.8,-10666.035,-39421.845,-27127.8,-23646.915,-21887.595,-12239.01,-8030.384999999999
1764434347.7246563,-907.155,-10669.995,-39424.815,-27134.01,-23651.37,-21896.955,-12239.865,-8031.375
1764434347.7246563,-904.545,-10667.25,-39423.24,-27132.48,-23649.705,-21894.66,-12238.605,-8029.755
1764434347.7246563,-907.56,-10670.265,-39428.865,-27135.585,-23652.585,-21894.03,-12244.68,-8037.764999999999
1764434347.7246563,-904.32,-10668.6,-39429.27,-27132.93,-23649.75,-21885.57,-12247.965,-8040.24
1764434347.7246563,-899.8199999999999,-10665.0,-39428.955,-27128.385,-23645.655,-21874.68,-12251.07,-8042.445
1764434347.7246563,-893.3399999999999,-10660.68,-39426.12,-27122.85,-23640.57,-21865.23,-12250.485,-8040.105
1764434347.7246563,-894.8249999999999,-10663.425,-39427.335,-27124.38,-23641.965,-21868.155,-12250.89,-8040.87
1764434347.768576,-895.68,-10663.02,-39424.68,-27125.145,-23642.28,-21871.98,-12247.605,-8037.224999999999
1764434347.768576,-897.3,-10662.615,-39422.565,-27126.09,-23643.045,-21877.785,-12244.095,-8032.995
1764434347.7695775,-903.42,-10666.935,-39424.365,-27131.175,-23648.535,-21891.195,-12241.98,-8032.005
1764434347.7695775,-904.995,-10667.07,-39422.79,-27132.75,-23649.84,-21897.09,-12238.605,-8029.125
1764434347.7695775,-901.8,-10663.2,-39420.045,-27129.465,-23646.645,-21892.545,-12236.715,-8026.019999999999
1764434347.7695775,-903.24,-10665.765,-39424.815,-27131.49,-23648.76,-21890.34,-12241.8,-8032.724999999999
1764434347.7695775,-898.4699999999999,-10661.715,-39423.33,-27126.27,-23643.99,-21880.89,-12243.015,-8033.759999999999
1764434347.7695775,-896.7149999999999,-10662.48,-39426.48,-27124.65,-23642.865,-21872.745,-12248.01,-8039.25
1764434347.7695775,-890.865,-10657.98,-39423.24,-27118.71,-23636.97,-21862.845,-12247.155,-8037.495
1764434347.7695775,-891.3149999999999,-10658.295,-39422.655,-27119.16,-23637.105,-21863.475,-12247.02,-8037.54
1764434347.7695775,-896.4449999999999,-10662.75,-39424.815,-27123.435,-23641.38,-21872.34,-12246.795,-8038.394999999999
1764434347.7705722,-895.995,-10660.95,-39420.405,-27122.715,-23640.93,-21877.02,-12240.54,-8031.014999999999
1764434347.7705722,-901.44,-10664.595,-39421.08,-27127.845,-23646.06,-21889.215,-12238.065,-8029.17
1764434347.7705722,-903.465,-10665.27,-39420.405,-27130.005,-23648.22,-21895.02,-12235.545,-8027.73
1764434347.7705722,-900.855,-10662.48,-39418.065,-27127.98,-23645.475,-21891.42,-12234.195,-8025.389999999999
1764434347.7705722,-900.99,-10663.47,-39421.08,-27128.61,-23646.33,-21887.055,-12238.92,-8029.934999999999
1764434347.7705722,-897.12,-10661.355,-39421.755,-27125.595,-23643.495,-21878.64,-12240.36,-8032.59
1764434347.7705722,-895.4549999999999,-10661.04,-39424.23,-27124.11,-23641.74,-21870.045,-12245.13,-8037.674999999999
1764434347.7705722,-889.8299999999999,-10656.0,-39420.45,-27118.53,-23636.475,-21859.875,-12244.545,-8034.795
1764434347.7705722,-892.62,-10659.06,-39422.34,-27121.005,-23639.13,-21863.43,-12245.355,-8037.09
1764434347.8165388,-892.8449999999999,-10659.87,-39420.405,-27121.14,-23638.68,-21868.74,-12241.755,-8033.4
1764434347.8165388,-893.025,-10658.52,-39416.04,-27120.915,-23638.905,-21873.69,-12236.805,-8027.37
1764434347.817048,-897.03,-10660.14,-39414.645,-27124.29,-23641.965,-21883.365,-12232.62,-8024.309999999999
1764434347.817048,-899.865,-10661.265,-39415.41,-27127.53,-23644.35,-21890.25,-12230.01,-8022.554999999999
1764434347.817048,-902.07,-10664.28,-39418.875,-27130.365,-23646.555,-21892.995,-12234.33,-8026.155
1764434347.817048,-904.275,-10668.735,-39424.41,-27134.415,-23649.975,-21892.68,-12241.755,-8034.12
1764434347.817048,-900.405,-10666.98,-39424.23,-27130.995,-23646.465,-21883.815,-12244.365,-8036.235
1764434347.817048,-895.41,-10663.155,-39423.915,-27125.28,-23642.325,-21872.295,-12247.38,-8037.719999999999
1764434347.817048,-894.78,-10663.245,-39426.075,-27123.705,-23641.65,-21867.39,-12250.62,-8040.87
1764434347.817048,-891.675,-10660.365,-39421.215,-27119.97,-23638.23,-21864.195,-12247.47,-8036.28
1764434347.817048,-893.295,-10661.49,-39420.045,-27121.905,-23639.445,-21869.82,-12244.815,-8033.715
1764434347.817048,-898.245,-10664.37,-39420.945,-27126.63,-23644.215,-21880.215,-12242.79,-8032.995
1764434347.817048,-903.87,-10667.52,-39422.295,-27132.165,-23649.255,-21892.275,-12241.575,-8031.15
1764434347.817048,-905.67,-10667.295,-39420.945,-27133.965,-23649.615,-21897.63,-12238.695,-8028.809999999999
1764434347.817048,-901.305,-10662.57,-39417.705,-27130.005,-23645.655,-21892.68,-12236.13,-8026.38
1764434347.817048,-901.395,-10663.605,-39420.945,-27130.14,-23646.015,-21888.72,-12240.855,-8030.565
1764434347.817048,-899.505,-10663.38,-39422.79,-27128.61,-23644.665,-21881.97,-12245.175,-8034.165
1764434347.817048,-899.145,-10666.08,-39427.74,-27128.925,-23645.52,-21875.4,-12251.205,-8041.41
1764434347.817048,-895.905,-10664.37,-39426.795,-27125.145,-23642.055,-21868.155,-12252.42,-8041.5
1764434347.817048,-893.295,-10661.58,-39423.15,-27122.13,-23639.265,-21866.985,-12250.755,-8038.44
1764434347.817048,-894.9599999999999,-10661.355,-39421.98,-27123.48,-23640.705,-21872.655,-12248.325,-8036.19
1764434347.817048,-896.04,-10662.075,-39419.28,-27124.785,-23642.1,-21879.54,-12243.69,-8031.87
1764434347.817048,-899.1899999999999,-10662.345,-39417.345,-27127.125,-23644.305,-21889.44,-12238.47,-8027.099999999999
1764434347.817048,-901.44,-10662.795,-39416.49,-27130.005,-23645.97,-21894.975,-12235.41,-8024.355
1764434347.8608823,-900.045,-10662.345,-39416.445,-27129.105,-23645.655,-21893.355,-12234.015,-8024.174999999999
1764434347.8608823,-902.565,-10666.44,-39422.07,-27131.94,-23650.02,-21893.13,-12241.125,-8032.005
1764434347.8608823,-898.245,-10663.2,-39421.755,-27128.655,-23647.095,-21884.805,-12243.6,-8033.58
1764434347.8608823,-893.2049999999999,-10659.555,-39422.025,-27124.335,-23642.73,-21873.69,-12246.255,-8035.965
1764434347.8608823,-887.985,-10656.495,-39419.73,-27118.755,-23637.78,-21864.645,-12245.895,-8035.155
1764434347.8608823,-891.63,-10659.915,-39421.17,-27121.95,-23639.265,-21868.335,-12247.47,-8037.09
1764434347.8608823,-892.17,-10659.915,-39418.38,-27122.67,-23639.13,-21873.42,-12243.69,-8033.219999999999
1764434347.8608823,-891.36,-10657.71,-39413.88,-27120.6,-23638.545,-21877.695,-12237.705,-8025.884999999999
1764434347.8608823,-895.545,-10658.7,-39413.475,-27123.93,-23641.56,-21888.18,-12233.88,-8022.825
1764434347.8608823,-899.55,-10661.22,-39415.005,-27128.34,-23645.565,-21895.155,-12232.35,-8022.735
1764434347.8608823,-897.3449999999999,-10659.105,-39413.34,-27126.99,-23644.44,-21892.32,-12231.81,-8022.33
1764434347.8608823,-898.6949999999999,-10660.77,-39417.93,-27128.97,-23646.015,-21889.98,-12237.255,-8028.495
1764434347.8608823,-894.555,-10658.655,-39417.84,-27125.145,-23642.775,-21880.89,-12239.865,-8030.519999999999
1764434347.8608823,-893.5649999999999,-10659.24,-39421.08,-27123.705,-23641.92,-21873.06,-12245.13,-8035.965
1764434347.8608823,-887.13,-10654.38,-39417.75,-27117.72,-23636.025,-21863.52,-12243.825,-8033.445
1764434347.8608823,-888.8399999999999,-10657.26,-39419.01,-27119.745,-23638.365,-21866.175,-12243.645,-8034.389999999999
1764434347.8608823,-890.37,-10658.07,-39417.84,-27122.175,-23640.255,-21872.295,-12242.7,-8032.139999999999
1764434347.8608823,-890.055,-10655.415,-39413.25,-27121.185,-23639.13,-21877.155,-12236.94,-8025.389999999999
1764434347.8608823,-893.925,-10656.81,-39412.35,-27123.48,-23641.74,-21886.83,-12231.72,-8020.844999999999
1764434347.8608823,-895.275,-10656.405,-39411.045,-27123.885,-23642.73,-21890.97,-12227.94,-8017.695
1764434347.8608823,-895.5899999999999,-10656.54,-39411.765,-27124.29,-23643.45,-21890.745,-12228.975,-8018.91
1764434347.8608823,-895.365,-10657.44,-39415.275,-27125.01,-23643.72,-21886.47,-12233.205,-8023.23
1764434347.8608823,-888.795,-10652.895,-39412.89,-27118.98,-23637.33,-21874.995,-12234.555,-8023.184999999999
1764434347.8608823,-885.6899999999999,-10652.4,-39414.24,-27115.965,-23633.91,-21865.14,-12238.245,-8027.37
1764434347.9048936,-885.87,-10653.48,-39416.265,-27115.92,-23634.0,-21861.495,-12241.575,-8031.33
1764434347.9048936,-881.37,-10648.98,-39410.595,-27110.565,-23629.725,-21858.48,-12237.615,-8024.985
1764434347.9048936,-883.755,-10648.98,-39409.74,-27112.365,-23631.03,-21864.33,-12234.15,-8022.15
1764434347.9048936,-888.39,-10652.445,-39410.64,-27116.595,-23634.63,-21873.69,-12231.27,-8021.025
1764434347.9054265,-889.6949999999999,-10652.04,-39407.535,-27117.405,-23634.81,-21881.16,-12225.465,-8015.49
1764434347.9054265,-892.7099999999999,-10653.39,-39408.165,-27120.465,-23637.915,-21887.865,-12224.07,-8015.355
1764434347.9054265,-891.0,-10651.365,-39406.995,-27118.71,-23635.89,-21885.435,-12223.8,-8014.455
1764434347.9054265,-893.2049999999999,-10654.245,-39412.26,-27121.59,-23638.005,-21883.41,-12229.245,-8020.44
1764434347.9054265,-890.8199999999999,-10652.805,-39413.655,-27119.115,-23635.665,-21874.995,-12233.88,-8024.13
1764434347.9054265,-883.665,-10648.935,-39412.215,-27112.32,-23628.645,-21862.395,-12235.905,-8025.344999999999
1764434347.9054265,-883.0799999999999,-10649.88,-39412.935,-27111.105,-23628.06,-21857.895,-12238.92,-8028.54
1764434347.9054265,-885.4649999999999,-10652.94,-39415.005,-27113.805,-23630.85,-21860.82,-12239.415,-8030.115
1764434347.9054265,-884.6999999999999,-10650.6,-39410.46,-27111.87,-23629.14,-21863.745,-12234.285,-8024.4
1764434347.9054265,-888.5699999999999,-10653.255,-39409.695,-27115.065,-23632.965,-21873.015,-12231.36,-8021.835
1764434347.9054265,-890.415,-10652.625,-39406.77,-27116.64,-23633.82,-21880.35,-12225.78,-8016.255
1764434347.9054265,-892.62,-10654.11,-39408.525,-27120.105,-23637.42,-21886.2,-12224.205,-8015.49
1764434347.9054265,-887.7149999999999,-10649.43,-39405.42,-27115.92,-23632.875,-21880.935,-12221.505,-8012.295
1764434347.9054265,-887.5799999999999,-10650.375,-39408.03,-27116.46,-23632.155,-21876.885,-12225.915,-8016.884999999999
1764434347.9064388,-887.265,-10652.175,-39412.035,-27117.045,-23632.47,-21871.755,-12230.865,-8022.509999999999
1764434347.9064388,-882.0899999999999,-10648.8,-39411.63,-27112.77,-23628.51,-21860.505,-12232.98,-8024.13
1764434347.9064388,-876.8249999999999,-10644.795,-39408.165,-27106.245,-23623.695,-21851.64,-12232.08,-8021.79
1764434347.9064388,-876.915,-10645.2,-39406.635,-27104.715,-23623.425,-21852.405,-12230.28,-8019.179999999999
1764434347.9064388,-878.2199999999999,-10645.965,-39405.33,-27105.705,-23624.19,-21857.13,-12226.095,-8015.985
1764434347.9064388,-883.305,-10648.215,-39406.05,-27110.61,-23628.375,-21866.985,-12224.295,-8015.535
1764434347.9522789,-891.36,-10653.21,-39409.065,-27118.305,-23635.53,-21881.295,-12224.745,-8016.03
1764434347.9522789,-891.7199999999999,-10651.86,-39406.5,-27118.26,-23635.71,-21884.31,-12220.38,-8012.07
1764434347.9522789,-885.3299999999999,-10645.065,-39401.595,-27112.365,-23630.175,-21877.38,-12215.925,-8007.389999999999
1764434347.9522789,-883.305,-10644.03,-39402.81,-27110.79,-23628.42,-21871.755,-12219.435,-8010.269999999999
1764434347.9522789,-878.9399999999999,-10642.095,-39402.54,-27107.28,-23625.54,-21863.205,-12222.135,-8012.16
1764434347.9522789,-874.2149999999999,-10639.755,-39401.685,-27102.78,-23621.67,-21852.315,-12223.89,-8014.455
1764434347.9532957,-872.505,-10639.26,-39402.945,-27100.89,-23620.365,-21847.815,-12225.825,-8017.11
1764434347.9543004,-873.225,-10640.52,-39402.72,-27102.33,-23621.265,-21850.065,-12225.105,-8016.615
1764434347.9543004,-873.3149999999999,-10638.9,-39399.03,-27101.475,-23620.05,-21853.08,-12220.92,-8011.349999999999
1764434347.9543004,-877.905,-10642.05,-39400.065,-27105.975,-23624.145,-21863.07,-12218.265,-8010.134999999999
1764434347.9543004,-879.795,-10642.005,-39397.815,-27107.685,-23626.305,-21872.115,-12212.865,-8005.365
1764434347.9543004,-884.025,-10643.85,-39399.3,-27112.14,-23629.815,-21878.955,-12211.785,-8005.545
1764434347.9543004,-881.37,-10641.69,-39398.31,-27110.07,-23627.97,-21875.805,-12211.875,-8005.455
1764434347.9543004,-882.18,-10643.76,-39402.135,-27111.465,-23629.32,-21872.565,-12216.645,-8010.945
1764434347.9543004,-879.7049999999999,-10642.68,-39403.89,-27109.98,-23626.935,-21865.05,-12220.155,-8013.735
1764434347.9543004,-876.8249999999999,-10641.195,-39405.015,-27106.83,-23623.605,-21856.095,-12225.375,-8018.144999999999
1764434347.9543004,-874.4399999999999,-10640.34,-39405.015,-27104.895,-23621.94,-21851.055,-12226.905,-8019.495
1764434347.9543004,-874.665,-10641.24,-39403.665,-27104.625,-23622.12,-21852.54,-12226.365,-8017.83
1764434347.9543004,-875.025,-10641.375,-39400.83,-27104.31,-23621.58,-21855.87,-12222.405,-8013.69
1764434347.9543004,-875.3399999999999,-10639.53,-39396.15,-27103.635,-23620.5,-21860.1,-12217.23,-8007.615
1764434347.9543004,-877.725,-10639.89,-39394.17,-27106.155,-23622.03,-21868.785,-12210.57,-8002.44
1764434347.9543004,-882.99,-10643.76,-39398.04,-27111.51,-23627.07,-21877.92,-12211.335,-8004.42
1764434348.0001316,-879.3,-10640.205,-39395.79,-27107.82,-23624.235,-21873.87,-12210.3,-8002.98
1764434348.0001316,-877.725,-10639.035,-39397.005,-27107.01,-23623.38,-21867.84,-12213.72,-8006.58
1764434348.0001316,-874.0799999999999,-10637.73,-39398.04,-27104.58,-23621.085,-21859.29,-12217.005,-8009.505
1764434348.0001316,-871.29,-10636.83,-39399.03,-27101.115,-23618.295,-21850.02,-12221.415,-8013.465
1764434348.0001316,-871.92,-10638.27,-39401.055,-27101.295,-23618.205,-21847.095,-12224.115,-8016.66
1764434348.0001316,-871.6949999999999,-10638.135,-39398.94,-27100.575,-23617.35,-21847.68,-12222.54,-8014.005
1764434348.0001316,-871.6949999999999,-10636.56,-39395.655,-27100.215,-23616.405,-21851.19,-12218.175,-8008.514999999999
1764434348.0001316,-877.23,-10640.25,-39397.095,-27105.345,-23620.815,-21861.495,-12216.195,-8007.84
1764434348.0001316,-879.7049999999999,-10640.88,-39395.565,-27107.415,-23623.245,-21870.63,-12211.695,-8003.16
1764434348.0001316,-876.06,-10636.29,-39390.12,-27104.625,-23620.59,-21870.54,-12205.215,-7996.23
1764434348.0001316,-878.4449999999999,-10638.945,-39393.945,-27108.27,-23623.2,-21871.35,-12209.715,-8001.0
1764434348.0001316,-879.795,-10640.925,-39398.715,-27109.8,-23624.595,-21868.29,-12215.835,-8006.715
1764434348.0001316,-876.645,-10640.025,-39399.525,-27106.965,-23622.57,-21860.505,-12218.94,-8009.505
1764434348.0001316,-874.89,-10640.79,-39403.26,-27106.02,-23621.49,-21852.9,-12224.16,-8015.49
1764434348.0001316,-870.93,-10638.855,-39402.09,-27102.465,-23618.07,-21846.195,-12224.97,-8015.04
1764434348.0001316,-868.4549999999999,-10637.055,-39398.4,-27099.585,-23614.875,-21845.565,-12222.405,-8011.215
1764434348.0001316,-870.93,-10637.955,-39396.87,-27101.07,-23616.135,-21852.18,-12219.12,-8008.605
1764434348.0001316,-875.9699999999999,-10641.285,-39396.87,-27105.39,-23620.815,-21862.62,-12216.33,-8007.795
1764434348.0001316,-879.525,-10642.68,-39395.835,-27108.72,-23623.65,-21872.205,-12212.595,-8003.655
1764434348.0001316,-879.8399999999999,-10641.69,-39394.575,-27108.9,-23623.38,-21875.49,-12209.445,-8000.46
1764434348.0001316,-876.42,-10638.99,-39393.63,-27107.01,-23620.815,-21871.53,-12209.58,-7999.965
1764434348.0001316,-876.555,-10639.845,-39397.275,-27108.045,-23621.22,-21867.345,-12214.755,-8005.769999999999
1764434348.0450945,-876.06,-10641.195,-39401.505,-27107.28,-23620.995,-21861.27,-12219.75,-8010.809999999999
1764434348.0450945,-870.3449999999999,-10637.46,-39399.255,-27101.25,-23616.27,-21849.435,-12221.955,-8011.71
1764434348.0450945,-867.42,-10635.795,-39397.68,-27098.325,-23613.75,-21843.495,-12222.45,-8010.99
1764434348.0450945,-868.14,-10636.02,-39396.465,-27098.1,-23613.3,-21844.98,-12220.965,-8009.37
1764434348.0450945,-871.8299999999999,-10638.81,-39397.05,-27101.7,-23616.585,-21853.305,-12220.065,-8008.245
1764434348.0450945,-876.015,-10641.33,-39397.23,-27105.03,-23620.275,-21862.215,-12217.23,-8006.804999999999
1764434348.0450945,-883.395,-10646.19,-39399.525,-27111.51,-23626.215,-21875.4,-12215.115,-8006.58
1764434348.0450945,-883.665,-10645.425,-39398.58,-27113.085,-23627.385,-21879.54,-12213.27,-8004.644999999999
1764434348.0450945,-879.75,-10641.375,-39395.745,-27109.89,-23624.37,-21874.455,-12212.28,-8002.755
1764434348.0450945,-883.2149999999999,-10645.2,-39401.595,-27113.4,-23627.79,-21873.285,-12219.615,-8010.99
1764434348.0450945,-879.7049999999999,-10643.895,-39402.585,-27110.475,-23625.045,-21864.825,-12223.26,-8014.139999999999
1764434348.0466027,-873.7199999999999,-10639.89,-39401.91,-27104.49,-23619.465,-21852.495,-12225.15,-8015.49
1764434348.0466027,-871.0649999999999,-10638.855,-39401.19,-27101.52,-23617.485,-21847.68,-12227.13,-8016.299999999999
1764434348.0466027,-872.055,-10639.89,-39399.885,-27101.88,-23617.665,-21850.47,-12225.78,-8014.95
1764434348.0466027,-875.0699999999999,-10641.465,-39399.48,-27104.085,-23619.42,-21856.455,-12222.63,-8012.474999999999
1764434348.0466027,-880.425,-10643.805,-39399.795,-27107.73,-23623.74,-21866.445,-12221.055,-8010.99
1764434348.0466027,-887.355,-10648.035,-39402.09,-27113.895,-23629.995,-21879.27,-12219.705,-8010.855
1764434348.0466027,-887.175,-10646.595,-39400.515,-27113.265,-23629.725,-21881.43,-12217.365,-8008.019999999999
1764434348.0466027,-886.4549999999999,-10646.415,-39400.92,-27113.4,-23630.13,-21879.405,-12219.615,-8009.684999999999
1764434348.0466027,-884.43,-10646.37,-39402.27,-27113.13,-23630.49,-21873.915,-12223.62,-8013.915
1764434348.048136,-883.305,-10646.73,-39405.69,-27112.59,-23629.41,-21866.895,-12227.22,-8018.549999999999
1764434348.048136,-880.4699999999999,-10646.145,-39407.265,-27110.07,-23626.665,-21858.12,-12232.8,-8022.644999999999
1764434348.0486145,-876.24,-10642.275,-39404.16,-27104.895,-23621.895,-21850.965,-12232.485,-8021.519999999999
1764434348.0486145,-878.5799999999999,-10643.805,-39404.295,-27106.245,-23623.515,-21854.07,-12231.585,-8021.205
1764434348.0928817,-878.13,-10642.005,-39400.74,-27105.885,-23623.065,-21857.805,-12225.87,-8016.344999999999
1764434348.0928817,-884.925,-10646.955,-39402.855,-27111.915,-23628.51,-21869.73,-12224.7,-8015.804999999999
1764434348.0928817,-888.435,-10648.485,-39402.18,-27114.795,-23631.66,-21879.765,-12220.92,-8011.98
1764434348.0928817,-889.02,-10648.395,-39401.415,-27115.605,-23631.975,-21883.23,-12218.535,-8009.594999999999
1764434348.0928817,-887.67,-10646.82,-39402.09,-27114.57,-23630.715,-21880.08,-12220.065,-8010.495
1764434348.0928817,-891.18,-10651.095,-39408.885,-27118.35,-23634.9,-21878.955,-12228.75,-8018.82
1764434348.0928817,-886.68,-10648.395,-39408.93,-27115.29,-23631.66,-21870.27,-12231.54,-8021.61
1764434348.0928817,-879.48,-10643.715,-39406.14,-27108.0,-23625.18,-21857.49,-12233.34,-8022.014999999999
1764434348.0928817,-877.77,-10644.165,-39406.185,-27105.705,-23623.02,-21853.215,-12235.185,-8022.915
1764434348.0928817,-882.63,-10650.195,-39409.425,-27110.745,-23627.79,-21860.415,-12238.155,-8025.615
1764434348.0928817,-886.905,-10652.265,-39409.02,-27113.535,-23630.445,-21868.245,-12235.905,-8023.995
1764434348.0928817,-889.4699999999999,-10653.3,-39407.445,-27116.82,-23633.055,-21876.57,-12231.945,-8020.755
1764434348.0928817,-893.385,-10654.92,-39406.77,-27119.745,-23635.89,-21885.57,-12228.39,-8016.299999999999
1764434348.0928817,-894.42,-10654.92,-39407.67,-27121.455,-23636.7,-21889.395,-12226.77,-8014.724999999999
1764434348.0928817,-892.755,-10652.985,-39407.49,-27120.465,-23635.08,-21885.84,-12227.265,-8015.804999999999
1764434348.0928817,-895.5899999999999,-10656.765,-39413.07,-27123.525,-23638.815,-21884.31,-12234.465,-8023.545
1764434348.0928817,-892.665,-10656.18,-39415.185,-27121.77,-23636.97,-21876.3,-12238.83,-8026.695
1764434348.0928817,-888.525,-10653.84,-39415.455,-27118.35,-23633.55,-21865.905,-12241.89,-8030.205
1764434348.0944405,-886.4549999999999,-10652.265,-39415.185,-27115.965,-23630.355,-21860.82,-12242.475,-8030.205
1764434348.0944405,-887.895,-10653.93,-39413.97,-27115.83,-23630.625,-21863.25,-12240.54,-8027.865
1764434348.0944405,-890.505,-10655.325,-39413.07,-27117.72,-23632.515,-21869.865,-12237.705,-8024.894999999999
1764434348.0944405,-893.79,-10657.35,-39412.215,-27121.14,-23635.44,-21879.18,-12234.69,-8022.465
1764434348.139935,-897.3449999999999,-10658.07,-39411.495,-27124.515,-23637.96,-21888.045,-12230.595,-8019.134999999999
1764434348.139935,-897.93,-10656.63,-39410.055,-27124.92,-23638.23,-21891.24,-12228.03,-8017.245
1764434348.139935,-895.77,-10655.505,-39409.92,-27124.11,-23638.14,-21889.17,-12229.515,-8018.415
1764434348.139935,-898.875,-10660.005,-39417.03,-27127.62,-23641.83,-21888.18,-12237.795,-8026.2
1764434348.139935,-896.265,-10657.26,-39417.885,-27124.02,-23638.05,-21878.37,-12240.945,-8028.99
1764434348.139935,-888.5699999999999,-10653.12,-39414.915,-27116.865,-23632.02,-21864.645,-12242.115,-8028.99
1764434348.139935,-885.42,-10651.77,-39413.745,-27114.075,-23629.14,-21859.56,-12242.115,-8029.44
1764434348.139935,-886.365,-10652.715,-39413.34,-27114.93,-23629.455,-21862.575,-12241.17,-8027.594999999999
1764434348.139935,-889.425,-10654.965,-39413.34,-27117.225,-23632.245,-21869.955,-12238.83,-8025.615
1764434348.139935,-897.03,-10660.32,-39416.085,-27123.21,-23638.725,-21882.105,-12238.02,-8026.335
1764434348.139935,-901.08,-10662.03,-39415.14,-27127.44,-23641.875,-21891.825,-12234.015,-8023.905
1764434348.139935,-901.575,-10661.58,-39413.88,-27128.745,-23641.83,-21895.065,-12231.72,-8021.924999999999
1764434348.139935,-898.38,-10658.565,-39413.205,-27126.495,-23638.905,-21890.43,-12231.405,-8021.025
1764434348.139935,-899.73,-10661.13,-39418.155,-27128.07,-23641.47,-21887.37,-12238.065,-8028.045
1764434348.139935,-895.545,-10659.06,-39418.605,-27124.875,-23638.545,-21878.73,-12240.945,-8030.115
1764434348.139935,-892.665,-10658.115,-39420.18,-27121.905,-23636.025,-21869.865,-12246.255,-8034.929999999999
1764434348.139935,-890.5949999999999,-10657.395,-39419.055,-27119.565,-23634.18,-21864.915,-12247.425,-8035.065
1764434348.139935,-889.0649999999999,-10655.73,-39416.22,-27118.395,-23631.885,-21864.915,-12244.455,-8031.059999999999
1764434348.139935,-894.4649999999999,-10659.465,-39418.29,-27122.985,-23636.655,-21874.23,-12243.78,-8031.644999999999
1764434348.139935,-897.5699999999999,-10660.23,-39417.03,-27125.055,-23637.87,-21881.52,-12239.55,-8027.865
1764434348.139935,-902.745,-10663.83,-39417.75,-27130.275,-23642.505,-21893.085,-12236.4,-8025.929999999999
1764434348.139935,-902.7,-10662.255,-39416.31,-27130.05,-23642.28,-21895.425,-12233.16,-8023.32
1764434348.139935,-898.92,-10658.79,-39414.15,-27126.54,-23639.58,-21889.53,-12232.53,-8022.24
1764434348.139935,-899.9549999999999,-10660.32,-39417.48,-27127.44,-23641.155,-21885.705,-12239.1,-8027.325
1764434348.1854196,-896.13,-10658.43,-39417.84,-27124.065,-23638.23,-21877.335,-12242.16,-8029.665
1764434348.1854196,-894.24,-10658.385,-39420.72,-27123.12,-23636.43,-21869.01,-12247.02,-8035.514999999999
1764434348.1854196,-892.8,-10657.845,-39420.72,-27120.96,-23634.765,-21864.105,-12248.64,-8036.099999999999
1764434348.1854196,-891.27,-10657.215,-39417.84,-27119.565,-23633.055,-21865.59,-12246.39,-8032.59
1764434348.186421,-889.74,-10654.02,-39412.44,-27116.775,-23630.805,-21868.065,-12239.955,-8025.299999999999
1764434348.186421,-893.5649999999999,-10656.045,-39411.63,-27120.015,-23633.82,-21876.795,-12235.995,-8022.42
1764434348.186421,-898.8299999999999,-10658.385,-39412.035,-27125.28,-23638.005,-21888.495,-12233.52,-8020.62
1764434348.186421,-899.1899999999999,-10658.835,-39411.99,-27126.81,-23639.175,-21892.14,-12231.99,-8019.54
1764434348.186421,-898.38,-10658.88,-39413.205,-27126.72,-23638.95,-21889.395,-12233.97,-8021.655
1764434348.186421,-900.3149999999999,-10662.795,-39418.515,-27128.745,-23641.515,-21886.605,-12240.54,-8028.54
1764434348.186421,-899.775,-10664.55,-39422.025,-27128.925,-23641.29,-21880.125,-12247.02,-8035.424999999999
1764434348.186421,-894.6,-10660.59,-39420.135,-27122.895,-23635.035,-21868.245,-12249.81,-8036.594999999999
1764434348.186421,-894.78,-10662.075,-39421.035,-27122.22,-23633.865,-21864.78,-12251.655,-8038.53
1764434348.1875062,-893.745,-10660.95,-39418.83,-27121.23,-23631.795,-21865.41,-12249.27,-8035.11
1764434348.1875062,-892.35,-10658.34,-39413.43,-27119.16,-23630.04,-21867.795,-12242.475,-8028.495
1764434348.1875062,-897.885,-10660.905,-39413.97,-27123.48,-23633.685,-21878.01,-12239.685,-8027.415
1764434348.1875062,-905.355,-10665.54,-39417.615,-27130.365,-23640.345,-21891.51,-12239.82,-8028.224999999999
1764434348.1875062,-905.22,-10664.955,-39416.58,-27130.86,-23640.795,-21893.535,-12238.02,-8025.884999999999
1764434348.1875062,-900.18,-10660.365,-39413.115,-27126.36,-23636.745,-21887.055,-12235.95,-8023.634999999999
1764434348.1875062,-901.215,-10662.975,-39417.66,-27128.07,-23638.86,-21885.795,-12242.43,-8030.07
1764434348.1875062,-897.615,-10660.05,-39418.29,-27125.055,-23637.24,-21877.425,-12245.985,-8032.86
1764434348.1875062,-892.305,-10655.955,-39416.49,-27119.925,-23632.065,-21865.905,-12248.595,-8033.67
1764434348.1885068,-890.01,-10654.425,-39415.095,-27117.045,-23629.95,-21862.305,-12248.235,-8032.59
1764434348.1885068,-891.99,-10655.595,-39415.14,-27118.485,-23631.795,-21867.03,-12248.1,-8031.915
1764434348.2291384,-894.9599999999999,-10657.89,-39415.275,-27121.545,-23634.405,-21875.49,-12246.57,-8030.924999999999
1764434348.2291384,-900.99,-10662.12,-39416.895,-27127.08,-23640.93,-21886.74,-12244.59,-8030.474999999999
1764434348.2291384,-904.455,-10663.425,-39416.175,-27129.96,-23644.62,-21896.955,-12241.215,-8026.965
1764434348.2291384,-904.905,-10662.795,-39415.95,-27132.12,-23646.375,-21901.005,-12240.81,-8025.795
1764434348.2291384,-900.855,-10659.015,-39414.33,-27130.005,-23643.765,-21896.325,-12240.675,-8024.67
1764434348.2291384,-902.34,-10662.57,-39419.415,-27133.245,-23647.05,-21895.38,-12247.56,-8032.32
1764434348.2291384,-896.355,-10658.97,-39418.425,-27128.07,-23642.19,-21885.03,-12249.99,-8032.679999999999
1764434348.2291384,-891.9449999999999,-10656.18,-39418.965,-27123.975,-23638.77,-21874.32,-12253.545,-8035.605
1764434348.2291384,-891.135,-10655.37,-39417.93,-27121.455,-23636.835,-21869.01,-12253.41,-8035.965
1764434348.2291384,-895.86,-10659.96,-39419.73,-27124.29,-23638.77,-21874.14,-12253.95,-8037.764999999999
1764434348.2301524,-898.785,-10660.995,-39418.29,-27125.865,-23639.355,-21879.765,-12250.665,-8035.155
1764434348.2301524,-902.205,-10662.615,-39417.345,-27128.295,-23641.2,-21887.73,-12247.155,-8031.69
1764434348.2301524,-904.365,-10663.065,-39415.365,-27131.04,-23642.775,-21895.47,-12242.205,-8027.28
1764434348.2301524,-904.185,-10661.85,-39413.43,-27130.905,-23641.785,-21896.775,-12238.92,-8024.355
1764434348.2301524,-905.805,-10663.065,-39416.94,-27131.67,-23642.595,-21894.435,-12242.295,-8027.865
1764434348.2301524,-906.885,-10666.08,-39422.115,-27133.74,-23643.99,-21890.385,-12248.775,-8035.155
1764434348.2301524,-902.88,-10662.795,-39422.07,-27129.105,-23639.49,-21879.54,-12251.07,-8037.405
1764434348.2301524,-899.28,-10660.455,-39421.62,-27124.38,-23634.765,-21868.2,-12253.365,-8039.924999999999
1764434348.2301524,-897.03,-10659.6,-39420.27,-27121.68,-23632.92,-21865.05,-12253.59,-8039.61
1764434348.2301524,-897.48,-10660.455,-39419.145,-27121.68,-23633.865,-21868.65,-12252.195,-8037.405
1764434348.2301524,-896.31,-10658.655,-39414.69,-27120.465,-23632.965,-21872.565,-12246.12,-8030.655
1764434348.2301524,-902.295,-10662.525,-39416.355,-27125.955,-23638.185,-21884.58,-12243.915,-8029.844999999999
1764434348.2800052,-907.29,-10665.0,-39416.985,-27130.995,-23642.46,-21895.155,-12242.43,-8028.36
1764434348.2800052,-907.695,-10664.595,-39415.59,-27131.445,-23642.955,-21897.675,-12240.72,-8026.92
1764434348.2800052,-900.4499999999999,-10658.25,-39411.18,-27124.785,-23636.79,-21889.53,-12237.255,-8022.195
1764434348.2800052,-899.505,-10658.52,-39414.42,-27125.415,-23637.42,-21885.525,-12241.8,-8026.605
1764434348.280516,-899.1,-10659.78,-39418.02,-27126.315,-23638.05,-21880.26,-12247.155,-8033.49
1764434348.280516,-895.41,-10658.655,-39417.975,-27122.94,-23634.54,-21870.765,-12251.205,-8037.315
1764434348.280516,-891.0,-10655.595,-39415.23,-27118.71,-23630.175,-21864.645,-12251.295,-8034.84
1764434348.280516,-895.4549999999999,-10659.78,-39418.65,-27121.59,-23633.415,-21870.945,-12252.24,-8036.144999999999
1764434348.280516,-897.165,-10659.42,-39416.715,-27122.67,-23634.765,-21876.39,-12248.19,-8032.005
1764434348.280516,-902.43,-10662.525,-39416.31,-27126.9,-23639.94,-21887.19,-12245.445,-8030.429999999999
1764434348.280516,-905.4,-10663.515,-39415.41,-27130.41,-23642.37,-21896.145,-12241.35,-8027.099999999999
1764434348.280516,-902.835,-10660.68,-39412.845,-27129.24,-23640.435,-21895.605,-12237.345,-8022.644999999999
1764434348.280516,-903.69,-10661.895,-39415.455,-27130.86,-23641.47,-21894.975,-12240.54,-8026.469999999999
1764434348.280516,-906.03,-10665.405,-39421.845,-27132.84,-23643.63,-21893.175,-12248.865,-8034.344999999999
1764434348.280516,-899.55,-10661.31,-39420.135,-27126.945,-23638.14,-21880.53,-12250.125,-8034.389999999999
1764434348.280516,-898.4699999999999,-10660.995,-39423.825,-27126.135,-23637.375,-21873.195,-12255.84,-8040.509999999999
1764434348.280516,-894.78,-10658.205,-39421.35,-27122.4,-23633.64,-21867.795,-12255.57,-8039.34
1764434348.280516,-896.5799999999999,-10659.42,-39420.09,-27123.48,-23634.855,-21871.53,-12254.175,-8037.045
1764434348.280516,-899.8199999999999,-10661.625,-39419.64,-27126.855,-23637.735,-21878.19,-12250.89,-8034.48
1764434348.280516,-905.265,-10665.315,-39420.99,-27132.3,-23642.64,-21889.305,-12249.0,-8033.309999999999
1764434348.280516,-904.275,-10661.94,-39415.68,-27130.995,-23640.435,-21894.66,-12241.575,-8025.75
1764434348.280516,-905.04,-10662.615,-39415.77,-27132.66,-23641.965,-21898.395,-12240.18,-8025.255
1764434348.280516,-906.255,-10664.37,-39419.19,-27135.315,-23644.485,-21897.54,-12244.545,-8029.844999999999
1764434348.280516,-906.615,-10665.99,-39423.15,-27135.045,-23644.89,-21893.22,-12249.855,-8035.514999999999
1764434348.3240852,-901.845,-10663.065,-39423.42,-27130.77,-23641.515,-21883.815,-12252.465,-8037.719999999999
1764434348.3240852,-897.7049999999999,-10661.085,-39423.555,-27127.17,-23637.915,-21873.96,-12255.57,-8041.094999999999
1764434348.3240852,-893.655,-10657.755,-39420.405,-27122.22,-23633.415,-21868.065,-12253.68,-8038.575
1764434348.3240852,-896.895,-10660.635,-39421.935,-27124.965,-23635.53,-21872.97,-12253.5,-8038.755
1764434348.3240852,-899.505,-10660.905,-39420.405,-27126.9,-23637.555,-21879.315,-12249.675,-8035.65
1764434348.3245945,-902.61,-10661.85,-39417.57,-27128.25,-23638.995,-21887.64,-12245.265,-8031.24
1764434348.3245945,-903.645,-10661.265,-39414.015,-27129.15,-23639.31,-21894.525,-12240.27,-8025.974999999999
1764434348.3245945,-904.635,-10661.04,-39413.43,-27130.185,-23640.615,-21897.495,-12239.055,-8024.715
1764434348.3245945,-906.48,-10662.975,-39417.21,-27131.715,-23642.82,-21896.37,-12242.655,-8028.99
1764434348.3245945,-905.58,-10664.01,-39421.305,-27132.66,-23643.18,-21892.005,-12247.11,-8033.985
1764434348.3245945,-898.245,-10658.79,-39418.47,-27126.72,-23637.015,-21879.63,-12247.74,-8034.12
1764434348.3245945,-896.265,-10659.195,-39420.855,-27125.82,-23635.665,-21871.665,-12252.555,-8039.519999999999
1764434348.3245945,-891.405,-10655.55,-39416.895,-27120.15,-23630.67,-21865.095,-12249.72,-8035.605
1764434348.3245945,-894.555,-10657.44,-39417.66,-27122.625,-23633.145,-21870.405,-12249.72,-8034.75
1764434348.3245945,-899.235,-10661.085,-39418.92,-27126.27,-23637.105,-21879.72,-12248.46,-8034.615
1764434348.3245945,-899.9549999999999,-10659.96,-39416.04,-27126.405,-23637.87,-21887.145,-12243.105,-8029.53
1764434348.3245945,-904.68,-10662.795,-39415.23,-27130.05,-23641.605,-21897.27,-12238.965,-8026.559999999999
1764434348.3245945,-903.24,-10660.365,-39412.17,-27129.195,-23639.4,-21897.225,-12236.715,-8023.32
1764434348.3245945,-902.295,-10659.33,-39412.935,-27129.285,-23639.31,-21893.535,-12238.47,-8024.804999999999
1764434348.3245945,-902.655,-10661.805,-39416.895,-27130.41,-23641.47,-21890.16,-12244.95,-8031.69
1764434348.3245945,-901.53,-10663.2,-39420.72,-27130.815,-23641.425,-21883.905,-12250.98,-8037.945
1764434348.3245945,-896.31,-10659.105,-39419.19,-27125.01,-23636.88,-21872.475,-12253.905,-8039.429999999999
1764434348.3245945,-895.005,-10659.105,-39419.145,-27123.93,-23634.99,-21869.91,-12254.04,-8039.969999999999
1764434348.3245945,-892.755,-10656.765,-39414.555,-27121.725,-23632.92,-21869.865,-12249.45,-8034.255
1764434348.3717744,-895.4549999999999,-10658.205,-39414.285,-27123.93,-23635.17,-21877.29,-12246.39,-8032.094999999999
1764434348.3717744,-902.79,-10663.38,-39417.075,-27130.77,-23642.145,-21890.475,-12246.03,-8032.995
1764434348.3717744,-906.03,-10664.82,-39415.815,-27133.335,-23644.98,-21899.16,-12241.935,-8029.394999999999
1764434348.3717744,-905.895,-10663.785,-39415.005,-27133.74,-23644.89,-21900.465,-12240.225,-8028.179999999999
1764434348.3717744,-901.395,-10659.105,-39412.665,-27129.555,-23640.84,-21893.67,-12239.865,-8026.38
1764434348.3717744,-901.08,-10660.455,-39416.355,-27129.69,-23640.93,-21889.35,-12245.31,-8031.644999999999
1764434348.3717744,-898.245,-10659.87,-39419.28,-27128.16,-23640.165,-21880.71,-12249.585,-8036.099999999999
1764434348.3717744,-896.5799999999999,-10660.14,-39420.99,-27125.775,-23638.815,-21873.465,-12253.86,-8040.509999999999
1764434348.3717744,-891.99,-10656.72,-39416.355,-27120.51,-23633.46,-21866.58,-12252.42,-8036.73
1764434348.3717744,-893.295,-10657.98,-39415.905,-27121.545,-23635.215,-21870.18,-12251.835,-8034.974999999999
1764434348.3717744,-896.67,-10659.375,-39415.41,-27124.155,-23637.6,-21878.1,-12248.73,-8032.32
1764434348.3717744,-903.105,-10663.695,-39416.805,-27130.815,-23643.45,-21890.385,-12247.38,-8031.915
1764434348.3732982,-903.555,-10662.84,-39413.295,-27131.715,-23643.18,-21897.045,-12241.98,-8026.29
1764434348.3732982,-904.68,-10663.47,-39414.645,-27133.245,-23644.8,-21900.555,-12241.035,-8026.514999999999
1764434348.3732982,-902.295,-10660.995,-39413.88,-27131.715,-23642.82,-21895.425,-12241.98,-8026.514999999999
1764434348.3732982,-904.86,-10665.27,-39419.595,-27133.92,-23646.33,-21892.995,-12249.9,-8034.615
1764434348.3732982,-900.495,-10662.885,-39420.225,-27130.095,-23642.955,-21884.265,-12253.14,-8037.63
1764434348.3732982,-896.7149999999999,-10661.715,-39420.63,-27126.09,-23639.625,-21875.49,-12256.83,-8040.24
1764434348.3732982,-892.4399999999999,-10658.205,-39417.93,-27120.87,-23634.765,-21870.225,-12254.625,-8037.0
1764434348.3732982,-893.385,-10657.665,-39416.175,-27120.645,-23634.63,-21872.97,-12251.79,-8033.894999999999
1764434348.3732982,-897.48,-10661.04,-39416.04,-27124.83,-23638.545,-21881.43,-12249.855,-8032.59
1764434348.3732982,-903.69,-10664.955,-39416.4,-27129.915,-23643.855,-21892.995,-12248.19,-8031.735
1764434348.4167671,-903.555,-10663.29,-39413.34,-27130.995,-23643.585,-21899.295,-12242.295,-8025.389999999999
1764434348.4167671,-905.355,-10664.595,-39415.14,-27134.055,-23646.33,-21902.58,-12242.745,-8026.965
1764434348.4167671,-902.205,-10661.76,-39414.465,-27130.905,-23643.945,-21896.865,-12243.465,-8027.099999999999
1764434348.4167671,-904.05,-10664.505,-39419.595,-27133.29,-23645.835,-21894.795,-12249.945,-8033.985
1764434348.4177809,-898.29,-10660.86,-39418.92,-27128.655,-23641.47,-21884.175,-12251.88,-8035.559999999999
1764434348.4177809,-896.04,-10660.545,-39420.63,-27126.405,-23639.49,-21876.345,-12256.47,-8039.34
1764434348.4177809,-890.37,-10656.315,-39415.455,-27120.015,-23634.045,-21869.865,-12253.545,-8034.48
1764434348.4177809,-892.0799999999999,-10657.44,-39414.33,-27121.455,-23635.08,-21873.915,-12252.195,-8033.355
1764434348.4177809,-895.14,-10659.15,-39414.465,-27124.875,-23638.095,-21881.79,-12249.99,-8031.78
1764434348.4177809,-900.405,-10663.29,-39415.455,-27129.915,-23642.505,-21893.22,-12248.055,-8030.969999999999
1764434348.4182951,-902.25,-10662.39,-39412.08,-27130.545,-23643.27,-21899.52,-12242.115,-8024.94
1764434348.4188068,-902.34,-10661.715,-39411.495,-27130.68,-23643.405,-21901.185,-12239.595,-8023.23
1764434348.4188068,-901.935,-10661.715,-39412.89,-27130.59,-23643.675,-21897.99,-12242.52,-8026.559999999999
1764434348.4188068,-901.44,-10662.795,-39415.86,-27131.085,-23643.855,-21893.445,-12249.225,-8031.644999999999
1764434348.4188068,-898.3349999999999,-10660.77,-39417.345,-27127.89,-23641.29,-21884.445,-12252.015,-8035.514999999999
1764434348.4188068,-897.3449999999999,-10661.445,-39420.72,-27126.99,-23640.885,-21877.425,-12256.965,-8040.599999999999
1764434348.4188068,-893.88,-10658.745,-39418.155,-27123.615,-23637.645,-21873.195,-12255.525,-8038.125
1764434348.4188068,-892.395,-10657.305,-39414.51,-27121.77,-23635.395,-21874.545,-12251.205,-8033.49
1764434348.419822,-895.905,-10659.87,-39414.69,-27124.695,-23638.185,-21882.555,-12248.64,-8031.24
1764434348.419822,-897.03,-10658.7,-39410.82,-27125.505,-23638.77,-21888.765,-12242.655,-8024.625
1764434348.419822,-902.205,-10662.03,-39412.17,-27130.545,-23643.315,-21899.655,-12241.17,-8023.679999999999
1764434348.419822,-905.67,-10664.64,-39415.455,-27134.775,-23646.78,-21904.02,-12242.655,-8026.245
1764434348.419822,-903.6,-10662.57,-39415.995,-27132.975,-23644.98,-21899.61,-12244.23,-8027.73
1764434348.419822,-903.465,-10664.28,-39420.045,-27133.92,-23646.06,-21895.83,-12250.215,-8033.535
1764434348.4643447,-896.355,-10658.79,-39417.705,-27127.08,-23639.58,-21883.23,-12250.755,-8033.49
1764434348.4643447,-894.4649999999999,-10658.295,-39419.01,-27124.38,-23637.645,-21875.22,-12254.895,-8037.855
1764434348.4643447,-890.775,-10655.55,-39415.59,-27119.565,-23633.775,-21869.865,-12252.6,-8035.29
1764434348.4643447,-893.52,-10658.115,-39415.815,-27121.59,-23636.7,-21874.905,-12251.115,-8034.48
1764434348.4643447,-894.4649999999999,-10657.08,-39412.485,-27121.995,-23636.07,-21880.215,-12247.38,-8029.394999999999
1764434348.4643447,-899.91,-10660.005,-39413.565,-27126.495,-23639.76,-21891.195,-12244.815,-8028.45
1764434348.4643447,-906.075,-10663.47,-39416.04,-27131.85,-23644.62,-21901.275,-12243.375,-8028.315
1764434348.4643447,-904.95,-10661.805,-39413.745,-27130.095,-23643.675,-21900.645,-12242.205,-8025.929999999999
1764434348.4643447,-905.175,-10663.515,-39416.13,-27131.67,-23644.935,-21898.665,-12246.03,-8029.799999999999
1764434348.4643447,-904.905,-10664.955,-39419.64,-27131.715,-23644.98,-21893.85,-12251.655,-8035.11
1764434348.4643447,-900.72,-10661.895,-39419.415,-27127.62,-23641.38,-21883.77,-12253.95,-8036.955
1764434348.4643447,-898.6949999999999,-10661.13,-39421.08,-27125.145,-23639.94,-21875.265,-12258.18,-8040.735
1764434348.4643447,-898.8299999999999,-10662.21,-39421.98,-27124.515,-23639.94,-21874.545,-12258.405,-8041.455
1764434348.4643447,-900.18,-10662.705,-39420.765,-27124.785,-23639.49,-21878.145,-12256.83,-8038.394999999999
1764434348.4643447,-903.105,-10664.415,-39420.135,-27126.765,-23641.65,-21884.715,-12253.635,-8036.28
1764434348.4643447,-906.48,-10666.305,-39418.47,-27129.78,-23643.99,-21893.49,-12249.99,-8032.679999999999
1764434348.4643447,-905.805,-10663.29,-39414.105,-27129.555,-23643.045,-21898.485,-12243.69,-8026.245
1764434348.4643447,-908.145,-10663.83,-39415.275,-27131.805,-23644.755,-21901.23,-12244.68,-8027.19
1764434348.4643447,-908.91,-10665.54,-39418.65,-27133.11,-23646.015,-21898.98,-12249.09,-8031.87
1764434348.4643447,-906.93,-10665.0,-39420.045,-27131.985,-23644.98,-21893.175,-12252.645,-8036.099999999999
1764434348.4643447,-901.845,-10661.895,-39419.955,-27128.295,-23641.02,-21883.32,-12255.165,-8038.44
1764434348.4643447,-897.8399999999999,-10659.69,-39420.315,-27125.775,-23637.42,-21874.545,-12257.82,-8040.509999999999
1764434348.4643447,-895.68,-10657.665,-39416.895,-27121.68,-23633.865,-21869.82,-12255.795,-8037.809999999999
1764434348.4643447,-896.04,-10657.755,-39414.915,-27120.87,-23633.64,-21872.25,-12252.42,-8035.155
1764434348.5084393,-899.505,-10659.78,-39415.68,-27125.235,-23637.33,-21880.935,-12250.755,-8033.894999999999
1764434348.5084393,-907.92,-10665.855,-39419.19,-27132.885,-23644.44,-21894.48,-12250.44,-8034.929999999999
1764434348.5084393,-910.755,-10667.565,-39418.47,-27135.495,-23646.555,-21901.995,-12247.245,-8032.275
1764434348.5084393,-906.165,-10662.255,-39413.43,-27131.67,-23642.415,-21898.71,-12242.565,-8026.92
1764434348.5084393,-901.98,-10658.43,-39411.765,-27128.295,-23638.815,-21892.05,-12241.845,-8026.695
1764434348.5084393,-901.53,-10659.78,-39415.32,-27128.79,-23638.545,-21887.46,-12247.47,-8032.41
1764434348.5102198,-900.405,-10660.32,-39418.515,-27128.43,-23638.59,-21880.89,-12252.465,-8038.304999999999
1764434348.5102198,-894.87,-10657.485,-39416.985,-27122.4,-23632.74,-21869.955,-12253.905,-8038.17
1764434348.5102198,-894.285,-10657.53,-39416.94,-27121.455,-23632.38,-21868.155,-12254.04,-8037.945
1764434348.5102198,-893.475,-10656.045,-39413.925,-27121.23,-23631.03,-21870.765,-12250.53,-8033.355
1764434348.5102198,-899.055,-10660.365,-39415.23,-27125.505,-23635.395,-21880.17,-12249.63,-8033.219999999999
1764434348.5102198,-902.745,-10661.67,-39413.52,-27128.025,-23637.87,-21889.305,-12245.985,-8030.025
1764434348.5102198,-902.655,-10659.735,-39410.19,-27128.025,-23638.095,-21895.2,-12240.135,-8023.724999999999
1764434348.5102198,-903.51,-10660.455,-39412.305,-27130.14,-23640.525,-21897.9,-12239.73,-8024.4
1764434348.5102198,-899.145,-10656.27,-39409.56,-27124.965,-23635.08,-21889.89,-12238.02,-8023.41
1764434348.5102198,-897.5699999999999,-10656.36,-39411.99,-27123.93,-23634.72,-21884.175,-12242.655,-8027.594999999999
1764434348.5102198,-894.9599999999999,-10655.505,-39413.205,-27121.59,-23633.145,-21875.58,-12246.84,-8031.33
1764434348.5102198,-895.275,-10658.34,-39417.255,-27122.13,-23633.73,-21869.595,-12252.69,-8037.36
1764434348.5102198,-892.62,-10656.81,-39414.285,-27119.07,-23631.705,-21866.04,-12252.69,-8035.245
1764434348.5102198,-895.905,-10659.24,-39414.51,-27121.77,-23633.37,-21872.61,-12252.24,-8035.2
1764434348.5102198,-901.575,-10663.605,-39417.075,-27126.45,-23637.69,-21882.645,-12251.79,-8035.335
1764434348.5102198,-904.275,-10664.82,-39415.14,-27127.98,-23639.265,-21890.88,-12247.965,-8031.105
1764434348.5579803,-910.44,-10668.78,-39417.75,-27133.785,-23645.205,-21901.41,-12247.155,-8031.554999999999
1764434348.5579803,-907.83,-10665.135,-39415.14,-27132.165,-23643.405,-21900.915,-12243.96,-8028.45
1764434348.5579803,-900.945,-10659.15,-39411.315,-27126.27,-23636.52,-21891.78,-12241.62,-8024.58
1764434348.5579803,-898.92,-10658.79,-39413.97,-27125.19,-23635.08,-21885.615,-12245.445,-8028.269999999999
1764434348.5579803,-895.0949999999999,-10656.72,-39414.42,-27121.365,-23632.29,-21875.355,-12248.73,-8031.195
1764434348.5579803,-893.52,-10656.945,-39415.365,-27119.385,-23630.625,-21868.695,-12252.375,-8035.155
1764434348.5579803,-895.68,-10659.96,-39418.245,-27121.32,-23632.74,-21869.73,-12254.85,-8038.62
1764434348.5579803,-897.165,-10661.13,-39417.705,-27122.58,-23633.55,-21874.185,-12253.545,-8036.684999999999
1764434348.5579803,-897.39,-10659.645,-39414.06,-27122.445,-23633.145,-21878.73,-12248.505,-8030.565
1764434348.5579803,-903.645,-10664.82,-39416.04,-27128.79,-23639.58,-21891.195,-12246.93,-8030.429999999999
1764434348.5579803,-905.49,-10664.82,-39414.69,-27130.59,-23641.29,-21898.17,-12242.565,-8027.144999999999
1764434348.5595255,-903.24,-10661.445,-39411.855,-27129.42,-23638.95,-21896.505,-12240.225,-8024.264999999999
1764434348.5595255,-903.78,-10661.715,-39414.555,-27130.14,-23639.22,-21893.445,-12244.32,-8027.505
1764434348.5595255,-907.155,-10666.755,-39421.53,-27133.155,-23642.28,-21891.87,-12252.195,-8035.875
1764434348.5595255,-902.97,-10665.36,-39422.34,-27129.42,-23639.04,-21881.88,-12255.93,-8038.98
1764434348.5595255,-898.02,-10662.705,-39421.665,-27123.795,-23634.36,-21872.025,-12257.955,-8039.745
1764434348.5595255,-893.16,-10658.88,-39417.345,-27119.61,-23630.265,-21867.21,-12254.04,-8036.505
1764434348.5595255,-898.515,-10662.705,-39419.01,-27124.74,-23634.495,-21874.545,-12254.49,-8038.125
1764434348.5595255,-901.395,-10663.425,-39417.435,-27126.495,-23635.845,-21881.52,-12251.7,-8033.715
1764434348.5595255,-903.465,-10664.505,-39414.6,-27128.205,-23637.87,-21890.07,-12246.795,-8028.945
1764434348.5595255,-906.795,-10665.945,-39414.645,-27131.535,-23640.615,-21898.17,-12244.185,-8027.19
1764434348.5595255,-907.065,-10666.215,-39415.14,-27133.29,-23641.47,-21899.835,-12244.635,-8027.82
1764434348.6026585,-902.835,-10662.615,-39413.34,-27129.15,-23637.285,-21892.59,-12244.5,-8027.46
1764434348.6026585,-900.9,-10661.13,-39412.845,-27126.315,-23634.72,-21885.255,-12247.65,-8030.34
1764434348.6026585,-895.0949999999999,-10657.305,-39412.485,-27121.725,-23630.58,-21873.78,-12249.99,-8031.78
1764434348.6026585,-892.7099999999999,-10656.72,-39415.05,-27119.43,-23628.42,-21866.895,-12253.635,-8035.785
1764434348.6026585,-892.395,-10657.26,-39415.005,-27118.845,-23628.24,-21866.535,-12253.995,-8035.92
1764434348.6026585,-895.005,-10659.6,-39414.69,-27121.23,-23630.49,-21872.025,-12252.465,-8034.615
1764434348.6026585,-895.545,-10658.745,-39411.18,-27121.77,-23630.265,-21876.525,-12247.965,-8029.575
1764434348.6026585,-903.015,-10663.965,-39413.475,-27127.44,-23636.655,-21889.53,-12247.2,-8030.519999999999
1764434348.6026585,-905.805,-10664.82,-39412.485,-27130.41,-23639.22,-21897.495,-12244.5,-8027.46
1764434348.6036806,-903.15,-10661.22,-39408.84,-27127.665,-23636.385,-21894.795,-12241.08,-8023.769999999999
1764434348.6046748,-902.205,-10661.355,-39410.55,-27127.35,-23635.35,-21890.745,-12243.915,-8026.2
1764434348.6046748,-902.115,-10662.48,-39414.285,-27127.845,-23635.44,-21886.605,-12248.955,-8032.679999999999
1764434348.6046748,-898.245,-10660.14,-39415.23,-27124.2,-23632.38,-21877.11,-12252.645,-8035.875
1764434348.6046748,-895.41,-10659.375,-39415.5,-27120.69,-23629.905,-21868.695,-12256.02,-8038.349999999999
1764434348.6046748,-896.76,-10661.355,-39416.895,-27122.265,-23630.94,-21869.595,-12257.64,-8040.465
1764434348.6058714,-895.3199999999999,-10660.365,-39413.97,-27121.68,-23629.545,-21872.205,-12253.995,-8036.28
1764434348.6058714,-900.0,-10663.47,-39415.59,-27125.325,-23633.19,-21881.475,-12251.88,-8035.155
1764434348.606378,-902.07,-10662.615,-39412.53,-27126.27,-23634.225,-21889.485,-12246.3,-8029.98
1764434348.6068623,-907.515,-10665.99,-39414.915,-27131.49,-23639.355,-21899.07,-12244.995,-8030.07
1764434348.6068623,-904.905,-10663.515,-39411.765,-27129.87,-23637.465,-21897.72,-12243.105,-8027.099999999999
1764434348.6068623,-901.44,-10661.535,-39411.45,-27127.485,-23634.99,-21891.42,-12243.465,-8027.594999999999
1764434348.6068623,-902.07,-10662.705,-39415.68,-27127.89,-23635.89,-21887.415,-12250.17,-8034.344999999999
1764434348.607386,-901.17,-10663.605,-39419.73,-27127.665,-23635.575,-21879.45,-12255.48,-8040.78
1764434348.607386,-895.8149999999999,-10660.23,-39418.56,-27122.355,-23631.48,-21869.73,-12256.74,-8041.32
1764434348.607386,-891.0899999999999,-10656.18,-39413.385,-27116.865,-23626.44,-21865.14,-12253.5,-8035.83
1764434348.607386,-891.495,-10656.27,-39411.18,-27116.19,-23626.395,-21868.605,-12250.035,-8031.825
1764434348.6519332,-895.3199999999999,-10658.79,-39411.63,-27120.015,-23629.545,-21876.84,-12247.56,-8030.474999999999
1764434348.6519332,-902.43,-10664.55,-39414.195,-27127.215,-23635.665,-21889.485,-12246.03,-8030.34
1764434348.6519332,-906.03,-10666.575,-39414.15,-27130.905,-23638.995,-21898.98,-12244.14,-8028.045
1764434348.6519332,-901.665,-10661.805,-39408.84,-27126.765,-23635.53,-21895.92,-12239.865,-8023.815
1764434348.6519332,-899.865,-10659.96,-39409.155,-27125.505,-23634.045,-21890.97,-12240.945,-8025.705
1764434348.6519332,-901.035,-10661.715,-39413.475,-27126.81,-23635.305,-21886.605,-12246.435,-8031.285
1764434348.6519332,-895.635,-10658.475,-39413.205,-27122.58,-23631.615,-21876.21,-12249.405,-8033.67
1764434348.6519332,-889.9649999999999,-10655.1,-39410.865,-27117.63,-23626.35,-21865.995,-12249.765,-8033.49
1764434348.6519332,-885.015,-10651.365,-39407.13,-27112.68,-23621.13,-21860.82,-12245.94,-8028.54
1764434348.6519332,-886.365,-10652.76,-39406.95,-27113.715,-23622.255,-21866.22,-12244.365,-8027.639999999999
1764434348.6519332,-888.5699999999999,-10653.345,-39405.105,-27115.605,-23623.29,-21872.295,-12240.27,-8024.759999999999
1764434348.6519332,-892.2149999999999,-10654.065,-39403.935,-27119.025,-23626.035,-21881.385,-12235.86,-8019.855
1764434348.6519332,-897.3,-10656.99,-39405.285,-27123.975,-23630.895,-21891.96,-12234.69,-8018.955
1764434348.6519332,-898.29,-10657.215,-39405.78,-27124.965,-23632.29,-21893.49,-12234.15,-8019.809999999999
1764434348.6519332,-893.43,-10652.67,-39403.44,-27120.375,-23627.385,-21884.76,-12234.06,-8018.82
1764434348.6519332,-890.37,-10651.14,-39404.43,-27117.72,-23625.18,-21876.615,-12237.525,-8021.745
1764434348.6519332,-887.13,-10649.295,-39406.095,-27114.885,-23622.705,-21867.39,-12240.54,-8025.165
1764434348.6529486,-887.31,-10650.915,-39408.705,-27114.705,-23622.12,-21862.395,-12245.175,-8029.889999999999
1764434348.6529486,-885.915,-10650.465,-39406.545,-27112.365,-23619.915,-21860.595,-12245.13,-8028.315
1764434348.6529486,-882.3149999999999,-10646.415,-39400.83,-27108.54,-23616.855,-21861.45,-12238.875,-8021.655
1764434348.6529486,-887.9399999999999,-10650.51,-39402.225,-27114.435,-23621.985,-21871.395,-12237.12,-8021.34
1764434348.6529486,-891.675,-10651.005,-39400.695,-27116.145,-23623.65,-21879.63,-12232.26,-8017.065
1764434348.6989827,-893.79,-10650.465,-39398.895,-27117.225,-23624.595,-21885.84,-12228.255,-8012.924999999999
1764434348.6989827,-894.78,-10651.86,-39400.65,-27119.745,-23626.665,-21887.775,-12229.245,-8014.455
1764434348.6989827,-891.4499999999999,-10648.17,-39399.12,-27116.685,-23623.56,-21880.755,-12230.055,-8015.174999999999
1764434348.6989827,-891.9,-10650.825,-39402.765,-27117.405,-23623.965,-21876.615,-12235.005,-8021.295
1764434348.6989827,-887.895,-10649.655,-39403.575,-27113.445,-23621.355,-21867.21,-12238.74,-8024.445
1764434348.6989827,-884.2049999999999,-10647.765,-39403.755,-27109.62,-23618.205,-21858.57,-12241.08,-8025.525
1764434348.6989827,-882.0,-10647.045,-39402.765,-27108.54,-23616.99,-21857.04,-12239.955,-8023.59
1764434348.6989827,-882.405,-10646.505,-39400.245,-27108.36,-23617.17,-21860.91,-12236.805,-8020.17
1764434348.6989827,-881.9549999999999,-10644.975,-39395.88,-27107.64,-23615.64,-21865.32,-12230.82,-8014.005
1764434348.6989827,-884.88,-10645.47,-39393.99,-27110.385,-23617.575,-21874.455,-12225.645,-8009.099999999999
1764434348.6989827,-889.74,-10649.385,-39395.925,-27115.785,-23622.84,-21884.58,-12224.475,-8009.009999999999
1764434348.6989827,-886.545,-10646.46,-39393.9,-27113.22,-23619.915,-21881.745,-12222.495,-8006.13
1764434348.6989827,-883.5749999999999,-10644.345,-39393.135,-27110.745,-23617.26,-21874.23,-12223.395,-8007.12
1764434348.6989827,-883.125,-10644.525,-39395.7,-27109.485,-23616.72,-21868.245,-12228.21,-8011.349999999999
1764434348.6989827,-877.9499999999999,-10641.645,-39395.88,-27105.12,-23612.715,-21857.22,-12229.695,-8012.79
1764434348.6989827,-875.2049999999999,-10640.115,-39395.25,-27101.97,-23610.015,-21850.065,-12231.81,-8014.679999999999
1764434348.6989827,-874.4399999999999,-10641.195,-39395.52,-27101.835,-23609.565,-21851.28,-12232.395,-8015.535
1764434348.6989827,-876.4649999999999,-10643.13,-39395.295,-27103.905,-23610.645,-21856.995,-12231.045,-8013.96
1764434348.6989827,-881.775,-10646.82,-39396.33,-27108.855,-23615.055,-21866.805,-12229.065,-8013.465
1764434348.6989827,-883.395,-10645.875,-39393.045,-27110.16,-23615.415,-21874.14,-12223.62,-8007.84
1764434348.6989827,-888.525,-10648.215,-39393.81,-27115.335,-23620.23,-21883.545,-12222.36,-8007.389999999999
1764434348.7002056,-884.745,-10644.165,-39391.065,-27112.95,-23618.07,-21880.485,-12220.335,-8004.509999999999
1764434348.7002056,-883.26,-10642.86,-39392.235,-27111.555,-23616.855,-21875.265,-12222.36,-8006.58
1764434348.7002056,-882.99,-10644.39,-39395.205,-27111.42,-23616.765,-21870.09,-12228.165,-8012.025
1764434348.7431445,-879.255,-10642.5,-39396.555,-27108.0,-23613.84,-21860.55,-12231.09,-8015.264999999999
1764434348.7431445,-877.0949999999999,-10641.645,-39397.59,-27105.615,-23611.545,-21853.575,-12233.385,-8018.009999999999
1764434348.7431445,-875.115,-10640.115,-39395.43,-27102.825,-23609.07,-21852.27,-12231.63,-8015.355
1764434348.7431445,-874.35,-10639.215,-39391.83,-27101.61,-23607.81,-21855.015,-12226.77,-8010.495
1764434348.7431445,-879.75,-10643.895,-39393.72,-27106.425,-23612.85,-21865.275,-12224.565,-8010.179999999999
1764434348.7431445,-883.8,-10645.155,-39392.235,-27109.215,-23615.19,-21874.815,-12220.875,-8006.58
1764434348.7431445,-884.6999999999999,-10643.49,-39389.67,-27109.44,-23615.19,-21879.315,-12217.095,-8002.17
1764434348.7431445,-884.88,-10643.04,-39390.525,-27110.61,-23615.865,-21879.27,-12217.59,-8003.205
1764434348.7431445,-884.385,-10643.04,-39392.415,-27109.575,-23615.145,-21874.545,-12220.245,-8006.174999999999
1764434348.7431445,-884.9699999999999,-10644.345,-39395.925,-27109.98,-23615.685,-21869.145,-12226.32,-8012.61
1764434348.7431445,-879.255,-10641.015,-39394.89,-27104.715,-23610.06,-21857.04,-12228.57,-8014.139999999999
1764434348.7431445,-873.81,-10637.235,-39392.145,-27098.865,-23604.48,-21845.745,-12228.84,-8013.195
1764434348.7431445,-874.8,-10638.36,-39391.47,-27099.09,-23604.21,-21845.565,-12230.145,-8014.32
1764434348.7443254,-877.5,-10640.115,-39390.93,-27101.025,-23606.145,-21851.82,-12227.805,-8013.195
1764434348.7443254,-877.635,-10638.855,-39386.925,-27101.295,-23606.505,-21857.58,-12222.135,-8007.165
1764434348.7443254,-883.2149999999999,-10641.735,-39387.825,-27106.425,-23611.14,-21870.09,-12219.615,-8005.094999999999
1764434348.7443254,-885.24,-10641.915,-39387.42,-27108.9,-23613.84,-21878.28,-12217.14,-8003.115
1764434348.7443254,-883.755,-10640.655,-39386.385,-27108.765,-23614.065,-21878.19,-12216.33,-8002.755
1764434348.7443254,-878.04,-10635.93,-39383.82,-27104.94,-23609.205,-21870.315,-12215.655,-8001.315
1764434348.7443254,-878.625,-10638.27,-39388.14,-27106.335,-23611.59,-21867.03,-12222.54,-8008.875
1764434348.7443254,-875.655,-10637.19,-39390.255,-27103.23,-23610.105,-21858.48,-12227.715,-8014.005
1764434348.7443254,-873.27,-10636.785,-39391.11,-27101.34,-23608.215,-21852.495,-12231.765,-8016.705
1764434348.745859,-872.415,-10636.245,-39390.12,-27100.53,-23607.09,-21852.675,-12231.315,-8015.264999999999
1764434348.745859,-873.54,-10636.56,-39388.5,-27102.15,-23607.405,-21857.445,-12227.85,-8011.62
1764434348.7901497,-875.52,-10636.785,-39386.88,-27103.95,-23609.835,-21865.275,-12224.205,-8008.155
1764434348.7901497,-878.805,-10638.225,-39386.745,-27107.415,-23613.93,-21875.22,-12220.92,-8004.78
1764434348.7901497,-884.25,-10642.725,-39389.58,-27113.445,-23620.68,-21887.055,-12221.19,-8005.23
1764434348.7901497,-880.74,-10639.485,-39386.565,-27110.97,-23618.25,-21884.445,-12218.31,-8002.44
1764434348.7901497,-880.38,-10639.845,-39389.355,-27110.835,-23618.7,-21879.72,-12222.495,-8005.724999999999
1764434348.7901497,-881.1899999999999,-10641.375,-39393.63,-27111.195,-23618.88,-21873.87,-12228.39,-8012.205
1764434348.7901497,-880.8299999999999,-10644.165,-39397.995,-27111.645,-23618.025,-21865.275,-12234.33,-8019.134999999999
1764434348.7901497,-878.2199999999999,-10642.86,-39397.68,-27108.315,-23614.11,-21857.535,-12237.12,-8021.025
1764434348.7901497,-875.88,-10640.61,-39394.755,-27105.12,-23610.735,-21854.52,-12234.24,-8017.92
1764434348.7901497,-875.52,-10640.475,-39392.325,-27103.455,-23610.195,-21857.58,-12229.605,-8013.599999999999
1764434348.7901497,-875.43,-10639.08,-39389.715,-27102.96,-23609.79,-21861.63,-12224.52,-8007.84
1764434348.7901497,-879.48,-10640.61,-39387.465,-27106.155,-23611.635,-21869.82,-12219.075,-8003.429999999999
1764434348.791908,-882.225,-10641.465,-39386.925,-27108.045,-23613.525,-21876.795,-12215.565,-8001.179999999999
1764434348.791908,-882.99,-10641.915,-39387.78,-27107.235,-23613.705,-21876.615,-12215.88,-8002.44
1764434348.791908,-882.405,-10642.68,-39390.39,-27107.37,-23614.155,-21872.115,-12220.02,-8006.849999999999
1764434348.791908,-880.875,-10642.59,-39392.19,-27106.38,-23613.12,-21866.175,-12223.89,-8010.269999999999
1764434348.791908,-878.175,-10641.375,-39393.945,-27102.87,-23610.69,-21857.4,-12227.58,-8013.195
1764434348.791908,-875.655,-10641.6,-39394.71,-27101.16,-23608.98,-21851.505,-12231.675,-8016.389999999999
1764434348.791908,-875.8349999999999,-10642.23,-39394.35,-27101.61,-23609.25,-21852.405,-12231.585,-8017.155
1764434348.791908,-875.3399999999999,-10640.745,-39390.93,-27100.35,-23607.09,-21855.465,-12226.995,-8012.16
1764434348.791908,-879.5699999999999,-10643.94,-39392.145,-27104.625,-23611.005,-21864.69,-12224.88,-8010.315
1764434348.791908,-882.855,-10643.85,-39390.12,-27107.46,-23613.57,-21874.455,-12221.1,-8006.804999999999
1764434348.835863,-887.49,-10647.09,-39392.145,-27113.13,-23618.655,-21883.815,-12220.245,-8007.165
1764434348.8363817,-887.31,-10646.82,-39393.045,-27113.76,-23619.15,-21883.59,-12220.965,-8007.21
1764434348.8363817,-883.755,-10644.165,-39392.145,-27110.565,-23616.135,-21875.715,-12222.495,-8007.705
1764434348.8363817,-885.735,-10646.73,-39396.96,-27112.275,-23618.745,-21871.89,-12230.325,-8015.445
1764434348.8363817,-884.88,-10648.305,-39401.145,-27111.78,-23619.33,-21865.23,-12236.31,-8021.565
1764434348.8363817,-883.0799999999999,-10648.53,-39402.045,-27109.53,-23617.665,-21859.425,-12239.19,-8023.995
1764434348.8363817,-882.675,-10648.17,-39400.47,-27108.045,-23616.18,-21859.29,-12237.93,-8022.465
1764434348.8363817,-883.89,-10648.395,-39398.715,-27109.305,-23617.26,-21864.645,-12234.96,-8019.719999999999
1764434348.8363817,-885.375,-10648.665,-39396.78,-27110.565,-23617.53,-21870.18,-12230.64,-8015.94
1764434348.837392,-887.4,-10647.63,-39393.855,-27112.32,-23619.15,-21878.595,-12225.915,-8010.855
1764434348.837392,-890.8199999999999,-10648.89,-39394.305,-27116.19,-23622.66,-21886.65,-12224.07,-8009.73
1764434348.837392,-892.485,-10649.88,-39396.87,-27118.08,-23624.505,-21888.36,-12225.555,-8011.889999999999
1764434348.837392,-886.68,-10645.11,-39394.53,-27112.59,-23619.375,-21879.27,-12224.79,-8009.91
1764434348.837392,-886.005,-10646.1,-39397.95,-27112.635,-23619.195,-21873.87,-12230.55,-8015.085
1764434348.837392,-882.135,-10644.57,-39398.355,-27108.27,-23615.685,-21863.88,-12234.06,-8018.82
1764434348.837392,-881.9549999999999,-10645.965,-39400.695,-27107.55,-23615.145,-21858.795,-12238.29,-8023.094999999999
1764434348.837392,-879.165,-10642.545,-39397.185,-27104.22,-23611.815,-21855.24,-12235.41,-8018.865
1764434348.837392,-884.3399999999999,-10646.145,-39399.03,-27108.72,-23616.225,-21863.295,-12234.735,-8019.134999999999
1764434348.837392,-886.4549999999999,-10647.765,-39397.365,-27111.015,-23618.385,-21872.115,-12231.72,-8015.535
1764434348.837392,-890.145,-10650.33,-39396.24,-27114.66,-23621.355,-21882.015,-12228.525,-8012.79
1764434348.837392,-890.4599999999999,-10648.89,-39393.495,-27115.83,-23621.895,-21886.875,-12224.07,-8007.66
1764434348.837392,-886.8149999999999,-10644.84,-39390.255,-27111.915,-23618.655,-21883.14,-12221.325,-8004.42
1764434348.837392,-886.185,-10645.38,-39392.64,-27112.23,-23619.375,-21879.315,-12225.375,-8008.875
1764434348.837392,-887.7149999999999,-10648.26,-39397.815,-27114.12,-23621.31,-21876.21,-12232.89,-8016.344999999999
1764434348.8843946,-885.6899999999999,-10648.755,-39401.37,-27112.68,-23620.68,-21867.84,-12238.155,-8021.969999999999
1764434348.8849044,-882.855,-10648.98,-39402.0,-27109.845,-23618.52,-21861.18,-12241.53,-8025.03
1764434348.8849044,-880.29,-10646.775,-39399.57,-27107.235,-23616.315,-21859.515,-12240.36,-8022.42
1764434348.8849044,-883.53,-10648.485,-39399.57,-27110.115,-23618.295,-21865.995,-12238.38,-8020.575
1764434348.8849044,-887.13,-10650.42,-39399.93,-27112.95,-23620.995,-21874.635,-12235.455,-8017.965
1764434348.8849044,-894.24,-10655.235,-39402.27,-27119.34,-23626.98,-21886.92,-12232.98,-8017.065
1764434348.8849044,-897.165,-10657.215,-39401.73,-27123.165,-23629.095,-21894.12,-12231.63,-8016.12
1764434348.8849044,-894.915,-10655.1,-39400.695,-27122.265,-23628.105,-21892.815,-12231.225,-8015.49
1764434348.8849044,-889.875,-10650.645,-39399.21,-27117.945,-23624.415,-21884.58,-12232.035,-8014.769999999999
1764434348.8849044,-887.7149999999999,-10649.655,-39400.92,-27115.245,-23622.345,-21877.425,-12235.815,-8018.37
1764434348.8849044,-885.735,-10648.89,-39402.72,-27113.13,-23620.005,-21868.47,-12240.63,-8023.184999999999
1764434348.8849044,-884.0699999999999,-10649.79,-39403.71,-27112.23,-23619.6,-21862.98,-12244.545,-8026.019999999999
1764434348.8849044,-885.1949999999999,-10651.32,-39403.845,-27112.545,-23620.365,-21864.33,-12244.14,-8026.335
1764434348.8849044,-884.43,-10649.43,-39399.345,-27110.97,-23618.79,-21867.075,-12239.01,-8020.844999999999
1764434348.8849044,-891.045,-10653.705,-39401.19,-27116.37,-23624.505,-21877.965,-12237.795,-8021.429999999999
1764434348.8849044,-896.13,-10656.675,-39401.235,-27120.285,-23627.475,-21888.63,-12234.87,-8018.46
1764434348.8849044,-896.85,-10654.695,-39398.895,-27120.6,-23626.89,-21892.86,-12230.955,-8014.41
1764434348.8849044,-896.04,-10652.94,-39398.58,-27119.52,-23626.71,-21891.465,-12230.28,-8014.769999999999
1764434348.8849044,-893.0699999999999,-10652.04,-39399.255,-27117.765,-23624.91,-21885.57,-12232.62,-8016.84
1764434348.8849044,-891.765,-10651.815,-39401.73,-27116.865,-23623.875,-21879.18,-12238.38,-8021.115
1764434348.8849044,-887.625,-10649.655,-39401.145,-27112.41,-23620.005,-21869.37,-12241.62,-8024.13
1764434348.8849044,-885.9599999999999,-10649.745,-39401.955,-27110.52,-23618.61,-21864.06,-12243.33,-8026.695
1764434348.8849044,-882.4499999999999,-10647.135,-39398.265,-27107.01,-23615.685,-21860.775,-12240.045,-8022.014999999999
1764434348.8849044,-887.31,-10650.87,-39400.155,-27111.645,-23620.14,-21868.92,-12240.63,-8022.375
1764434348.932469,-889.425,-10651.23,-39398.805,-27113.265,-23621.85,-21876.39,-12235.905,-8019.045
1764434348.932469,-894.1949999999999,-10653.075,-39398.04,-27116.595,-23625.36,-21886.245,-12232.17,-8015.219999999999
1764434348.932469,-896.67,-10654.83,-39398.22,-27120.33,-23628.24,-21892.725,-12230.37,-8013.24
1764434348.932469,-894.24,-10652.625,-39396.69,-27118.62,-23626.62,-21890.07,-12229.695,-8012.88
1764434348.932469,-893.385,-10653.03,-39399.39,-27118.485,-23626.845,-21886.335,-12234.69,-8017.514999999999
1764434348.932469,-894.645,-10657.125,-39404.43,-27120.555,-23628.15,-21882.24,-12241.755,-8024.264999999999
1764434348.932469,-894.1949999999999,-10657.53,-39408.75,-27119.565,-23628.51,-21875.355,-12247.47,-8030.34
1764434348.932469,-889.8299999999999,-10654.29,-39407.04,-27114.165,-23624.46,-21867.705,-12248.145,-8029.844999999999
1764434348.932469,-886.5,-10651.635,-39402.225,-27110.79,-23619.87,-21864.69,-12244.005,-8024.94
1764434348.932469,-890.28,-10653.48,-39402.855,-27113.355,-23622.21,-21871.44,-12242.88,-8024.58
1764434348.932469,-889.605,-10651.14,-39399.345,-27112.68,-23621.805,-21876.12,-12236.94,-8018.009999999999
1764434348.932469,-895.0949999999999,-10654.605,-39398.49,-27117.09,-23626.53,-21887.28,-12234.33,-8015.355
1764434348.932469,-898.29,-10656.315,-39399.75,-27121.095,-23630.445,-21895.02,-12232.8,-8014.86
1764434348.932469,-899.9549999999999,-10657.71,-39402.99,-27123.615,-23632.92,-21895.83,-12235.14,-8018.235
1764434348.932469,-896.04,-10655.1,-39402.315,-27120.375,-23629.995,-21888.405,-12237.48,-8019.495
1764434348.932469,-897.75,-10659.6,-39408.66,-27123.615,-23633.415,-21886.2,-12246.12,-8028.224999999999
1764434348.932469,-893.79,-10657.89,-39409.29,-27119.655,-23630.265,-21875.67,-12248.73,-8030.79
1764434348.932469,-890.1,-10654.965,-39408.03,-27116.055,-23626.08,-21867.615,-12250.08,-8030.7
1764434348.932469,-887.265,-10652.22,-39404.205,-27113.22,-23622.345,-21865.275,-12247.29,-8026.469999999999
1764434348.932469,-889.92,-10653.75,-39403.98,-27114.93,-23624.145,-21872.43,-12245.4,-8024.355
1764434348.932469,-894.1949999999999,-10656.675,-39404.115,-27118.17,-23627.79,-21882.015,-12243.015,-8022.375
1764434348.932469,-899.73,-10660.41,-39405.195,-27123.075,-23632.83,-21893.85,-12240.0,-8020.934999999999
1764434348.932469,-902.88,-10661.58,-39405.69,-27127.395,-23635.98,-21900.735,-12238.965,-8019.809999999999
1764434348.932469,-902.205,-10660.59,-39405.87,-27127.08,-23635.935,-21899.7,-12239.55,-8019.9
1764434348.979176,-897.2099999999999,-10656.405,-39403.62,-27122.67,-23631.57,-21891.15,-12240.09,-8019.585
1764434348.979176,-896.0849999999999,-10657.215,-39406.41,-27122.4,-23630.94,-21885.705,-12245.445,-8024.625
1764434348.979176,-895.365,-10659.15,-39410.91,-27121.815,-23631.435,-21879.27,-12252.285,-8031.87
1764434348.979176,-891.63,-10656.81,-39409.605,-27118.305,-23627.61,-21871.845,-12253.545,-8031.69
1764434348.979176,-887.49,-10652.67,-39404.565,-27112.905,-23622.57,-21867.93,-12248.865,-8025.84
1764434348.979176,-889.515,-10654.38,-39403.89,-27114.3,-23624.19,-21873.555,-12244.995,-8023.5
1764434348.979176,-891.7199999999999,-10654.785,-39403.305,-27116.73,-23625.945,-21880.935,-12240.945,-8019.945
1764434348.9801774,-896.805,-10657.98,-39404.07,-27121.725,-23630.58,-21893.265,-12239.1,-8018.325
1764434348.9801774,-903.645,-10663.02,-39407.67,-27129.195,-23636.655,-21903.345,-12240.675,-8020.17
1764434348.9801774,-903.33,-10662.615,-39407.94,-27129.465,-23637.24,-21901.77,-12241.485,-8020.98
1764434348.9801774,-898.38,-10659.195,-39406.905,-27125.325,-23634.315,-21892.905,-12242.655,-8022.33
1764434348.9801774,-898.155,-10659.69,-39410.235,-27124.56,-23633.865,-21887.37,-12249.18,-8027.639999999999
1764434348.980699,-894.4649999999999,-10658.295,-39411.315,-27121.32,-23630.67,-21877.92,-12252.6,-8031.15
1764434348.980699,-890.8199999999999,-10656.72,-39409.92,-27117.765,-23627.43,-21871.305,-12253.77,-8031.69
1764434348.980699,-891.27,-10656.72,-39408.075,-27117.045,-23626.035,-21872.115,-12252.735,-8030.205
1764434348.9811878,-895.185,-10658.295,-39407.94,-27119.34,-23628.555,-21878.775,-12251.655,-8028.945
1764434348.9811878,-900.3149999999999,-10661.4,-39409.875,-27124.965,-23633.55,-21889.305,-12250.305,-8028.405
1764434348.9811878,-903.555,-10663.155,-39407.895,-27127.575,-23635.71,-21899.115,-12245.355,-8024.04
1764434348.9817128,-904.32,-10662.93,-39406.77,-27128.385,-23636.205,-21902.895,-12241.395,-8021.429999999999
1764434348.9817128,-901.35,-10659.42,-39403.665,-27126.18,-23633.505,-21898.575,-12240.495,-8020.035
1764434348.9817128,-899.1,-10658.07,-39404.52,-27124.425,-23632.245,-21892.005,-12242.79,-8022.644999999999
1764434348.9817128,-901.44,-10661.67,-39411.27,-27126.945,-23635.215,-21888.99,-12249.855,-8030.34
1764434349.022571,-896.4449999999999,-10658.97,-39411.63,-27122.625,-23630.49,-21878.19,-12252.645,-8032.905
1764434349.022571,-891.045,-10654.695,-39408.03,-27117.0,-23624.775,-21868.83,-12252.51,-8031.825
1764434349.022571,-892.17,-10655.82,-39407.985,-27116.865,-23625.36,-21870.72,-12252.285,-8031.24
1764434349.0235636,-892.53,-10655.235,-39404.97,-27117.18,-23625.09,-21875.58,-12248.055,-8026.65
1764434349.0235636,-893.3399999999999,-10654.29,-39401.145,-27117.81,-23624.1,-21881.07,-12242.88,-8020.889999999999
1764434349.0235636,-897.7049999999999,-10656.495,-39401.145,-27121.545,-23627.7,-21891.015,-12239.955,-8017.965
1764434349.0235636,-902.43,-10660.32,-39403.845,-27125.865,-23632.02,-21898.665,-12238.965,-8019.09
1764434349.0235636,-905.175,-10662.66,-39407.58,-27128.835,-23634.99,-21900.33,-12242.34,-8022.915
1764434349.0235636,-902.565,-10660.68,-39407.67,-27126.765,-23632.965,-21894.39,-12245.715,-8025.57
1764434349.0235636,-903.42,-10663.56,-39412.485,-27127.98,-23633.73,-21890.52,-12252.6,-8032.815
1764434349.0235636,-896.805,-10659.42,-39410.28,-27121.365,-23627.565,-21877.605,-12254.355,-8033.13
1764434349.0235636,-895.545,-10659.15,-39411.405,-27119.07,-23626.665,-21872.43,-12256.74,-8036.054999999999
1764434349.0235636,-893.0699999999999,-10656.27,-39407.49,-27116.82,-23623.83,-21871.17,-12253.68,-8032.005
1764434349.0240762,-899.37,-10661.895,-39410.19,-27122.085,-23629.23,-21880.845,-12254.13,-8033.264999999999
1764434349.0240762,-901.98,-10663.065,-39408.885,-27123.93,-23630.805,-21888.315,-12251.34,-8029.08
1764434349.0240762,-905.13,-10664.325,-39407.265,-27127.26,-23633.235,-21897.09,-12247.155,-8025.66
1764434349.0240762,-904.59,-10662.345,-39404.43,-27127.215,-23632.74,-21900.195,-12243.24,-8021.474999999999
1764434349.0240762,-903.33,-10661.67,-39404.16,-27125.865,-23632.11,-21897.9,-12242.43,-8021.7
1764434349.0240762,-902.655,-10662.075,-39406.68,-27124.695,-23631.795,-21893.175,-12246.93,-8025.75
1764434349.0240762,-901.17,-10662.93,-39409.65,-27123.885,-23631.21,-21887.595,-12252.105,-8031.69
1764434349.0240762,-897.255,-10661.805,-39410.865,-27120.78,-23628.24,-21877.515,-12256.38,-8036.144999999999
1764434349.0240762,-895.8149999999999,-10661.49,-39411.36,-27119.295,-23625.945,-21872.295,-12258.135,-8038.035
1764434349.0719569,-898.38,-10662.93,-39412.305,-27120.195,-23627.79,-21874.905,-12257.955,-8038.485
1764434349.0719569,-900.18,-10663.515,-39411.27,-27122.265,-23629.545,-21880.395,-12255.3,-8035.155
1764434349.0724766,-903.015,-10664.55,-39409.515,-27124.29,-23632.245,-21888.315,-12252.105,-8031.465
1764434349.0724766,-906.615,-10666.305,-39408.885,-27127.845,-23635.17,-21897.99,-12248.28,-8028.269999999999
1764434349.0724766,-907.155,-10666.62,-39408.165,-27129.87,-23636.745,-21902.22,-12245.355,-8025.84
1764434349.0724766,-901.62,-10661.715,-39404.385,-27125.145,-23631.975,-21896.1,-12242.43,-8022.15
1764434349.0724766,-898.56,-10659.24,-39404.52,-27123.165,-23629.635,-21889.125,-12243.735,-8023.365
1764434349.0724766,-897.615,-10659.42,-39407.715,-27121.995,-23628.375,-21882.465,-12247.965,-8028.179999999999
1764434349.0724766,-895.0949999999999,-10658.925,-39410.1,-27119.295,-23626.98,-21873.465,-12252.51,-8032.995
1764434349.0724766,-890.775,-10654.74,-39407.13,-27113.67,-23622.39,-21865.5,-12252.465,-8031.059999999999
1764434349.0724766,-892.755,-10656.27,-39407.175,-27115.29,-23623.695,-21868.695,-12252.195,-8031.465
1764434349.0724766,-893.43,-10656.72,-39404.835,-27116.01,-23624.055,-21873.78,-12249.675,-8027.73
1764434349.0724766,-898.515,-10660.14,-39406.05,-27120.69,-23629.005,-21883.635,-12248.01,-8026.74
1764434349.0724766,-899.9549999999999,-10658.745,-39402.765,-27121.725,-23629.545,-21891.33,-12242.7,-8021.565
1764434349.0724766,-903.915,-10661.265,-39404.115,-27125.775,-23633.28,-21897.54,-12241.71,-8022.195
1764434349.0724766,-906.165,-10663.335,-39406.725,-27127.575,-23635.215,-21898.26,-12244.41,-8025.57
1764434349.0724766,-901.305,-10659.15,-39404.61,-27123.12,-23630.58,-21889.395,-12244.275,-8024.804999999999
1764434349.0724766,-900.765,-10660.32,-39407.895,-27123.12,-23630.67,-21883.365,-12249.945,-8030.115
1764434349.0724766,-900.4499999999999,-10662.57,-39412.395,-27122.625,-23630.58,-21877.605,-12256.965,-8036.955
1764434349.0724766,-898.0649999999999,-10662.03,-39412.98,-27120.24,-23627.97,-21872.115,-12258.315,-8038.98
1764434349.0724766,-895.995,-10659.42,-39408.84,-27117.765,-23625.225,-21870.45,-12255.165,-8034.929999999999
1764434349.0724766,-894.8249999999999,-10656.18,-39403.755,-27115.065,-23622.03,-21872.295,-12249.765,-8027.594999999999
1764434349.0724766,-897.3449999999999,-10656.585,-39402.765,-27117.54,-23624.28,-21880.935,-12245.625,-8024.355
1764434349.0724766,-905.175,-10662.3,-39405.465,-27125.415,-23631.705,-21894.84,-12244.725,-8024.58
1764434349.1187797,-905.895,-10662.03,-39403.17,-27126.495,-23631.57,-21898.98,-12241.53,-8022.15
1764434349.1187797,-900.765,-10657.35,-39399.345,-27122.13,-23627.52,-21893.49,-12238.425,-8019.045
1764434349.1187797,-898.8299999999999,-10656.585,-39401.37,-27120.69,-23626.35,-21888.225,-12242.025,-8023.094999999999
1764434349.1187797,-901.485,-10660.95,-39408.66,-27123.885,-23630.49,-21886.2,-12251.52,-8032.23
1764434349.1187797,-895.725,-10657.53,-39407.58,-27118.17,-23625.63,-21873.915,-12252.78,-8033.4
1764434349.1187797,-889.92,-10652.445,-39403.35,-27111.915,-23619.915,-21864.78,-12250.62,-8030.924999999999
1764434349.1187797,-891.0,-10653.345,-39403.305,-27112.725,-23621.04,-21866.49,-12250.35,-8030.25
1764434349.1187797,-896.31,-10658.025,-39405.555,-27117.45,-23625.495,-21876.255,-12250.755,-8031.059999999999
1764434349.1187797,-897.2099999999999,-10656.63,-39401.55,-27117.18,-23624.19,-21881.34,-12245.22,-8024.894999999999
