Timestamp,Channel1,Channel2,Channel3,Channel4,Channel5,Channel6,Channel7,Channel8
1764511737.877283,32647.05,38301.21,21265.83,29106.45,-17971.739999999998,-29934.495,6350.445,19963.935
1764511737.877283,32648.355,38302.965,21267.675,29108.25,-17969.805,-29932.56,6351.705,19965.285
1764511737.877283,32650.83,38305.305,21270.69,29110.095,-17967.465,-29930.4,6353.955,19967.31
1764511737.877283,32652.135,38305.98,21271.14,29111.31,-17966.745,-29929.32,6354.585,19968.435
1764511737.877283,32652.945,38307.285,21272.175,29112.48,-17965.305,-29927.835,6354.764999999999,19969.29
1764511737.877283,32648.76,38303.82,21268.44,29108.97,-17968.454999999998,-29931.795,6352.56,19965.42
1764511737.877283,32650.83,38306.07,21269.52,29110.095,-17966.655,-29930.715,6352.965,19967.355
1764511737.877283,32649.03,38303.055,21266.505,29106.72,-17970.255,-29934.405,6350.355,19964.52
1764511737.877283,32647.275,38301.66,21265.11,29105.145,-17971.425,-29936.565,6349.41,19962.495
1764511737.877283,32647.59,38302.695,21266.28,29105.82,-17970.03,-29934.54,6349.95,19963.845
1764511737.8788135,32645.835,38300.76,21264.48,29104.11,-17972.46,-29935.935,6348.96,19962.135
1764511737.8788135,32645.25,38300.625,21264.345,29104.83,-17971.425,-29935.755,6348.645,19961.955
1764511737.8788135,32644.71,38300.535,21263.49,29104.2,-17971.739999999998,-29936.205,6348.06,19961.145
1764511737.8788135,32643.225,38299.635,21261.825,29103.435,-17972.864999999998,-29937.78,6347.385,19960.245
1764511737.8788135,32642.28,38298.735,21261.06,29102.355,-17973.27,-29938.815,6346.035,19959.12
1764511737.8788135,32641.605,38298.42,21260.745,29100.96,-17974.395,-29939.31,6344.37,19958.49
1764511737.8788135,32644.08,38299.815,21263.085,29103.03,-17972.415,-29937.825,6344.955,19960.74
1764511737.8788135,32642.82,38298.87,21262.095,29101.725,-17973.54,-29938.41,6342.255,19959.345
1764511737.8788135,32643.63,38300.085,21263.445,29103.075,-17972.64,-29938.005,6341.895,19958.85
1764511737.8788135,32642.415,38298.555,21262.59,29102.67,-17973.54,-29939.13,6340.455,19956.42
1764511737.8788135,32645.565,38301.255,21265.065,29104.965,-17970.93,-29935.845,6343.56,19961.46
1764511737.8788135,32645.16,38299.86,21262.905,29102.31,-17974.62,-29939.94,6344.145,19962.495
1764511737.8788135,32647.86,38303.055,21264.345,29105.325,-17970.39,-29934.81,6349.41,19966.59
1764511737.8788135,32646.735,38301.885,21263.355,29104.11,-17971.469999999998,-29936.52,6347.835,19964.565
1764511737.924009,32649.525,38303.82,21265.83,29106.63,-17969.85,-29934.675,6348.24,19966.275
1764511737.924009,32646.78,38301.3,21264.255,29105.055,-17968.68,-29934.315,6348.33,19964.88
1764511737.9250102,32648.715,38303.37,21266.685,29107.035,-17965.17,-29930.85,6350.445,19967.445
1764511737.9250102,32647.23,38301.705,21263.895,29105.145,-17968.725,-29934.72,6347.295,19964.745
1764511737.9250102,32641.65,38296.665,21259.035,29100.69,-17974.305,-29941.02,6343.335,19959.795
1764511737.9250102,32640.885,38296.53,21257.82,29099.97,-17975.114999999998,-29941.92,6343.514999999999,19958.895
1764511737.9250102,32643.63,38298.645,21259.845,29101.23,-17973.09,-29939.49,6345.045,19961.01
1764511737.926011,32644.71,38299.68,21261.645,29102.58,-17973.18,-29938.815,6345.63,19961.955
1764511737.926011,32647.635,38302.2,21264.255,29106.54,-17971.335,-29935.935,6347.969999999999,19965.105
1764511737.926011,32644.125,38298.105,21260.835,29103.345,-17973.899999999998,-29939.13,6345.81,19960.695
1764511737.926011,32645.7,38299.32,21261.735,29103.795,-17972.28,-29938.68,6346.98,19961.64
1764511737.9270113,32648.76,38302.02,21264.66,29107.26,-17969.625,-29935.755,6349.86,19964.205
1764511737.9270113,32652.405,38305.755,21268.17,29110.635,-17966.52,-29931.705,6352.875,19967.985
1764511737.9270113,32648.355,38302.11,21264.66,29106.405,-17969.219999999998,-29935.395,6349.86,19964.43
1764511737.9270113,32649.975,38303.46,21265.875,29107.485,-17967.915,-29934.54,6350.895,19965.915
1764511737.9270113,32652.765,38305.53,21267.315,29109.735,-17966.295,-29932.92,6351.57,19966.995
1764511737.9270113,32647.905,38301.12,21262.59,29105.595,-17970.165,-29936.475,6348.599999999999,19963.26
1764511737.9270113,32647.59,38300.445,21263.445,29106.045,-17968.86,-29935.125,6349.23,19964.43
1764511737.9270113,32652.405,38305.17,21268.395,29109.96,-17964.045,-29930.76,6352.65,19968.66
1764511737.9270113,32654.385,38306.565,21269.745,29111.22,-17962.739999999998,-29929.68,6354.27,19970.46
1764511737.9270113,32653.845,38305.755,21269.475,29111.04,-17962.559999999998,-29929.725,6353.82,19970.685
1764511737.9270113,32655.06,38307.105,21270.24,29112.345,-17962.829999999998,-29929.5,6354.495,19971.585
1764511737.9270113,32657.04,38309.4,21271.86,29114.46,-17960.04,-29927.07,6357.105,19973.475
1764511737.9270113,32651.235,38303.28,21267.585,29109.105,-17963.46,-29929.815,6353.46,19968.885
1764511737.967127,32651.91,38303.82,21267.405,29109.06,-17964.54,-29930.985,6353.01,19968.3
1764511737.967127,32654.25,38305.845,21269.43,29112.03,-17963.235,-29930.355,6354.315,19970.325
1764511737.967127,32658.03,38308.725,21273.255,29115.27,-17960.265,-29926.44,6356.474999999999,19974.195
1764511737.967127,32654.295,38305.17,21270.195,29112.705,-17963.19,-29929.23,6354.045,19971.495
1764511737.967127,32653.665,38304.045,21268.755,29112.165,-17963.19,-29930.175,6353.235,19970.91
1764511737.967127,32654.88,38305.665,21269.475,29112.885,-17963.64,-29929.5,6354.045,19972.215
1764511737.967127,32658.66,38309.085,21273.165,29117.16,-17960.265,-29925.72,6357.06,19975.68
1764511737.967127,32656.185,38306.205,21271.185,29115.495,-17961.39,-29927.97,6355.26,19973.07
1764511737.967127,32660.46,38310.345,21275.685,29119.41,-17957.969999999998,-29923.965,6357.375,19978.02
1764511737.968669,32658.795,38308.77,21272.76,29117.565,-17959.86,-29925.18,6355.08,19976.535
1764511737.968669,32658.975,38308.995,21272.175,29116.935,-17960.13,-29926.17,6355.304999999999,19975.905
1764511737.968669,32655.915,38305.98,21269.295,29115.27,-17962.695,-29928.51,6354.224999999999,19973.61
1764511737.968669,32656.635,38306.655,21269.88,29116.845,-17961.93,-29927.835,6354.09,19974.24
1764511737.968669,32659.335,38309.625,21273.66,29120.22,-17958.465,-29924.505,6356.07,19977.705
1764511737.968669,32658.48,38309.22,21273.93,29120.4,-17958.059999999998,-29925.0,6356.07,19977.525
1764511737.968669,32654.52,38305.035,21269.565,29115.405,-17962.785,-29928.06,6354.135,19973.295
1764511737.968669,32655.555,38305.845,21269.205,29115.855,-17963.37,-29928.105,6355.08,19974.735
1764511737.968669,32656.05,38305.575,21269.88,29115.225,-17961.57,-29926.62,6355.8,19975.32
1764511737.968669,32658.795,38309.31,21273.435,29118.015,-17957.07,-29922.48,6358.905,19978.29
1764511737.968669,32658.84,38309.94,21272.76,29118.555,-17958.645,-29923.605,6357.42,19977.885
1764511737.968669,32657.67,38308.455,21271.59,29118.33,-17959.05,-29923.965,6356.88,19977.48
1764511737.968669,32656.41,38306.52,21270.735,29117.655,-17959.815,-29925.045,6355.935,19975.86
1764511738.017094,32659.56,38308.905,21273.12,29119.995,-17957.475,-29922.795,6357.42,19978.155
1764511738.017094,32659.11,38309.085,21272.13,29117.7,-17959.545,-29924.37,6356.474999999999,19977.66
1764511738.017094,32655.735,38305.62,21267.81,29114.235,-17962.875,-29928.105,6353.775,19974.87
1764511738.017094,32657.535,38307.42,21269.7,29116.26,-17960.219999999998,-29925.36,6354.585,19977.615
1764511738.017094,32658.885,38308.455,21270.78,29117.16,-17960.085,-29924.505,6354.9,19977.795
1764511738.0181007,32655.465,38305.935,21267.9,29114.235,-17964.0,-29928.645,6351.795,19974.195
1764511738.0181007,32655.105,38305.17,21268.215,29113.11,-17964.809999999998,-29929.725,6350.445,19973.385
1764511738.0181007,32648.895,38298.78,21262.005,29107.08,-17969.715,-29934.405,6346.17,19967.445
1764511738.0181007,32647.905,38298.195,21261.645,29106.45,-17968.815,-29932.92,6346.575,19967.355
1764511738.0181007,32650.11,38300.805,21263.76,29109.285,-17967.329999999998,-29931.705,6347.61,19968.885
1764511738.0181007,32650.11,38300.985,21263.805,29109.51,-17967.555,-29932.02,6347.16,19969.2
1764511738.0181007,32649.345,38300.13,21262.905,29108.07,-17967.059999999998,-29931.165,6348.06,19969.335
1764511738.0181007,32652.315,38302.74,21265.695,29109.465,-17964.675,-29928.195,6349.86,19972.125
1764511738.0181007,32648.985,38299.095,21262.14,29106.72,-17967.42,-29930.805,6347.025,19968.93
1764511738.0181007,32650.515,38301.03,21263.22,29108.07,-17966.43,-29931.12,6348.735,19969.875
1764511738.0181007,32655.96,38306.88,21268.575,29113.245,-17961.975,-29926.485,6352.785,19975.14
1764511738.0181007,32657.76,38308.365,21270.42,29115.135,-17960.625,-29923.965,6354.224999999999,19976.76
1764511738.0181007,32655.195,38305.71,21268.08,29111.535,-17963.19,-29926.125,6351.48,19973.745
1764511738.0181007,32655.6,38305.755,21267.585,29111.625,-17963.82,-29926.395,6352.02,19973.52
1764511738.0181007,32653.395,38303.595,21265.335,29108.295,-17966.204999999998,-29928.915,6351.48,19971.945
1764511738.0181007,32655.6,38306.115,21267.63,29110.68,-17963.774999999998,-29926.98,6352.875,19974.06
1764511738.0181007,32651.82,38302.965,21264.93,29108.295,-17965.98,-29929.455,6350.895,19970.64
1764511738.0181007,32654.205,38305.35,21268.035,29111.085,-17962.829999999998,-29925.99,6352.514999999999,19974.195
1764511738.0181007,32653.845,38305.305,21267.81,29111.22,-17962.829999999998,-29925.585,6352.875,19973.97
1764511738.0633993,32654.61,38305.98,21268.08,29111.76,-17964.135,-29927.115,6352.695,19973.16
1764511738.0633993,32659.245,38310.795,21272.76,29116.53,-17959.77,-29922.885,6354.54,19976.715
1764511738.0633993,32659.335,38310.705,21271.455,29114.505,-17962.335,-29924.955,6354.585,19977.435
1764511738.0633993,32653.485,38304.18,21265.29,29107.575,-17969.04,-29931.165,6352.469999999999,19973.475
1764511738.0633993,32655.24,38304.945,21267.09,29110.23,-17965.575,-29927.16,6356.16,19975.635
1764511738.0633993,32655.735,38306.205,21267.63,29110.275,-17965.62,-29926.44,6355.26,19975.185
1764511738.0633993,32656.5,38307.735,21267.9,29111.4,-17965.35,-29925.9,6355.62,19975.095
1764511738.0633993,32658.21,38309.445,21269.97,29112.795,-17963.19,-29924.415,6357.06,19976.805
1764511738.0642116,32660.325,38310.93,21271.275,29114.46,-17961.21,-29923.065,6358.32,19978.155
1764511738.0642116,32659.38,38310.39,21270.015,29113.92,-17962.245,-29923.245,6357.24,19977.48
1764511738.0642116,32660.91,38312.865,21271.725,29115.18,-17960.489999999998,-29921.265,6358.139999999999,19979.01
1764511738.0642116,32665.095,38316.69,21276.405,29118.555,-17957.114999999998,-29918.295,6360.705,19983.015
1764511738.0642116,32665.59,38316.645,21276.54,29119.005,-17956.62,-29917.8,6361.74,19982.79
1764511738.0642116,32662.035,38312.325,21272.355,29115.81,-17959.59,-29921.22,6358.995,19979.28
1764511738.0642116,32665.635,38315.34,21274.92,29119.095,-17955.809999999998,-29917.845,6360.929999999999,19982.835
1764511738.0642116,32665.23,38314.98,21273.93,29118.555,-17956.89,-29918.565,6360.929999999999,19982.7
1764511738.0642116,32663.16,38312.235,21271.455,29116.8,-17958.78,-29920.455,6359.219999999999,19980.0
1764511738.0642116,32666.13,38315.07,21275.055,29118.96,-17956.35,-29917.98,6360.929999999999,19983.15
1764511738.0642116,32666.22,38315.88,21275.19,29119.095,-17955.945,-29917.845,6360.48,19983.375
1764511738.0642116,32664.06,38313.225,21272.535,29117.07,-17958.465,-29920.635,6358.635,19980.63
1764511738.0642116,32660.235,38308.905,21268.845,29112.75,-17962.469999999998,-29924.685,6355.53,19976.895
1764511738.0642116,32661.765,38311.11,21270.735,29115.405,-17960.445,-29922.84,6356.34,19979.28
1764511738.1068587,32661.405,38311.2,21269.88,29115.585,-17960.445,-29924.28,6355.98,19979.28
1764511738.1068587,32657.625,38307.735,21266.73,29113.065,-17963.594999999998,-29926.755,6353.054999999999,19976.22
1764511738.107875,32657.625,38307.06,21266.595,29112.885,-17963.145,-29926.98,6353.01,19976.175
1764511738.107875,32657.49,38306.205,21266.235,29111.94,-17964.0,-29927.07,6352.965,19975.095
1764511738.107875,32654.835,38304.675,21264.03,29109.42,-17966.385,-29929.635,6351.57,19972.935
1764511738.107875,32653.26,38302.785,21261.78,29107.17,-17968.454999999998,-29930.805,6350.31,19971.27
1764511738.107875,32654.295,38304.18,21262.86,29108.88,-17967.195,-29929.455,6350.985,19971.9
1764511738.107875,32657.31,38307.465,21266.775,29113.02,-17963.235,-29925.54,6353.28,19975.86
1764511738.107875,32657.31,38307.42,21266.325,29113.065,-17963.415,-29926.215,6353.37,19975.905
1764511738.107875,32655.87,38306.16,21264.93,29111.13,-17964.36,-29927.925,6352.38,19975.32
1764511738.1098952,32656.095,38305.44,21264.345,29110.815,-17964.27,-29927.205,6352.65,19976.22
1764511738.1098952,32656.185,38305.305,21263.58,29110.185,-17964.045,-29927.205,6351.885,19976.4
1764511738.1098952,32657.535,38307.24,21265.38,29111.13,-17962.92,-29925.27,6353.415,19977.435
1764511738.1098952,32655.285,38305.53,21264.435,29109.33,-17963.82,-29926.305,6352.38,19975.5
1764511738.1098952,32653.485,38302.965,21262.455,29106.855,-17965.89,-29928.06,6350.804999999999,19973.295
1764511738.110914,32655.96,38305.62,21265.245,29109.915,-17962.739999999998,-29925.45,6352.245,19975.86
1764511738.110914,32654.565,38304.855,21264.57,29109.645,-17963.684999999998,-29926.125,6352.469999999999,19974.105
1764511738.110914,32656.995,38306.655,21267.135,29112.93,-17961.03,-29923.335,6353.685,19976.13
1764511738.110914,32656.59,38306.43,21267.045,29111.76,-17962.02,-29924.505,6353.235,19974.96
1764511738.110914,32659.56,38310.075,21270.645,29114.91,-17959.454999999998,-29921.4,6355.62,19979.01
1764511738.155205,32661.27,38311.335,21271.455,29114.28,-17960.489999999998,-29922.705,6355.935,19980.135
1764511738.155205,32660.28,38311.02,21271.635,29114.01,-17961.03,-29924.145,6354.405,19978.74
1764511738.155205,32659.11,38310.48,21270.87,29113.47,-17962.065,-29925.09,6353.73,19977.255
1764511738.155205,32658.57,38310.21,21271.815,29114.19,-17961.344999999998,-29924.19,6353.054999999999,19977.03
1764511738.155205,32656.86,38307.78,21270.735,29113.695,-17961.66,-29924.82,6352.335,19975.545
1764511738.155205,32656.275,38306.835,21271.185,29114.91,-17958.78,-29922.12,6353.28,19975.725
1764511738.155205,32651.055,38301.21,21265.83,29110.32,-17962.155,-29924.82,6350.804999999999,19972.08
1764511738.155205,32653.62,38303.82,21268.17,29113.38,-17959.14,-29922.66,6352.065,19974.42
1764511738.155205,32659.29,38308.275,21272.31,29118.645,-17954.415,-29917.845,6355.08,19979.01
1764511738.155205,32657.355,38305.71,21270.555,29117.655,-17954.73,-29916.36,6355.26,19978.245
1764511738.155205,32655.015,38304.585,21268.935,29115.585,-17956.395,-29917.755,6355.125,19977.03
1764511738.1557343,32651.865,38301.66,21266.235,29111.625,-17961.344999999998,-29922.03,6353.054999999999,19974.465
1764511738.1562738,32655.24,38304.045,21268.17,29114.28,-17959.005,-29919.33,6355.26,19977.66
1764511738.1562738,32653.35,38301.75,21264.975,29112.57,-17960.04,-29920.32,6354.179999999999,19976.085
1764511738.1562738,32654.07,38302.605,21266.37,29113.92,-17958.239999999998,-29918.025,6355.485,19977.435
1764511738.1562738,32650.56,38298.645,21261.78,29110.77,-17961.524999999998,-29920.68,6353.145,19974.42
1764511738.1562738,32653.26,38300.67,21263.04,29112.705,-17959.32,-29918.295,6355.26,19977.165
1764511738.1562738,32655.42,38302.56,21265.695,29114.46,-17956.17,-29915.73,6357.915,19979.37
1764511738.1562738,32654.025,38301.84,21263.085,29111.31,-17959.32,-29919.015,6357.375,19978.11
1764511738.1562738,32656.905,38303.64,21262.545,29110.635,-17959.184999999998,-29917.89,6358.185,19980.405
1764511738.1562738,32657.58,38303.28,21259.89,29108.295,-17961.344999999998,-29918.925,6359.355,19981.44
1764511738.1562738,32654.52,38299.905,21255.255,29103.705,-17966.52,-29923.47,6356.61,19978.56
1764511738.1562738,32658.705,38304.045,21259.26,29107.305,-17964.27,-29921.805,6357.599999999999,19982.07
1764511738.1562738,32659.83,38306.34,21261.06,29107.71,-17964.27,-29922.885,6356.7,19981.98
1764511738.1562738,32660.685,38307.735,21263.67,29109.015,-17963.64,-29923.02,6356.07,19982.16
1764511738.1562738,32661.585,38309.625,21266.505,29110.95,-17962.02,-29922.345,6356.52,19983.105
1764511738.1562738,32662.62,38311.245,21268.575,29112.885,-17960.219999999998,-29921.355,6357.33,19983.825
1764511738.1562738,32658.48,38307.105,21264.66,29109.24,-17963.64,-29926.08,6354.045,19978.605
1764511738.2029998,32658.48,38307.6,21265.695,29109.825,-17963.505,-29925.9,6354.495,19978.425
1764511738.2029998,32659.605,38309.085,21267.225,29110.995,-17962.245,-29923.92,6355.26,19979.145
1764511738.2029998,32662.305,38311.335,21269.115,29113.605,-17959.77,-29921.355,6356.79,19980.99
1764511738.2029998,32659.92,38308.275,21266.46,29111.625,-17961.614999999998,-29924.28,6355.53,19978.56
1764511738.2029998,32663.16,38312.505,21270.195,29115.36,-17958.239999999998,-29920.725,6358.41,19982.52
1764511738.2029998,32663.52,38312.46,21270.555,29116.08,-17957.835,-29920.05,6358.005,19983.645
1764511738.2029998,32663.115,38312.19,21270.33,29116.035,-17957.745,-29920.23,6357.599999999999,19982.655
1764511738.2029998,32659.83,38308.86,21267.18,29112.795,-17960.85,-29922.66,6355.44,19979.145
1764511738.2029998,32660.82,38309.895,21267.63,29113.335,-17960.579999999998,-29921.4,6355.575,19980.72
1764511738.2029998,32662.26,38311.83,21268.89,29114.46,-17958.915,-29919.465,6356.61,19982.52
1764511738.2029998,32664.87,38314.35,21271.23,29116.53,-17955.855,-29917.215,6357.96,19985.265
1764511738.2029998,32666.535,38315.79,21273.39,29117.925,-17954.055,-29915.955,6359.31,19986.615
1764511738.2029998,32666.085,38315.385,21273.12,29116.665,-17954.28,-29916.36,6358.815,19985.58
1764511738.2029998,32661.945,38310.615,21267.945,29112.795,-17958.78,-29920.23,6355.485,19981.305
1764511738.2029998,32665.005,38313.18,21270.78,29115.945,-17956.035,-29917.8,6358.545,19985.22
1764511738.2029998,32662.8,38310.03,21268.125,29113.83,-17958.465,-29920.95,6355.98,19982.16
1764511738.2045524,32664.555,38311.29,21270.06,29115.09,-17956.844999999998,-29918.97,6355.98,19982.34
1764511738.2045524,32665.32,38311.83,21271.32,29115.81,-17955.809999999998,-29917.98,6356.969999999999,19983.33
1764511738.2045524,32666.22,38313.36,21272.535,29117.565,-17954.055,-29916.63,6358.05,19984.095
1764511738.2045524,32665.5,38312.325,21271.275,29116.62,-17954.954999999998,-29918.025,6357.465,19983.105
1764511738.2045524,32662.305,38309.31,21268.395,29114.505,-17958.329999999998,-29921.49,6355.98,19980.0
1764511738.2045524,32663.16,38310.21,21268.755,29113.605,-17958.329999999998,-29921.265,6357.06,19981.8
1764511738.2045524,32668.245,38316.195,21274.605,29118.69,-17952.704999999998,-29915.595,6360.57,19987.155
1764511738.2045524,32667.03,38315.07,21273.66,29117.925,-17953.605,-29915.505,6360.48,19986.84
1764511738.250841,32666.175,38313.0,21271.95,29116.665,-17955.045,-29916.63,6359.67,19984.77
1764511738.250841,32668.83,38315.43,21274.29,29119.05,-17952.48,-29914.785,6360.435,19987.56
1764511738.250841,32669.01,38315.835,21274.2,29119.05,-17953.11,-29915.19,6360.255,19987.47
1764511738.250841,32667.66,38315.205,21273.255,29119.005,-17953.469999999998,-29915.19,6359.04,19986.48
1764511738.250841,32666.805,38314.035,21271.77,29117.79,-17954.415,-29917.035,6357.42,19985.085
1764511738.250841,32665.185,38312.055,21269.835,29116.17,-17956.125,-29917.98,6356.07,19983.87
1764511738.250841,32662.845,38310.435,21268.89,29115.36,-17957.295,-29918.655,6356.52,19981.98
1764511738.2518475,32664.96,38312.46,21271.86,29117.7,-17953.92,-29915.325,6358.905,19985.22
1764511738.2518475,32665.455,38313.405,21272.67,29118.465,-17953.245,-29915.46,6359.445,19986.21
1764511738.2518475,32665.41,38313.045,21272.49,29118.33,-17953.695,-29916.45,6357.96,19985.355
1764511738.2518475,32665.545,38312.595,21271.41,29116.8,-17956.485,-29918.295,6356.79,19984.365
1764511738.2518475,32661.855,38308.86,21266.82,29112.21,-17960.579999999998,-29922.66,6353.82,19980.54
1764511738.2518475,32663.7,38310.57,21267.855,29114.19,-17958.285,-29920.77,6355.125,19982.97
1764511738.2518475,32667.885,38314.755,21271.995,29118.195,-17953.965,-29916.225,6358.41,19987.965
1764511738.252844,32668.335,38314.98,21272.445,29119.005,-17954.28,-29915.73,6357.87,19988.415
1764511738.252844,32664.78,38312.64,21270.105,29116.44,-17957.655,-29919.105,6355.485,19983.78
1764511738.252844,32665.95,38313.675,21271.68,29117.61,-17955.719999999998,-29917.17,6355.98,19984.05
1764511738.252844,32670.36,38317.5,21276.63,29123.1,-17950.14,-29911.05,6358.23,19988.01
1764511738.252844,32666.445,38312.235,21271.68,29119.95,-17954.46,-29916.72,6353.099999999999,19983.33
1764511738.252844,32660.37,38305.17,21264.795,29113.65,-17960.309999999998,-29923.65,6348.915,19979.46
1764511738.252844,32661.27,38305.08,21264.93,29114.235,-17959.995,-29922.255,6352.02,19981.35
1764511738.2538364,32662.53,38306.43,21265.515,29115.495,-17959.545,-29921.13,6351.615,19982.07
1764511738.2988195,32662.98,38306.295,21265.425,29116.755,-17958.78,-29920.32,6351.705,19981.845
1764511738.2988195,32661.405,38304.405,21263.76,29115.81,-17960.13,-29922.12,6350.49,19979.73
1764511738.2988195,32660.28,38304.18,21262.905,29115.945,-17960.715,-29922.84,6350.175,19979.415
1764511738.2988195,32663.115,38307.15,21265.335,29119.455,-17957.52,-29920.005,6351.525,19982.88
1764511738.2988195,32662.395,38306.16,21264.03,29118.42,-17958.735,-29920.95,6351.12,19982.115
1764511738.2998612,32666.355,38309.895,21268.17,29122.02,-17954.325,-29916.585,6353.82,19986.345
1764511738.2998612,32665.005,38308.41,21267.27,29122.11,-17954.28,-29917.8,6352.92,19985.13
1764511738.2998612,32659.695,38302.065,21261.24,29117.7,-17959.32,-29922.75,6347.88,19979.505
1764511738.2998612,32661.135,38303.685,21263.13,29119.635,-17956.844999999998,-29921.13,6348.285,19981.53
1764511738.2998612,32659.155,38300.715,21260.07,29115.99,-17960.67,-29924.73,6346.71,19979.28
1764511738.2998612,32662.035,38303.595,21263.04,29119.365,-17957.88,-29920.95,6347.655,19981.935
1764511738.2998612,32661.675,38304.09,21263.355,29119.77,-17957.565,-29920.77,6347.52,19981.935
1764511738.2998612,32658.165,38300.31,21259.575,29116.17,-17960.85,-29924.145,6345.045,19978.335
1764511738.2998612,32658.75,38300.76,21260.475,29116.845,-17960.13,-29923.38,6345.36,19979.235
1764511738.2998612,32658.345,38300.985,21260.43,29117.745,-17959.454999999998,-29923.335,6344.82,19978.92
1764511738.2998612,32661.135,38302.965,21262.635,29119.635,-17956.575,-29920.59,6346.844999999999,19980.405
1764511738.2998612,32663.745,38304.81,21265.29,29121.21,-17953.38,-29918.16,6348.78,19982.475
1764511738.2998612,32661.045,38302.38,21262.23,29118.69,-17957.475,-29922.03,6346.304999999999,19979.73
1764511738.2998612,32661.315,38302.83,21262.365,29118.645,-17957.295,-29922.3,6346.304999999999,19980.18
1764511738.2998612,32664.735,38306.385,21265.875,29121.93,-17953.739999999998,-29918.61,6348.51,19984.05
1764511738.2998612,32664.87,38307.285,21265.965,29123.145,-17953.92,-29918.07,6348.645,19984.905
1764511738.2998612,32664.555,38307.06,21265.605,29122.65,-17954.055,-29918.205,6348.285,19984.41
1764511738.2998612,32662.62,38305.44,21263.715,29120.535,-17955.989999999998,-29920.68,6346.26,19982.25
1764511738.2998612,32666.445,38308.365,21267.495,29123.775,-17952.344999999998,-29917.215,6348.014999999999,19984.635
1764511738.3438904,32665.905,38308.41,21267.765,29124.18,-17952.03,-29915.37,6349.41,19985.22
1764511738.3438904,32665.635,38307.645,21266.73,29123.01,-17952.165,-29915.865,6350.219999999999,19985.58
1764511738.3438904,32669.505,38312.28,21271.77,29126.835,-17945.325,-29909.43,6354.315,19990.71
1764511738.3444245,32670.855,38313.135,21271.995,29127.465,-17945.1,-29909.745,6354.179999999999,19991.61
1764511738.3444245,32672.61,38315.61,21273.435,29129.13,-17945.37,-29909.565,6355.17,19992.42
1764511738.3444245,32674.095,38317.05,21274.875,29129.67,-17945.055,-29908.395,6356.205,19993.635
1764511738.3444245,32672.745,38315.52,21272.985,29128.095,-17946.09,-29909.745,6355.98,19992.15
1764511738.3444245,32668.65,38311.2,21269.205,29123.955,-17948.88,-29912.67,6353.91,19988.685
1764511738.3444245,32670.045,38311.92,21270.735,29125.485,-17947.305,-29911.14,6354.9,19990.935
1764511738.3444245,32665.86,38307.78,21266.73,29122.2,-17950.59,-29914.515,6352.38,19986.84
1764511738.3444245,32665.77,38308.77,21267.225,29122.74,-17949.42,-29914.02,6352.605,19986.705
1764511738.3444245,32671.26,38313.675,21272.04,29127.69,-17943.75,-29908.89,6356.385,19991.565
1764511738.3444245,32671.935,38314.08,21272.445,29129.265,-17942.535,-29907.765,6357.195,19992.195
1764511738.3444245,32667.48,38310.12,21268.35,29125.08,-17946.855,-29912.49,6354.224999999999,19988.595
1764511738.3444245,32666.985,38309.76,21268.71,29125.305,-17946.27,-29912.13,6354.36,19989.405
1764511738.3444245,32667.57,38309.715,21268.89,29126.115,-17945.594999999998,-29912.535,6354.135,19989.315
1764511738.3444245,32669.19,38311.605,21269.43,29127.735,-17946.315,-29912.985,6354.54,19989.36
1764511738.3444245,32669.64,38312.28,21270.24,29127.645,-17947.395,-29913.39,6354.045,19990.17
1764511738.3444245,32672.97,38315.07,21273.12,29129.445,-17944.92,-29910.735,6356.295,19993.815
1764511738.3444245,32671.665,38313.36,21272.085,29128.455,-17944.965,-29910.915,6355.755,19991.34
1764511738.3444245,32669.415,38311.29,21270.51,29127.96,-17946.315,-29912.805,6355.304999999999,19989.495
1764511738.3444245,32671.53,38313.63,21272.805,29131.515,-17942.94,-29909.88,6356.025,19992.015
1764511738.3444245,32671.935,38314.215,21273.48,29131.02,-17943.255,-29910.51,6356.295,19992.465
1764511738.3444245,32666.76,38310.21,21268.305,29125.08,-17948.565,-29916.09,6352.605,19987.605
1764511738.3884988,32667.885,38311.56,21269.205,29126.61,-17946.719999999998,-29915.145,6354.135,19989.135
1764511738.3884988,32670.135,38313.99,21272.13,29128.995,-17944.2,-29911.995,6355.844999999999,19991.16
1764511738.3890436,32672.43,38315.745,21273.75,29130.57,-17942.445,-29910.15,6358.185,19993.5
1764511738.3890436,32675.67,38318.175,21275.595,29133.135,-17939.655,-29907.315,6360.57,19996.65
1764511738.3890436,32675.715,38318.58,21275.91,29132.91,-17939.204999999998,-29906.775,6360.344999999999,19997.145
1764511738.3890436,32674.23,38317.905,21275.37,29132.055,-17940.015,-29907.81,6359.219999999999,19996.695
1764511738.3890436,32672.52,38316.24,21274.29,29130.93,-17940.555,-29909.115,6358.32,19993.905
1764511738.3890436,32673.555,38317.77,21275.73,29131.11,-17940.015,-29908.575,6359.085,19994.715
1764511738.3890436,32677.065,38320.47,21278.205,29133.495,-17937.495,-29906.1,6360.885,19997.82
1764511738.3890436,32673.42,38316.465,21274.605,29129.985,-17940.87,-29909.205,6358.185,19994.22
1764511738.3890436,32673.06,38316.6,21274.74,29130.075,-17940.6,-29909.97,6357.375,19994.175
1764511738.3890436,32671.845,38314.755,21272.67,29127.96,-17942.805,-29911.725,6355.395,19992.195
1764511738.3890436,32668.695,38311.83,21269.295,29123.505,-17946.855,-29915.82,6353.639999999999,19988.775
1764511738.3890436,32666.895,38310.03,21267.9,29122.29,-17947.44,-29916.36,6352.785,19988.28
1764511738.3890436,32667.93,38311.605,21267.945,29123.145,-17946.45,-29914.515,6353.099999999999,19989.27
1764511738.3890436,32672.925,38317.32,21273.48,29128.095,-17940.69,-29909.565,6356.429999999999,19994.67
1764511738.3890436,32674.005,38318.13,21274.065,29129.355,-17939.88,-29908.485,6357.375,19996.335
1764511738.3895674,32674.905,38319.12,21275.235,29131.02,-17938.44,-29906.865,6358.094999999999,19997.1
1764511738.3895674,32677.605,38321.91,21278.43,29133.495,-17935.695,-29903.94,6360.344999999999,19999.935
1764511738.3895674,32676.03,38320.2,21277.935,29132.01,-17937.045,-29905.38,6358.724999999999,19998.405
1764511738.3895674,32673.51,38317.32,21274.605,29129.895,-17939.79,-29907.855,6357.42,19996.155
1764511738.3895674,32673.06,38316.465,21273.21,29129.22,-17940.329999999998,-29908.62,6356.61,19995.12
1764511738.4379067,32673.96,38317.23,21274.2,29130.21,-17938.98,-29907.315,6356.835,19995.93
1764511738.4379067,32677.245,38320.29,21276.945,29133.99,-17935.965,-29903.94,6358.094999999999,19999.035
1764511738.4379067,32678.1,38319.84,21276.72,29134.71,-17936.594999999998,-29903.355,6358.455,19999.53
1764511738.4379067,32674.455,38315.43,21272.58,29131.92,-17940.015,-29906.82,6355.8,19995.93
1764511738.4379067,32677.875,38318.76,21275.595,29134.8,-17936.954999999998,-29903.94,6357.33,19999.125
1764511738.4379067,32678.64,38319.705,21276.18,29135.655,-17936.1,-29903.085,6358.094999999999,20000.07
1764511738.4379067,32679.405,38320.83,21277.395,29136.645,-17935.245,-29901.87,6358.455,20001.645
1764511738.4379067,32675.985,38316.69,21274.11,29133.495,-17937.855,-29904.57,6353.865,19998.18
1764511738.4379067,32672.655,38312.73,21270.15,29129.805,-17940.87,-29907.585,6351.929999999999,19994.805
1764511738.4379067,32673.915,38314.755,21271.23,29130.57,-17940.015,-29906.64,6353.054999999999,19996.38
1764511738.4379067,32672.97,38313.27,21270.555,29129.985,-17941.815,-29908.71,6351.974999999999,19995.03
1764511738.4379067,32676.57,38317.005,21273.57,29132.955,-17938.395,-29905.605,6353.73,19998.405
1764511738.4379067,32677.02,38316.555,21273.525,29132.91,-17938.53,-29905.605,6354.54,19998.18
1764511738.4387734,32673.78,38313.81,21270.375,29130.12,-17941.454999999998,-29907.99,6353.01,19995.03
1764511738.4387734,32675.355,38315.655,21272.175,29132.01,-17939.475,-29905.92,6353.55,19997.055
1764511738.4387734,32675.22,38315.385,21272.445,29132.685,-17939.114999999998,-29906.415,6353.594999999999,19997.055
1764511738.4387734,32675.355,38314.935,21271.86,29132.595,-17938.665,-29905.875,6354.675,19997.325
1764511738.4387734,32670.0,38309.535,21266.685,29127.375,-17942.13,-29910.06,6351.12,19992.69
1764511738.4387734,32672.025,38311.56,21268.485,29128.725,-17939.52,-29908.665,6352.56,19995.12
1764511738.4387734,32677.245,38316.42,21273.705,29133.495,-17935.2,-29903.895,6355.844999999999,19999.62
1764511738.4387734,32681.205,38318.94,21275.685,29135.79,-17933.715,-29901.96,6357.78,20001.96
1764511738.4387734,32681.16,38318.04,21275.325,29134.8,-17933.895,-29902.635,6358.32,20002.005
1764511738.4387734,32679.9,38317.77,21274.335,29134.08,-17935.469999999998,-29903.67,6358.545,20001.96
1764511738.4387734,32677.875,38316.33,21272.895,29131.875,-17937.045,-29905.065,6358.635,20000.565
1764511738.4387734,32681.205,38319.435,21276.36,29135.07,-17933.489999999998,-29902.545,6360.929999999999,20003.265
1764511738.4387734,32679.765,38318.265,21275.235,29133.63,-17935.38,-29904.705,6359.625,20001.015
1764511738.4831088,32682.6,38322.36,21278.925,29136.285,-17932.364999999998,-29901.735,6362.37,20005.155
1764511738.4831088,32678.01,38318.085,21274.02,29132.46,-17936.055,-29906.28,6359.804999999999,20001.105
1764511738.4831088,32677.47,38317.545,21273.48,29131.38,-17936.64,-29907.0,6360.344999999999,20000.835
1764511738.4831088,32677.92,38317.23,21272.895,29131.065,-17936.505,-29906.595,6360.615,20001.285
1764511738.4831088,32678.595,38317.86,21273.39,29131.2,-17935.965,-29906.64,6361.335,20000.745
1764511738.4831088,32677.29,38316.33,21273.12,29130.12,-17936.28,-29907.36,6360.795,20000.07
1764511738.4831088,32678.145,38317.725,21274.785,29131.245,-17936.01,-29906.28,6361.469999999999,20001.555
1764511738.4831088,32681.79,38321.775,21277.845,29134.62,-17934.03,-29904.255,6362.955,20004.885
1764511738.4831088,32679.45,38319.39,21274.605,29132.055,-17935.469999999998,-29906.325,6361.38,20002.23
1764511738.4831088,32678.595,38318.31,21273.525,29131.245,-17935.965,-29906.595,6360.344999999999,20001.555
1764511738.4831088,32679.585,38319.48,21274.425,29133.09,-17934.614999999998,-29905.695,6360.974999999999,20003.445
1764511738.4831088,32676.03,38314.935,21270.015,29129.265,-17939.024999999998,-29909.61,6358.185,20000.295
1764511738.4831088,32676.57,38315.475,21270.645,29131.02,-17936.55,-29907.225,6360.21,20000.745
1764511738.4831088,32676.66,38315.16,21271.005,29131.83,-17935.155,-29906.055,6360.929999999999,20000.925
1764511738.4831088,32678.145,38317.41,21273.975,29133.45,-17934.614999999998,-29905.47,6361.245,20001.645
1764511738.4831088,32678.73,38318.76,21274.785,29132.595,-17936.145,-29906.955,6360.66,20002.41
1764511738.4831088,32680.305,38319.93,21275.055,29132.19,-17935.875,-29906.865,6361.11,20003.76
1764511738.4831088,32683.32,38322.225,21277.305,29136.06,-17932.95,-29903.715,6362.415,20006.46
1764511738.4831088,32684.58,38323.35,21278.52,29138.76,-17930.61,-29901.33,6363.135,20007.585
1764511738.4831088,32683.77,38322.36,21277.755,29139.345,-17930.79,-29901.78,6362.775,20007.81
1764511738.4831088,32685.21,38323.53,21278.655,29140.155,-17929.395,-29900.655,6364.485,20009.295
1764511738.4841468,32683.05,38320.11,21276.27,29137.77,-17932.005,-29903.04,6361.56,20006.505
1764511738.531992,32680.125,38317.095,21272.67,29135.115,-17935.155,-29906.1,6359.04,20003.13
1764511738.531992,32679.315,38316.015,21270.87,29134.98,-17935.92,-29906.595,6357.285,20002.095
1764511738.531992,32682.33,38318.355,21273.795,29138.085,-17932.905,-29903.58,6358.724999999999,20005.29
1764511738.531992,32679.54,38315.52,21270.96,29136.375,-17935.875,-29905.605,6357.24,20002.635
1764511738.531992,32682.24,38317.77,21273.66,29139.48,-17932.815,-29903.445,6359.085,20005.605
1764511738.531992,32679.855,38315.835,21271.635,29137.095,-17934.03,-29905.605,6357.465,20003.22
1764511738.531992,32680.53,38316.69,21271.77,29138.085,-17933.445,-29904.705,6358.275,20003.715
1764511738.531992,32682.285,38318.67,21273.48,29140.695,-17931.465,-29903.13,6358.905,20006.055
1764511738.531992,32681.385,38317.86,21272.805,29139.525,-17932.95,-29904.57,6358.41,20004.795
1764511738.531992,32676.435,38313.135,21267.855,29134.305,-17938.215,-29909.79,6354.135,19999.845
1764511738.531992,32675.13,38311.56,21266.82,29133.315,-17938.53,-29910.285,6353.37,19998.135
1764511738.531992,32674.545,38311.29,21266.055,29133.495,-17938.485,-29910.24,6352.965,19997.145
1764511738.531992,32675.895,38312.595,21267.18,29133.99,-17937.765,-29909.88,6353.775,19998.45
1764511738.531992,32674.545,38311.56,21266.505,29132.595,-17939.07,-29911.635,6352.29,19998.135
1764511738.531992,32675.94,38313.315,21268.125,29133.855,-17938.215,-29910.24,6352.65,19999.485
1764511738.531992,32673.78,38311.47,21265.605,29132.28,-17940.105,-29911.86,6352.245,19997.235
1764511738.531992,32674.455,38313.315,21267.765,29133.945,-17938.395,-29911.365,6353.19,19998.18
1764511738.531992,32675.895,38314.755,21269.34,29135.52,-17936.145,-29908.98,6354.945,19999.98
1764511738.531992,32677.695,38316.06,21271.68,29137.23,-17931.78,-29903.94,6357.645,20003.625
1764511738.531992,32676.615,38314.26,21268.71,29134.485,-17935.29,-29907.225,6354.719999999999,20001.42
1764511738.531992,32675.94,38313.63,21266.91,29134.485,-17936.82,-29909.565,6353.82,19999.755
1764511738.531992,32678.73,38315.745,21269.88,29136.96,-17934.03,-29906.19,6355.935,20002.635
1764511738.5801818,32674.275,38311.2,21266.235,29132.685,-17936.37,-29908.035,6353.73,19999.305
1764511738.580632,32674.005,38310.525,21265.245,29132.46,-17938.53,-29910.285,6352.605,19997.37
1764511738.580632,32673.735,38310.525,21264.615,29131.92,-17940.465,-29912.715,6351.03,19996.56
1764511738.580632,32676.345,38313.27,21266.82,29134.89,-17937.63,-29909.43,6352.605,19999.17
1764511738.580632,32677.47,38313.765,21267.225,29136.06,-17936.864999999998,-29908.665,6353.955,19999.71
1764511738.580632,32678.685,38313.63,21267.63,29137.32,-17936.1,-29907.54,6354.63,20000.52
1764511738.580632,32680.71,38315.7,21269.88,29138.85,-17934.434999999998,-29905.65,6356.61,20002.455
1764511738.580632,32679.9,38314.53,21269.16,29137.95,-17934.84,-29907.495,6355.71,20002.05
1764511738.580632,32678.37,38312.82,21267.18,29136.735,-17935.875,-29908.89,6354.81,20000.385
1764511738.580632,32680.53,38315.61,21269.52,29138.985,-17934.03,-29906.595,6355.98,20002.41
1764511738.580632,32680.53,38314.935,21269.205,29137.77,-17935.155,-29907.0,6355.755,20001.42
1764511738.580632,32681.97,38316.195,21271.365,29138.535,-17931.915,-29903.76,6357.645,20003.625
1764511738.5811763,32681.61,38316.33,21271.905,29138.4,-17931.555,-29903.895,6357.87,20003.445
1764511738.5811763,32678.505,38312.73,21268.395,29135.97,-17934.975,-29907.945,6355.349999999999,20000.16
1764511738.5811763,32680.26,38313.63,21269.205,29136.96,-17934.795,-29906.955,6355.53,20000.925
1764511738.5811763,32683.365,38317.275,21272.31,29141.145,-17931.42,-29904.93,6357.375,20004.21
1764511738.5811763,32683.275,38317.905,21272.58,29142.045,-17931.149999999998,-29904.84,6357.105,20004.075
1764511738.5811763,32680.53,38314.575,21269.25,29139.885,-17934.12,-29907.54,6353.73,20000.835
1764511738.5811763,32678.28,38312.145,21266.82,29136.465,-17936.415,-29909.34,6352.56,19999.035
1764511738.5811763,32680.17,38313.81,21267.81,29137.545,-17934.165,-29907.45,6354.36,20000.79
1764511738.5811763,32681.97,38316.51,21269.385,29140.785,-17931.51,-29905.425,6356.295,20002.725
1764511738.5811763,32684.355,38318.985,21272.445,29144.16,-17929.17,-29901.735,6357.33,20005.83
1764511738.5811763,32682.555,38316.195,21269.97,29143.755,-17930.43,-29902.545,6356.16,20004.435
1764511738.5811763,32683.815,38317.185,21271.05,29146.05,-17928.585,-29901.06,6357.06,20005.425
1764511738.623543,32681.34,38314.125,21269.43,29143.485,-17931.69,-29903.895,6355.71,20003.22
1764511738.623543,32682.06,38314.62,21269.88,29143.935,-17933.445,-29904.255,6355.62,20004.165
1764511738.623543,32686.875,38318.94,21274.155,29148.255,-17928.405,-29899.62,6358.679999999999,20008.26
1764511738.623543,32685.435,38316.915,21271.995,29146.365,-17929.17,-29902.095,6357.42,20006.325
1764511738.623543,32687.91,38318.805,21274.02,29148.57,-17926.829999999998,-29900.115,6358.635,20008.665
1764511738.6240942,32683.905,38315.385,21270.645,29145.78,-17930.07,-29902.5,6356.385,20005.29
1764511738.6240942,32685.795,38317.455,21272.76,29147.58,-17927.55,-29899.665,6358.005,20007.315
1764511738.6240942,32687.055,38318.22,21274.74,29149.965,-17923.005,-29895.57,6360.12,20009.52
1764511738.6240942,32683.095,38314.17,21271.23,29147.13,-17923.995,-29897.19,6358.635,20006.01
1764511738.6240942,32688.81,38320.38,21275.82,29151.765,-17921.745,-29894.895,6361.2,20011.41
1764511738.6240942,32691.105,38322.54,21276.81,29151.675,-17922.555,-29894.265,6362.235,20012.985
1764511738.6240942,32688.72,38321.055,21276.0,29148.57,-17924.94,-29896.38,6361.38,20011.41
1764511738.6240942,32687.505,38319.84,21274.56,29147.76,-17925.885,-29897.37,6360.974999999999,20010.555
1764511738.6240942,32685.435,38318.355,21271.545,29145.96,-17928.675,-29900.88,6357.195,20008.08
1764511738.6240942,32684.445,38317.815,21271.005,29144.79,-17930.34,-29901.915,6357.06,20007.0
1764511738.6240942,32685.21,38318.085,21271.905,29145.78,-17927.954999999998,-29899.17,6358.815,20007.945
1764511738.626659,32684.58,38316.735,21270.645,29145.06,-17928.54,-29900.205,6358.185,20007.27
1764511738.626659,32682.465,38314.17,21267.855,29144.295,-17930.475,-29903.445,6356.07,20004.93
1764511738.626659,32687.685,38319.48,21272.805,29149.02,-17926.11,-29898.765,6358.635,20010.645
1764511738.626659,32687.55,38319.21,21272.985,29148.885,-17925.84,-29898.315,6358.95,20011.41
1764511738.670875,32684.67,38316.555,21270.06,29146.5,-17927.82,-29900.295,6357.375,20008.08
1764511738.670875,32687.1,38319.57,21272.67,29149.335,-17925.21,-29897.64,6358.815,20010.645
1764511738.670875,32688.9,38321.37,21274.38,29150.055,-17923.005,-29896.11,6360.795,20013.21
1764511738.670875,32684.895,38317.005,21270.6,29145.96,-17926.38,-29899.215,6358.32,20009.655
1764511738.670875,32685.255,38317.275,21271.185,29146.77,-17924.13,-29896.83,6359.4,20010.105
1764511738.670875,32683.32,38316.735,21267.99,29144.43,-17928.18,-29901.24,6357.78,20007.495
1764511738.670875,32682.555,38316.465,21267.945,29144.205,-17928.405,-29901.375,6358.23,20007.495
1764511738.670875,32681.07,38314.845,21267.09,29142.405,-17927.864999999998,-29901.33,6356.88,20006.055
1764511738.6718762,32681.79,38315.745,21267.495,29142.36,-17927.145,-29900.79,6357.06,20006.595
1764511738.6718762,32683.005,38316.51,21268.935,29143.35,-17926.785,-29900.88,6357.645,20007.27
1764511738.6718762,32685.12,38318.31,21270.42,29144.88,-17925.75,-29899.44,6359.219999999999,20009.385
1764511738.6718762,32688.63,38322.18,21274.515,29147.895,-17922.96,-29895.93,6361.469999999999,20012.94
1764511738.6718762,32689.17,38323.395,21275.505,29149.02,-17921.745,-29894.67,6363.045,20013.93
1764511738.6718762,32685.705,38319.75,21272.31,29145.78,-17924.13,-29897.505,6360.21,20011.005
1764511738.6718762,32683.77,38318.13,21270.465,29143.62,-17925.524999999998,-29900.07,6357.735,20008.755
1764511738.6718762,32679.135,38314.035,21266.685,29139.57,-17929.89,-29903.94,6354.9,20004.57
1764511738.6718762,32677.83,38313.36,21265.56,29138.895,-17930.79,-29905.965,6353.955,20003.805
1764511738.6718762,32680.755,38316.195,21267.81,29141.28,-17928.54,-29903.805,6355.889999999999,20006.73
1764511738.6718762,32679.495,38314.845,21266.91,29139.615,-17929.98,-29905.56,6355.844999999999,20005.83
1764511738.6718762,32680.62,38315.52,21268.17,29140.56,-17927.505,-29902.68,6356.969999999999,20008.08
1764511738.6718762,32681.745,38316.645,21268.26,29141.64,-17927.594999999998,-29902.32,6356.52,20008.71
1764511738.6718762,32683.995,38318.445,21270.195,29143.44,-17926.02,-29901.555,6357.78,20009.835
1764511738.6718762,32683.68,38318.445,21270.465,29144.205,-17925.48,-29901.78,6358.094999999999,20009.205
1764511738.6718762,32677.83,38312.055,21263.805,29137.815,-17931.555,-29907.945,6353.145,20002.725
1764511738.6718762,32678.19,38311.83,21263.265,29138.04,-17932.094999999998,-29907.9,6353.505,20002.185
1764511738.6718762,32678.685,38312.505,21264.48,29139.075,-17931.555,-29906.595,6354.179999999999,20003.04
1764511738.6718762,32678.415,38313.045,21266.1,29138.67,-17929.305,-29904.525,6354.945,20003.805
1764511738.6718762,32680.98,38316.285,21268.125,29141.055,-17927.01,-29902.455,6356.07,20006.955
1764511738.7176864,32681.205,38316.375,21267.315,29140.695,-17928.09,-29903.715,6356.385,20006.46
1764511738.7176864,32680.485,38315.655,21266.01,29139.03,-17928.989999999998,-29904.48,6355.485,20005.335
1764511738.7176864,32681.34,38316.33,21266.64,29139.705,-17927.774999999998,-29903.715,6355.304999999999,20006.1
1764511738.7176864,32680.08,38314.62,21265.56,29138.085,-17929.305,-29905.74,6354.135,20004.93
1764511738.7176864,32682.42,38317.095,21268.26,29140.785,-17926.335,-29902.14,6355.935,20008.17
1764511738.7176864,32681.385,38315.475,21266.82,29140.11,-17927.64,-29903.22,6354.585,20006.64
1764511738.7176864,32679.855,38313.765,21265.38,29139.12,-17929.62,-29904.66,6352.875,20004.705
1764511738.7176864,32679.0,38314.305,21265.02,29138.13,-17930.295,-29905.92,6351.885,20004.345
1764511738.7182243,32676.345,38311.065,21262.005,29135.655,-17932.77,-29908.665,6350.895,20002.095
1764511738.7182243,32676.435,38310.66,21262.41,29135.475,-17933.625,-29908.98,6350.895,20002.095
1764511738.7182243,32677.11,38311.425,21262.275,29135.7,-17932.905,-29908.89,6351.974999999999,20002.815
1764511738.7182243,32676.66,38311.11,21262.86,29135.61,-17930.88,-29907.045,6352.38,20003.175
1764511738.7182243,32678.325,38312.775,21264.255,29136.96,-17929.395,-29906.01,6353.73,20004.705
1764511738.7182243,32680.08,38313.63,21265.83,29138.94,-17928.09,-29905.29,6354.179999999999,20005.11
1764511738.7182243,32682.87,38316.24,21268.26,29141.595,-17925.614999999998,-29902.23,6355.575,20007.63
1764511738.7182243,32681.475,38315.61,21266.82,29139.885,-17928.045,-29904.03,6354.27,20006.73
1764511738.7182243,32682.33,38315.745,21267.63,29139.975,-17928.18,-29903.67,6355.17,20006.955
1764511738.7182243,32678.955,38312.64,21263.985,29137.275,-17928.989999999998,-29905.47,6353.91,20005.29
1764511738.7182243,32676.66,38311.155,21261.87,29135.79,-17931.059999999998,-29907.9,6352.469999999999,20003.355
1764511738.7182243,32679.405,38313.72,21264.57,29138.355,-17928.63,-29904.885,6353.28,20005.56
1764511738.7182243,32678.46,38312.415,21263.445,29138.4,-17928.18,-29904.84,6353.82,20005.02
1764511738.7182243,32679.945,38314.08,21264.57,29140.695,-17925.614999999998,-29902.86,6354.585,20007.27
1764511738.7656925,32681.745,38316.195,21267.36,29143.305,-17923.995,-29901.375,6355.665,20008.62
1764511738.7667632,32683.095,38318.985,21270.15,29143.395,-17923.905,-29901.24,6357.24,20010.555
1764511738.7667632,32683.905,38319.66,21269.97,29141.82,-17925.344999999998,-29902.635,6357.24,20011.005
1764511738.7667632,32679.405,38314.305,21264.975,29138.175,-17928.585,-29905.785,6353.865,20006.955
1764511738.7667632,32679.045,38313.855,21264.93,29138.175,-17927.505,-29905.155,6353.91,20007.36
1764511738.7667632,32679.18,38314.395,21264.93,29138.22,-17926.29,-29904.48,6354.36,20007.27
1764511738.7667632,32680.575,38315.7,21267.36,29139.255,-17922.329999999998,-29901.15,6355.755,20009.61
1764511738.7677586,32681.025,38315.295,21266.91,29140.245,-17922.239999999998,-29900.565,6356.295,20010.555
1764511738.7677586,32682.105,38317.05,21267.675,29142.09,-17922.555,-29901.195,6357.96,20011.815
1764511738.7677586,32677.515,38312.505,21262.77,29138.13,-17927.594999999998,-29906.775,6354.719999999999,20007.36
1764511738.7677586,32676.12,38311.515,21261.555,29136.645,-17928.855,-29908.755,6352.245,20005.155
1764511738.7677586,32680.44,38316.195,21265.47,29140.02,-17925.57,-29905.29,6355.304999999999,20008.845
1764511738.7687602,32681.61,38316.69,21266.28,29141.055,-17923.77,-29903.805,6356.34,20009.79
1764511738.7687602,32677.875,38312.91,21262.77,29137.995,-17926.92,-29907.495,6353.145,20005.875
1764511738.7687602,32680.08,38314.62,21264.66,29139.885,-17925.524999999998,-29905.02,6354.179999999999,20008.485
1764511738.7687602,32677.155,38311.785,21261.87,29136.96,-17928.09,-29907.405,6352.56,20006.055
1764511738.7687602,32676.57,38310.885,21260.97,29135.655,-17928.719999999998,-29907.585,6351.344999999999,20005.605
1764511738.7687602,32675.265,38309.4,21261.06,29135.43,-17926.965,-29906.235,6351.75,20005.11
1764511738.7687602,32678.82,38312.325,21263.625,29137.995,-17925.03,-29905.29,6353.82,20007.495
1764511738.7687602,32682.51,38316.06,21266.73,29141.325,-17922.42,-29902.77,6355.62,20010.645
1764511738.7687602,32679.315,38313.585,21263.265,29138.445,-17925.48,-29905.605,6352.92,20007.27
1764511738.7687602,32679.63,38313.81,21263.625,29138.895,-17924.94,-29904.57,6352.83,20008.305
1764511738.7687602,32683.41,38317.68,21267.045,29142.855,-17921.79,-29900.655,6355.755,20011.995
1764511738.7687602,32680.08,38313.54,21263.76,29139.93,-17925.48,-29903.355,6354.135,20009.115
1764511738.812045,32680.485,38313.81,21264.795,29139.795,-17924.67,-29903.355,6354.405,20009.52
1764511738.8130603,32682.195,38316.015,21266.64,29141.145,-17922.915,-29901.69,6355.8,20010.87
1764511738.8130603,32686.245,38319.795,21270.06,29144.52,-17920.215,-29898.315,6358.23,20014.65
1764511738.8130603,32683.905,38318.805,21268.26,29143.395,-17921.745,-29899.89,6356.07,20012.895
1764511738.8130603,32683.095,38317.635,21267.09,29142.045,-17922.78,-29901.24,6355.349999999999,20012.22
1764511738.8130603,32682.735,38317.095,21266.865,29140.92,-17922.915,-29902.32,6355.755,20011.545
1764511738.8130603,32685.21,38320.155,21270.24,29143.98,-17920.215,-29898.855,6357.51,20015.01
1764511738.8130603,32683.59,38318.985,21268.44,29142.765,-17921.7,-29899.575,6356.745,20013.66
1764511738.8130603,32686.83,38322.585,21271.77,29145.78,-17917.965,-29895.84,6359.804999999999,20017.215
1764511738.8140562,32684.355,38319.93,21268.845,29143.035,-17919.855,-29898.045,6357.87,20014.47
1764511738.8140562,32682.645,38318.355,21267.09,29141.28,-17921.52,-29900.25,6356.925,20012.535
1764511738.8140562,32684.805,38320.29,21269.07,29142.585,-17919.855,-29898.315,6358.41,20014.695
1764511738.8140562,32682.555,38318.22,21266.145,29139.345,-17923.14,-29901.15,6357.69,20011.545
1764511738.8140562,32680.395,38316.69,21264.885,29137.68,-17923.364999999998,-29902.05,6356.745,20010.105
1764511738.8140562,32681.745,38317.41,21266.235,29138.355,-17922.78,-29901.78,6356.429999999999,20011.185
1764511738.8140562,32683.68,38319.39,21267.63,29139.93,-17922.015,-29900.52,6357.51,20011.77
1764511738.8140562,32684.31,38320.155,21267.36,29139.57,-17921.52,-29900.7,6357.915,20013.345
1764511738.8150554,32687.775,38323.53,21270.6,29141.775,-17917.649999999998,-29897.055,6360.344999999999,20016.675
1764511738.8150554,32688.27,38324.61,21271.275,29142.495,-17916.614999999998,-29896.11,6361.875,20016.99
1764511738.8150554,32684.085,38320.38,21266.955,29138.58,-17921.024999999998,-29900.385,6359.085,20011.905
1764511738.8150554,32687.685,38323.89,21270.51,29140.83,-17917.695,-29896.965,6361.2,20015.325
1764511738.8150554,32684.13,38320.83,21267.36,29138.31,-17921.52,-29900.295,6358.635,20012.58
1764511738.8150554,32684.085,38321.325,21267.81,29138.85,-17920.8,-29900.205,6359.04,20013.345
1764511738.8150554,32687.28,38324.61,21271.68,29141.685,-17917.11,-29897.505,6360.929999999999,20016.585
1764511738.8595886,32685.435,38321.91,21268.98,29138.445,-17920.215,-29900.745,6360.21,20013.795
1764511738.8595886,32682.06,38318.58,21266.28,29135.295,-17921.114999999998,-29902.455,6358.139999999999,20010.6
1764511738.8595886,32682.96,38319.885,21267.225,29137.005,-17919.63,-29900.385,6358.86,20012.58
1764511738.8595886,32686.065,38323.53,21271.365,29140.65,-17914.635,-29895.345,6361.92,20016.405
1764511738.8595886,32686.335,38323.8,21270.645,29139.255,-17916.344999999998,-29897.19,6361.335,20015.505
1764511738.8595886,32681.07,38319.435,21265.245,29132.73,-17923.14,-29905.29,6357.24,20009.835
1764511738.8595886,32681.43,38319.975,21265.245,29133.72,-17922.78,-29904.795,6357.645,20010.555
1764511738.8595886,32680.755,38318.805,21263.895,29133.36,-17924.13,-29905.38,6356.429999999999,20009.295
1764511738.8595886,32678.955,38318.04,21262.995,29131.335,-17924.309999999998,-29905.83,6355.08,20009.205
1764511738.8595886,32679.855,38319.255,21263.13,29132.505,-17923.77,-29905.065,6356.385,20009.88
1764511738.8595886,32681.16,38320.695,21264.795,29134.485,-17921.295,-29903.265,6357.33,20011.635
1764511738.8595886,32682.825,38322.585,21266.91,29137.14,-17916.84,-29899.395,6359.804999999999,20014.155
1764511738.860607,32681.385,38320.65,21265.335,29136.105,-17918.415,-29901.96,6358.724999999999,20011.905
1764511738.860607,32681.97,38321.595,21265.605,29135.835,-17920.665,-29903.58,6358.094999999999,20011.95
1764511738.860607,32688.27,38328.525,21272.13,29140.245,-17918.64,-29900.565,6360.705,20017.08
1764511738.860607,32686.335,38326.86,21270.285,29138.67,-17919.405,-29901.285,6359.715,20015.505
1764511738.860607,32683.68,38322.99,21268.755,29137.635,-17920.079999999998,-29901.24,6358.995,20013.615
1764511738.860607,32680.62,38319.435,21265.245,29135.115,-17922.465,-29903.445,6357.735,20010.87
1764511738.860607,32681.52,38319.93,21264.21,29134.935,-17921.969999999998,-29902.455,6358.77,20012.355
1764511738.860607,32683.41,38321.505,21264.795,29135.88,-17921.295,-29901.465,6359.895,20014.02
1764511738.860607,32681.655,38319.885,21263.445,29134.395,-17923.32,-29903.31,6358.724999999999,20012.445
1764511738.860607,32683.455,38322.405,21266.46,29136.735,-17920.079999999998,-29900.565,6360.12,20014.47
1764511738.9053404,32680.755,38319.57,21262.95,29134.305,-17922.78,-29903.355,6357.825,20011.545
1764511738.9053404,32682.96,38322.045,21265.065,29136.33,-17921.114999999998,-29901.51,6358.86,20013.435
1764511738.9053404,32683.41,38322.585,21266.145,29136.915,-17919.855,-29901.015,6359.67,20014.11
1764511738.9053404,32676.93,38316.465,21259.935,29131.38,-17925.795,-29906.955,6354.81,20008.26
1764511738.9053404,32677.56,38317.59,21261.105,29132.235,-17924.94,-29906.28,6355.035,20009.16
1764511738.9053404,32678.145,38318.58,21261.87,29132.595,-17924.265,-29905.47,6355.125,20009.7
1764511738.9053404,32677.785,38318.13,21262.23,29133.045,-17923.454999999998,-29905.47,6355.17,20009.79
1764511738.9053404,32678.37,38318.985,21262.77,29133.585,-17922.69,-29903.985,6355.62,20010.42
1764511738.9053404,32678.46,38319.165,21263.355,29134.125,-17920.98,-29901.87,6356.655,20010.87
1764511738.9053404,32678.73,38319.255,21264.03,29134.26,-17920.305,-29901.87,6357.375,20010.825
1764511738.9053404,32679.585,38319.75,21263.985,29134.71,-17920.755,-29902.995,6357.42,20011.005
1764511738.9053404,32677.875,38318.985,21262.86,29133.36,-17923.23,-29905.47,6356.16,20008.71
1764511738.9053404,32680.935,38322.72,21266.325,29136.645,-17919.989999999998,-29901.51,6358.5,20012.355
1764511738.9053404,32679.72,38321.685,21265.245,29136.285,-17921.25,-29902.68,6357.06,20010.78
1764511738.9053404,32675.715,38317.14,21261.645,29132.64,-17925.57,-29907.09,6353.28,20006.73
1764511738.9053404,32678.325,38318.985,21264.525,29134.98,-17922.015,-29903.76,6354.135,20009.07
1764511738.9053404,32680.305,38320.245,21266.415,29137.41,-17920.71,-29903.085,6355.349999999999,20010.78
1764511738.9053404,32679.27,38318.985,21266.01,29137.635,-17920.934999999998,-29903.76,6354.36,20009.835
1764511738.9063373,32680.08,38319.525,21267.18,29138.13,-17919.945,-29901.735,6355.71,20009.97
1764511738.9063373,32678.505,38317.815,21266.145,29137.41,-17920.844999999998,-29902.68,6355.62,20007.765
1764511738.9063373,32679.855,38319.705,21267.45,29139.03,-17918.64,-29900.565,6356.34,20009.52
1764511738.9063373,32678.145,38318.76,21266.235,29137.32,-17920.17,-29901.195,6356.07,20008.035
1764511738.9063373,32679.675,38319.705,21267.99,29139.165,-17917.2,-29897.64,6358.365,20010.825
1764511738.9063373,32674.5,38313.855,21261.87,29134.71,-17922.149999999998,-29902.05,6355.035,20006.19
1764511738.949957,32673.375,38312.955,21260.205,29134.71,-17921.835,-29901.69,6355.304999999999,20005.74
1764511738.949957,32676.39,38315.16,21262.77,29137.095,-17919.045,-29898.54,6356.835,20008.755
1764511738.949957,32674.995,38313.585,21261.105,29136.24,-17920.17,-29899.62,6355.44,20007.63
1764511738.949957,32672.07,38309.985,21257.01,29133.315,-17922.78,-29902.455,6353.594999999999,20004.255
1764511738.9509735,32674.14,38312.865,21258.72,29135.79,-17920.755,-29899.98,6355.304999999999,20006.775
1764511738.9509735,32670.495,38308.86,21253.95,29132.595,-17923.95,-29902.86,6353.594999999999,20004.03
1764511738.9509735,32666.805,38304.675,21249.27,29128.635,-17927.19,-29905.245,6350.985,20001.195
1764511738.951494,32668.335,38305.575,21249.405,29127.87,-17926.739999999998,-29905.065,6351.435,20001.78
1764511738.951494,32670.045,38305.485,21248.505,29126.61,-17927.73,-29905.47,6351.75,20003.31
1764511738.951494,32668.875,38303.28,21245.4,29123.325,-17930.565,-29907.63,6350.849999999999,20002.86
1764511738.951494,32669.01,38302.695,21244.32,29121.66,-17932.364999999998,-29909.7,6349.905,20003.13
1764511738.951494,32668.92,38303.325,21244.86,29121.345,-17933.445,-29911.32,6349.41,20002.32
1764511738.951494,32670.225,38305.89,21247.335,29123.37,-17932.454999999998,-29910.015,6350.085,20002.59
1764511738.951494,32671.53,38307.915,21250.98,29125.26,-17930.25,-29908.755,6350.04,20003.175
1764511738.951494,32671.395,38308.68,21253.455,29124.585,-17929.89,-29909.61,6349.32,20003.31
1764511738.951494,32671.215,38309.085,21252.33,29123.55,-17933.399999999998,-29913.84,6348.014999999999,20001.735
1764511738.951494,32673.78,38311.83,21255.12,29127.15,-17930.07,-29909.745,6349.275,20004.795
1764511738.951494,32673.645,38312.55,21256.56,29129.4,-17927.954999999998,-29908.35,6350.535,20005.155
1764511738.951494,32677.92,38317.77,21261.105,29134.665,-17921.7,-29902.815,6354.719999999999,20010.87
1764511738.951494,32675.76,38315.565,21258.045,29131.83,-17924.805,-29905.515,6352.514999999999,20008.395
1764511738.951494,32677.695,38316.87,21259.26,29133.72,-17923.184999999998,-29903.76,6354.179999999999,20010.42
1764511738.9530118,32674.68,38313.495,21255.93,29130.975,-17925.84,-29906.46,6353.235,20007.72
1764511738.9530118,32676.435,38315.07,21257.505,29132.82,-17924.04,-29904.705,6353.46,20009.07
1764511738.9530118,32676.93,38315.745,21258.99,29131.695,-17925.344999999998,-29906.64,6352.514999999999,20008.8
1764511738.9991126,32676.93,38316.285,21259.485,29130.12,-17926.245,-29908.44,6352.2,20007.855
1764511738.9991126,32676.93,38315.7,21258.855,29129.715,-17926.2,-29907.585,6352.56,20007.765
1764511738.9991126,32671.98,38311.605,21254.985,29125.755,-17929.44,-29910.96,6349.86,20003.4
1764511738.9991126,32669.28,38309.58,21253.545,29123.775,-17928.765,-29910.24,6349.59,20002.23
1764511738.9991126,32673.33,38313.99,21257.505,29128.005,-17924.715,-29906.64,6352.38,20007.36
1764511738.9991126,32674.41,38316.195,21258.63,29129.31,-17925.57,-29907.54,6351.57,20008.44
1764511738.9991126,32676.57,38318.67,21260.655,29130.075,-17924.219999999998,-29906.685,6353.594999999999,20010.42
1764511738.9991126,32675.58,38317.32,21259.395,29128.815,-17924.895,-29908.035,6352.695,20008.755
1764511738.9991126,32674.005,38315.385,21257.775,29128.05,-17925.93,-29908.395,6351.435,20006.91
1764511738.9991126,32672.7,38314.08,21256.11,29126.475,-17927.864999999998,-29909.52,6351.615,20005.11
1764511738.9991126,32674.68,38316.555,21258.765,29128.545,-17925.795,-29908.035,6352.065,20007.36
1764511738.9991126,32674.05,38316.285,21257.91,29127.735,-17926.065,-29908.935,6351.03,20006.82
1764511738.9991126,32672.43,38315.07,21256.695,29125.845,-17926.829999999998,-29909.115,6350.985,20005.56
1764511738.9991126,32671.71,38314.44,21255.795,29125.845,-17925.93,-29908.62,6350.804999999999,20004.93
1764511738.9991126,32674.68,38317.635,21258.72,29128.455,-17922.825,-29905.695,6352.875,20007.495
1764511738.9991126,32675.175,38317.32,21258.585,29128.32,-17923.364999999998,-29906.28,6353.01,20007.855
1764511738.9991126,32672.7,38314.485,21255.03,29125.44,-17926.605,-29909.565,6351.48,20004.84
1764511738.9991126,32672.07,38313.99,21254.85,29125.755,-17927.145,-29910.195,6350.445,20004.66
1764511738.9991126,32676.615,38318.895,21260.115,29129.445,-17922.465,-29906.055,6354.855,20009.16
1764511738.9991126,32677.425,38320.695,21261.42,29129.805,-17921.88,-29905.83,6355.71,20010.555
1764511738.9991126,32677.515,38321.01,21260.745,29129.67,-17922.149999999998,-29905.965,6355.575,20010.51
1764511738.9991126,32674.95,38317.725,21258.045,29127.105,-17924.579999999998,-29908.71,6354.045,20007.315
1764511738.9991126,32678.055,38319.705,21261.105,29129.265,-17921.88,-29906.1,6356.025,20010.33
1764511738.9991126,32676.57,38319.03,21259.845,29128.86,-17922.735,-29907.81,6355.98,20009.385
1764511739.0455074,32680.89,38323.305,21265.11,29133.36,-17918.415,-29903.355,6359.94,20013.885
1764511739.0455074,32678.595,38320.47,21262.455,29129.445,-17921.34,-29905.335,6357.69,20011.005
1764511739.0455074,32678.73,38320.29,21261.87,29128.725,-17920.98,-29905.965,6357.285,20010.105
1764511739.0455074,32678.325,38319.39,21261.51,29128.995,-17921.25,-29906.055,6356.969999999999,20009.7
1764511739.0455074,32678.595,38319.39,21262.14,29129.4,-17919.989999999998,-29905.785,6357.105,20010.465
1764511739.0455074,32678.595,38319.795,21262.23,29129.4,-17919.765,-29905.245,6356.295,20010.555
1764511739.0455074,32674.005,38315.7,21257.685,29126.16,-17924.579999999998,-29909.565,6353.145,20006.595
1764511739.0455074,32673.69,38315.295,21257.19,29126.16,-17925.165,-29910.195,6353.685,20006.505
1764511739.0455074,32673.87,38315.745,21256.74,29126.61,-17925.03,-29910.24,6354.045,20005.83
1764511739.0455074,32675.58,38316.735,21258.135,29128.185,-17922.915,-29908.44,6355.53,20006.955
1764511739.0465252,32679.315,38320.92,21262.725,29132.055,-17918.594999999998,-29904.75,6357.915,20010.78
1764511739.0465252,32675.49,38317.455,21259.485,29128.095,-17922.78,-29908.215,6354.045,20007.405
1764511739.0465252,32677.065,38319.66,21260.97,29129.805,-17920.215,-29906.055,6355.71,20009.475
1764511739.0465252,32673.33,38314.98,21255.345,29125.08,-17924.985,-29910.465,6353.415,20005.74
1764511739.0465252,32672.205,38314.62,21253.095,29122.875,-17926.965,-29911.68,6352.11,20005.56
1764511739.0465252,32674.905,38318.085,21258.36,29126.52,-17920.305,-29906.1,6354.719999999999,20009.565
1764511739.0465252,32675.94,38319.93,21260.88,29128.725,-17918.505,-29904.66,6356.16,20010.735
1764511739.0465252,32674.005,38318.535,21258.36,29126.115,-17921.79,-29907.765,6354.855,20008.755
1764511739.0465252,32673.51,38318.31,21257.82,29125.395,-17921.43,-29907.855,6354.045,20008.305
1764511739.0465252,32674.455,38318.76,21259.53,29126.16,-17918.864999999998,-29904.93,6355.935,20009.79
1764511739.0465252,32676.66,38321.01,21261.69,29127.6,-17916.165,-29902.725,6357.78,20011.545
1764511739.0465252,32675.94,38320.47,21259.755,29126.43,-17918.415,-29905.74,6356.07,20010.6
1764511739.090376,32672.565,38317.725,21256.83,29123.415,-17921.655,-29909.43,6354.585,20007.54
1764511739.090376,32674.86,38319.93,21258.945,29125.08,-17918.594999999998,-29905.695,6355.889999999999,20010.51
1764511739.090376,32678.64,38323.755,21261.96,29127.825,-17916.255,-29902.275,6358.185,20014.065
1764511739.090376,32678.64,38323.35,21261.735,29127.735,-17916.39,-29902.59,6358.41,20012.985
1764511739.090376,32675.175,38319.885,21258.945,29124.99,-17919.045,-29905.47,6357.24,20009.25
1764511739.090376,32672.025,38315.745,21256.155,29122.83,-17920.755,-29906.73,6353.594999999999,20006.685
1764511739.090376,32674.455,38318.535,21257.91,29125.305,-17918.954999999998,-29905.695,6354.405,20008.935
1764511739.090376,32673.87,38318.715,21257.55,29124.81,-17919.63,-29906.28,6354.945,20008.26
1764511739.090376,32680.62,38324.97,21264.255,29131.335,-17914.364999999998,-29900.565,6359.535,20014.965
1764511739.090376,32678.955,38324.16,21262.14,29128.77,-17917.155,-29903.085,6357.915,20013.705
1764511739.090376,32675.265,38320.335,21258.18,29125.17,-17920.98,-29906.73,6355.575,20009.925
1764511739.090376,32674.05,38319.525,21257.82,29125.035,-17920.17,-29907.405,6355.035,20008.305
1764511739.090376,32673.69,38319.705,21257.91,29124.855,-17920.575,-29907.99,6354.764999999999,20008.215
1764511739.090376,32673.96,38319.93,21257.91,29125.62,-17920.53,-29907.495,6355.304999999999,20008.62
1764511739.090376,32675.175,38320.92,21259.35,29126.07,-17919.09,-29905.965,6355.844999999999,20009.475
1764511739.090376,32674.5,38320.335,21258.855,29125.8,-17918.954999999998,-29906.505,6354.63,20009.43
1764511739.090376,32672.655,38317.77,21256.065,29123.91,-17920.305,-29908.305,6353.775,20007.99
1764511739.090376,32677.155,38322.585,21260.745,29129.445,-17915.67,-29903.265,6357.96,20012.715
1764511739.090376,32677.65,38323.53,21261.87,29130.21,-17915.85,-29902.455,6358.995,20013.12
1764511739.090376,32671.89,38318.76,21258.09,29124.405,-17920.62,-29907.765,6354.09,20007.225
1764511739.0914118,32673.285,38320.425,21259.485,29126.16,-17918.505,-29905.875,6355.395,20009.16
1764511739.0914118,32673.33,38319.84,21258.72,29125.8,-17919.225,-29907.585,6355.17,20008.26
1764511739.1362062,32676.435,38323.575,21262.545,29129.76,-17914.86,-29903.58,6357.285,20012.13
1764511739.1362062,32677.83,38325.375,21264.12,29130.93,-17913.42,-29902.14,6358.23,20013.705
1764511739.1362062,32676.12,38322.225,21261.96,29128.455,-17916.03,-29904.39,6356.52,20011.185
1764511739.1362062,32673.15,38319.705,21259.98,29126.88,-17917.965,-29906.235,6355.304999999999,20008.26
1764511739.1362062,32674.32,38321.28,21261.015,29128.005,-17917.695,-29905.29,6356.429999999999,20009.745
1764511739.1362062,32678.01,38325.015,21265.02,29131.11,-17914.094999999998,-29901.6,6359.085,20014.065
1764511739.1362062,32677.38,38324.79,21264.75,29131.2,-17912.925,-29901.375,6360.344999999999,20014.785
1764511739.1362062,32673.645,38319.885,21260.25,29127.645,-17917.02,-29905.83,6356.7,20010.735
1764511739.1362062,32671.08,38317.41,21258.27,29125.98,-17919.36,-29908.035,6353.639999999999,20007.99
1764511739.1362062,32671.44,38317.77,21259.485,29125.845,-17917.875,-29906.28,6354.719999999999,20008.305
1764511739.1362062,32673.78,38320.56,21262.14,29128.635,-17915.265,-29904.705,6355.485,20011.68
1764511739.1362062,32673.51,38320.605,21261.51,29128.95,-17916.344999999998,-29905.245,6355.62,20011.455
1764511739.1362062,32676.795,38323.08,21264.255,29131.785,-17913.195,-29901.735,6357.599999999999,20014.11
1764511739.1362062,32674.005,38320.695,21261.87,29129.76,-17914.86,-29904.615,6355.304999999999,20011.545
1764511739.1372356,32676.03,38322.99,21264.795,29132.055,-17913.059999999998,-29902.455,6356.88,20013.705
1764511739.1372356,32674.905,38321.91,21262.995,29130.885,-17914.094999999998,-29903.445,6357.42,20012.31
1764511739.1372356,32677.605,38324.385,21263.85,29131.785,-17912.295,-29902.185,6358.679999999999,20014.11
1764511739.1372356,32676.525,38323.845,21263.085,29130.255,-17913.555,-29903.58,6357.825,20013.255
1764511739.1372356,32676.03,38323.17,21262.77,29129.265,-17913.645,-29903.355,6358.005,20012.445
1764511739.1372356,32674.23,38321.145,21260.925,29127.195,-17915.67,-29904.93,6357.06,20010.33
1764511739.1372356,32675.355,38322.855,21262.365,29128.455,-17913.6,-29903.715,6358.05,20012.265
1764511739.1372356,32676.93,38324.97,21265.02,29131.02,-17911.395,-29901.6,6358.995,20014.155
1764511739.1372356,32673.555,38321.46,21262.005,29128.005,-17915.13,-29905.155,6356.61,20010.285
1764511739.1372356,32672.745,38320.605,21260.835,29127.105,-17915.399999999998,-29906.055,6356.16,20009.43
1764511739.187078,32672.745,38321.46,21260.97,29126.655,-17914.094999999998,-29905.695,6355.889999999999,20010.015
1764511739.187078,32674.14,38323.305,21263.67,29129.13,-17910.719999999998,-29901.465,6357.554999999999,20012.67
1764511739.187078,32673.735,38322.81,21263.76,29129.355,-17910.719999999998,-29900.97,6357.735,20012.22
1764511739.187078,32674.5,38323.35,21263.4,29128.635,-17913.69,-29903.805,6356.474999999999,20010.825
1764511739.187078,32674.275,38323.62,21263.445,29128.41,-17913.825,-29904.3,6356.745,20010.735
1764511739.187078,32670.72,38320.11,21259.98,29125.035,-17916.795,-29907.765,6354.99,20007.18
1764511739.187078,32671.485,38321.775,21261.465,29126.52,-17915.309999999998,-29905.92,6355.53,20008.8
1764511739.187078,32675.085,38325.105,21265.11,29130.12,-17911.8,-29902.815,6357.645,20012.22
1764511739.187078,32675.76,38325.51,21265.785,29131.11,-17911.62,-29901.915,6358.545,20012.31
1764511739.187078,32675.625,38325.06,21266.145,29130.93,-17912.07,-29902.41,6358.679999999999,20012.22
1764511739.187078,32675.58,38324.655,21266.37,29129.895,-17912.295,-29901.825,6358.724999999999,20012.445
1764511739.187078,32675.445,38325.15,21266.73,29130.525,-17911.125,-29901.6,6358.365,20012.895
1764511739.187078,32674.68,38324.385,21266.595,29130.435,-17910.809999999998,-29901.465,6357.825,20012.22
1764511739.187078,32669.235,38318.31,21260.88,29125.395,-17916.255,-29906.595,6353.505,20006.55
1764511739.187078,32672.43,38321.28,21263.625,29127.87,-17914.274999999998,-29903.67,6355.395,20009.7
1764511739.187078,32672.7,38322.18,21264.345,29128.545,-17911.395,-29900.61,6356.52,20011.41
1764511739.187078,32673.645,38323.17,21265.245,29128.905,-17910.36,-29900.115,6357.87,20012.985
1764511739.187078,32673.69,38323.575,21264.435,29127.87,-17911.665,-29902.41,6357.06,20012.49
1764511739.188092,32669.685,38320.02,21260.925,29124.495,-17915.219999999998,-29906.01,6354.719999999999,20008.485
1764511739.188092,32672.745,38322.72,21262.86,29126.97,-17913.329999999998,-29903.715,6356.25,20010.87
1764511739.188092,32671.17,38319.795,21260.295,29124.765,-17914.95,-29906.28,6354.81,20009.25
1764511739.188092,32674.545,38323.305,21264.21,29128.41,-17911.44,-29902.68,6357.465,20013.21
1764511739.188092,32676.93,38325.645,21266.73,29130.84,-17909.055,-29900.205,6359.355,20014.605
1764511739.188092,32674.185,38322.54,21263.67,29127.105,-17912.024999999998,-29902.5,6356.7,20011.815
1764511739.2282305,32670.27,38317.905,21258.63,29122.11,-17915.85,-29907.0,6354.224999999999,20007.72
1764511739.2282305,32669.73,38317.77,21258.99,29122.245,-17915.67,-29908.08,6354.315,20007.765
1764511739.2282305,32671.125,38320.335,21260.43,29124.72,-17913.105,-29905.425,6355.395,20010.105
1764511739.2282305,32667.975,38317.455,21255.885,29120.49,-17917.2,-29908.845,6354.09,20006.91
1764511739.2282305,32667.75,38317.05,21256.245,29120.445,-17916.57,-29908.8,6353.235,20006.505
1764511739.2282305,32670.09,38319.57,21259.17,29122.2,-17913.96,-29907.315,6353.91,20008.395
1764511739.2282305,32666.67,38317.455,21255.345,29117.43,-17918.64,-29911.14,6351.795,20004.885
1764511739.2287426,32667.255,38318.805,21256.56,29117.61,-17918.055,-29910.69,6353.054999999999,20005.83
1764511739.2292798,32671.845,38322.405,21260.7,29121.255,-17914.32,-29906.595,6356.429999999999,20009.835
1764511739.2303014,32672.07,38322.63,21259.98,29120.085,-17914.184999999998,-29906.505,6357.285,20009.97
1764511739.2303014,32669.685,38320.56,21256.74,29117.115,-17916.614999999998,-29909.88,6355.71,20007.36
1764511739.2308185,32671.53,38322.495,21258.585,29118.06,-17915.265,-29908.215,6355.71,20008.755
1764511739.2308185,32670.045,38321.145,21258.135,29116.53,-17917.155,-29909.52,6355.485,20007.585
1764511739.2308185,32667.795,38319.12,21256.02,29114.055,-17918.82,-29911.995,6355.08,20005.155
1764511739.2308185,32667.03,38318.985,21256.02,29113.74,-17918.415,-29911.59,6355.889999999999,20005.65
1764511739.2308185,32666.805,38319.21,21256.38,29113.695,-17917.649999999998,-29910.78,6356.655,20006.28
1764511739.2308185,32669.685,38321.55,21258.945,29114.685,-17914.995,-29909.34,6358.724999999999,20009.205
1764511739.2308185,32669.82,38322.585,21258.945,29113.245,-17916.84,-29911.23,6358.95,20009.205
1764511739.2308185,32668.38,38321.37,21257.55,29110.86,-17918.73,-29913.39,6358.41,20007.405
1764511739.2308185,32662.62,38315.295,21251.925,29105.595,-17923.364999999998,-29918.205,6354.719999999999,20002.095
1764511739.2308185,32660.865,38313.81,21250.35,29104.155,-17924.76,-29920.095,6353.145,20000.25
1764511739.2308185,32661.18,38315.295,21251.385,29102.76,-17925.255,-29920.995,6352.74,20001.24
1764511739.2765503,32663.385,38317.545,21253.275,29103.885,-17923.005,-29919.105,6354.09,20004.12
1764511739.2765503,32663.205,38317.095,21252.78,29103.93,-17922.285,-29917.845,6354.495,20004.75
1764511739.2780783,32661.855,38316.33,21252.555,29103.03,-17922.42,-29918.205,6354.36,20004.075
1764511739.2780783,32658.705,38313.405,21251.205,29101.05,-17922.645,-29917.935,6353.054999999999,20001.735
1764511739.2780783,32655.645,38310.255,21247.425,29097.405,-17926.065,-29921.895,6350.985,19998.495
1764511739.2780783,32660.1,38315.925,21250.755,29100.69,-17924.445,-29920.455,6353.73,20002.365
1764511739.2780783,32664.51,38320.2,21255.435,29105.235,-17919.405,-29915.28,6357.06,20007.495
1764511739.2780783,32661.27,38316.87,21252.51,29102.4,-17922.105,-29917.485,6355.395,20004.21
1764511739.2780783,32660.28,38316.195,21251.61,29101.59,-17922.42,-29918.295,6354.9,20003.715
1764511739.2780783,32663.925,38319.66,21254.535,29104.335,-17919.54,-29916.63,6356.52,20007.27
1764511739.2780783,32662.305,38317.545,21252.825,29103.03,-17921.295,-29918.7,6355.935,20005.155
1764511739.2780783,32664.78,38320.02,21254.85,29104.425,-17918.774999999998,-29916.495,6357.06,20007.315
1764511739.2780783,32662.08,38317.635,21253.32,29101.95,-17921.114999999998,-29917.8,6355.844999999999,20005.425
1764511739.2780783,32661.855,38317.23,21252.735,29101.905,-17921.25,-29917.665,6355.98,20004.75
1764511739.2780783,32663.295,38318.31,21253.59,29103.705,-17919.765,-29917.17,6356.61,20005.83
1764511739.2780783,32667.075,38321.1,21256.56,29106.72,-17916.84,-29913.84,6358.365,20009.61
1764511739.2780783,32667.255,38321.19,21256.74,29106.585,-17916.12,-29914.065,6358.86,20009.88
1764511739.2780783,32665.005,38319.66,21255.21,29104.425,-17917.92,-29915.955,6357.69,20007.9
1764511739.2780783,32665.725,38319.93,21255.66,29105.1,-17918.01,-29915.865,6358.005,20008.26
1764511739.2780783,32665.86,38319.975,21255.39,29105.595,-17917.739999999998,-29915.325,6357.105,20008.845
1764511739.2780783,32663.655,38318.535,21253.68,29104.335,-17919.495,-29916.72,6355.665,20007.225
1764511739.2780783,32660.37,38315.7,21250.35,29100.555,-17923.454999999998,-29919.825,6352.92,20003.76
1764511739.2780783,32661.81,38317.185,21251.655,29101.455,-17922.239999999998,-29918.745,6354.36,20006.055
1764511739.2780783,32664.825,38320.155,21255.435,29104.56,-17918.594999999998,-29915.64,6356.925,20009.565
1764511739.2780783,32661.135,38315.745,21251.43,29100.78,-17922.195,-29918.925,6354.405,20005.47
1764511739.2780783,32662.395,38317.5,21252.915,29102.175,-17921.024999999998,-29917.89,6355.395,20006.64
1764511739.324842,32669.055,38324.565,21259.395,29107.62,-17914.545,-29912.265,6360.255,20012.58
1764511739.3259983,32668.245,38323.845,21258.81,29107.485,-17914.995,-29912.895,6359.535,20011.995
1764511739.3259983,32667.03,38322.585,21258.405,29106.945,-17914.68,-29913.21,6359.58,20011.77
1764511739.3259983,32665.41,38321.235,21256.965,29105.73,-17915.265,-29914.155,6358.724999999999,20010.51
1764511739.327016,32668.875,38325.195,21261.33,29109.645,-17911.17,-29910.06,6361.695,20014.605
1764511739.327016,32670.315,38327.22,21263.355,29110.545,-17909.594999999998,-29907.855,6364.349999999999,20016.405
1764511739.327016,32667.12,38323.98,21258.63,29104.785,-17915.715,-29913.435,6362.145,20013.21
1764511739.327016,32664.735,38321.91,21255.57,29101.77,-17918.235,-29915.55,6360.21,20010.915
1764511739.327016,32666.67,38324.655,21257.91,29103.21,-17915.535,-29912.805,6361.38,20013.84
1764511739.3280137,32664.78,38322.99,21257.01,29101.86,-17916.93,-29913.84,6361.38,20011.635
1764511739.3280137,32665.86,38325.195,21258.63,29102.985,-17916.075,-29913.165,6361.245,20012.76
1764511739.3280137,32661.675,38321.235,21254.13,29098.755,-17920.17,-29917.665,6358.77,20008.08
1764511739.3280137,32663.655,38323.53,21256.515,29100.645,-17917.559999999998,-29914.965,6360.165,20010.555
1764511739.3290226,32662.53,38322.81,21256.38,29098.98,-17918.954999999998,-29916.09,6359.31,20009.565
1764511739.3290226,32658.975,38319.525,21253.275,29095.65,-17922.69,-29919.825,6356.655,20005.92
1764511739.3290226,32659.83,38319.615,21253.545,29096.595,-17921.204999999998,-29919.24,6356.52,20006.73
1764511739.3290226,32663.52,38323.395,21256.92,29100.645,-17916.704999999998,-29915.865,6358.815,20010.42
1764511739.3295386,32662.755,38322.99,21256.92,29100.42,-17916.3,-29914.47,6358.95,20009.655
1764511739.3295386,32661.63,38321.325,21254.985,29099.115,-17916.524999999998,-29914.965,6357.78,20007.99
1764511739.3295386,32660.235,38320.155,21253.95,29098.71,-17918.505,-29918.205,6356.745,20005.56
1764511739.3295386,32663.745,38323.35,21257.505,29100.735,-17917.245,-29916.72,6358.365,20008.755
1764511739.3295386,32662.98,38322.675,21256.11,29097.27,-17920.98,-29920.185,6356.07,20007.225
1764511739.3697357,32659.695,38319.885,21252.78,29094.615,-17924.04,-29923.245,6355.71,20004.21
1764511739.3697357,32658.48,38319.21,21251.835,29094.3,-17922.015,-29920.815,6356.88,20004.12
1764511739.3697357,32663.025,38323.53,21257.235,29098.845,-17916.344999999998,-29916.27,6359.625,20008.305
1764511739.3697357,32661.405,38321.28,21255.705,29097.315,-17918.145,-29917.89,6358.094999999999,20006.55
1764511739.3717513,32656.905,38316.96,21251.07,29092.995,-17922.51,-29922.705,6355.395,20002.635
1764511739.3717513,32657.94,38318.67,21252.285,29093.175,-17921.024999999998,-29921.535,6356.61,20004.435
1764511739.3717513,32655.42,38317.095,21250.845,29091.195,-17922.329999999998,-29923.515,6355.844999999999,20002.77
1764511739.3717513,32655.735,38317.14,21251.97,29091.78,-17921.52,-29922.75,6356.655,20003.355
1764511739.3717513,32658.975,38320.155,21255.84,29094.57,-17917.155,-29918.115,6359.58,20006.82
1764511739.3717513,32657.805,38318.67,21253.5,29092.545,-17920.35,-29922.03,6357.554999999999,20005.155
1764511739.3717513,32659.785,38321.235,21256.065,29094.57,-17917.469999999998,-29918.88,6358.86,20006.91
1764511739.3717513,32658.255,38319.57,21254.265,29093.175,-17920.035,-29921.085,6357.24,20004.57
1764511739.3717513,32661.495,38322.495,21257.145,29095.92,-17917.11,-29918.43,6358.679999999999,20007.36
1764511739.3717513,32661.36,38322.135,21256.92,29095.56,-17916.66,-29918.295,6358.95,20008.17
1764511739.3717513,32662.08,38322.63,21256.65,29094.795,-17916.39,-29917.98,6359.31,20008.665
1764511739.3717513,32661.09,38321.505,21255.12,29093.355,-17917.515,-29919.555,6357.554999999999,20006.775
1764511739.3717513,32658.255,38318.22,21252.105,29091.105,-17920.44,-29922.39,6355.575,20003.445
1764511739.3717513,32659.47,38319.48,21253.68,29092.725,-17919.495,-29921.04,6356.385,20005.245
1764511739.3748045,32661.225,38321.01,21254.85,29094.165,-17916.795,-29919.24,6357.105,20007.27
1764511739.3748045,32657.13,38316.645,21251.025,29091.51,-17920.575,-29923.02,6353.91,20003.04
1764511739.3748045,32661.855,38320.785,21255.345,29094.885,-17916.975,-29919.51,6356.429999999999,20007.63
1764511739.3748045,32662.305,38321.46,21256.515,29095.47,-17915.535,-29918.25,6357.69,20008.575
1764511739.3758037,32659.695,38318.805,21253.635,29093.67,-17917.965,-29920.41,6355.844999999999,20006.37
1764511739.3758037,32656.23,38315.115,21249.855,29090.295,-17921.52,-29923.875,6353.46,20002.905
1764511739.420493,32659.155,38317.86,21251.97,29092.545,-17919.045,-29920.995,6354.63,20005.74
1764511739.420493,32655.645,38315.16,21249.135,29090.07,-17921.475,-29923.47,6352.56,20003.22
1764511739.420493,32659.02,38318.31,21252.51,29092.41,-17918.505,-29920.86,6354.585,20006.55
1764511739.420493,32660.82,38319.615,21254.13,29094.075,-17916.57,-29919.555,6355.665,20007.945
1764511739.420493,32662.44,38321.145,21255.255,29095.695,-17915.04,-29917.845,6357.33,20009.25
1764511739.420493,32657.58,38315.475,21250.215,29090.97,-17919.855,-29922.93,6353.19,20003.265
1764511739.420493,32659.155,38316.51,21251.79,29092.635,-17917.875,-29920.95,6354.585,20004.48
1764511739.420493,32655.69,38313.225,21249.045,29090.34,-17919.899999999998,-29923.38,6352.56,20001.735
1764511739.421383,32658.255,38317.005,21251.61,29092.86,-17917.695,-29921.67,6354.0,20005.11
1764511739.421383,32656.545,38315.52,21250.17,29091.195,-17918.954999999998,-29922.48,6352.83,20003.58
1764511739.421383,32659.245,38317.59,21252.42,29094.57,-17916.704999999998,-29920.14,6353.91,20005.965
1764511739.421383,32658.345,38316.735,21250.485,29093.58,-17917.155,-29920.815,6352.56,20005.335
1764511739.421383,32653.71,38312.955,21247.29,29091.735,-17919.225,-29923.38,6350.895,20002.095
1764511739.421383,32653.395,38312.505,21246.93,29092.635,-17918.19,-29921.805,6351.57,20002.86
1764511739.421383,32657.355,38316.78,21249.63,29094.435,-17916.975,-29919.195,6353.865,20006.505
1764511739.421383,32655.375,38316.33,21248.685,29092.365,-17918.505,-29921.58,6351.12,20004.66
1764511739.421383,32654.565,38315.295,21247.785,29089.935,-17920.575,-29923.605,6350.31,20003.085
1764511739.421383,32655.42,38315.88,21248.595,29091.06,-17920.26,-29922.255,6351.03,20004.3
1764511739.421383,32653.665,38313.81,21247.02,29089.17,-17921.655,-29924.37,6350.085,20002.725
1764511739.421383,32655.42,38316.06,21249.135,29091.06,-17918.954999999998,-29921.985,6351.795,20004.66
1764511739.421383,32654.475,38315.25,21247.785,29089.26,-17920.53,-29923.29,6351.66,20003.355
1764511739.421383,32655.555,38315.925,21248.595,29090.565,-17919.405,-29921.67,6351.615,20004.93
1764511739.46571,32653.26,38313.81,21247.02,29089.17,-17920.26,-29923.56,6351.344999999999,20003.175
1764511739.46571,32656.905,38317.23,21250.71,29092.23,-17916.255,-29919.78,6354.495,20007.135
1764511739.46571,32657.58,38317.185,21251.25,29093.085,-17915.579999999998,-29919.06,6355.395,20007.72
1764511739.466709,32651.055,38310.975,21246.48,29088.27,-17917.559999999998,-29921.535,6351.21,20002.77
1764511739.466709,32653.305,38313.225,21248.865,29090.07,-17915.219999999998,-29919.78,6352.02,20004.795
1764511739.466709,32654.79,38314.26,21249.27,29090.43,-17915.445,-29920.59,6352.469999999999,20005.29
1764511739.466709,32653.935,38312.865,21246.93,29088.27,-17919.315,-29923.38,6351.12,20003.58
1764511739.466709,32655.87,38315.295,21248.505,29090.52,-17918.37,-29921.49,6351.84,20005.92
1764511739.466709,32657.085,38317.545,21250.26,29093.31,-17915.399999999998,-29919.375,6353.775,20007.81
1764511739.466709,32656.275,38316.51,21250.35,29092.41,-17916.795,-29921.22,6352.695,20006.505
1764511739.466709,32655.735,38315.61,21248.73,29090.475,-17919.855,-29922.93,6352.65,20005.83
1764511739.466709,32653.035,38312.64,21246.21,29088.495,-17920.44,-29924.37,6352.245,20003.58
1764511739.466709,32654.205,38314.62,21249.18,29090.61,-17915.219999999998,-29919.24,6354.719999999999,20006.685
1764511739.466709,32652.135,38312.73,21246.12,29087.865,-17918.64,-29922.66,6352.38,20004.3
1764511739.466709,32652.135,38312.46,21245.13,29087.415,-17920.89,-29924.505,6352.335,20003.76
1764511739.466709,32653.485,38313.495,21247.065,29088.945,-17917.469999999998,-29921.715,6353.594999999999,20005.605
1764511739.4672186,32653.845,38313.225,21247.38,29089.62,-17917.335,-29921.625,6353.685,20006.055
1764511739.4672186,32652.09,38311.065,21244.995,29087.82,-17920.305,-29924.775,6351.389999999999,20003.625
1764511739.468259,32652.18,38310.48,21244.635,29087.46,-17920.395,-29925.765,6350.31,20003.76
1764511739.468259,32652.405,38311.47,21245.58,29088.585,-17919.315,-29924.865,6350.085,20004.48
1764511739.468259,32656.77,38315.295,21249.855,29092.905,-17915.13,-29921.175,6353.145,20008.26
1764511739.468259,32656.68,38314.98,21249.81,29093.895,-17914.905,-29921.355,6353.28,20008.44
1764511739.468259,32657.715,38315.88,21250.395,29094.525,-17914.364999999998,-29920.95,6353.235,20008.935
1764511739.468259,32657.22,38314.98,21249.18,29094.57,-17915.399999999998,-29921.265,6353.01,20008.215
1764511739.5130591,32655.78,38312.685,21246.795,29092.68,-17917.559999999998,-29923.155,6351.974999999999,20006.28
1764511739.5130591,32655.87,38312.73,21246.705,29092.32,-17917.605,-29922.615,6351.165,20006.595
1764511739.5135682,32657.715,38314.665,21248.73,29095.785,-17915.13,-29920.275,6353.145,20009.07
1764511739.5135682,32654.61,38311.29,21245.76,29093.265,-17917.829999999998,-29923.83,6350.535,20005.785
1764511739.5135682,32657.31,38313.36,21248.145,29095.695,-17915.04,-29921.04,6352.695,20008.035
1764511739.5135682,32654.295,38310.885,21245.22,29092.815,-17918.325,-29923.83,6350.67,20005.56
1764511739.5135682,32655.555,38312.325,21246.345,29093.13,-17917.739999999998,-29922.48,6351.885,20006.955
1764511739.5135682,32660.37,38316.15,21250.755,29097.0,-17913.69,-29919.015,6354.405,20010.78
1764511739.5135682,32661.18,38317.32,21251.88,29098.575,-17913.015,-29918.115,6355.395,20012.67
1764511739.5145822,32657.895,38314.035,21248.28,29096.685,-17915.625,-29920.68,6352.469999999999,20010.645
1764511739.5145822,32657.4,38313.135,21248.145,29096.1,-17916.434999999998,-29921.49,6352.92,20009.835
1764511739.5145822,32655.78,38311.38,21245.76,29093.625,-17918.55,-29923.83,6351.435,20007.225
1764511739.5145822,32655.735,38311.245,21245.67,29093.895,-17919.045,-29924.37,6350.58,20006.235
1764511739.5145822,32655.24,38311.245,21246.57,29093.895,-17918.415,-29924.055,6350.76,20006.37
1764511739.5155818,32657.04,38313.27,21247.605,29095.155,-17916.57,-29922.705,6352.155,20008.125
1764511739.5155818,32659.65,38315.97,21249.72,29096.505,-17915.85,-29921.355,6354.495,20011.635
1764511739.5155818,32657.265,38312.46,21246.165,29093.22,-17917.92,-29923.74,6353.235,20008.89
1764511739.5165842,32658.345,38313.945,21247.335,29095.065,-17914.815,-29921.58,6353.865,20009.7
1764511739.5165842,32663.52,38319.03,21252.6,29100.735,-17909.594999999998,-29917.08,6357.195,20014.65
1764511739.5165842,32662.8,38319.21,21252.465,29101.095,-17910.405,-29917.665,6356.205,20014.515
1764511739.5165842,32660.685,38316.87,21250.035,29098.62,-17912.969999999998,-29920.455,6354.135,20012.265
1764511739.5165842,32657.535,38312.685,21246.39,29094.21,-17917.245,-29924.595,6352.335,20009.07
1764511739.5165842,32659.47,38314.26,21247.38,29095.965,-17915.445,-29922.165,6354.405,20010.6
1764511739.5165842,32661.9,38317.185,21250.035,29099.52,-17911.98,-29918.565,6356.25,20013.435
1764511739.5577428,32661.045,38316.645,21249.585,29097.81,-17912.79,-29919.87,6355.575,20013.48
1764511739.5577428,32656.68,38312.55,21244.68,29093.625,-17917.11,-29925.045,6352.245,20009.025
1764511739.5577428,32658.345,38313.72,21246.075,29095.605,-17915.805,-29923.605,6352.425,20009.7
1764511739.5577428,32657.445,38313.135,21245.31,29094.975,-17915.625,-29924.325,6351.57,20008.8
1764511739.5592558,32660.235,38315.61,21248.685,29097.945,-17913.285,-29921.355,6353.685,20011.86
1764511739.5592558,32657.58,38313.27,21246.12,29095.785,-17915.265,-29924.28,6350.895,20009.295
1764511739.5592558,32656.23,38312.46,21244.995,29094.21,-17916.795,-29925.405,6350.67,20008.575
1764511739.5592558,32653.305,38308.77,21242.025,29090.745,-17920.215,-29928.465,6348.735,20005.56
1764511739.5592558,32654.295,38309.355,21242.07,29091.06,-17918.864999999998,-29927.16,6349.455,20006.415
1764511739.5592558,32656.68,38312.37,21244.725,29093.94,-17916.704999999998,-29924.64,6351.255,20009.835
1764511739.5592558,32653.305,38309.085,21241.755,29090.295,-17920.125,-29928.015,6348.51,20006.01
1764511739.5592558,32652.315,38308.185,21241.08,29089.305,-17920.844999999998,-29929.995,6347.385,20004.12
1764511739.5597885,32656.005,38311.56,21244.5,29092.59,-17916.93,-29926.125,6348.87,20007.63
1764511739.5604155,32657.22,38312.82,21246.165,29094.435,-17915.355,-29923.965,6350.535,20009.25
1764511739.5604155,32657.715,38313.945,21246.21,29095.245,-17914.68,-29923.38,6351.03,20010.15
1764511739.5608046,32655.645,38311.47,21244.005,29092.95,-17916.075,-29925.405,6349.05,20008.935
1764511739.5608046,32653.395,38309.175,21242.52,29091.645,-17916.704999999998,-29925.63,6348.014999999999,20007.315
1764511739.5608046,32649.66,38304.945,21238.38,29087.91,-17919.18,-29927.925,6346.98,20003.94
1764511739.5608046,32650.155,38303.955,21237.615,29088.225,-17919.675,-29928.24,6346.935,20004.525
1764511739.5608046,32651.955,38305.935,21239.55,29089.89,-17918.01,-29925.99,6347.745,20006.055
1764511739.5618043,32648.13,38302.605,21236.94,29087.055,-17920.62,-29928.6,6346.125,20002.23
1764511739.5618043,32650.155,38305.035,21239.595,29088.27,-17920.26,-29928.555,6346.755,20003.175
1764511739.5618043,32654.925,38310.84,21243.555,29092.86,-17917.245,-29925.675,6349.679999999999,20008.08
1764511739.5618043,32652.99,38308.005,21240.495,29089.755,-17920.755,-29928.555,6348.735,20006.415
1764511739.607201,32655.825,38310.84,21242.97,29092.995,-17918.37,-29925.81,6351.075,20007.99
1764511739.607201,32651.28,38307.87,21240.135,29089.935,-17921.79,-29928.42,6348.42,20004.705
1764511739.607201,32654.295,38310.75,21243.6,29092.77,-17918.28,-29925.225,6350.13,20008.035
1764511739.607201,32651.91,38308.635,21240.72,29090.205,-17919.27,-29927.34,6348.96,20006.145
1764511739.607201,32652.585,38309.445,21241.035,29089.17,-17918.82,-29927.34,6349.455,20006.685
1764511739.607201,32651.82,38308.545,21240.315,29087.595,-17920.17,-29928.555,6348.554999999999,20006.46
1764511739.607201,32652.0,38309.49,21240.765,29087.91,-17919.719999999998,-29928.69,6349.139999999999,20006.865
1764511739.607201,32653.08,38310.39,21242.07,29089.71,-17918.055,-29927.385,6349.59,20008.395
1764511739.608196,32648.76,38306.07,21238.29,29086.38,-17921.114999999998,-29931.39,6346.935,20004.66
1764511739.608196,32648.265,38306.34,21239.28,29086.425,-17919.63,-29930.265,6348.645,20004.75
1764511739.608196,32652.855,38311.47,21243.375,29089.935,-17916.704999999998,-29926.62,6351.84,20009.475
1764511739.608196,32652.135,38311.02,21242.88,29089.62,-17917.605,-29928.015,6350.264999999999,20008.035
1764511739.608196,32649.03,38308.185,21239.595,29086.245,-17920.079999999998,-29930.94,6348.554999999999,20004.66
1764511739.608196,32648.265,38307.78,21239.055,29084.625,-17920.575,-29932.245,6347.52,20003.895
1764511739.608196,32649.3,38308.41,21239.37,29085.435,-17920.17,-29931.84,6346.98,20004.57
1764511739.608196,32646.87,38306.25,21236.4,29082.6,-17923.05,-29934.09,6345.405,20002.68
1764511739.608196,32649.93,38309.355,21238.92,29084.985,-17920.079999999998,-29931.525,6347.429999999999,20005.605
1764511739.608196,32648.49,38308.68,21238.02,29084.13,-17920.35,-29932.515,6346.395,20004.795
1764511739.608196,32645.16,38305.485,21234.195,29080.035,-17924.399999999998,-29935.62,6343.514999999999,20000.61
1764511739.608196,32646.285,38306.52,21235.23,29081.07,-17923.32,-29933.82,6344.775,20002.32
1764511739.608196,32649.48,38310.075,21238.245,29083.815,-17920.26,-29930.805,6347.115,20006.1
1764511739.608196,32648.22,38308.86,21237.48,29082.735,-17921.88,-29932.515,6345.45,20005.29
1764511739.608196,32648.67,38309.67,21237.705,29083.725,-17920.98,-29932.335,6345.855,20005.335
1764511739.608196,32647.005,38307.33,21236.355,29082.24,-17920.53,-29933.01,6345.45,20003.58
1764511739.6527889,32645.52,38304.675,21234.285,29079.9,-17923.41,-29935.62,6343.83,20001.6
1764511739.6533034,32649.12,38307.87,21236.985,29083.095,-17921.114999999998,-29932.38,6346.485,20005.2
1764511739.6533034,32649.255,38308.455,21237.21,29084.22,-17921.295,-29932.92,6346.349999999999,20005.875
1764511739.6533034,32648.895,38307.51,21235.905,29083.5,-17922.105,-29933.865,6345.54,20005.155
1764511739.6533034,32646.51,38304.72,21233.565,29080.8,-17924.895,-29936.34,6344.28,20002.14
1764511739.6543343,32647.545,38305.71,21235.41,29082.195,-17923.14,-29935.08,6345.315,20003.58
1764511739.6543343,32651.325,38309.04,21238.245,29085.57,-17919.809999999998,-29931.75,6347.565,20006.595
1764511739.6543343,32648.715,38306.745,21235.905,29083.59,-17922.239999999998,-29933.415,6344.91,20004.705
1764511739.6543343,32645.295,38303.505,21232.215,29081.295,-17925.075,-29936.88,6342.66,20001.33
1764511739.6553369,32645.385,38303.595,21233.295,29082.6,-17924.579999999998,-29936.34,6343.38,20001.42
1764511739.6553369,32647.095,38304.855,21235.41,29084.895,-17922.329999999998,-29933.325,6344.594999999999,20003.895
1764511739.6553369,32645.655,38303.82,21233.745,29083.635,-17922.329999999998,-29933.28,6343.695,20002.59
1764511739.6553369,32643.225,38300.805,21229.605,29079.855,-17927.235,-29938.995,6340.455,19999.8
1764511739.6553369,32645.88,38303.01,21231.045,29080.98,-17925.39,-29937.015,6340.86,20002.185
1764511739.6553369,32646.78,38304.045,21232.035,29082.195,-17923.364999999998,-29935.395,6342.21,20003.04
1764511739.6553369,32645.655,38302.83,21231.135,29081.07,-17925.3,-29936.97,6341.804999999999,20000.565
1764511739.6563332,32647.905,38304.945,21233.385,29082.915,-17923.364999999998,-29935.62,6342.66,20002.23
1764511739.6563332,32644.17,38301.795,21229.83,29080.08,-17925.795,-29938.41,6340.365,19999.305
1764511739.6563332,32645.385,38302.605,21230.595,29081.25,-17925.434999999998,-29937.105,6341.219999999999,20000.43
1764511739.6563332,32643.27,38299.725,21228.435,29078.955,-17927.684999999998,-29939.58,6338.655,19997.055
1764511739.6563332,32644.845,38301.975,21230.685,29081.385,-17925.57,-29938.995,6338.474999999999,19998.18
1764511739.6563332,32640.57,38297.925,21228.3,29077.74,-17928.09,-29941.02,6336.36,19994.31
1764511739.6997728,32641.695,38298.78,21230.235,29079.945,-17925.524999999998,-29938.005,6337.935,19996.38
1764511739.709999,32644.17,38301.795,21232.485,29083.77,-17923.77,-29936.07,6339.735,19998.495
1764511739.711001,32644.35,38301.525,21231.54,29082.465,-17924.175,-29937.105,6339.06,19998.36
1764511739.711001,32641.605,38298.33,21228.345,29079.855,-17927.19,-29939.94,6336.855,19995.345
1764511739.711001,32643.405,38300.67,21230.91,29083.86,-17923.815,-29937.195,6338.025,19996.695
1764511739.711001,32638.68,38296.8,21227.22,29079.63,-17928.045,-29941.92,6335.19,19992.51
1764511739.711001,32639.625,38297.43,21229.11,29080.53,-17926.965,-29941.245,6335.505,19993.545
1764511739.711001,32643.0,38300.985,21233.52,29085.435,-17921.61,-29935.575,6338.835,19997.55
1764511739.711001,32639.76,38297.925,21230.64,29083.86,-17923.905,-29937.33,6337.26,19994.76
1764511739.711001,32642.595,38300.13,21233.07,29087.55,-17919.945,-29933.46,6339.51,19998.36
1764511739.711001,32642.19,38299.95,21232.08,29086.74,-17920.17,-29933.55,6339.554999999999,19998.495
1764511739.711001,32640.345,38297.43,21229.785,29084.085,-17923.32,-29935.98,6338.52,19996.425
1764511739.711001,32635.44,38292.435,21224.88,29079.945,-17926.469999999998,-29938.59,6336.495,19992.285
1764511739.711001,32636.07,38292.21,21224.25,29080.08,-17924.579999999998,-29937.465,6337.71,19993.005
1764511739.711001,32638.23,38294.505,21226.185,29081.745,-17921.969999999998,-29934.405,6339.285,19996.2
1764511739.711001,32633.46,38289.42,21221.145,29077.56,-17927.055,-29939.04,6336.224999999999,19992.24
1764511739.7119918,32634.765,38289.78,21221.235,29079.495,-17925.57,-29937.33,6337.44,19993.41
1764511739.7119918,32633.055,38287.395,21218.535,29077.605,-17927.19,-29938.14,6335.82,19992.105
1764511739.7119918,32631.075,38285.46,21215.835,29074.86,-17929.71,-29940.165,6334.83,19990.71
1764511739.7119918,32627.655,38281.5,21211.02,29069.91,-17933.489999999998,-29943.72,6332.4,19987.92
1764511739.7119918,32630.58,38283.435,21211.47,29069.955,-17932.094999999998,-29942.505,6334.02,19990.44
1764511739.7119918,32629.86,38281.86,21209.535,29067.39,-17933.265,-29943.45,6334.605,19990.665
1764511739.7461948,32631.435,38282.805,21209.805,29066.58,-17934.66,-29944.08,6334.605,19992.105
1764511739.7461948,32631.795,38284.155,21210.48,29066.13,-17935.649999999998,-29946.465,6334.245,19991.475
1764511739.7461948,32636.835,38290.23,21216.555,29071.53,-17931.239999999998,-29943.0,6337.17,19995.03
1764511739.7461948,32633.595,38288.07,21215.745,29069.73,-17932.86,-29945.79,6335.01,19991.16
1764511739.7461948,32636.79,38292.21,21220.11,29073.51,-17929.44,-29943.405,6335.775,19994.175
1764511739.7461948,32637.915,38294.595,21221.91,29074.68,-17930.114999999998,-29943.945,6335.82,19994.355
1764511739.7461948,32634.405,38292.21,21219.525,29072.52,-17931.735,-29946.915,6333.885,19990.62
1764511739.7461948,32634.63,38292.165,21219.57,29072.61,-17931.015,-29947.59,6333.57,19991.025
1764511739.7461948,32636.88,38294.595,21222.18,29075.085,-17928.63,-29944.845,6335.01,19993.995
1764511739.7461948,32633.595,38291.985,21219.165,29072.295,-17931.69,-29947.185,6333.66,19991.52
1764511739.7461948,32633.505,38292.48,21220.02,29072.385,-17931.105,-29947.005,6333.525,19992.105
1764511739.7461948,32636.88,38295.855,21223.8,29075.49,-17926.965,-29944.44,6335.01,19995.03
1764511739.7461948,32637.51,38296.62,21224.61,29076.3,-17925.93,-29943.18,6336.405,19996.065
1764511739.7461948,32634.36,38293.695,21221.91,29073.645,-17928.36,-29945.565,6334.605,19993.815
1764511739.7461948,32631.255,38290.68,21219.03,29071.755,-17931.105,-29948.355,6333.03,19991.25
1764511739.7461948,32632.2,38292.075,21220.38,29073.06,-17929.8,-29947.365,6333.344999999999,19991.7
1764511739.7461948,32635.935,38295.585,21224.7,29075.715,-17927.64,-29944.665,6335.775,19994.445
1764511739.7461948,32635.035,38295.18,21224.16,29074.905,-17927.82,-29945.025,6335.505,19993.68
1764511739.7461948,32632.47,38293.38,21222.225,29072.61,-17928.765,-29946.33,6335.01,19991.61
1764511739.7467082,32635.26,38296.125,21224.385,29074.5,-17926.739999999998,-29944.17,6337.08,19994.355
1764511739.7909403,32635.17,38296.71,21224.745,29074.14,-17927.415,-29944.395,6336.585,19994.67
1764511739.7909403,32633.46,38295.585,21223.26,29072.61,-17929.079999999998,-29946.24,6334.785,19992.87
1764511739.7909403,32637.555,38299.815,21227.31,29076.12,-17924.445,-29942.19,6337.349999999999,19996.2
1764511739.7909403,32637.78,38299.905,21227.805,29075.805,-17924.625,-29941.47,6337.035,19996.11
1764511739.7909403,32638.68,38301.525,21229.155,29076.66,-17923.815,-29940.255,6338.565,19997.46
1764511739.7909403,32638.32,38300.67,21228.93,29077.11,-17922.645,-29939.895,6338.429999999999,19996.245
1764511739.7909403,32634.945,38297.475,21226.86,29075.04,-17923.32,-29940.39,6337.035,19993.455
1764511739.7909403,32632.605,38295.63,21223.395,29072.205,-17927.1,-29944.26,6335.505,19991.295
1764511739.7909403,32632.785,38296.575,21222.45,29072.205,-17928.405,-29945.565,6335.28,19991.7
1764511739.7909403,32631.705,38295.72,21223.08,29072.61,-17926.469999999998,-29945.07,6335.145,19991.385
1764511739.7909403,32632.92,38297.745,21225.645,29073.87,-17924.94,-29943.675,6336.179999999999,19992.915
1764511739.7909403,32631.975,38297.07,21224.52,29072.7,-17926.649999999998,-29945.205,6335.639999999999,19992.105
1764511739.7909403,32634.54,38298.87,21225.735,29075.625,-17925.39,-29944.305,6335.955,19993.905
1764511739.7919705,32628.78,38292.75,21220.155,29070.765,-17930.295,-29949.435,6331.32,19987.965
1764511739.7919705,32628.105,38291.76,21219.795,29070.72,-17929.755,-29949.615,6330.78,19986.885
1764511739.7919705,32627.295,38291.175,21219.345,29070.495,-17930.204999999998,-29949.615,6329.745,19986.03
1764511739.7919705,32627.88,38291.58,21220.47,29071.035,-17928.989999999998,-29948.49,6329.835,19986.795
1764511739.7919705,32631.705,38295.225,21224.205,29073.555,-17925.75,-29945.205,6333.3,19991.295
1764511739.7919705,32629.095,38292.885,21221.145,29070.36,-17928.495,-29948.265,6331.455,19988.91
1764511739.7919705,32625.81,38289.42,21218.22,29066.13,-17928.765,-29949.165,6329.745,19986.075
1764511739.7919705,32628.825,38292.615,21221.28,29069.46,-17926.38,-29946.33,6331.59,19988.73
1764511739.7919705,32630.085,38294.685,21221.775,29070.09,-17925.614999999998,-29945.7,6333.929999999999,19990.62
1764511739.7919705,32633.055,38298.06,21224.43,29072.07,-17923.14,-29943.27,6335.054999999999,19993.32
1764511739.7919705,32632.47,38297.835,21224.385,29072.07,-17923.005,-29943.45,6333.21,19992.195
1764511739.7919705,32630.31,38296.035,21221.73,29068.2,-17927.774999999998,-29948.175,6330.554999999999,19989.63
1764511739.7919705,32626.755,38291.76,21217.77,29063.79,-17933.175,-29952.99,6327.63,19985.715
1764511739.7919705,32628.42,38293.155,21218.985,29066.355,-17930.204999999998,-29950.56,6328.755,19987.29
1764511739.7919705,32627.115,38292.48,21217.545,29065.275,-17930.43,-29951.1,6328.62,19986.48
1764511739.8377802,32631.255,38296.125,21221.055,29069.235,-17926.515,-29947.095,6330.96,19990.485
1764511739.8377802,32632.56,38296.845,21221.415,29070.18,-17926.155,-29946.555,6331.679999999999,19990.26
1764511739.8377802,32631.075,38295.045,21220.335,29069.505,-17927.235,-29947.5,6331.77,19989.45
1764511739.8377802,32633.64,38298.285,21224.205,29072.835,-17923.905,-29944.44,6334.29,19992.555
1764511739.8377802,32633.235,38298.42,21223.08,29072.34,-17925.12,-29945.115,6333.3,19992.42
1764511739.8377802,32627.925,38293.02,21217.95,29067.705,-17928.63,-29949.165,6329.79,19987.695
1764511739.8395224,32629.995,38294.28,21219.885,29069.235,-17926.065,-29946.465,6331.41,19989.405
1764511739.8395224,32629.365,38293.515,21219.39,29069.145,-17926.785,-29947.5,6331.41,19988.82
1764511739.8395224,32631.03,38295.36,21221.91,29069.595,-17927.954999999998,-29947.905,6331.32,19989.855
1764511739.8395224,32630.31,38294.505,21222.135,29069.955,-17924.895,-29945.115,6332.085,19990.935
1764511739.8405712,32626.035,38290.095,21217.995,29065.59,-17928.09,-29948.58,6329.88,19986.795
1764511739.8410296,32626.935,38291.445,21218.22,29066.175,-17927.19,-29948.535,6329.565,19986.705
1764511739.8410296,32625.81,38290.545,21217.5,29064.825,-17928.855,-29949.345,6328.8,19986.12
1764511739.8410296,32625.855,38289.96,21216.735,29063.52,-17931.285,-29950.83,6329.295,19986.165
1764511739.8410296,32628.33,38291.58,21217.5,29066.175,-17928.945,-29948.49,6330.465,19987.83
1764511739.841562,32624.46,38287.62,21213.225,29063.115,-17932.68,-29952.495,6327.045,19984.455
1764511739.841562,32627.07,38290.77,21216.285,29066.535,-17928.855,-29949.66,6328.844999999999,19987.56
1764511739.841562,32625.765,38288.385,21214.215,29064.645,-17930.745,-29951.82,6326.865,19986.12
1764511739.841562,32628.6,38292.03,21217.545,29068.155,-17928.719999999998,-29948.445,6328.755,19989.63
1764511739.841562,32630.535,38292.66,21218.58,29069.73,-17927.954999999998,-29947.275,6329.61,19990.215
1764511739.841562,32628.915,38290.545,21217.095,29067.615,-17929.665,-29948.805,6328.125,19988.73
1764511739.841562,32625.18,38286.585,21212.37,29064.42,-17932.86,-29952.63,6325.38,19985.265
1764511739.8425615,32626.755,38288.205,21213.81,29065.77,-17930.34,-29951.28,6325.965,19987.02
1764511739.8425615,32625.99,38287.035,21212.955,29064.87,-17931.87,-29952.18,6326.325,19985.85
1764511739.8865955,32628.645,38288.835,21214.62,29067.525,-17930.385,-29949.57,6327.585,19988.73
1764511739.8865955,32627.835,38288.25,21213.495,29066.535,-17930.43,-29951.28,6326.37,19987.335
1764511739.8865955,32626.71,38287.035,21211.92,29065.725,-17931.015,-29952.675,6325.65,19985.895
1764511739.8865955,32621.355,38281.23,21207.51,29061.585,-17934.344999999998,-29955.645,6322.5,19981.17
1764511739.8865955,32622.03,38282.13,21208.59,29062.305,-17935.02,-29956.32,6322.635,19981.755
1764511739.8875897,32625.54,38286.09,21212.46,29066.04,-17932.725,-29954.16,6323.895,19984.68
1764511739.8875897,32623.785,38284.2,21210.975,29065.185,-17933.13,-29954.025,6323.58,19982.835
1764511739.8875897,32625.63,38286.63,21213.54,29068.335,-17930.204999999998,-29950.83,6325.2,19986.255
1764511739.8875897,32623.02,38283.705,21211.065,29065.905,-17931.645,-29952.855,6323.985,19983.465
1764511739.8875897,32626.395,38285.82,21212.73,29068.11,-17930.52,-29952.18,6325.65,19985.985
1764511739.8875897,32630.625,38290.77,21216.33,29071.935,-17928.36,-29949.255,6328.08,19991.25
1764511739.8875897,32627.07,38287.17,21213.72,29068.875,-17930.34,-29951.1,6326.46,19987.83
1764511739.8875897,32630.94,38290.32,21217.95,29072.7,-17926.065,-29947.005,6328.98,19991.43
1764511739.8875897,32632.29,38290.905,21218.13,29074.32,-17926.469999999998,-29946.78,6329.25,19992.96
1764511739.8875897,32631.93,38290.32,21217.725,29073.06,-17927.055,-29947.455,6328.935,19993.005
1764511739.8875897,32630.445,38288.655,21217.68,29071.845,-17925.93,-29945.655,6329.565,19991.97
1764511739.8875897,32629.41,38287.755,21215.655,29071.53,-17927.415,-29947.455,6330.375,19990.89
1764511739.8875897,32633.55,38291.76,21218.94,29074.545,-17925.03,-29945.79,6331.86,19994.715
1764511739.8875897,32632.56,38291.04,21218.805,29073.24,-17926.2,-29947.5,6330.735,19993.95
1764511739.8875897,32629.995,38289.285,21217.005,29071.8,-17928.27,-29949.255,6331.139999999999,19992.51
1764511739.8875897,32634.045,38293.02,21220.56,29075.805,-17924.579999999998,-29945.97,6333.48,19996.29
1764511739.8875897,32632.785,38291.085,21219.615,29075.22,-17925.03,-29947.455,6331.59,19995.21
1764511739.932073,32632.695,38291.76,21219.795,29075.94,-17924.13,-29946.87,6331.77,19995.795
1764511739.932073,32633.01,38291.895,21220.605,29076.705,-17923.95,-29945.7,6332.13,19995.885
1764511739.933065,32628.645,38286.81,21216.105,29073.24,-17927.864999999998,-29949.93,6329.16,19991.52
1764511739.933065,32626.575,38285.19,21213.495,29071.395,-17929.35,-29951.64,6327.045,19990.035
1764511739.933065,32628.51,38287.305,21216.015,29073.375,-17927.55,-29949.75,6328.035,19992.105
1764511739.933065,32625.585,38284.65,21214.395,29071.26,-17929.71,-29952.675,6326.325,19989.0
1764511739.934068,32627.205,38287.35,21216.24,29071.89,-17929.26,-29951.775,6328.26,19990.8
1764511739.934068,32631.165,38290.455,21218.895,29074.32,-17925.39,-29947.59,6330.51,19994.13
1764511739.934068,32630.31,38288.97,21216.87,29071.98,-17927.19,-29949.03,6329.969999999999,19992.78
1764511739.9350636,32626.8,38286.405,21214.485,29069.415,-17929.35,-29952.495,6327.54,19990.035
1764511739.9350636,32625.45,38285.73,21213.945,29068.11,-17930.114999999998,-29953.665,6327.315,19988.055
1764511739.9350636,32621.31,38282.625,21211.155,29064.42,-17933.04,-29956.005,6325.56,19984.68
1764511739.9350636,32619.96,38281.365,21210.21,29062.935,-17933.67,-29957.445,6324.57,19983.105
1764511739.9350636,32622.03,38283.885,21212.91,29064.285,-17930.745,-29955.105,6326.325,19985.49
1764511739.936071,32620.185,38283.165,21210.885,29061.36,-17932.364999999998,-29956.23,6325.92,19983.645
1764511739.936071,32623.605,38287.395,21215.16,29064.69,-17929.215,-29952.72,6328.349999999999,19987.155
1764511739.936071,32622.795,38287.035,21214.665,29063.385,-17931.42,-29955.06,6326.91,19985.22
1764511739.936071,32621.805,38286.18,21214.755,29063.34,-17929.755,-29954.655,6326.594999999999,19985.175
1764511739.9370687,32624.955,38289.42,21217.41,29066.535,-17927.145,-29951.955,6328.8,19988.055
1764511739.9370687,32622.21,38286.18,21213.81,29063.52,-17931.735,-29955.735,6327.045,19984.545
1764511739.9370687,32622.165,38286.45,21213.45,29062.71,-17932.364999999998,-29956.005,6327.224999999999,19984.545
1764511739.9370687,32621.31,38286.315,21213.585,29062.935,-17931.555,-29955.195,6326.145,19984.635
1764511739.9370687,32621.31,38285.955,21214.305,29063.835,-17931.015,-29954.43,6326.054999999999,19984.725
1764511739.9370687,32621.67,38285.73,21213.405,29064.06,-17930.969999999998,-29954.565,6326.28,19985.04
1764511739.977478,32621.535,38286.045,21213.495,29064.87,-17930.16,-29954.43,6326.01,19985.175
1764511739.977478,32622.57,38286.765,21214.8,29066.67,-17928.989999999998,-29953.125,6326.01,19986.075
1764511739.977478,32619.825,38284.29,21212.37,29064.375,-17931.239999999998,-29955.42,6324.435,19983.375
1764511739.977478,32621.805,38286.27,21214.53,29065.77,-17929.44,-29953.305,6326.01,19985.94
1764511739.977478,32626.44,38291.265,21218.67,29069.955,-17924.715,-29948.94,6329.429999999999,19990.71
1764511739.977478,32625.135,38290.41,21216.24,29069.28,-17926.11,-29950.695,6327.719999999999,19989.225
1764511739.977478,32624.595,38289.51,21215.07,29067.75,-17927.28,-29951.505,6326.46,19988.415
1764511739.977478,32622.57,38286.72,21213.72,29065.77,-17927.954999999998,-29952.09,6325.83,19986.48
1764511739.977478,32623.83,38288.25,21215.25,29066.895,-17926.469999999998,-29950.695,6326.73,19987.56
1764511739.977478,32627.97,38291.895,21218.94,29070.9,-17922.195,-29946.015,6329.115,19991.835
1764511739.977478,32627.385,38291.805,21218.355,29070.45,-17922.105,-29946.825,6328.935,19991.385
1764511739.977478,32620.725,38285.01,21213.045,29064.87,-17925.614999999998,-29949.435,6324.929999999999,19986.075
1764511739.977478,32621.355,38284.785,21212.28,29064.42,-17927.505,-29951.415,6324.165,19985.355
1764511739.977478,32626.125,38288.97,21214.98,29067.345,-17924.895,-29949.84,6326.505,19988.19
1764511739.977478,32629.005,38292.03,21218.355,29070.945,-17921.204999999998,-29946.42,6329.16,19991.655
1764511739.977478,32627.745,38290.905,21216.96,29069.28,-17923.454999999998,-29948.085,6327.63,19989.63
1764511739.977478,32625.855,38288.79,21214.125,29067.255,-17925.57,-29950.695,6326.01,19987.83
1764511739.977478,32628.285,38291.49,21217.005,29070.495,-17922.825,-29948.265,6327.405,19990.755
1764511739.977478,32627.43,38290.41,21215.7,29069.91,-17923.5,-29949.525,6326.28,19989.405
1764511739.977478,32623.02,38286.045,21210.48,29066.355,-17927.46,-29953.17,6323.535,19984.905
1764511739.978531,32620.995,38284.155,21208.41,29064.42,-17929.485,-29955.24,6321.735,19982.655
1764511739.978531,32620.005,38283.435,21207.96,29063.52,-17930.34,-29956.455,6320.565,19981.98
1764511740.0262246,32622.615,38285.64,21210.3,29065.005,-17929.665,-29955.465,6321.69,19983.735
1764511740.0262246,32625.855,38288.97,21213.765,29068.965,-17926.065,-29952.09,6324.48,19987.155
1764511740.0272372,32625.27,38288.52,21213.495,29068.785,-17925.03,-29951.28,6325.605,19987.83
1764511740.0272372,32621.76,38285.505,21210.03,29065.185,-17927.64,-29952.9,6324.48,19984.635
1764511740.0272372,32625.0,38287.98,21212.73,29068.155,-17925.255,-29950.065,6325.875,19987.02
1764511740.0272372,32623.065,38285.955,21211.2,29066.985,-17927.28,-29951.82,6324.66,19985.895
1764511740.0272372,32625.405,38289.015,21213.72,29068.155,-17926.425,-29950.38,6325.875,19988.73
1764511740.02824,32622.84,38285.685,21210.84,29065.545,-17928.54,-29953.665,6324.435,19985.67
1764511740.02824,32625.27,38288.52,21213.18,29067.57,-17927.055,-29951.82,6326.28,19988.19
1764511740.02824,32625.045,38287.71,21212.46,29066.805,-17928.225,-29952.72,6325.155,19988.73
1764511740.02824,32625.135,38288.07,21212.37,29067.12,-17926.829999999998,-29951.73,6326.054999999999,19989.27
1764511740.02824,32625.27,38288.79,21212.82,29067.39,-17925.255,-29950.875,6326.82,19989.72
1764511740.029236,32625.72,38289.24,21212.82,29067.57,-17925.255,-29951.055,6327.27,19989.585
1764511740.029236,32623.605,38285.955,21209.985,29065.455,-17928.225,-29953.035,6325.245,19986.885
1764511740.0300455,32619.96,38281.86,21205.71,29061.135,-17932.545,-29957.355,6322.094999999999,19983.6
1764511740.0300455,32621.715,38283.39,21207.195,29062.8,-17930.969999999998,-29956.32,6322.545,19984.905
1764511740.0300455,32624.55,38286.72,21211.515,29066.805,-17925.975,-29952.405,6324.435,19988.505
1764511740.0300455,32618.565,38281.68,21206.52,29062.35,-17929.079999999998,-29955.915,6321.915,19983.915
1764511740.0300455,32619.51,38282.355,21206.745,29062.305,-17929.665,-29956.77,6321.96,19984.455
1764511740.0300455,32619.33,38281.815,21205.845,29060.955,-17931.375,-29958.03,6320.835,19984.23
1764511740.0300455,32619.645,38282.265,21205.935,29062.395,-17930.475,-29957.175,6321.33,19985.76
1764511740.0300455,32624.415,38287.53,21211.11,29067.075,-17924.309999999998,-29951.64,6325.83,19991.025
1764511740.0300455,32623.65,38287.035,21211.47,29067.255,-17923.905,-29951.865,6325.785,19990.89
1764511740.0300455,32620.725,38284.47,21208.995,29064.87,-17926.2,-29954.385,6324.12,19987.65
1764511740.071175,32625.135,38288.385,21212.325,29069.01,-17921.43,-29949.795,6326.82,19991.52
1764511740.071175,32626.035,38289.195,21212.55,29069.415,-17921.295,-29949.57,6326.82,19992.51
1764511740.071175,32625.9,38289.015,21212.055,29068.155,-17922.105,-29950.605,6326.594999999999,19992.555
1764511740.071175,32624.46,38287.08,21210.03,29066.895,-17923.454999999998,-29951.82,6325.56,19991.385
1764511740.071175,32621.535,38283.57,21207.195,29064.645,-17926.469999999998,-29954.655,6323.58,19988.28
1764511740.071175,32622.255,38284.02,21207.915,29063.925,-17926.965,-29955.645,6323.31,19989.135
1764511740.071175,32623.875,38286.27,21209.4,29066.085,-17924.805,-29952.945,6324.57,19991.07
1764511740.071175,32624.145,38286.495,21209.535,29066.22,-17925.39,-29952.72,6325.605,19991.52
1764511740.0727327,32629.14,38291.94,21214.98,29070.765,-17919.719999999998,-29948.13,6329.429999999999,19996.47
1764511740.0727327,32627.7,38289.555,21213.765,29068.605,-17918.82,-29948.58,6327.585,19994.94
1764511740.0737574,32626.935,38288.97,21213.585,29068.155,-17917.965,-29948.175,6327.855,19994.49
1764511740.0737574,32627.655,38289.555,21213.9,29068.605,-17917.605,-29946.825,6328.349999999999,19995.3
1764511740.0737574,32629.05,38290.68,21214.035,29069.505,-17919.18,-29948.085,6328.26,19996.335
1764511740.0737574,32627.295,38288.52,21212.235,29068.155,-17920.44,-29949.3,6327.27,19995.705
1764511740.0737574,32623.875,38285.145,21208.275,29064.645,-17924.265,-29953.395,6324.929999999999,19992.105
1764511740.0737574,32624.28,38286.405,21208.995,29065.32,-17923.725,-29953.44,6324.84,19991.79
1764511740.0737574,32623.92,38286.045,21209.4,29065.005,-17923.725,-29952.855,6324.885,19991.34
1764511740.0737574,32627.655,38289.51,21212.955,29067.795,-17919.405,-29947.185,6328.125,19995.48
1764511740.0737574,32628.06,38289.105,21213.495,29068.605,-17919.36,-29947.23,6329.025,19995.435
1764511740.0737574,32626.305,38287.26,21211.56,29067.03,-17920.934999999998,-29949.705,6327.855,19993.77
1764511740.0737574,32626.26,38287.62,21211.02,29066.805,-17921.969999999998,-29951.01,6327.855,19993.41
1764511740.0737574,32630.13,38291.805,21214.71,29069.73,-17918.235,-29947.32,6330.554999999999,19997.46
1764511740.0737574,32629.455,38291.715,21214.125,29068.695,-17918.19,-29947.545,6330.42,19996.785
1764511740.0737574,32628.42,38290.545,21212.64,29067.48,-17919.405,-29948.355,6329.474999999999,19996.155
1764511740.1191008,32624.55,38287.89,21208.68,29064.24,-17922.96,-29952.09,6327.764999999999,19992.645
1764511740.1191008,32623.695,38287.44,21208.545,29064.285,-17923.815,-29952.405,6327.045,19992.24
1764511740.1191008,32622.93,38286.855,21208.365,29064.285,-17923.77,-29953.035,6325.83,19991.61
1764511740.1191008,32626.71,38290.5,21212.37,29067.3,-17920.035,-29949.66,6327.36,19994.805
1764511740.120163,32624.865,38288.43,21209.265,29065.635,-17922.375,-29952.315,6325.335,19992.015
1764511740.120163,32620.77,38285.01,21205.665,29061.63,-17926.155,-29955.375,6323.085,19988.235
1764511740.120163,32622.84,38286.855,21208.095,29062.8,-17925.165,-29954.115,6324.705,19989.855
1764511740.120163,32621.985,38285.235,21206.88,29062.26,-17926.515,-29955.42,6323.445,19988.595
1764511740.120163,32623.11,38285.955,21207.555,29063.7,-17925.3,-29954.115,6324.795,19990.08
1764511740.121169,32624.82,38287.845,21209.265,29065.5,-17923.59,-29952.315,6325.155,19991.745
1764511740.121169,32629.005,38291.985,21213.765,29068.92,-17920.305,-29949.345,6328.08,19995.84
1764511740.121169,32628.285,38291.445,21213.09,29068.38,-17921.07,-29950.335,6328.17,19995.795
1764511740.121169,32631.435,38294.01,21215.79,29070.81,-17917.155,-29945.79,6331.32,19998.315
1764511740.121169,32630.715,38292.795,21214.485,29070.495,-17917.38,-29946.555,6330.599999999999,19997.145
1764511740.121169,32631.705,38294.055,21215.61,29072.475,-17915.715,-29945.655,6330.69,19998.0
1764511740.121169,32628.96,38291.985,21213.045,29069.235,-17919.45,-29949.12,6328.935,19995.345
1764511740.121169,32632.245,38294.235,21216.15,29073.105,-17916.21,-29946.645,6331.185,19998.675
1764511740.121169,32630.445,38292.66,21214.125,29071.845,-17917.469999999998,-29948.76,6330.42,19996.965
1764511740.121169,32631.03,38292.75,21214.485,29072.07,-17917.155,-29948.22,6330.51,19997.64
1764511740.121169,32631.93,38293.515,21215.52,29073.015,-17915.805,-29947.14,6331.635,19998.585
1764511740.121169,32633.82,38296.08,21217.68,29074.95,-17912.52,-29944.305,6333.03,20000.565
1764511740.121169,32632.92,38294.685,21216.015,29072.475,-17914.32,-29945.61,6332.94,19999.08
1764511740.165656,32633.955,38296.26,21216.915,29073.645,-17913.78,-29944.215,6333.75,20000.655
1764511740.165656,32638.005,38301.03,21221.235,29078.145,-17908.739999999998,-29939.49,6336.405,20004.705
1764511740.165656,32637.69,38301.03,21221.685,29077.695,-17908.38,-29938.905,6336.81,20004.705
1764511740.165656,32633.415,38296.62,21218.31,29073.42,-17911.079999999998,-29940.885,6335.01,20001.195
1764511740.165656,32633.325,38296.35,21218.895,29073.195,-17911.44,-29940.705,6334.875,20001.465
1764511740.165656,32633.55,38295.585,21217.14,29072.655,-17913.465,-29942.82,6333.3,20001.42
1764511740.165656,32634.405,38297.07,21218.13,29074.995,-17911.53,-29941.065,6333.705,20002.68
1764511740.165656,32638.455,38301.345,21222.585,29079.405,-17907.255,-29937.105,6336.855,20007.36
1764511740.165656,32639.445,38301.795,21223.395,29079.585,-17906.625,-29937.15,6337.53,20007.855
1764511740.165656,32638.23,38301.21,21222.9,29078.19,-17907.975,-29938.32,6337.62,20006.505
1764511740.165656,32633.82,38297.61,21218.4,29074.005,-17912.475,-29942.235,6335.054999999999,20002.365
1764511740.166656,32633.505,38297.16,21218.265,29073.645,-17913.015,-29942.415,6334.695,20001.78
1764511740.166656,32636.745,38299.455,21221.055,29076.885,-17909.55,-29940.705,6335.82,20004.435
1764511740.166656,32634.18,38296.62,21218.22,29074.815,-17911.305,-29942.73,6333.12,20002.41
1764511740.166656,32630.76,38294.46,21214.755,29072.565,-17914.23,-29945.16,6331.545,19998.945
1764511740.166656,32632.83,38296.485,21217.185,29074.77,-17912.385,-29943.36,6333.344999999999,20001.42
1764511740.166656,32633.055,38295.675,21216.78,29074.545,-17912.655,-29943.765,6333.929999999999,20000.97
1764511740.166656,32637.42,38299.05,21220.38,29077.56,-17909.145,-29940.03,6336.45,20004.075
1764511740.166656,32637.285,38299.05,21220.875,29077.47,-17908.739999999998,-29940.21,6337.08,20004.21
1764511740.166656,32635.935,38297.115,21219.615,29076.255,-17909.91,-29941.605,6336.135,20002.635
1764511740.166656,32636.655,38297.385,21219.93,29077.74,-17908.92,-29941.335,6337.17,20004.03
1764511740.166656,32635.485,38296.98,21219.12,29076.57,-17909.055,-29942.055,6337.125,20002.815
1764511740.166656,32636.385,38298.78,21220.92,29077.29,-17905.68,-29938.455,6338.474999999999,20004.66
1764511740.166656,32633.235,38295.18,21217.77,29074.5,-17908.92,-29941.74,6336.045,20001.465
1764511740.2103994,32635.845,38297.88,21219.57,29076.795,-17907.66,-29941.02,6337.349999999999,20003.13
1764511740.2103994,32634.72,38296.62,21218.22,29075.175,-17910.405,-29943.81,6335.91,20001.555
1764511740.2103994,32636.34,38297.565,21220.38,29076.255,-17908.515,-29942.55,6336.855,20003.13
1764511740.2103994,32635.35,38297.16,21219.21,29075.535,-17909.684999999998,-29942.91,6336.945,20001.87
1764511740.2103994,32639.58,38301.525,21223.305,29078.595,-17906.04,-29938.77,6339.87,20005.56
1764511740.2103994,32641.11,38303.19,21225.015,29079.36,-17904.6,-29937.06,6341.13,20007.18
1764511740.2103994,32640.48,38302.92,21225.285,29079.0,-17905.14,-29937.465,6341.67,20007.405
1764511740.2103994,32641.515,38304.495,21226.68,29079.63,-17904.825,-29936.745,6342.885,20008.62
1764511740.2103994,32642.91,38306.52,21227.265,29080.035,-17903.43,-29935.89,6344.46,20009.655
1764511740.2103994,32639.445,38303.595,21224.295,29076.885,-17906.175,-29938.635,6341.715,20006.595
1764511740.2103994,32635.395,38299.455,21220.47,29073.42,-17910.0,-29942.73,6339.33,20003.355
1764511740.2103994,32634.45,38299.05,21220.92,29073.6,-17908.605,-29941.11,6340.005,20003.535
1764511740.2103994,32633.73,38298.645,21220.29,29073.06,-17907.885,-29940.705,6340.32,20002.995
1764511740.2103994,32634.495,38299.59,21220.47,29072.745,-17908.605,-29942.145,6339.69,20002.725
1764511740.2139723,32635.89,38301.48,21221.73,29073.78,-17907.434999999998,-29942.28,6340.59,20004.12
1764511740.2139723,32638.59,38305.08,21224.97,29076.345,-17904.96,-29939.445,6342.795,20007.585
1764511740.2139723,32641.335,38307.6,21227.445,29079.18,-17902.485,-29935.665,6344.235,20010.87
1764511740.2139723,32639.67,38305.8,21225.915,29076.975,-17903.88,-29937.195,6343.83,20009.385
1764511740.2139723,32641.155,38307.78,21228.165,29077.65,-17901.135,-29935.98,6345.719999999999,20010.51
1764511740.2139723,32638.005,38305.215,21226.095,29074.095,-17903.969999999998,-29938.32,6343.65,20007.585
1764511740.2149749,32639.13,38307.735,21227.4,29074.23,-17903.114999999998,-29937.51,6344.28,20008.98
1764511740.2149749,32636.07,38305.935,21223.53,29070.135,-17905.815,-29941.02,6342.12,20006.505
1764511740.2149749,32639.13,38308.68,21226.095,29071.485,-17903.385,-29938.725,6344.235,20009.52
1764511740.2149749,32636.16,38306.025,21224.16,29068.92,-17905.77,-29941.65,6343.11,20007.225
1764511740.2593286,32638.905,38308.77,21227.04,29071.395,-17902.8,-29939.13,6345.27,20009.88
1764511740.2593286,32636.43,38307.735,21225.6,29069.37,-17904.6,-29940.795,6344.19,20007.315
1764511740.2593286,32639.805,38311.29,21229.47,29072.34,-17902.62,-29937.195,6346.53,20011.05
1764511740.2593286,32638.32,38309.265,21227.715,29070.405,-17904.42,-29939.265,6345.36,20009.115
1764511740.2593286,32640.66,38311.92,21229.335,29073.24,-17901.495,-29937.15,6347.474999999999,20011.545
1764511740.2593286,32637.195,38308.635,21224.61,29070.36,-17905.5,-29941.11,6345.27,20007.855
1764511740.2593286,32635.935,38307.51,21224.52,29069.01,-17905.995,-29941.965,6344.685,20006.955
1764511740.2593286,32635.62,38307.78,21225.195,29069.01,-17905.05,-29941.245,6344.775,20006.955
1764511740.2593286,32636.61,38308.455,21225.375,29069.595,-17904.015,-29940.93,6345.63,20007.09
1764511740.25984,32637.69,38310.255,21227.355,29070.585,-17903.204999999998,-29940.21,6346.71,20007.72
1764511740.25984,32639.76,38312.01,21229.02,29071.08,-17902.71,-29939.085,6348.195,20010.555
1764511740.25984,32637.24,38309.535,21226.41,29068.605,-17904.285,-29941.11,6347.25,20007.9
1764511740.25984,32633.55,38305.305,21222.315,29066.13,-17907.524999999998,-29943.855,6344.775,20003.49
1764511740.25984,32637.24,38308.905,21226.32,29068.65,-17904.87,-29941.785,6346.755,20007.135
1764511740.25984,32637.195,38308.5,21226.185,29067.57,-17906.265,-29943.045,6346.035,20006.325
1764511740.25984,32630.985,38302.245,21220.02,29062.17,-17912.969999999998,-29949.075,6341.31,19999.44
1764511740.25984,32631.705,38302.65,21219.795,29061.585,-17913.105,-29948.355,6341.355,19999.935
1764511740.25984,32634.135,38304.945,21222.18,29063.34,-17910.495,-29946.195,6343.29,20002.68
