Timestamp,Channel1,Channel2,Channel3,Channel4,Channel5,Channel6,Channel7,Channel8
1764510644.9232907,38673.405,51025.905,45077.085,51198.075,-11322.225,-22416.66,22617.225,21710.295
1764510644.9232907,38668.5,51020.55,45071.685,51193.17,-11327.49,-22421.97,22613.715,21704.985
1764510644.9232907,38669.76,51021.945,45073.26,51195.06,-11326.14,-22421.07,22614.48,21706.56
1764510644.9232907,38672.235,51023.745,45075.15,51197.175,-11324.115,-22419.54,22616.01,21708.81
1764510644.9232907,38676.06,51028.425,45079.83,51201.135,-11319.795,-22415.49,22619.385,21713.175
1764510644.9232907,38677.995,51030.36,45081.27,51201.72,-11318.04,-22414.23,22621.23,21714.885
1764510644.9232907,38676.375,51027.75,45078.93,51198.885,-11320.29,-22416.84,22619.745,21712.545
1764510644.9232907,38676.105,51026.67,45077.67,51198.57,-11321.145,-22417.02,22619.115,21711.96
1764510644.9232907,38677.095,51027.615,45078.3,51200.28,-11319.435,-22416.66,22619.295,21712.905
1764510644.9232907,38680.515,51030.63,45082.17,51203.97,-11316.015,-22412.61,22620.78,21716.82
1764510644.9232907,38678.49,51028.47,45080.055,51201.63,-11317.275,-22413.735,22620.105,21714.885
1764510644.9232907,38675.16,51024.78,45075.69,51197.94,-11320.965,-22418.145,22616.82,21711.915
1764510644.9232907,38670.21,51020.235,45069.705,51193.17,-11326.41,-22423.275,22612.32,21707.01
1764510644.9243484,38670.93,51020.82,45071.145,51194.16,-11324.88,-22423.455,22612.005,21707.595
1764510644.9243484,38675.43,51025.275,45076.275,51198.345,-11320.65,-22419.135,22615.605,21712.725
1764510644.9243484,38671.83,51021.405,45073.035,51194.52,-11324.79,-22422.465,22613.76,21709.62
1764510644.9243484,38673.0,51021.9,45073.305,51194.385,-11324.25,-22422.285,22614.345,21710.385
1764510644.9243484,38675.745,51024.555,45076.095,51196.23,-11320.245,-22417.965,22616.37,21713.355
1764510644.9243484,38674.08,51022.53,45073.485,51194.16,-11322.585,-22420.215,22615.695,21711.33
1764510644.9243484,38677.68,51025.86,45076.68,51197.085,-11320.02,-22418.37,22617.855,21714.12
1764510644.9243484,38682.9,51031.08,45081.81,51201.27,-11315.565,-22412.97,22620.735,21718.71
1764510644.9243484,38681.73,51030.36,45080.37,51200.055,-11316.69,-22414.095,22618.665,21717.72
1764510644.9243484,38683.395,51032.025,45081.855,51201.63,-11314.935,-22412.34,22620.24,21719.34
1764510644.9243484,38684.115,51032.655,45082.17,51202.485,-11314.62,-22412.07,22621.05,21720.465
1764510644.9699056,38683.935,51032.88,45081.945,51202.935,-11314.935,-22412.205,22621.455,21721.185
1764510644.9699056,38680.29,51029.235,45078.885,51199.695,-11318.13,-22415.04,22619.385,21717.585
1764510644.9699056,38680.965,51030.18,45080.37,51200.73,-11317.365,-22413.33,22620.195,21718.305
1764510644.9699056,38684.565,51033.285,45083.52,51203.655,-11314.8,-22410.315,22622.58,21722.04
1764510644.9699056,38688.3,51036.21,45085.905,51206.535,-11311.83,-22406.58,22624.83,21725.37
1764510644.9699056,38692.035,51039.945,45089.595,51210.585,-11307.69,-22402.8,22627.215,21729.06
1764510644.9699056,38691.495,51038.46,45088.785,51210.27,-11308.995,-22403.385,22625.595,21728.07
1764510644.9699056,38688.705,51035.625,45086.49,51208.92,-11311.605,-22406.04,22622.715,21725.37
1764510644.9699056,38688.795,51035.985,45086.76,51209.055,-11310.93,-22405.095,22622.895,21725.505
1764510644.9699056,38687.13,51034.545,45085.095,51207.3,-11312.55,-22406.355,22621.77,21724.02
1764510644.9699056,38684.07,51032.565,45081.855,51204.195,-11315.79,-22409.19,22621.455,21721.635
1764510644.9699056,38686.14,51034.725,45083.295,51207.165,-11313.18,-22406.13,22622.13,21723.93
1764510644.9699056,38684.07,51032.925,45081.81,51205.815,-11314.665,-22407.84,22620.42,21722.085
1764510644.9699056,38685.735,51033.555,45083.025,51206.76,-11310.975,-22405.095,22621.77,21724.335
1764510644.9699056,38684.7,51031.395,45081.045,51205.905,-11313.09,-22406.805,22621.005,21722.355
1764510644.9699056,38689.785,51035.895,45085.68,51210.585,-11310.12,-22404.555,22624.515,21726.585
1764510644.9699056,38694.42,51040.935,45089.955,51215.22,-11306.07,-22399.695,22627.89,21731.175
1764510644.9699056,38688.75,51035.085,45083.745,51210.045,-11312.01,-22405.14,22623.39,21724.92
1764510644.9699056,38689.245,51035.355,45083.61,51210.72,-11311.47,-22405.005,22623.705,21725.82
1764510644.9699056,38692.665,51038.685,45086.49,51214.545,-11307.87,-22401.36,22626.135,21728.925
1764510644.9699056,38693.43,51039.36,45086.67,51214.545,-11307.51,-22401.135,22625.91,21728.7
1764510644.9699056,38691.81,51036.66,45084.96,51211.845,-11309.49,-22403.25,22624.92,21726.405
1764510644.9699056,38695.725,51039.495,45088.245,51214.995,-11306.115,-22400.505,22626.63,21729.51
1764510644.9699056,38694.24,51037.605,45086.58,51213.285,-11307.6,-22402.17,22626.045,21727.8
1764510645.0132058,38695.725,51039.09,45088.29,51214.725,-11306.07,-22400.28,22627.125,21729.78
1764510645.0132058,38695.68,51039.27,45088.02,51214.86,-11305.71,-22400.955,22626.81,21730.275
1764510645.0132058,38698.785,51043.05,45090.99,51217.605,-11302.965,-22397.67,22630.59,21732.795
1764510645.0132058,38693.475,51037.38,45085.41,51212.52,-11308.32,-22402.665,22626.81,21727.575
1764510645.0132058,38693.52,51037.155,45085.635,51211.935,-11308.905,-22403.97,22626.27,21726.945
1764510645.0132058,38692.89,51036.93,45084.69,51211.17,-11308.635,-22404.51,22626.315,21726.225
1764510645.0147312,38694.78,51039.09,45085.995,51211.935,-11307.285,-22402.935,22627.8,21728.07
1764510645.0147312,38696.76,51040.575,45088.74,51213.87,-11306.295,-22401.36,22628.88,21729.87
1764510645.0162888,38702.655,51046.47,45094.86,51218.73,-11300.13,-22396.14,22632.93,21734.73
1764510645.0162888,38702.7,51047.055,45095.355,51218.55,-11300.04,-22396.545,22632.93,21734.82
1764510645.0162888,38700.765,51045.345,45093.015,51217.155,-11301.525,-22397.895,22632.345,21733.605
1764510645.0162888,38700.765,51044.445,45092.835,51215.58,-11301.93,-22398.525,22632.795,21733.065
1764510645.0162888,38699.505,51043.095,45091.53,51213.825,-11303.19,-22400.82,22631.31,21731.355
1764510645.0162888,38693.655,51038.1,45086.4,51208.155,-11309.13,-22406.535,22627.845,21725.37
1764510645.0162888,38694.33,51038.775,45086.58,51209.01,-11308.41,-22406.445,22628.205,21726.315
1764510645.0162888,38697.075,51042.015,45090.315,51212.7,-11304.72,-22402.845,22630.5,21729.825
1764510645.0162888,38693.655,51038.28,45086.895,51208.875,-11308.68,-22406.625,22628.205,21726.9
1764510645.017823,38691.99,51035.895,45084.375,51206.985,-11310.57,-22408.92,22626.585,21724.92
1764510645.0182605,38695.995,51039.63,45087.885,51209.91,-11307.015,-22405.365,22628.79,21728.025
1764510645.0182605,38693.655,51038.19,45086.085,51208.695,-11308.635,-22407.435,22626.63,21726.36
1764510645.0182605,38690.55,51034.23,45080.91,51205.185,-11313.09,-22412.07,22624.155,21722.67
1764510645.018603,38694.555,51037.47,45084.33,51208.65,-11309.265,-22408.38,22626.225,21725.865
1764510645.0641315,38695.59,51038.91,45085.77,51210.27,-11307.915,-22406.895,22626.855,21727.125
1764510645.0641315,38690.685,51033.6,45080.19,51205.59,-11313.63,-22412.295,22623.345,21722.175
1764510645.0641315,38690.91,51033.645,45079.92,51205.95,-11313.405,-22411.215,22623.66,21722.625
1764510645.0641315,38691.675,51034.635,45081.135,51207.705,-11312.64,-22409.64,22623.57,21723.93
1764510645.0641315,38693.61,51036.435,45082.62,51210.675,-11309.985,-22407.525,22624.155,21725.685
1764510645.0641315,38695.635,51038.01,45084.42,51214.23,-11307.15,-22404.51,22625.325,21729.24
1764510645.0641315,38693.16,51034.365,45081.045,51212.16,-11310.57,-22407.57,22622.535,21726.135
1764510645.0641315,38694.15,51034.59,45081.495,51212.88,-11308.995,-22405.32,22621.77,21726.45
1764510645.0641315,38691.81,51032.295,45078.84,51211.485,-11312.1,-22407.48,22619.835,21724.335
1764510645.0641315,38695.23,51035.535,45081.72,51215.31,-11309.04,-22404.24,22621.14,21727.125
1764510645.0641315,38696.535,51036.255,45082.305,51215.985,-11308.635,-22403.52,22622.13,21727.89
1764510645.0641315,38689.695,51029.46,45075.69,51209.82,-11313.225,-22408.155,22618.305,21721.815
1764510645.0641315,38694.96,51035.76,45081.72,51214.815,-11308.725,-22403.25,22622.4,21727.215
1764510645.0641315,38692.35,51033.645,45079.605,51212.88,-11311.74,-22405.5,22620.735,21725.46
1764510645.0641315,38692.44,51034.59,45080.19,51212.475,-11310.93,-22405.545,22621.005,21725.685
1764510645.0641315,38694.42,51036.795,45082.305,51212.565,-11309.625,-22405.14,22622.175,21726.27
1764510645.0641315,38692.755,51035.04,45080.91,51210.405,-11311.74,-22407.345,22621.275,21724.245
1764510645.0641315,38692.395,51035.265,45080.865,51210.585,-11312.145,-22407.57,22621.095,21724.155
1764510645.0641315,38688.975,51031.35,45078.075,51206.67,-11315.475,-22411.08,22619.16,21720.87
1764510645.0641315,38690.28,51032.655,45080.01,51206.985,-11313.945,-22409.82,22620.33,21722.535
1764510645.0641315,38694.915,51037.38,45084.375,51210.585,-11310.03,-22405.365,22623.525,21726.54
1764510645.0641315,38690.19,51034.095,45080.55,51207.48,-11313.81,-22409.415,22620.285,21722.13
1764510645.0641315,38694.33,51037.56,45083.25,51209.73,-11310.795,-22406.265,22622.445,21726.45
1764510645.0641315,38693.52,51036.705,45081.72,51208.695,-11310.84,-22407.03,22622.04,21725.505
1764510645.1114104,38693.16,51035.985,45081.675,51209.1,-11310.75,-22407.165,22621.545,21724.47
1764510645.1114104,38690.46,51032.7,45078.435,51206.445,-11314.755,-22410.045,22619.43,21721.86
1764510645.1114104,38693.475,51035.85,45081.27,51209.82,-11310.705,-22406.445,22621.005,21725.91
1764510645.1114104,38692.98,51035.76,45080.28,51210.045,-11311.02,-22407.165,22619.655,21725.685
1764510645.1114104,38692.08,51033.96,45078.885,51209.64,-11311.47,-22407.93,22618.305,21724.47
1764510645.1114104,38689.605,51030.81,45075.33,51207.255,-11313.225,-22410.45,22616.505,21722.625
1764510645.1114104,38693.52,51033.78,45078.66,51210.045,-11310.57,-22406.715,22618.755,21726.135
1764510645.1114104,38687.895,51027.615,45072.99,51205.14,-11316.06,-22411.89,22614.57,21720.105
1764510645.1114104,38687.985,51028.47,45073.26,51205.635,-11315.475,-22411.62,22615.155,21721.545
1764510645.1114104,38687.265,51028.02,45072.045,51204.465,-11316.285,-22412.97,22613.76,21720.15
1764510645.1114104,38688.12,51028.83,45073.17,51205.545,-11315.52,-22411.98,22613.985,21720.825
1764510645.1123962,38690.91,51031.35,45076.005,51207.93,-11312.82,-22409.64,22615.74,21723.39
1764510645.1123962,38689.11,51029.955,45074.205,51205.545,-11315.295,-22412.295,22614.705,21720.735
1764510645.1123962,38690.145,51031.17,45075.555,51206.085,-11314.17,-22411.305,22615.155,21721.995
1764510645.1123962,38687.13,51028.245,45072.9,51203.07,-11317.23,-22413.825,22613.895,21718.845
1764510645.1123962,38686.14,51027.75,45071.37,51201.81,-11318.085,-22414.905,22613.085,21718.395
1764510645.1123962,38688.615,51030.945,45073.755,51203.61,-11315.97,-22413.015,22614.345,21721.365
1764510645.1123962,38682.81,51025.455,45068.535,51198.345,-11321.055,-22417.74,22609.89,21715.83
1764510645.1123962,38683.935,51026.085,45068.985,51199.155,-11319.93,-22417.47,22610.205,21717.045
1764510645.1123962,38685.375,51027.21,45070.74,51200.955,-11318.49,-22415.67,22610.97,21718.125
1764510645.1123962,38682.72,51024.51,45068.085,51198.165,-11321.46,-22418.28,22609.935,21714.84
1764510645.1123962,38682.135,51023.61,45067.14,51197.355,-11322.405,-22418.73,22608.315,21713.31
1764510645.15768,38685.915,51026.715,45070.47,51201.27,-11319.435,-22415.715,22610.25,21717.27
1764510645.1581297,38684.385,51025.005,45069.075,51200.955,-11320.695,-22416.705,22608.63,21715.56
1764510645.1581297,38684.835,51025.275,45069.435,51201.63,-11319.93,-22416.12,22609.035,21716.01
1764510645.1586735,38686.05,51026.535,45069.255,51202.395,-11319.03,-22415.13,22610.025,21717.135
1764510645.1586735,38685.42,51025.32,45068.94,51202.08,-11319.615,-22416.57,22610.16,21716.505
1764510645.1586735,38679.12,51018.12,45061.425,51195.285,-11326.365,-22423.005,22604.895,21709.755
1764510645.1586735,38678.535,51017.535,45061.065,51195.33,-11326.095,-22423.005,22604.175,21709.395
1764510645.1586735,38677.77,51017.4,45060.48,51195.96,-11325.96,-22424.31,22603.545,21708.585
1764510645.1586735,38678.22,51017.31,45060.84,51196.005,-11326.32,-22423.23,22603.86,21708.855
1764510645.1586735,38678.4,51017.535,45060.885,51196.995,-11326.41,-22422.96,22603.32,21709.35
1764510645.1586735,38678.895,51018.03,45061.425,51198.21,-11325.195,-22422.51,22603.86,21710.07
1764510645.1586735,38681.46,51020.28,45063.585,51200.01,-11322.63,-22420.53,22605.435,21712.545
1764510645.1586735,38680.515,51019.92,45062.55,51199.695,-11323.62,-22421.115,22604.535,21712.005
1764510645.1586735,38676.555,51015.69,45058.545,51196.05,-11327.085,-22425.075,22602.285,21707.28
1764510645.1586735,38679.435,51018.975,45062.055,51199.29,-11323.8,-22422.915,22603.635,21710.295
1764510645.1596694,38676.645,51016.635,45059.22,51196.815,-11325.96,-22425.12,22600.305,21707.73
1764510645.1596694,38674.035,51013.215,45056.25,51194.295,-11328.345,-22427.685,22598.46,21704.58
1764510645.1596694,38676.69,51015.78,45059.625,51197.265,-11325.78,-22424.94,22599.765,21707.595
1764510645.1596694,38677.005,51015.735,45060.255,51198.075,-11325.465,-22423.905,22600.575,21707.91
1764510645.1596694,38673.72,51012.81,45056.835,51194.88,-11329.74,-22427.91,22598.235,21704.4
1764510645.1596694,38677.275,51015.96,45059.22,51196.815,-11328.255,-22426.38,22600.17,21708.135
1764510645.1596694,38676.285,51014.79,45058.41,51196.77,-11328.39,-22427.055,22600.35,21707.46
1764510645.1596694,38673.945,51013.53,45057.015,51195.375,-11329.29,-22428.855,22599.81,21705.705
1764510645.1596694,38677.275,51017.265,45060.795,51198.75,-11325.33,-22425.165,22602.06,21709.71
1764510645.2021732,38678.22,51018.345,45062.01,51199.695,-11324.115,-22423.59,22603.185,21711.105
1764510645.2021732,38673.99,51013.845,45057.51,51195.15,-11328.435,-22427.685,22598.685,21706.065
1764510645.2021732,38669.67,51009.435,45053.055,51191.235,-11332.08,-22430.385,22596.75,21701.52
1764510645.2021732,38668.905,51008.31,45052.2,51190.11,-11332.62,-22430.475,22595.94,21700.98
1764510645.2021732,38673.18,51012.9,45056.835,51193.395,-11329.515,-22427.865,22597.65,21705.03
1764510645.2021732,38673.495,51013.08,45057.195,51193.845,-11329.605,-22427.82,22597.155,21704.985
1764510645.2021732,38673.855,51012.045,45056.7,51193.755,-11329.515,-22428.225,22597.56,21704.58
1764510645.2021732,38669.58,51008.175,45052.605,51189.84,-11333.925,-22432.14,22595.13,21700.53
1764510645.2021732,38672.505,51011.055,45055.89,51192.585,-11331.405,-22430.115,22596.345,21702.96
1764510645.2021732,38674.35,51013.485,45058.005,51194.835,-11329.875,-22428.81,22597.92,21705.57
1764510645.2021732,38675.655,51015.195,45059.805,51196.59,-11327.805,-22426.47,22600.395,21707.595
1764510645.2021732,38672.595,51011.415,45056.475,51193.71,-11330.865,-22430.025,22597.2,21704.085
1764510645.2021732,38668.41,51007.725,45053.01,51189.3,-11333.88,-22433.49,22594.455,21699.99
1764510645.2021732,38668.905,51007.275,45052.92,51189.75,-11333.7,-22432.455,22594.77,21700.305
1764510645.2021732,38672.685,51010.47,45056.25,51193.17,-11330.19,-22428.855,22596.255,21704.49
1764510645.2021732,38668.5,51007.32,45052.47,51189.975,-11333.43,-22432.365,22593.015,21701.07
1764510645.2031898,38672.055,51010.74,45055.26,51193.17,-11330.865,-22428.945,22594.635,21703.725
1764510645.2031898,38670.66,51009.435,45054.585,51193.035,-11331.27,-22429.62,22593.825,21702.69
1764510645.2031898,38666.97,51006.15,45051.66,51189.39,-11334.6,-22432.905,22591.395,21699.315
1764510645.2031898,38670.075,51008.175,45053.235,51191.91,-11332.35,-22430.52,22592.43,21701.16
1764510645.2031898,38671.92,51010.11,45054.63,51193.98,-11329.875,-22428.81,22594.23,21703.095
1764510645.2031898,38667.195,51005.745,45050.49,51189.39,-11332.755,-22430.61,22590.27,21700.17
1764510645.2031898,38666.61,51004.53,45048.96,51188.58,-11334.825,-22432.32,22589.46,21698.865
1764510645.2031898,38668.185,51005.97,45050.985,51190.92,-11333.43,-22430.79,22590.09,21700.26
1764510645.2465827,38665.98,51003.81,45048.87,51189.39,-11335.005,-22432.365,22588.83,21699.045
1764510645.2465827,38667.735,51005.835,45050.04,51191.235,-11333.205,-22430.34,22589.46,21700.62
1764510645.2465827,38665.17,51003.585,45047.25,51189.435,-11335.23,-22432.41,22588.2,21698.505
1764510645.2465827,38666.43,51004.665,45048.24,51191.055,-11333.925,-22431.195,22588.425,21699.27
1764510645.2465827,38665.71,51003.225,45047.07,51189.93,-11335.005,-22432.77,22588.02,21697.335
1764510645.2465827,38669.625,51007.005,45050.895,51193.305,-11330.595,-22427.505,22590.63,21701.16
1764510645.2465827,38674.26,51012.135,45055.845,51196.86,-11326.905,-22423.95,22594.41,21705.12
1764510645.2465827,38674.125,51011.46,45056.07,51196.455,-11327.49,-22424.355,22594.05,21704.4
1764510645.248845,38674.44,51011.685,45055.17,51196.5,-11327.805,-22423.995,22594.5,21704.94
1764510645.248845,38672.91,51010.38,45052.965,51195.285,-11328.615,-22424.715,22593.555,21704.265
1764510645.248845,38670.885,51008.445,45051.705,51193.71,-11330.415,-22426.2,22592.97,21702.645
1764510645.248845,38664.855,51002.82,45046.395,51188.49,-11336.13,-22431.69,22588.74,21697.47
1764510645.248845,38665.845,51003.585,45046.935,51189.48,-11335.68,-22430.88,22588.56,21698.28
1764510645.248845,38670.93,51009.21,45051.795,51194.115,-11330.415,-22426.785,22593.015,21703.86
1764510645.248845,38672.685,51010.47,45053.235,51196.05,-11329.335,-22425.84,22593.78,21704.355
1764510645.248845,38672.1,51009.39,45052.695,51194.745,-11330.19,-22426.29,22593.24,21703.77
1764510645.248845,38672.73,51010.47,45052.92,51195.51,-11328.615,-22425.48,22594.23,21704.445
1764510645.2493536,38670.03,51007.59,45049.365,51192.405,-11331.405,-22429.035,22591.755,21701.25
1764510645.2493536,38668.23,51005.565,45048.105,51189.615,-11333.88,-22431.42,22591.125,21699.225
1764510645.2493536,38671.2,51008.085,45051.165,51192.18,-11331.495,-22428.495,22592.925,21702.105
1764510645.2493536,38669.13,51005.43,45048.285,51188.985,-11334.87,-22431.96,22591.08,21699.045
1764510645.2493536,38668.32,51004.35,45046.755,51187.095,-11336.355,-22434.3,22589.46,21697.83
1764510645.2493536,38669.76,51006.285,45048.33,51187.995,-11334.33,-22432.86,22590.72,21699.495
1764510645.2493536,38671.02,51007.77,45049.635,51189.435,-11332.845,-22431.69,22591.935,21701.43
1764510645.2965338,38667.915,51004.89,45046.98,51186.465,-11335.095,-22434.48,22591.395,21697.92
1764510645.2980697,38670.255,51007.905,45049.635,51188.94,-11332.71,-22432.365,22592.205,21701.205
1764510645.2980697,38671.38,51008.805,45050.31,51188.13,-11333.34,-22432.77,22592.97,21701.835
1764510645.2980697,38663.955,51000.345,45041.985,51181.29,-11340.405,-22441.005,22586.85,21693.42
1764510645.2980697,38663.685,50999.31,45041.22,51181.11,-11340.45,-22441.635,22586.085,21693.42
1764510645.2980697,38666.745,51003.45,45044.46,51183.765,-11337.705,-22438.62,22588.065,21696.885
1764510645.2980697,38666.43,51003.045,45044.055,51183.585,-11338.11,-22438.665,22587.93,21696.57
1764510645.2980697,38662.065,50999.085,45039.285,51179.13,-11342.25,-22442.355,22585.095,21692.25
1764510645.2980697,38665.17,51001.425,45042.03,51181.605,-11338.695,-22439.52,22586.58,21694.725
1764510645.2980697,38663.28,50999.22,45040.41,51180.615,-11338.965,-22439.745,22585.68,21694.005
1764510645.2990825,38661.66,50997.24,45038.07,51178.59,-11342.205,-22443.12,22584.96,21692.025
1764510645.2990825,38663.595,50998.68,45039.645,51180.57,-11340.855,-22441.815,22585.455,21693.105
1764510645.2990825,38667.06,51002.73,45043.38,51184.26,-11336.895,-22438.035,22587.885,21696.345
1764510645.2990825,38661.66,50997.42,45037.53,51178.905,-11343.105,-22443.66,22583.61,21690.765
1764510645.2990825,38662.515,50998.41,45037.935,51179.355,-11343.33,-22443.795,22584.105,21691.35
1764510645.2990825,38664.09,51000.435,45039.06,51180.57,-11343.015,-22442.265,22585.05,21692.565
1764510645.2990825,38667.375,51004.035,45041.805,51183.45,-11339.64,-22439.16,22587.165,21696.57
1764510645.2990825,38664.99,51000.705,45038.88,51180.705,-11342.655,-22442.445,22585.05,21694.095
1764510645.2990825,38668.86,51003.81,45042.93,51184.035,-11338.65,-22438.8,22587.03,21697.515
1764510645.2990825,38667.375,51002.055,45041.535,51182.415,-11340.405,-22439.835,22586.895,21695.76
1764510645.2990825,38667.15,51002.685,45042.21,51183.585,-11339.37,-22439.205,22587.255,21696.435
1764510645.2990825,38670.48,51005.385,45044.955,51186.96,-11336.04,-22436.595,22589.01,21699.765
1764510645.3415906,38672.505,51006.825,45046.395,51186.825,-11335.95,-22436.055,22590.36,21701.43
1764510645.3415906,38667.465,51001.92,45041.22,51182.01,-11341.26,-22441.095,22586.31,21696.48
1764510645.3415906,38670.705,51005.385,45044.01,51185.655,-11337.57,-22436.955,22588.245,21700.485
1764510645.3415906,38670.255,51005.115,45043.47,51185.835,-11337.435,-22436.955,22588.155,21699.81
1764510645.3415906,38667.42,51002.595,45042.3,51183.36,-11339.505,-22439.475,22586.49,21696.795
1764510645.3415906,38668.32,51002.685,45042.57,51184.215,-11339.28,-22438.89,22586.22,21698.145
1764510645.3415906,38664.765,50998.5,45038.385,51179.985,-11342.79,-22441.815,22583.835,21694.095
1764510645.3415906,38663.28,50997.735,45037.44,51179.175,-11343.645,-22442.85,22582.575,21692.88
1764510645.3415906,38665.845,51000.66,45039.915,51182.46,-11341.17,-22440.105,22584.645,21695.445
1764510645.3415906,38670.66,51006.555,45045.765,51187.455,-11335.815,-22434.93,22588.02,21700.98
1764510645.342612,38670.39,51005.295,45045.135,51187.545,-11334.555,-22433.805,22588.245,21701.61
1764510645.342612,38668.545,51002.505,45042.21,51186.105,-11337.03,-22436.64,22585.995,21699.045
1764510645.342612,38669.535,51002.775,45043.11,51186.78,-11337.03,-22437.18,22586.67,21699.495
1764510645.342612,38666.34,50999.67,45039.78,51183.495,-11339.865,-22440.015,22584.69,21696.345
1764510645.342612,38666.205,51000.03,45040.05,51183.18,-11339.145,-22439.295,22584.555,21696.705
1764510645.342612,38666.295,50999.985,45040.41,51183.405,-11338.605,-22438.98,22584.735,21697.515
1764510645.342612,38666.925,51000.435,45040.77,51184.17,-11337.84,-22438.845,22585.635,21698.685
1764510645.342612,38666.61,51000.3,45040.95,51184.26,-11337.795,-22438.395,22585.05,21698.505
1764510645.342612,38667.06,51001.11,45041.31,51184.98,-11337.21,-22438.305,22585.635,21699.225
1764510645.342612,38668.905,51002.865,45041.67,51186.87,-11336.13,-22436.955,22586.175,21700.26
1764510645.342612,38674.305,51008.76,45047.52,51191.775,-11330.415,-22431.195,22590.135,21705.165
1764510645.342612,38671.38,51005.97,45045.135,51189.705,-11333.295,-22433.805,22587.435,21702.96
1764510645.3870764,38668.905,51002.28,45042.255,51187.185,-11337.03,-22437.135,22585.635,21699.63
1764510645.3870764,38670.93,51004.395,45044.145,51188.94,-11334.42,-22434.93,22586.085,21701.925
1764510645.3870764,38670.885,51004.35,45044.235,51188.895,-11334.195,-22434.255,22586.265,21702.195
1764510645.3870764,38667.69,51001.245,45041.76,51187.005,-11337.975,-22437.315,22584.105,21699.045
1764510645.3870764,38667.645,51001.2,45041.76,51186.15,-11339.1,-22439.025,22583.835,21698.865
1764510645.3870764,38666.205,50999.265,45040.32,51183.27,-11339.325,-22438.98,22583.88,21698.235
1764510645.388355,38665.08,50998.095,45038.88,51182.73,-11340.72,-22441.005,22582.44,21696.39
1764510645.388355,38667.78,51000.255,45041.445,51185.88,-11338.155,-22439.295,22584.33,21698.55
1764510645.388355,38673.675,51006.87,45047.88,51191.73,-11331.765,-22433.13,22589.28,21705.21
1764510645.388355,38671.38,51004.35,45045.585,51188.58,-11334.195,-22435.74,22586.4,21702.24
1764510645.388355,38671.695,51004.935,45045.495,51188.175,-11334.42,-22436.055,22585.905,21701.61
1764510645.388355,38669.49,51002.55,45043.335,51186.105,-11336.625,-22437.855,22584.87,21699.495
1764510645.3893485,38668.14,51001.425,45042.705,51185.205,-11337.3,-22438.665,22584.465,21697.965
1764510645.3893485,38663.37,50997.6,45038.655,51181.605,-11341.8,-22443.39,22581.63,21694.275
1764510645.3893485,38663.235,50997.735,45039.195,51181.065,-11341.755,-22444.155,22581.855,21694.77
1764510645.3893485,38663.505,50997.87,45039.42,51181.875,-11340.72,-22443.165,22582.71,21695.265
1764510645.3893485,38665.845,51001.29,45042.21,51184.485,-11338.515,-22441.32,22584.015,21697.335
1764510645.3893485,38662.92,50998.77,45039.42,51181.605,-11340.765,-22444.29,22582.755,21695.31
1764510645.3893485,38667.15,51002.505,45043.605,51185.565,-11336.535,-22440.195,22586.085,21699.495
1764510645.3904476,38665.305,51000.84,45041.535,51182.82,-11339.595,-22442.805,22584.06,21696.84
1764510645.3904476,38662.335,50998.68,45039.06,51179.49,-11342.205,-22445.955,22583.34,21694.455
1764510645.3904476,38665.485,51002.28,45042.21,51181.875,-11338.29,-22442.805,22585.41,21697.605
1764510645.3904476,38662.425,50998.545,45038.7,51178.68,-11342.295,-22446.855,22583.205,21693.51
1764510645.3904476,38660.085,50996.475,45036.765,51176.52,-11343.915,-22448.79,22581.405,21692.745
1764510645.433983,38662.47,51000.12,45039.6,51179.4,-11341.08,-22445.955,22582.71,21696.21
1764510645.433983,38661.12,50998.455,45037.665,51177.87,-11343.24,-22448.43,22581.405,21693.735
1764510645.433983,38665.08,51002.235,45041.445,51181.065,-11339.73,-22445.055,22583.655,21697.605
1764510645.433983,38662.875,51000.48,45039.6,51180.39,-11341.35,-22446.18,22582.98,21696.705
1764510645.433983,38666.07,51002.325,45042.075,51183.675,-11338.335,-22443.93,22584.465,21699.765
1764510645.433983,38659.41,50995.845,45035.64,51178.05,-11344.59,-22451.22,22578.885,21693.015
1764510645.433983,38659.5,50996.43,45035.775,51178.05,-11345.085,-22451.445,22579.155,21692.025
1764510645.4344988,38658.42,50994.36,45033.93,51176.97,-11346.12,-22452.435,22577.67,21690.54
1764510645.4344988,38660.31,50995.53,45035.325,51178.545,-11344.365,-22451.4,22577.76,21691.62
1764510645.4344988,38662.47,50998.77,45038.025,51180.795,-11341.62,-22447.89,22579.11,21694.68
1764510645.4344988,38663.28,50999.715,45038.835,51181.92,-11340.54,-22447.395,22580.055,21695.805
1764510645.4344988,38660.625,50996.61,45036.225,51179.31,-11342.025,-22448.43,22578.12,21693.735
1764510645.4344988,38658.33,50995.53,45034.92,51177.735,-11344.275,-22451.985,22577.13,21690.72
1764510645.4344988,38660.94,50998.68,45037.665,51180.57,-11343.195,-22450.68,22578.75,21692.43
1764510645.4355154,38666.295,51003.36,45041.805,51185.34,-11337.615,-22446.405,22582.035,21697.155
1764510645.4355154,38664.045,51001.155,45039.96,51184.08,-11338.74,-22447.98,22580.55,21695.535
1764510645.4355154,38660.895,50998.05,45037.44,51180.84,-11341.71,-22451.265,22579.155,21692.295
1764510645.4360306,38659.635,50996.61,45036.45,51180.12,-11342.25,-22451.85,22578.3,21690.945
1764510645.4360306,38660.355,50997.105,45037.53,51180.975,-11341.08,-22451.13,22579.02,21691.035
1764510645.4360306,38659.815,50996.385,45036.63,51180.03,-11341.305,-22451.895,22578.435,21689.82
1764510645.4360306,38661.435,50997.78,45037.755,51181.605,-11340.045,-22449.87,22579.65,21691.26
1764510645.4360306,38664.99,51000.705,45040.41,51184.395,-11336.265,-22444.83,22582.62,21695.76
1764510645.4360306,38663.955,50999.49,45038.295,51183.36,-11337.165,-22444.335,22584.105,21695.22
1764510645.4360306,38664.18,50999.085,45038.295,51182.685,-11336.85,-22443.48,22585.005,21695.94
1764510645.4813323,38665.62,50999.67,45039.69,51183.99,-11335.005,-22441.59,22586.76,21697.56
1764510645.4813323,38664.765,50997.6,45037.575,51182.01,-11335.455,-22442.445,22586.535,21696.795
1764510645.4813323,38664.225,50995.845,45035.955,51181.155,-11336.4,-22442.895,22586.895,21696.84
1764510645.4813323,38659.59,50991.57,45030.33,51176.655,-11341.575,-22447.935,22583.925,21692.07
1764510645.4813323,38662.02,50993.91,45032.13,51178.14,-11339.505,-22445.595,22585.32,21694.455
1764510645.4813323,38659.905,50990.715,45028.485,51174.63,-11342.655,-22447.755,22582.845,21692.88
1764510645.4813323,38656.755,50986.395,45022.68,51169.095,-11347.605,-22452.705,22580.46,21690.18
1764510645.4813323,38660.22,50988.645,45024.03,51170.085,-11346.885,-22452.12,22581.99,21693.24
1764510645.4813323,38659.68,50988.285,45022.815,51168.465,-11348.235,-22453.245,22580.01,21693.105
1764510645.4813323,38659.005,50987.88,45021.825,51167.295,-11349.765,-22454.775,22579.335,21692.745
1764510645.4813323,38660.22,50989.95,45023.805,51168.285,-11349.27,-22455.585,22579.38,21692.7
1764510645.4813323,38655.765,50985.945,45020.43,51164.37,-11354.4,-22460.94,22574.205,21687.525
1764510645.4813323,38658.285,50988.42,45024.435,51168.555,-11352.15,-22458.645,22574.88,21689.82
1764510645.4813323,38655.405,50986.575,45023.04,51167.43,-11353.545,-22461.165,22572.855,21687.12
1764510645.4813323,38659.095,50990.535,45027.495,51171.165,-11349.18,-22457.565,22575.645,21691.08
1764510645.4813323,38659.905,50990.985,45028.665,51173.01,-11348.46,-22457.295,22575.33,21691.125
1764510645.4813323,38659.905,50991.48,45028.395,51172.515,-11349.045,-22457.52,22574.835,21690.63
1764510645.4813323,38656.53,50987.835,45024.48,51169.455,-11351.52,-22459.995,22572.495,21687.345
1764510645.4813323,38661.435,50992.425,45029.835,51174.72,-11346.705,-22454.82,22575.915,21692.61
1764510645.4813323,38659.05,50990.805,45028.755,51173.055,-11346.57,-22455.18,22575.645,21691.845
1764510645.4813323,38663.64,50995.71,45033.435,51177.33,-11342.565,-22451.265,22579.155,21695.67
1764510645.4813323,38657.925,50989.905,45027.585,51172.785,-11347.875,-22457.43,22574.295,21689.55
1764510645.4813323,38659.005,50992.02,45029.07,51173.91,-11346.48,-22456.665,22573.395,21690.675
1764510645.4813323,38658.015,50991.165,45028.17,51173.595,-11347.83,-22457.295,22572.585,21689.73
1764510645.5288403,38655.585,50988.195,45025.785,51170.625,-11350.98,-22459.77,22570.965,21686.13
1764510645.5288403,38658.195,50991.03,45028.89,51173.955,-11347.785,-22457.025,22572.225,21688.92
1764510645.5288403,38657.295,50990.175,45027.945,51174.495,-11347.785,-22456.845,22571.505,21689.055
1764510645.5288403,38654.595,50987.835,45025.56,51172.335,-11349.09,-22458.42,22569.3,21688.56
1764510645.5288403,38651.76,50985.36,45023.4,51169.635,-11352.96,-22462.2,22567.725,21685.545
1764510645.5288403,38655.585,50988.735,45026.955,51172.65,-11349.36,-22458.78,22570.2,21689.19
1764510645.5288403,38657.385,50990.67,45028.35,51173.82,-11347.83,-22456.89,22570.56,21690.63
1764510645.5288403,38654.46,50987.655,45025.335,51171.255,-11349.945,-22459.41,22567.185,21687.93
1764510645.5288403,38655.585,50988.465,45026.415,51172.56,-11348.28,-22458.24,22568.175,21688.83
1764510645.5288403,38655.27,50987.61,45025.245,51172.47,-11348.46,-22458.105,22568.04,21688.02
1764510645.5288403,38655.45,50988.285,45025.605,51173.685,-11347.605,-22457.295,22567.86,21688.65
1764510645.5288403,38653.605,50985.81,45023.805,51172.65,-11349.945,-22458.87,22565.61,21687.12
1764510645.5288403,38653.785,50985.135,45023.625,51171.93,-11349.945,-22459.5,22564.575,21685.77
1764510645.5288403,38651.715,50982.885,45022.095,51170.58,-11349.72,-22459.635,22562.955,21684.105
1764510645.5288403,38651.76,50983.11,45022.095,51170.76,-11351.115,-22460.4,22562.955,21683.61
1764510645.5288403,38649.645,50980.41,45018.72,51167.655,-11354.535,-22464.225,22561.11,21680.865
1764510645.5293305,38654.145,50984.595,45022.77,51171.615,-11349.855,-22460.175,22564.395,21685.68
1764510645.5293305,38650.545,50981.175,45019.53,51167.88,-11353.5,-22463.46,22561.965,21681.675
1764510645.5293305,38651.76,50983.2,45021.78,51170.445,-11351.205,-22461.705,22563.36,21683.295
1764510645.5293305,38648.43,50979.69,45017.64,51167.025,-11354.895,-22464.675,22560.435,21679.695
1764510645.5293305,38648.07,50979.915,45017.55,51166.26,-11355.075,-22464.99,22560.435,21679.74
1764510645.5293305,38648.475,50980.275,45018.18,51168.195,-11353.455,-22464.09,22561.11,21681.225
1764510645.5791836,38651.625,50983.47,45020.655,51170.85,-11350.035,-22460.805,22562.91,21684.51
1764510645.5791836,38648.43,50979.42,45016.695,51167.25,-11354.13,-22463.505,22560.48,21679.785
1764510645.5791836,38650.005,50980.68,45018.27,51168.78,-11353.365,-22462.38,22560.255,21680.595
1764510645.5791836,38647.665,50978.565,45016.335,51166.53,-11355.39,-22464.765,22560.03,21679.245
1764510645.5791836,38651.13,50982.705,45019.89,51169.005,-11351.97,-22461.39,22562.28,21682.35
1764510645.5791836,38648.16,50979.78,45017.28,51166.395,-11354.355,-22464.54,22560.345,21679.245
1764510645.5791836,38651.085,50983.38,45020.25,51170.4,-11351.07,-22461.345,22562.01,21682.395
1764510645.5791836,38647.26,50979.06,45015.84,51167.97,-11354.535,-22465.44,22560.21,21678.57
1764510645.5791836,38647.62,50979.825,45016.38,51168.06,-11353.905,-22464.405,22560.75,21678.705
1764510645.5791836,38650.365,50982.345,45018.855,51171.03,-11351.025,-22461.75,22561.92,21681.27
1764510645.5791836,38648.205,50980.23,45016.65,51169.32,-11353.14,-22464.405,22560.93,21679.155
1764510645.5791836,38650.005,50981.445,45017.955,51171.075,-11351.43,-22462.425,22561.425,21680.64
1764510645.5791836,38646.99,50977.665,45014.4,51167.61,-11353.95,-22465.17,22559.085,21677.535
1764510645.5791836,38648.88,50980.185,45016.245,51169.86,-11351.925,-22462.83,22559.895,21679.11
1764510645.5791836,38649.69,50981.265,45016.47,51170.58,-11350.755,-22461.93,22560.705,21680.235
1764510645.5791836,38647.35,50978.835,45013.545,51168.285,-11353.32,-22464.405,22558.275,21677.49
1764510645.5797713,38645.82,50977.485,45012.195,51166.845,-11355.03,-22465.935,22558.32,21676.365
1764510645.5797713,38647.89,50979.33,45014.265,51167.61,-11353.41,-22464.9,22558.86,21677.67
1764510645.5797713,38645.145,50976.72,45011.43,51165.54,-11355.93,-22467.6,22557.285,21674.97
1764510645.5797713,38648.61,50980.275,45014.49,51168.105,-11352.825,-22464.945,22558.86,21678.3
1764510645.5797713,38649.555,50981.13,45015.84,51169.05,-11351.79,-22464.045,22559.985,21679.83
1764510645.5797713,38650.095,50981.985,45017.37,51170.13,-11350.485,-22463.775,22560.57,21681.09
1764510645.5797713,38650.365,50981.58,45017.37,51170.265,-11350.755,-22464.495,22560.075,21680.91
1764510645.5797713,38650.005,50980.905,45016.605,51169.5,-11351.655,-22465.35,22559.67,21680.595
1764510645.6242776,38650.095,50980.635,45016.38,51168.285,-11352.24,-22465.53,22558.905,21679.83
1764510645.6242776,38646.405,50976.72,45012.825,51164.325,-11355.57,-22469.13,22555.755,21676.095
1764510645.6242776,38649.42,50979.465,45016.155,51166.26,-11353.545,-22466.52,22557.78,21679.335
1764510645.6242776,38645.28,50974.785,45012.24,51162.12,-11356.02,-22469.445,22555.62,21675.42
1764510645.6242776,38647.035,50976.675,45013.77,51164.505,-11354.49,-22468.275,22557.015,21676.905
1764510645.6242776,38650.095,50980.365,45016.335,51167.475,-11352.555,-22465.935,22558.185,21680.055
1764510645.6242776,38646.675,50977.08,45013.23,51164.28,-11356.695,-22469.04,22556.16,21677.085
1764510645.6242776,38644.425,50975.91,45011.61,51163.155,-11357.955,-22469.58,22555.17,21675.825
1764510645.6242776,38644.92,50976.945,45012.105,51163.74,-11357.415,-22469.355,22555.485,21677.085
1764510645.6242776,38646.81,50978.16,45014.22,51165.18,-11354.76,-22466.835,22556.79,21679.74
1764510645.6242776,38651.04,50982.03,45018.675,51168.825,-11349.315,-22462.065,22559.535,21683.34
1764510645.6242776,38651.67,50983.11,45019.305,51169.41,-11350.215,-22462.695,22558.77,21682.98
1764510645.6242776,38651.625,50984.505,45020.07,51169.32,-11349.855,-22462.335,22559.085,21683.655
1764510645.6242776,38649.42,50982.93,45018.225,51166.8,-11352.735,-22464.81,22557.87,21680.955
1764510645.6242776,38645.19,50978.565,45014.355,51162.21,-11356.605,-22469.22,22555.08,21677.265
1764510645.6242776,38643.57,50976.765,45012.87,51160.185,-11358.27,-22470.93,22553.685,21675.24
1764510645.6242776,38643.66,50977.305,45013.05,51160.005,-11357.865,-22470.39,22553.46,21675.555
1764510645.6242776,38646.36,50979.195,45015.39,51161.355,-11355.39,-22467.195,22555.17,21678.525
1764510645.6247952,38643.255,50976.81,45012.6,51158.07,-11358.45,-22470.12,22553.55,21675.33
1764510645.6247952,38643.795,50977.305,45013.95,51158.835,-11357.82,-22468.995,22554.495,21676.77
1764510645.6247952,38648.52,50983.245,45019.215,51163.515,-11352.915,-22464.315,22557.915,21682.035
1764510645.6247952,38648.115,50983.11,45019.08,51162.66,-11353.905,-22465.62,22557.645,21680.73
1764510645.6697986,38647.125,50981.22,45017.595,51160.77,-11356.02,-22466.385,22557.96,21679.155
1764510645.6697986,38648.52,50982.795,45018.63,51162.255,-11354.805,-22464.765,22557.555,21680.73
1764510645.6697986,38647.935,50983.2,45018.36,51163.335,-11354.85,-22465.17,22557.645,21680.415
1764510645.6697986,38651.535,50986.035,45022.14,51167.43,-11350.665,-22461.435,22559.13,21683.88
1764510645.6697986,38649.195,50983.785,45019.53,51166.035,-11352.195,-22462.965,22558.23,21682.8
1764510645.6697986,38653.11,50987.97,45022.32,51170.22,-11348.82,-22459.14,22560.525,21686.085
1764510645.6697986,38651.85,50985.945,45020.655,51170.355,-11350.305,-22460.04,22559.535,21684.96
1764510645.6697986,38649.15,50982.03,45017.37,51167.97,-11352.69,-22462.515,22557.555,21682.26
1764510645.6697986,38654.955,50988.285,45023.31,51174.81,-11346.255,-22456.125,22562.235,21688.56
1764510645.6697986,38652.795,50985.945,45021.105,51173.73,-11347.47,-22456.845,22559.445,21686.355
1764510645.6697986,38653.56,50985.63,45021.15,51173.91,-11347.245,-22455.99,22559.445,21686.76
1764510645.6697986,38650.095,50981.22,45017.595,51171.345,-11350.44,-22460.355,22556.61,21683.655
1764510645.6697986,38653.335,50984.235,45020.97,51174.54,-11346.975,-22457.52,22558.365,21686.85
1764510645.6697986,38651.58,50981.985,45018.54,51172.92,-11349.045,-22459.41,22557.51,21684.465
1764510645.6697986,38657.385,50987.7,45024.03,51178.545,-11343.87,-22454.235,22561.155,21689.82
1764510645.6697986,38654.55,50985.045,45021.51,51176.79,-11345.895,-22456.575,22559.175,21687.12
1764510645.6697986,38658.15,50988.465,45024.93,51180.795,-11342.79,-22453.155,22560.435,21690.225
1764510645.6697986,38658.555,50989.005,45024.705,51180.84,-11342.745,-22453.335,22560.66,21690.135
1764510645.670636,38658.51,50988.78,45024.75,51181.02,-11342.61,-22453.38,22561.02,21689.505
1764510645.670636,38653.155,50983.92,45019.845,51175.935,-11347.56,-22459.005,22557.33,21683.97
1764510645.670636,38655.585,50987.025,45022.635,51177.645,-11345.985,-22457.475,22559.445,21686.13
1764510645.670636,38659.86,50990.76,45025.92,51181.29,-11341.89,-22453.92,22561.245,21689.73
1764510645.670636,38659.86,50990.895,45026.505,51180.615,-11340.585,-22453.74,22561.92,21689.82
1764510645.670636,38658.645,50989.86,45025.605,51180.03,-11341.98,-22454.19,22561.92,21688.38
1764510645.7159386,38657.385,50989.32,45024.615,51179.085,-11343.735,-22456.08,22560.705,21687.57
1764510645.7159386,38656.08,50987.07,45022.545,51177.06,-11344.365,-22457.88,22559.085,21685.68
1764510645.7159386,38655.945,50987.07,45021.87,51176.205,-11344.86,-22458.465,22558.86,21685.635
1764510645.7159386,38655.585,50986.755,45021.825,51175.98,-11345.355,-22459.365,22558.77,21684.78
1764510645.7159386,38655.36,50986.755,45021.735,51176.88,-11344.455,-22458.87,22559.265,21685.275
1764510645.7159386,38651.22,50981.67,45016.605,51173.145,-11348.325,-22462.965,22555.62,21680.775
1764510645.7159386,38648.025,50978.16,45012.51,51168.96,-11352.915,-22467.645,22553.46,21676.995
1764510645.7159386,38648.475,50978.16,45012.465,51168.105,-11352.825,-22467.42,22553.505,21676.68
1764510645.7172933,38651.13,50981.085,45015.66,51170.76,-11350.035,-22464.54,22556.34,21679.92
1764510645.7172933,38654.505,50984.505,45019.395,51173.46,-11346.345,-22461.75,22558.455,21683.295
1764510645.7172933,38655.045,50985.765,45019.935,51174.135,-11345.535,-22461.84,22558.095,21683.88
1764510645.7172933,38652.03,50983.695,45017.91,51172.47,-11347.47,-22463.235,22556.88,21681.09
1764510645.7172933,38655.135,50987.385,45021.285,51174.765,-11344.545,-22459.77,22559.715,21684.6
1764510645.7172933,38655.225,50988.06,45021.69,51174.585,-11344.275,-22460.94,22559.985,21684.78
1764510645.7172933,38659.185,50991.885,45025.47,51176.97,-11342.115,-22458.465,22562.685,21687.885
1764510645.7182856,38655.855,50987.88,45021.915,51172.875,-11346.075,-22462.2,22559.94,21684.645
1764510645.7182856,38652.03,50984.505,45018.765,51169.005,-11349.315,-22465.665,22559.13,21681.675
1764510645.7182856,38649.78,50982.57,45016.65,51167.385,-11350.89,-22468.095,22557.645,21679.74
1764510645.7182856,38649.6,50983.02,45016.605,51166.71,-11350.395,-22467.78,22558.23,21680.505
1764510645.7182856,38652.03,50985.855,45018.99,51168.915,-11348.505,-22465.125,22559.4,21683.16
1764510645.7182856,38650.455,50984.28,45016.425,51166.575,-11351.07,-22467.375,22557.375,21681.315
1764510645.7182856,38652.21,50986.08,45018.855,51168.06,-11349.495,-22465.35,22558.41,21683.565
1764510645.7182856,38649.42,50983.38,45015.795,51165.27,-11351.655,-22469.175,22556.745,21680.64
1764510645.7182856,38648.385,50982.21,45014.85,51164.235,-11352.24,-22469.895,22555.89,21679.695
1764510645.7614045,38652.12,50985.045,45018.045,51167.52,-11348.64,-22466.25,22557.96,21683.745
1764510645.7614045,38646.54,50979.24,45012.06,51162.21,-11354.31,-22471.47,22553.685,21678.3
1764510645.7614045,38646.945,50979.645,45012.915,51163.335,-11353.95,-22470.345,22552.92,21678.66
1764510645.7614045,38650.545,50982.66,45016.29,51166.395,-11350.125,-22466.745,22554.495,21682.26
1764510645.7614045,38650.41,50981.985,45014.85,51166.305,-11349.855,-22466.745,22554.405,21682.035
1764510645.7614045,38649.375,50979.78,45013.455,51164.82,-11351.835,-22468.77,22554.36,21680.46
1764510645.7614045,38647.17,50977.71,45011.475,51162.21,-11355.57,-22471.965,22552.65,21678.66
1764510645.7614045,38649.375,50979.96,45014.22,51164.595,-11353.41,-22469.76,22553.055,21680.595
1764510645.7614045,38649.285,50980.41,45014.49,51163.38,-11353.68,-22469.94,22553.46,21680.595
1764510645.7614045,38646.36,50977.845,45011.34,51160.185,-11356.56,-22472.37,22552.245,21677.58
1764510645.7614045,38649.78,50982.03,45015.345,51162.885,-11352.375,-22468.05,22555.035,21681.225
1764510645.7614045,38647.125,50978.655,45011.385,51159.78,-11355.345,-22470.66,22552.155,21677.895
1764510645.7614045,38643.435,50975.055,45006.48,51155.505,-11359.44,-22475.43,22549.32,21673.89
1764510645.7614045,38642.58,50974.605,45005.94,51155.235,-11359.53,-22475.925,22548.87,21674.61
1764510645.7614045,38646.72,50978.16,45009.72,51158.79,-11356.245,-22472.505,22551.03,21678.795
1764510645.7614045,38646.63,50978.52,45008.865,51158.88,-11357.505,-22473.045,22549.905,21678.12
1764510645.7614045,38643.345,50975.37,45006.21,51157.125,-11360.205,-22475.385,22548.06,21675.555
1764510645.7614045,38645.145,50977.62,45008.595,51159.69,-11357.595,-22472.91,22549.005,21677.985
1764510645.7614045,38644.74,50976.63,45007.56,51159.015,-11358.72,-22473.315,22548.78,21677.355
1764510645.7614045,38645.055,50976.09,45007.425,51159.78,-11358.72,-22472.64,22548.555,21677.31
1764510645.7614045,38650.455,50981.31,45012.78,51164.685,-11353.32,-22467.105,22551.705,21682.44
1764510645.7614045,38648.655,50979.6,45010.665,51163.02,-11354.715,-22468.545,22549.725,21681.36
1764510645.7614045,38648.205,50979.87,45010.53,51163.605,-11354.895,-22469.04,22550.175,21680.91
1764510645.7614045,38649.105,50980.005,45011.07,51164.235,-11354.715,-22468.77,22549.95,21680.82
1764510645.810673,38649.6,50980.23,45011.43,51164.325,-11353.815,-22468.32,22550.355,21681.27
1764510645.810673,38649.645,50980.455,45010.26,51164.955,-11354.49,-22467.87,22550.175,21681.045
1764510645.810673,38648.385,50979.465,45008.55,51164.415,-11355.75,-22468.995,22548.87,21680.685
1764510645.810673,38644.155,50974.92,45004.455,51160.635,-11360.25,-22473.27,22545.945,21676.32
1764510645.810673,38644.38,50975.82,45004.455,51162.255,-11359.44,-22472.595,22546.665,21676.86
1764510645.810673,38649.24,50980.815,45008.685,51167.43,-11355.12,-22467.915,22549.68,21681.72
1764510645.810673,38651.13,50982.21,45010.755,51170.355,-11352.915,-22466.61,22551.255,21683.925
1764510645.810673,38648.385,50978.925,45007.2,51167.25,-11355.615,-22469.265,22549.095,21680.775
1764510645.810673,38644.83,50975.28,45004.005,51163.83,-11358.405,-22472.19,22547.475,21677.985
1764510645.810673,38644.875,50974.74,45003.06,51162.885,-11360.115,-22473.225,22546.08,21678.12
1764510645.810673,38647.035,50976.27,45004.68,51164.145,-11357.955,-22470.975,22546.8,21679.83
1764510645.810673,38648.43,50977.98,45006.435,51165.765,-11355.03,-22467.465,22547.385,21681.405
1764510645.810673,38648.745,50979.51,45006.93,51167.25,-11355.39,-22467.06,22548.285,21681.63
1764510645.810673,38646.225,50976.27,45003.96,51164.685,-11358.135,-22471.335,22546.845,21678.66
1764510645.810673,38650.185,50979.96,45008.325,51167.295,-11354.715,-22468.095,22549.005,21682.845
1764510645.810673,38650.005,50980.275,45007.38,51166.485,-11354.04,-22468.545,22549.005,21683.88
1764510645.810673,38649.735,50980.23,45006.66,51166.575,-11353.59,-22469.535,22549.14,21683.52
1764510645.811685,38647.98,50977.755,45004.725,51163.92,-11354.625,-22472.37,22547.835,21681.225
1764510645.811685,38646.99,50976.45,45003.51,51162.57,-11356.605,-22474.53,22546.62,21679.335
1764510645.811685,38641.995,50972.22,44999.145,51157.755,-11361.24,-22479.48,22543.785,21674.745
1764510645.811685,38641.455,50971.68,44999.28,51157.17,-11360.745,-22479.93,22544.055,21674.295
1764510645.811685,38641.905,50971.455,44998.695,51156.27,-11360.745,-22480.11,22544.145,21674.295
1764510645.811685,38642.985,50972.895,44999.685,51155.91,-11360.295,-22479.39,22544.775,21675.645
1764510645.811685,38642.535,50972.58,44998.965,51155.055,-11360.565,-22480.2,22544.055,21673.935
1764510645.857193,38642.22,50972.355,44998.65,51154.2,-11361.06,-22480.965,22544.37,21674.025
1764510645.857193,38643.39,50974.11,45000.405,51154.695,-11359.8,-22480.47,22546.125,21675.06
1764510645.857193,38648.88,50978.655,45006.03,51158.07,-11354.625,-22475.565,22549.95,21679.335
1764510645.857193,38645.37,50975.235,45002.565,51154.11,-11358.45,-22479.435,22546.89,21675.825
1764510645.857193,38641.365,50971.68,44998.875,51150.06,-11361.78,-22483.755,22545.18,21671.595
1764510645.857193,38641.23,50970.96,44998.38,51149.79,-11362.275,-22483.35,22545.45,21671.235
1764510645.857193,38641.86,50971.32,44999.145,51149.835,-11362.32,-22483.35,22545.945,21672.0
1764510645.857193,38640.645,50971.41,44998.56,51149.115,-11362.5,-22483.17,22545.81,21671.145
1764510645.857193,38644.335,50974.605,45001.845,51151.995,-11358.54,-22480.245,22548.555,21674.565
1764510645.857193,38641.635,50972.22,44999.685,51148.935,-11362.365,-22484.52,22547.655,21671.82
1764510645.857193,38641.59,50972.535,44999.64,51149.655,-11362.275,-22484.385,22547.745,21671.955
1764510645.8582065,38645.73,50976.63,45003.33,51153.66,-11357.64,-22479.84,22550.22,21675.825
1764510645.8582065,38645.73,50977.08,45003.33,51152.895,-11358.27,-22480.875,22550.085,21676.23
1764510645.8582065,38641.41,50972.445,44998.605,51148.215,-11363.085,-22486.905,22545.63,21672.27
1764510645.8582065,38643.84,50975.595,45001.17,51151.005,-11360.025,-22483.845,22547.475,21675.33
1764510645.8582065,38645.64,50977.215,45003.06,51152.94,-11357.82,-22480.965,22549.14,21677.67
1764510645.8582065,38646.54,50977.17,45003.465,51154.335,-11356.965,-22479.48,22549.14,21678.435
1764510645.8582065,38646.09,50976.585,45003.24,51154.425,-11357.685,-22480.425,22548.735,21678.165
1764510645.8582065,38644.515,50974.47,45002.115,51153.48,-11359.89,-22482.405,22547.295,21677.31
1764510645.8582065,38644.695,50974.11,45001.395,51154.74,-11359.845,-22481.505,22546.98,21677.04
1764510645.8582065,38648.475,50977.935,45005.22,51159.78,-11355.48,-22476.915,22549.185,21681.135
1764510645.8582065,38649.735,50978.88,45005.895,51162.39,-11354.04,-22474.44,22549.5,21682.62
1764510645.904475,38652.435,50980.725,45007.515,51165.405,-11351.655,-22471.47,22551.57,21684.735
1764510645.904475,38649.645,50977.17,45004.725,51163.245,-11353.68,-22474.17,22548.42,21682.08
1764510645.904475,38646.945,50974.56,45001.89,51161.94,-11356.47,-22475.97,22546.62,21679.29
1764510645.9049888,38648.295,50974.965,45003.06,51163.83,-11354.94,-22474.305,22546.62,21680.145
1764510645.9049888,38647.035,50973.84,45001.44,51163.065,-11355.48,-22474.845,22546.26,21679.65
1764510645.9049888,38644.11,50970.78,44998.335,51160.32,-11359.08,-22477.185,22544.91,21677.265
1764510645.9049888,38647.485,50974.56,45001.845,51162.795,-11356.2,-22474.44,22547.565,21680.145
1764510645.9049888,38643.525,50971.095,44998.65,51158.79,-11359.35,-22478.31,22545.135,21676.095
1764510645.9049888,38642.67,50971.095,44997.525,51157.665,-11361.33,-22479.615,22544.19,21674.835
1764510645.9049888,38642.31,50971.005,44997.795,51157.44,-11361.33,-22480.74,22544.82,21674.7
1764510645.9049888,38646.585,50975.82,45002.97,51161.13,-11356.83,-22477.14,22547.655,21679.155
1764510645.9049888,38644.11,50974.155,45000.135,51157.035,-11358.9,-22479.75,22545.27,21675.42
1764510645.9049888,38641.05,50970.825,44996.895,51152.715,-11362.68,-22482.855,22543.785,21671.955
1764510645.9049888,38640.87,50970.96,44997.84,51152.625,-11362.05,-22482.765,22543.65,21673.395
1764510645.9049888,38637.765,50967.81,44994.42,51149.115,-11365.875,-22486.77,22541.31,21669.03
1764510645.9049888,38638.665,50969.475,44995.365,51150.465,-11365.2,-22486.005,22542.48,21670.605
1764510645.9049888,38643.12,50974.38,45001.17,51154.11,-11361.015,-22482.09,22546.305,21676.05
1764510645.9049888,38639.835,50970.735,44998.11,51151.185,-11364.12,-22484.745,22544.01,21671.865
1764510645.9049888,38642.355,50972.85,44999.685,51154.065,-11362.14,-22482.315,22544.64,21674.52
1764510645.9049888,38641.86,50973.12,44999.64,51154.02,-11361.96,-22482.045,22545.63,21675.06
1764510645.9049888,38647.035,50976.945,45004.185,51157.53,-11357.055,-22478.805,22548.735,21678.975
1764510645.9049888,38643.12,50972.4,45000.0,51154.425,-11360.295,-22482.27,22544.595,21674.97
1764510645.950101,38639.34,50968.575,44996.445,51152.76,-11363.22,-22485.105,22542.795,21672.36
1764510645.950101,38643.12,50970.6,44998.56,51156.405,-11360.07,-22482.18,22543.785,21674.97
1764510645.950101,38645.01,50972.535,44999.235,51158.16,-11358.99,-22480.47,22545.135,21676.275
1764510645.950101,38644.29,50972.04,44998.83,51157.665,-11359.755,-22479.84,22544.235,21676.275
1764510645.950101,38640.69,50968.035,44995.095,51154.515,-11362.545,-22483.89,22542.03,21672.45
1764510645.950101,38641.635,50968.44,44995.005,51156.36,-11362.14,-22484.115,22541.805,21673.035
1764510645.950101,38647.08,50973.975,45000.0,51160.995,-11356.515,-22479.48,22545.81,21678.525
1764510645.950101,38644.155,50971.41,44996.895,51159.015,-11359.08,-22482.0,22544.505,21675.915
1764510645.950101,38647.305,50974.515,45000.315,51161.985,-11356.11,-22479.12,22546.35,21678.255
1764510645.950101,38643.48,50970.87,44995.815,51157.035,-11360.34,-22483.44,22542.705,21673.755
1764510645.950101,38642.805,50970.465,44995.005,51155.82,-11361.015,-22484.07,22542.21,21672.495
1764510645.950101,38641.905,50968.17,44993.205,51154.56,-11363.04,-22484.835,22540.77,21670.875
1764510645.950101,38641.86,50968.53,44993.43,51155.055,-11363.445,-22484.295,22541.58,21671.91
1764510645.950101,38639.97,50967.45,44992.935,51153.885,-11363.49,-22483.935,22540.23,21671.64
1764510645.950101,38644.47,50972.085,44997.12,51157.98,-11359.98,-22480.74,22542.525,21675.645
1764510645.950101,38645.145,50972.895,44997.03,51158.925,-11359.89,-22480.335,22543.38,21676.14
1764510645.950101,38643.435,50971.32,44995.005,51157.305,-11362.095,-22482.765,22543.335,21674.115
1764510645.950101,38649.51,50976.945,45001.215,51162.48,-11356.83,-22478.22,22547.88,21679.965
1764510645.950101,38652.57,50980.455,45004.59,51165.27,-11354.67,-22475.88,22550.355,21683.385
1764510645.950101,38646.945,50974.83,44998.695,51160.905,-11359.98,-22481.415,22545.63,21677.76
1764510645.950101,38647.53,50975.145,44998.2,51161.22,-11359.395,-22480.65,22545.27,21678.03
1764510645.950101,38652.12,50978.97,45002.79,51165.63,-11354.715,-22476.195,22548.555,21682.17
1764510645.950101,38655.045,50980.545,45004.95,51167.79,-11351.79,-22473.54,22550.31,21684.285
1764510645.950101,38652.75,50979.42,45003.24,51165.855,-11353.815,-22475.655,22549.545,21682.845
1764510645.994577,38650.59,50977.89,45001.08,51164.19,-11356.155,-22478.355,22549.095,21681.27
1764510645.994577,38651.04,50977.755,45000.81,51164.01,-11356.29,-22477.68,22548.42,21681.09
1764510645.9955983,38653.695,50980.68,45003.6,51167.16,-11353.635,-22474.89,22549.59,21684.105
1764510645.9955983,38653.74,50980.41,45004.23,51168.195,-11353.095,-22475.475,22549.995,21684.645
1764510645.9955983,38652.3,50980.23,45003.285,51167.16,-11353.68,-22476.42,22550.4,21683.97
1764510645.9955983,38647.485,50974.92,44998.11,51162.435,-11358.765,-22481.595,22547.205,21678.975
1764510645.9955983,38650.86,50978.295,45001.71,51164.82,-11355.075,-22477.905,22550.04,21681.63
1764510645.9955983,38649.33,50977.125,44999.73,51163.11,-11356.38,-22479.48,22549.365,21680.325
1764510645.9955983,38652.345,50980.5,45002.43,51165.99,-11354.715,-22477.815,22550.31,21683.925
1764510645.9955983,38648.61,50976.585,44998.335,51162.03,-11358.18,-22481.37,22548.15,21679.38
1764510645.9965937,38647.935,50976.18,44998.335,51161.67,-11357.505,-22481.19,22547.52,21678.435
1764510645.9965937,38650.995,50978.97,45001.26,51165.45,-11354.4,-22478.13,22549.23,21682.125
1764510645.9965937,38647.125,50975.685,44997.21,51162.21,-11358.27,-22481.865,22547.385,21678.21
1764510645.9965937,38646.18,50974.11,44996.535,51159.96,-11359.71,-22483.26,22546.395,21676.635
1764510645.9965937,38649.96,50977.845,45000.495,51163.02,-11356.065,-22480.515,22548.645,21680.235
1764510645.9965937,38643.975,50972.085,44994.51,51156.855,-11361.51,-22486.68,22544.505,21675.06
1764510645.9965937,38643.885,50971.68,44994.33,51155.955,-11361.645,-22486.68,22544.235,21675.51
1764510645.9965937,38648.43,50976.045,44998.875,51159.69,-11358.18,-22481.865,22546.53,21679.695
1764510645.9965937,38647.98,50975.055,44998.83,51158.43,-11358.495,-22483.17,22546.62,21678.57
1764510645.9965937,38643.93,50971.32,44994.555,51155.055,-11362.365,-22487.49,22544.73,21674.61
1764510645.9965937,38647.8,50974.785,44997.75,51158.745,-11359.17,-22483.98,22547.385,21678.795
1764510645.9965937,38646.63,50974.29,44997.525,51157.98,-11359.62,-22484.7,22545.945,21677.535
1764510646.0456748,38643.21,50971.185,44994.105,51153.885,-11363.22,-22488.57,22543.695,21673.53
1764510646.0456748,38642.85,50971.005,44994.51,51153.705,-11363.265,-22487.985,22542.93,21674.16
1764510646.0456748,38647.935,50976.675,45000.63,51159.15,-11357.505,-22481.73,22546.755,21679.83
1764510646.0456748,38645.91,50974.56,44998.515,51157.395,-11357.595,-22481.865,22545.045,21678.705
1764510646.0456748,38647.8,50975.505,44999.325,51158.52,-11357.415,-22481.64,22546.035,21680.505
1764510646.0456748,38642.58,50970.195,44994.285,51154.245,-11362.32,-22486.68,22543.155,21675.6
1764510646.0466893,38642.445,50970.285,44994.33,51155.055,-11362.05,-22486.545,22542.93,21675.69
1764510646.0466893,38646.855,50973.705,44997.885,51158.61,-11358.945,-22482.045,22543.56,21679.785
1764510646.0466893,38647.53,50974.11,44998.38,51158.655,-11358.18,-22481.145,22545.09,21680.685
1764510646.0466893,38642.265,50969.295,44993.385,51154.29,-11362.995,-22485.69,22542.12,21675.06
1764510646.0466893,38641.32,50967.945,44993.16,51153.795,-11363.355,-22487.22,22540.77,21674.295
1764510646.0466893,38645.82,50972.625,44998.245,51157.62,-11359.395,-22483.35,22542.3,21678.66
1764510646.0466893,38647.89,50975.73,45001.17,51160.23,-11357.235,-22481.28,22545.045,21681.135
1764510646.0466893,38645.055,50972.67,44997.525,51157.17,-11359.89,-22483.755,22542.03,21677.805
1764510646.0466893,38641.995,50969.52,44994.195,51154.785,-11362.995,-22487.04,22540.095,21674.43
1764510646.0466893,38640.105,50968.53,44992.62,51153.705,-11363.445,-22487.895,22539.375,21674.205
1764510646.0466893,38642.445,50971.005,44994.78,51156.18,-11361.105,-22485.375,22539.465,21676.59
1764510646.0466893,38640.15,50967.225,44991.855,51152.445,-11364.48,-22488.3,22537.575,21672.585
1764510646.0466893,38642.895,50969.61,44995.095,51155.595,-11361.87,-22484.97,22539.96,21675.915
1764510646.0466893,38638.98,50965.875,44991.54,51152.49,-11364.93,-22488.39,22539.105,21672.81
1764510646.0466893,38640.195,50967.54,44992.71,51153.39,-11363.04,-22486.185,22539.6,21673.935
1764510646.0466893,38644.56,50971.905,44996.94,51158.025,-11358.99,-22482.405,22541.085,21678.3
1764510646.0466893,38648.475,50975.82,45000.135,51162.3,-11355.93,-22479.435,22544.595,21681.765
1764510646.0466893,38646.36,50973.84,44998.155,51161.4,-11357.73,-22479.93,22543.29,21679.83
1764510646.0466893,38642.355,50970.96,44994.78,51157.8,-11361.105,-22483.845,22540.815,21676.455
1764510646.0466893,38642.805,50970.825,44994.51,51158.7,-11360.475,-22483.755,22539.96,21676.41
1764510646.0917466,38641.365,50968.26,44992.305,51156.63,-11361.915,-22485.78,22538.7,21674.205
1764510646.0917466,38643.435,50970.33,44994.06,51159.285,-11359.53,-22483.215,22540.095,21675.51
1764510646.0917466,38640.6,50966.82,44991.54,51157.17,-11361.87,-22485.69,22538.34,21672.945
1764510646.0917466,38642.04,50968.53,44993.205,51159.33,-11360.07,-22484.25,22539.555,21674.295
1764510646.0917466,38639.745,50966.46,44990.955,51157.125,-11361.915,-22486.095,22539.555,21672.18
1764510646.0917466,38640.105,50966.28,44990.955,51157.17,-11361.69,-22485.645,22539.285,21672.81
1764510646.0917466,38645.595,50971.41,44996.13,51161.67,-11357.55,-22480.965,22542.165,21678.21
1764510646.0917466,38644.65,50970.51,44995.095,51160.23,-11358.765,-22481.595,22541.445,21676.635
1764510646.0917466,38644.92,50971.32,44996.04,51161.085,-11358.36,-22480.83,22542.435,21677.22
1764510646.0917466,38642.625,50968.62,44993.43,51159.465,-11360.295,-22483.845,22541.445,21674.745
1764510646.0917466,38645.415,50970.825,44995.725,51161.22,-11357.415,-22481.46,22543.425,21677.22
1764510646.0927331,38644.605,50970.24,44995.14,51160.005,-11357.595,-22481.775,22543.74,21676.905
1764510646.0927331,38648.385,50973.795,44998.29,51163.47,-11354.31,-22477.995,22546.71,21680.685
1764510646.0927331,38646.63,50971.905,44995.95,51161.355,-11357.28,-22480.38,22546.08,21678.39
1764510646.0927331,38647.125,50972.355,44996.805,51161.94,-11355.93,-22480.245,22546.035,21678.885
1764510646.0927331,38650.725,50975.19,44999.82,51165.27,-11352.555,-22477.14,22548.735,21682.305
1764510646.0927331,38651.445,50976.945,45001.26,51166.08,-11352.33,-22476.465,22550.085,21684.105
1764510646.0927331,38647.125,50971.86,44996.265,51160.545,-11357.37,-22481.37,22546.935,21678.57
1764510646.0927331,38648.61,50973.345,44997.21,51160.905,-11356.02,-22480.065,22547.835,21680.19
1764510646.0927331,38652.03,50975.865,45000.27,51163.335,-11353.68,-22478.58,22548.645,21682.98
1764510646.0927331,38652.12,50976.045,45000.675,51163.38,-11353.815,-22478.94,22548.06,21682.98
1764510646.0927331,38650.77,50974.02,44999.28,51162.93,-11354.895,-22480.65,22547.25,21681.81
1764510646.0927331,38651.04,50974.875,44999.55,51162.57,-11355.345,-22480.83,22548.015,21682.26
1764510646.0927331,38649.645,50974.02,44998.47,51161.22,-11357.37,-22482.45,22547.43,21680.91
1764510646.138405,38650.41,50974.245,44998.695,51160.995,-11356.425,-22482.045,22548.105,21681.27
1764510646.138405,38650.185,50973.75,44998.2,51161.085,-11355.57,-22481.01,22548.195,21681.27
1764510646.138405,38649.735,50973.66,44997.3,51160.455,-11356.38,-22482.405,22547.205,21681.045
1764510646.138405,38649.33,50972.94,44996.715,51159.735,-11356.875,-22483.53,22545.9,21679.2
1764510646.138405,38647.575,50970.69,44994.555,51157.935,-11358.045,-22484.43,22545.315,21677.985
1764510646.138405,38653.29,50976.675,44999.595,51162.705,-11353.59,-22480.065,22549.365,21683.745
1764510646.138405,38651.085,50974.425,44997.255,51160.32,-11356.245,-22481.955,22548.375,21681.495
1764510646.138405,38652.165,50975.01,44998.605,51160.455,-11355.57,-22481.955,22549.41,21682.665
1764510646.138405,38654.505,50977.08,45000.945,51162.84,-11353.14,-22480.38,22550.625,21684.96
1764510646.1393952,38655.99,50979.645,45002.7,51165.315,-11351.565,-22477.905,22551.885,21686.805
1764510646.1393952,38658.87,50982.57,45005.67,51169.185,-11348.37,-22475.115,22553.505,21690.18
1764510646.1393952,38658.96,50982.66,45006.21,51169.41,-11348.01,-22475.43,22555.17,21690.675
1764510646.1393952,38663.46,50987.745,45010.98,51173.865,-11343.42,-22469.76,22559.085,21695.535
1764510646.140096,38661.03,50985.9,45008.055,51170.985,-11346.3,-22473.18,22556.745,21691.755
1764510646.1402023,38661.3,50986.26,45008.415,51170.67,-11347.02,-22473.765,22557.06,21691.575
1764510646.1402023,38662.605,50987.385,45009.405,51172.2,-11345.22,-22471.875,22558.005,21693.285
1764510646.1402023,38663.64,50987.88,45009.81,51172.695,-11344.725,-22470.39,22559.31,21694.05
1764510646.1402023,38664.045,50988.24,45010.395,51172.965,-11344.545,-22469.895,22559.67,21695.04
1764510646.1412172,38667.105,50991.345,45013.905,51176.655,-11341.35,-22466.52,22560.885,21698.235
1764510646.1412172,38668.41,50992.56,45014.67,51177.555,-11340.45,-22464.945,22561.785,21699.18
1764510646.1412172,38665.44,50989.545,45011.16,51175.125,-11343.465,-22468.05,22560.255,21696.345
1764510646.1412172,38669.67,50993.82,45015.615,51179.715,-11339.325,-22464.09,22563.63,21700.755
1764510646.1412172,38669.535,50993.64,45015.3,51179.13,-11340.315,-22464.0,22563.405,21699.945
1764510646.1412172,38666.07,50990.31,45011.835,51175.575,-11343.42,-22467.42,22560.84,21696.12
1764510646.184438,38667.15,50991.975,45013.095,51176.025,-11341.17,-22465.395,22561.335,21697.965
1764510646.184438,38669.85,50994.405,45015.57,51177.825,-11337.975,-22461.975,22562.235,21701.205
1764510646.1854515,38667.285,50991.165,45012.285,51174.495,-11341.305,-22465.98,22561.155,21697.965
1764510646.1854515,38669.31,50992.83,45013.995,51176.205,-11339.955,-22464.09,22563.495,21699.405
1764510646.1854515,38671.83,50995.665,45016.65,51178.95,-11337.795,-22460.625,22565.205,21702.465
1764510646.1854515,38673.0,50997.42,45018.675,51179.805,-11335.545,-22458.69,22566.825,21704.58
1764510646.1854515,38675.25,50998.86,45019.935,51182.01,-11332.8,-22456.98,22567.905,21705.795
1764510646.1854515,38679.84,51003.36,45024.885,51186.285,-11329.02,-22452.795,22569.84,21709.935
1764510646.1854515,38680.785,51005.385,45026.28,51187.185,-11328.03,-22451.67,22571.37,21711.195
1764510646.1854515,38677.365,51001.875,45022.455,51183.18,-11331.09,-22455.45,22569.255,21707.325
1764510646.1854515,38678.13,51002.82,45023.805,51184.215,-11330.685,-22455.135,22569.615,21708.225
1764510646.1854515,38678.85,51002.91,45023.67,51184.305,-11330.82,-22455.135,22569.57,21708.81
1764510646.1854515,38679.21,51003.18,45023.535,51184.89,-11330.595,-22454.505,22570.155,21709.395
1764510646.1854515,38682.855,51006.375,45027.045,51187.86,-11327.355,-22451.04,22572.315,21712.95
1764510646.1854515,38681.685,51004.71,45026.01,51186.105,-11328.39,-22452.345,22572.18,21711.51
1764510646.1854515,38684.52,51007.59,45029.385,51188.985,-11324.79,-22449.42,22574.115,21714.795
1764510646.1864536,38683.485,51006.915,45028.26,51188.67,-11324.925,-22449.6,22574.07,21714.57
1764510646.1864536,38680.065,51002.955,45025.02,51185.52,-11328.57,-22452.795,22572.27,21711.555
1764510646.1864536,38682.675,51004.395,45026.64,51186.555,-11326.995,-22451.13,22572.945,21713.535
1764510646.1864536,38677.59,51000.57,45021.915,51182.595,-11331.45,-22456.035,22570.335,21709.17
1764510646.1864536,38678.175,51001.92,45023.085,51183.63,-11329.83,-22455.405,22570.785,21709.845
1764510646.1864536,38681.505,51005.52,45026.46,51186.51,-11326.68,-22451.805,22573.26,21712.995
1764510646.1864536,38679.21,51003.315,45024.165,51184.755,-11329.245,-22453.695,22572.045,21710.925
1764510646.1864536,38679.615,51003.27,45024.525,51184.98,-11329.38,-22453.47,22572.225,21711.06
1764510646.233363,38682.045,51005.16,45026.46,51186.375,-11327.58,-22451.715,22573.395,21712.455
1764510646.233363,38685.24,51008.355,45029.745,51188.85,-11323.98,-22448.205,22575.645,21715.92
1764510646.233363,38683.71,51007.41,45028.35,51187.5,-11325.6,-22449.78,22575.78,21714.57
1764510646.233363,38689.425,51013.44,45034.245,51191.82,-11318.625,-22442.265,22580.73,21720.96
1764510646.233363,38691.855,51015.51,45035.865,51193.755,-11317.14,-22440.69,22582.755,21723.435
1764510646.233363,38689.425,51014.295,45034.11,51193.08,-11320.56,-22444.83,22579.875,21720.69
1764510646.233363,38687.625,51012.9,45032.49,51190.515,-11323.17,-22447.35,22579.11,21717.99
1764510646.233363,38692.35,51017.13,45036.99,51194.61,-11319.21,-22443.03,22582.17,21722.4
1764510646.233363,38693.295,51017.445,45037.53,51195.6,-11317.95,-22441.635,22583.07,21723.795
1764510646.233363,38692.62,51016.365,45036.63,51195.285,-11317.59,-22441.995,22583.475,21722.58
1764510646.233363,38690.235,51014.655,45034.38,51193.44,-11319.39,-22444.605,22581.36,21720.42
1764510646.233363,38695.455,51020.55,45039.69,51197.535,-11316.06,-22440.15,22584.195,21725.91
1764510646.233363,38698.2,51022.845,45042.21,51199.605,-11313.72,-22437.18,22586.76,21729.015
1764510646.233363,38699.325,51024.15,45043.605,51201.405,-11311.74,-22436.28,22587.66,21730.905
1764510646.233363,38700.135,51024.825,45044.19,51202.665,-11311.425,-22435.38,22589.28,21731.715
1764510646.233363,38695.635,51021.135,45039.87,51199.335,-11315.43,-22439.88,22586.535,21727.755
1764510646.233363,38696.04,51020.82,45039.96,51198.885,-11315.7,-22439.97,22586.085,21727.71
1764510646.233363,38698.155,51021.72,45041.67,51199.92,-11314.305,-22437.63,22587.12,21729.195
1764510646.233363,38701.845,51026.31,45046.08,51203.88,-11309.49,-22432.905,22590.09,21733.11
1764510646.233363,38699.55,51025.635,45044.865,51202.395,-11312.01,-22435.29,22589.19,21730.86
1764510646.2781465,38704.95,51030.81,45049.95,51207.21,-11306.925,-22430.97,22593.015,21735.72
1764510646.2781465,38706.57,51031.8,45050.805,51208.335,-11306.025,-22428.945,22594.5,21737.205
1764510646.2781465,38705.355,51029.775,45049.05,51207.255,-11307.285,-22429.665,22593.735,21735.36
1764510646.2791562,38703.555,51027.93,45047.205,51205.095,-11310.12,-22434.21,22593.105,21732.93
1764510646.2791562,38707.11,51032.295,45050.895,51208.245,-11306.79,-22430.205,22595.22,21737.07
1764510646.2791562,38705.94,51031.215,45049.05,51207.03,-11308.68,-22431.105,22594.14,21736.08
1764510646.2791562,38706.255,51031.71,45049.41,51206.805,-11308.005,-22431.195,22594.005,21736.71
1764510646.2791562,38705.13,51029.73,45048.15,51204.6,-11307.24,-22430.925,22593.735,21736.08
1764510646.2791562,38704.995,51029.865,45048.15,51203.97,-11307.42,-22431.105,22594.455,21736.08
1764510646.2791562,38705.445,51030.54,45047.925,51203.295,-11306.88,-22431.465,22595.04,21735.81
1764510646.2791562,38706.435,51031.53,45049.32,51203.97,-11307.24,-22432.41,22596.57,21736.98
1764510646.2791562,38708.1,51033.87,45051.885,51204.735,-11305.845,-22432.095,22598.28,21738.69
1764510646.2791562,38711.205,51037.38,45054.36,51206.67,-11303.1,-22429.575,22601.115,21741.39
1764510646.2791562,38713.185,51038.685,45055.62,51207.885,-11301.975,-22427.865,22602.645,21743.505
1764510646.2791562,38710.17,51035.805,45053.1,51204.645,-11305.215,-22430.835,22599.855,21740.67
1764510646.2791562,38705.22,51030.765,45048.195,51199.605,-11310.57,-22436.01,22595.67,21735.63
1764510646.2791562,38709.36,51035.58,45052.47,51203.43,-11306.34,-22432.95,22598.145,21739.545
1764510646.2791562,38710.08,51036.48,45052.875,51204.42,-11305.305,-22432.455,22598.73,21740.805
1764510646.2791562,38706.57,51031.845,45049.59,51201.225,-11309.4,-22436.82,22596.435,21736.215
1764510646.2791562,38707.56,51032.115,45050.04,51200.73,-11308.815,-22435.65,22597.155,21736.665
1764510646.2791562,38709.225,51034.005,45052.785,51202.26,-11307.285,-22433.355,22598.505,21738.735
1764510646.2791562,38712.33,51037.02,45056.07,51205.68,-11305.53,-22432.005,22600.08,21740.895
1764510646.2791562,38713.455,51038.73,45057.285,51207.57,-11303.55,-22430.565,22600.89,21742.02
1764510646.2791562,38713.095,51038.82,45057.555,51207.93,-11300.94,-22428.18,22601.34,21742.83
1764510646.3274338,38713.815,51038.955,45058.41,51210.135,-11300.31,-22428.135,22600.35,21743.46
1764510646.3274338,38712.825,51037.92,45056.925,51210.045,-11302.47,-22430.34,22597.92,21742.02
1764510646.3274338,38713.59,51039.315,45058.185,51211.17,-11301.39,-22429.26,22598.955,21742.74
1764510646.3274338,38715.435,51041.52,45060.435,51213.42,-11299.365,-22426.155,22601.385,21744.945
1764510646.3274338,38715.21,51041.655,45061.02,51213.6,-11298.195,-22425.3,22602.105,21744.945
1764510646.3274338,38710.62,51037.155,45056.7,51210.36,-11300.94,-22428.27,22600.125,21740.94
1764510646.3274338,38710.08,51035.805,45055.575,51210.675,-11301.48,-22427.1,22600.305,21741.345
1764510646.3274338,38710.17,51034.455,45054.405,51210.675,-11299.095,-22424.76,22600.35,21742.155
1764510646.3274338,38708.145,51032.025,45051.975,51208.83,-11301.255,-22427.19,22599.765,21740.265
1764510646.3274338,38710.89,51035.31,45054.81,51211.35,-11298.51,-22423.455,22602.825,21742.965
1764510646.3274338,38715.39,51039.135,45058.86,51215.985,-11294.01,-22418.325,22606.785,21747.645
1764510646.3274338,38708.91,51031.44,45052.56,51209.73,-11298.96,-22422.285,22602.69,21741.93
1764510646.3274338,38709.135,51031.485,45051.57,51209.595,-11299.455,-22422.33,22602.87,21741.66
1764510646.3274338,38712.555,51035.445,45054.63,51213.33,-11295.81,-22418.325,22605.615,21745.71
1764510646.3274338,38712.555,51034.68,45053.865,51213.105,-11296.755,-22418.595,22605.345,21746.16
1764510646.3274338,38710.62,51032.205,45050.355,51209.82,-11300.265,-22421.52,22603.905,21744.585
1764510646.3274338,38709.36,51030.585,45046.98,51207.03,-11302.335,-22423.41,22602.96,21744.36
1764510646.3274338,38705.76,51026.535,45041.265,51201.045,-11307.195,-22427.37,22600.935,21740.085
1764510646.3274338,38709.585,51030.09,45044.73,51202.755,-11305.44,-22425.615,22603.05,21743.73
1764510646.3274338,38711.07,51032.205,45046.8,51203.52,-11306.07,-22426.74,22603.095,21744.945
1764510646.3274338,38717.01,51039.36,45053.37,51209.595,-11301.165,-22422.645,22606.11,21749.715
1764510646.3274338,38713.635,51036.84,45051.48,51207.255,-11303.73,-22425.975,22602.24,21745.665
1764510646.3274338,38715.03,51039.135,45054.72,51209.91,-11302.065,-22424.895,22603.185,21746.655
1764510646.3274338,38716.515,51040.935,45056.97,51212.16,-11301.12,-22424.13,22603.95,21747.06
1764510646.3274338,38717.91,51042.42,45059.4,51215.445,-11297.655,-22421.385,22605.03,21748.275
1764510646.3274338,38721.285,51045.57,45063.45,51218.91,-11292.795,-22416.39,22607.055,21752.145
1764510646.3731844,38719.17,51043.815,45061.065,51217.47,-11295.54,-22419.81,22605.21,21749.355
1764510646.3731844,38718.945,51043.77,45061.875,51217.785,-11295.99,-22420.53,22605.165,21749.085
1764510646.3731844,38718.72,51043.995,45062.01,51217.47,-11295.855,-22419.99,22605.885,21749.76
1764510646.3731844,38720.52,51045.48,45063.045,51218.955,-11293.695,-22417.92,22607.19,21751.38
1764510646.3741944,38726.55,51051.69,45069.525,51225.12,-11287.305,-22411.44,22611.51,21757.23
1764510646.3741944,38725.965,51051.105,45068.895,51224.445,-11287.53,-22412.34,22610.385,21757.005
1764510646.3741944,38725.245,51050.295,45067.68,51223.635,-11289.195,-22413.555,22609.665,21756.42
1764510646.3741944,38723.805,51047.955,45065.16,51221.025,-11292.255,-22415.805,22609.26,21753.225
1764510646.3741944,38726.415,51049.665,45067.635,51223.545,-11289.465,-22413.42,22610.97,21754.935
1764510646.3741944,38722.95,51046.245,45064.755,51220.44,-11291.625,-22415.715,22608.63,21751.83
1764510646.3741944,38724.03,51047.955,45067.185,51222.51,-11290.41,-22415.49,22609.44,21752.91
1764510646.3741944,38727.81,51051.735,45071.055,51226.605,-11285.505,-22410.54,22611.96,21758.04
1764510646.3741944,38727.45,51051.06,45070.02,51225.66,-11285.055,-22409.595,22611.285,21758.22
1764510646.3741944,38730.42,51053.805,45072.405,51227.91,-11284.245,-22409.145,22613.67,21759.48
1764510646.3741944,38733.12,51055.965,45074.655,51230.835,-11282.31,-22407.075,22616.01,21762.0
1764510646.3741944,38733.795,51057.0,45075.195,51231.06,-11282.355,-22407.345,22616.235,21762.585
1764510646.37674,38733.57,51056.91,45074.79,51231.555,-11282.175,-22407.975,22616.1,21762.945
1764510646.37674,38729.745,51052.77,45071.235,51228.18,-11285.64,-22410.63,22613.985,21759.345
1764510646.37674,38729.34,51051.825,45069.705,51227.28,-11286.315,-22411.62,22613.085,21758.31
1764510646.37674,38731.905,51054.795,45072.63,51230.025,-11283.12,-22408.92,22615.245,21761.28
1764510646.37674,38735.325,51058.8,45076.5,51234.12,-11279.79,-22404.555,22616.1,21764.745
1764510646.37674,38735.46,51057.945,45076.05,51233.67,-11280.33,-22404.78,22616.1,21765.105
1764510646.37674,38733.435,51055.38,45073.8,51230.745,-11282.58,-22407.615,22615.11,21762.855
1764510646.37674,38735.145,51057.045,45075.555,51232.41,-11279.79,-22404.015,22617.27,21764.88
1764510646.4189386,38741.4,51063.66,45082.215,51237.945,-11274.615,-22398.66,22621.68,21770.595
1764510646.4189386,38740.41,51062.76,45081.09,51236.82,-11276.19,-22400.145,22620.78,21768.75
1764510646.4189386,38737.215,51059.61,45078.57,51233.13,-11279.88,-22403.79,22618.755,21765.33
1764510646.4189386,38741.355,51064.515,45082.665,51237.27,-11275.965,-22400.235,22621.455,21769.785
1764510646.4189386,38741.94,51065.91,45083.385,51238.035,-11274.3,-22398.39,22623.66,21771.495
1764510646.4189386,38737.305,51061.095,45078.66,51233.4,-11279.43,-22403.07,22620.24,21766.14
1764510646.4189386,38737.575,51061.32,45079.02,51234.03,-11279.25,-22403.025,22619.835,21766.635
1764510646.4189386,38742.435,51066.81,45083.97,51238.08,-11274.615,-22397.805,22624.38,21772.305
1764510646.4189386,38738.97,51063.66,45079.92,51234.885,-11278.305,-22401.54,22622.49,21768.66
1764510646.4189386,38739.285,51062.895,45079.695,51235.29,-11278.305,-22401.54,22622.13,21768.21
1764510646.4199538,38742.525,51065.685,45082.08,51238.035,-11274.615,-22398.345,22623.57,21770.82
1764510646.4199538,38739.96,51063.66,45079.56,51236.46,-11277.63,-22400.415,22621.455,21768.525
1764510646.4199538,38738.745,51062.4,45078.705,51235.92,-11279.565,-22401.585,22621.14,21767.49
1764510646.4199538,38736.09,51059.52,45076.05,51233.625,-11282.58,-22403.97,22619.61,21765.6
1764510646.4199538,38738.88,51062.445,45079.47,51236.685,-11280.33,-22401.18,22621.77,21768.66
1764510646.4199538,38740.905,51064.11,45080.82,51237.36,-11278.215,-22399.695,22623.12,21769.38
1764510646.4199538,38741.445,51064.2,45081.135,51237.045,-11277.855,-22398.93,22623.345,21769.74
1764510646.4199538,38741.085,51064.47,45079.92,51236.37,-11278.44,-22400.145,22623.615,21769.335
1764510646.4199538,38740.275,51063.48,45078.975,51235.47,-11279.97,-22401.765,22623.66,21768.885
1764510646.4199538,38738.7,51060.78,45076.905,51233.445,-11281.725,-22403.43,22622.58,21766.995
1764510646.4199538,38741.625,51063.84,45080.505,51236.01,-11277.99,-22399.785,22624.965,21770.055
1764510646.4199538,38737.035,51059.655,45076.095,51231.33,-11282.04,-22404.915,22621.95,21765.78
1764510646.4199538,38737.71,51061.275,45076.59,51232.005,-11281.32,-22405.275,22621.68,21766.815
1764510646.4199538,38738.835,51062.085,45077.4,51232.41,-11280.15,-22404.465,22621.005,21767.85
1764510646.471095,38736.855,51060.78,45075.645,51231.15,-11282.31,-22406.355,22620.285,21766.32
1764510646.471095,38738.025,51061.635,45076.995,51233.13,-11280.87,-22404.33,22619.835,21767.67
1764510646.471095,38738.07,51060.96,45076.5,51233.085,-11279.88,-22405.095,22619.655,21768.345
1764510646.471095,38736.405,51059.385,45074.295,51230.565,-11281.455,-22407.435,22617.72,21766.635
1764510646.471095,38733.435,51057.09,45071.91,51227.73,-11284.785,-22410.63,22615.875,21764.43
1764510646.471095,38734.155,51057.36,45072.855,51228.765,-11283.795,-22409.685,22616.82,21765.51
1764510646.471095,38738.655,51061.815,45077.58,51232.77,-11279.565,-22405.14,22618.98,21770.55
1764510646.471095,38735.55,51059.16,45074.88,51230.07,-11281.68,-22408.2,22616.055,21767.805
1764510646.471095,38735.01,51059.205,45075.15,51229.305,-11282.04,-22408.47,22616.55,21768.21
1764510646.471095,38732.13,51056.055,45072.045,51226.605,-11285.775,-22411.26,22614.435,21764.835
1764510646.4720955,38735.325,51058.89,45075.06,51228.945,-11283.705,-22408.605,22615.695,21767.4
1764510646.4720955,38731.32,51054.795,45070.92,51225.435,-11287.215,-22412.565,22612.095,21763.485
1764510646.4720955,38734.065,51057.675,45073.53,51228.495,-11285.235,-22408.92,22614.3,21765.87
1764510646.4720955,38731.86,51055.785,45071.19,51225.705,-11287.125,-22410.45,22612.455,21763.575
1764510646.4720955,38735.19,51058.98,45074.43,51228.0,-11284.11,-22407.66,22614.21,21766.77
1764510646.4720955,38733.75,51056.685,45072.18,51226.02,-11286.36,-22410.045,22612.77,21764.115
1764510646.4720955,38737.98,51061.23,45076.545,51229.35,-11281.995,-22405.68,22616.055,21768.93
1764510646.4720955,38733.345,51057.81,45073.935,51226.155,-11285.82,-22409.19,22612.86,21764.745
1764510646.4720955,38735.595,51059.88,45076.455,51228.63,-11284.02,-22407.12,22614.435,21766.815
1764510646.4720955,38731.095,51055.38,45071.595,51224.445,-11287.665,-22410.54,22611.555,21761.91
1764510646.4720955,38731.32,51055.92,45072.36,51224.67,-11286.585,-22409.64,22611.33,21762.45
1764510646.4720955,38734.155,51059.205,45076.005,51227.1,-11283.975,-22406.805,22612.77,21765.555
1764510646.4720955,38735.145,51061.185,45077.58,51227.685,-11283.885,-22406.445,22614.57,21767.13
1764510646.4720955,38731.905,51058.17,45074.115,51224.265,-11286.945,-22409.685,22612.005,21763.305
1764510646.5128536,38735.595,51061.86,45077.895,51227.28,-11283.93,-22406.22,22615.11,21766.14
1764510646.5128536,38733.48,51059.88,45076.41,51225.48,-11285.505,-22407.12,22614.39,21764.385
1764510646.5128536,38736.36,51063.345,45079.425,51228.45,-11281.185,-22403.97,22617.405,21767.805
1764510646.5128536,38731.05,51058.17,45074.475,51223.68,-11286.495,-22409.28,22613.13,21762.72
1764510646.5128536,38731.86,51058.755,45075.33,51224.715,-11285.595,-22408.425,22613.445,21762.99
1764510646.5128536,38735.055,51061.86,45078.795,51228.585,-11282.04,-22404.51,22615.695,21766.68
1764510646.5128536,38735.955,51062.625,45079.83,51230.385,-11281.095,-22402.53,22616.73,21767.895
1764510646.5128536,38735.235,51060.87,45078.075,51229.62,-11281.905,-22403.475,22615.83,21766.995
1764510646.5128536,38734.47,51059.52,45076.41,51229.755,-11282.22,-22404.645,22615.65,21765.555
1764510646.5128536,38735.46,51059.97,45078.03,51231.195,-11280.915,-22402.755,22616.37,21766.68
1764510646.5128536,38737.755,51061.725,45080.28,51233.76,-11279.205,-22400.235,22617.81,21769.29
1764510646.5128536,38741.985,51065.91,45084.465,51239.34,-11273.805,-22394.925,22619.52,21774.285
1764510646.5128536,38742.93,51066.54,45084.735,51241.5,-11272.815,-22392.36,22620.42,21775.455
1764510646.5128536,38737.845,51061.32,45079.38,51236.82,-11278.89,-22398.12,22616.19,21769.965
1764510646.5128536,38739.06,51062.31,45080.64,51239.475,-11277.81,-22396.815,22616.865,21770.28
1764510646.5128536,38738.79,51061.77,45080.37,51240.105,-11277.765,-22395.645,22615.74,21770.235
1764510646.5146382,38741.535,51065.145,45083.52,51243.345,-11274.57,-22392.315,22616.82,21773.97
1764510646.5146382,38739.6,51063.21,45080.865,51240.87,-11276.145,-22395.15,22615.785,21772.53
1764510646.5146382,38744.28,51067.395,45085.095,51244.92,-11272.005,-22391.235,22619.115,21776.94
1764510646.5146382,38742.615,51065.415,45083.925,51243.525,-11272.86,-22391.955,22617.945,21775.635
1764510646.5146382,38741.22,51064.155,45083.205,51243.615,-11274.345,-22394.115,22617.18,21774.42
1764510646.5146382,38738.88,51061.68,45080.91,51241.77,-11277.27,-22397.715,22616.145,21771.36
1764510646.563579,38743.65,51066.18,45085.23,51243.975,-11272.5,-22394.295,22618.755,21775.365
1764510646.563579,38739.33,51062.265,45081.18,51239.61,-11275.83,-22398.48,22615.38,21770.595
1764510646.563579,38734.605,51058.53,45076.86,51234.93,-11280.6,-22403.205,22612.635,21766.32
1764510646.563579,38733.84,51058.215,45076.5,51233.895,-11281.545,-22404.105,22612.59,21765.015
1764510646.5645912,38737.08,51061.68,45080.505,51237.135,-11278.575,-22400.775,22614.93,21767.625
1764510646.5645912,38733.975,51057.855,45076.815,51232.86,-11282.625,-22404.42,22612.005,21763.215
1764510646.5645912,38734.965,51059.385,45078.39,51233.085,-11281.77,-22403.79,22613.49,21763.485
1764510646.5645912,38733.885,51057.945,45077.22,51232.185,-11282.535,-22405.23,22612.185,21762.945
1764510646.5645912,38734.11,51057.72,45077.13,51232.185,-11282.085,-22405.005,22612.32,21763.305
1764510646.5645912,38734.605,51058.305,45076.815,51233.04,-11281.23,-22404.69,22612.41,21764.205
1764510646.5645912,38739.06,51062.76,45080.595,51236.955,-11277.225,-22400.64,22614.705,21768.795
1764510646.5645912,38732.805,51056.955,45074.61,51232.32,-11283.165,-22406.58,22610.475,21762.765
1764510646.5645912,38732.76,51055.965,45073.845,51232.14,-11283.885,-22406.94,22610.205,21762.045
1764510646.5645912,38731.545,51055.11,45073.125,51231.87,-11284.47,-22407.12,22608.54,21760.785
1764510646.5645912,38732.175,51056.73,45074.16,51232.815,-11283.255,-22406.58,22608.63,21761.82
1764510646.565785,38734.02,51057.54,45075.96,51234.075,-11282.535,-22405.905,22608.81,21762.765
1764510646.565785,38738.385,51061.095,45079.785,51237.72,-11278.935,-22402.395,22612.095,21766.635
1764510646.565785,38734.29,51056.82,45075.465,51233.4,-11284.155,-22406.985,22609.89,21762.36
1764510646.565785,38735.235,51058.665,45076.59,51233.535,-11282.76,-22406.49,22610.295,21762.945
1764510646.565785,38739.825,51063.66,45081.45,51237.045,-11277.81,-22401.765,22614.21,21767.895
1764510646.565785,38741.085,51064.155,45081.945,51236.775,-11277.855,-22401.225,22615.92,21768.3
1764510646.565785,38734.335,51057.63,45075.825,51229.485,-11285.01,-22408.29,22611.06,21761.685
1764510646.565785,38736.27,51059.88,45077.445,51231.645,-11282.715,-22406.265,22611.69,21764.745
1764510646.565785,38733.21,51056.685,45073.62,51228.27,-11285.595,-22410.09,22609.935,21761.325
1764510646.6083028,38732.355,51056.415,45073.71,51227.82,-11286.0,-22410.225,22609.845,21761.01
1764510646.6083028,38732.355,51056.325,45073.665,51228.09,-11286.09,-22411.44,22609.71,21761.505
1764510646.6083028,38735.865,51059.295,45076.905,51231.285,-11282.85,-22408.38,22611.42,21765.285
1764510646.6083028,38731.005,51053.265,45071.37,51226.155,-11287.845,-22412.61,22607.685,21759.66
1764510646.6083028,38730.375,51052.41,45070.38,51225.795,-11287.71,-22412.79,22607.01,21759.48
1764510646.6083028,38733.435,51055.56,45073.845,51230.205,-11284.245,-22408.47,22609.71,21764.25
1764510646.609823,38735.685,51057.27,45075.87,51231.51,-11283.165,-22405.68,22611.555,21766.05
1764510646.609823,38733.255,51055.02,45073.665,51229.215,-11285.91,-22408.47,22608.36,21763.485
1764510646.609823,38732.985,51054.705,45073.26,51229.035,-11286.045,-22408.74,22608.36,21763.26
1764510646.609823,38729.61,51051.24,45070.065,51225.12,-11289.195,-22411.89,22606.605,21759.93
1764510646.609823,38734.695,51055.965,45075.105,51228.945,-11284.245,-22406.895,22609.755,21764.52
1764510646.609823,38734.155,51055.83,45074.205,51228.54,-11284.065,-22406.67,22608.945,21763.8
1764510646.609823,38734.56,51057.18,45074.25,51227.955,-11283.75,-22406.445,22609.62,21764.25
1764510646.609823,38733.66,51056.1,45073.08,51226.605,-11286.045,-22408.335,22608.36,21763.53
1764510646.609823,38735.055,51057.63,45074.385,51227.73,-11284.29,-22406.445,22610.295,21764.88
1764510646.609823,38736.585,51059.295,45076.185,51228.855,-11283.165,-22405.365,22611.645,21766.77
1764510646.609823,38736.585,51059.61,45077.13,51229.845,-11283.165,-22405.095,22612.455,21767.4
1764510646.609823,38733.66,51056.055,45073.485,51227.685,-11285.775,-22407.525,22608.495,21764.07
1764510646.609823,38733.795,51056.55,45073.485,51226.875,-11285.73,-22407.165,22608.135,21764.205
1764510646.609823,38732.94,51055.335,45072.405,51225.48,-11286.765,-22407.48,22607.325,21763.485
1764510646.609823,38730.33,51053.175,45070.47,51222.825,-11288.88,-22409.1,22607.235,21761.46
1764510646.609823,38729.205,51051.555,45068.58,51222.735,-11290.23,-22410.09,22606.245,21760.155
1764510646.609823,38733.57,51055.515,45072.855,51227.505,-11286.27,-22405.905,22608.945,21764.79
1764510646.609823,38729.52,51051.285,45068.67,51224.13,-11289.06,-22408.785,22605.885,21761.145
1764510646.6604252,38731.86,51053.895,45071.595,51226.83,-11286.225,-22406.22,22607.595,21763.08
1764510646.6604252,38729.61,51051.915,45069.885,51226.38,-11289.195,-22409.055,22606.11,21761.01
1764510646.6604252,38734.83,51056.82,45074.7,51231.555,-11285.055,-22404.285,22609.71,21766.185
1764510646.6604252,38733.93,51055.785,45072.99,51229.71,-11286.225,-22405.635,22608.63,21765.105
1764510646.6604252,38731.185,51052.635,45069.93,51226.92,-11289.195,-22408.785,22607.46,21761.235
1764510646.6604252,38730.015,51051.78,45068.265,51225.885,-11289.825,-22409.55,22606.02,21760.515
1764510646.6604252,38732.175,51053.985,45070.11,51227.685,-11288.205,-22406.94,22608.135,21763.26
1764510646.6604252,38733.345,51055.695,45071.73,51229.305,-11287.305,-22405.815,22608.99,21764.52
1764510646.6604252,38737.26,51059.745,45075.51,51234.255,-11283.255,-22401.99,22611.195,21768.165
1764510646.6604252,38734.875,51057.315,45073.125,51232.095,-11284.515,-22403.925,22609.35,21765.78
1764510646.6604252,38731.095,51052.635,45068.13,51228.135,-11288.655,-22408.2,22606.515,21762.135
1764510646.6604252,38735.1,51056.82,45071.91,51232.275,-11285.685,-22404.555,22609.125,21766.32
1764510646.6604252,38739.06,51060.69,45075.87,51235.74,-11281.635,-22400.73,22611.69,21769.695
1764510646.6604252,38735.82,51057.405,45071.91,51233.13,-11284.245,-22403.565,22608.72,21766.545
1764510646.6604252,38732.94,51053.76,45068.985,51230.385,-11287.125,-22406.94,22607.01,21763.71
1764510646.6604252,38732.13,51052.725,45068.535,51229.53,-11287.89,-22407.57,22606.56,21762.765
1764510646.6604252,38735.91,51055.92,45072.045,51232.905,-11284.56,-22404.915,22608.99,21765.78
1764510646.6604252,38734.83,51054.075,45070.11,51232.455,-11285.415,-22406.67,22608.18,21764.115
1764510646.6604252,38739.465,51059.07,45074.34,51236.46,-11281.365,-22402.215,22612.23,21768.57
1764510646.6604252,38737.305,51056.46,45071.91,51234.255,-11284.605,-22404.825,22610.745,21765.96
1764510646.6604252,38741.085,51060.87,45075.33,51237.27,-11280.645,-22401.54,22612.5,21769.065
1764510646.6604252,38740.725,51060.375,45075.285,51237.81,-11280.87,-22401.945,22612.635,21768.795
1764510646.7034378,38741.355,51060.555,45075.465,51236.91,-11280.465,-22402.215,22613.58,21769.02
1764510646.7044358,38737.26,51056.505,45071.73,51231.51,-11285.505,-22406.4,22610.745,21764.16
1764510646.7044358,38741.94,51061.41,45076.815,51235.515,-11280.645,-22402.125,22615.155,21767.985
1764510646.7044358,38741.085,51060.24,45075.78,51234.03,-11281.05,-22403.61,22614.885,21767.31
1764510646.7044358,38736.72,51056.82,45071.91,51229.395,-11284.605,-22408.38,22612.455,21764.205
1764510646.7044358,38736.675,51057.405,45072.405,51229.08,-11284.245,-22406.94,22612.32,21764.295
1764510646.7044358,38734.155,51053.715,45068.58,51226.065,-11288.34,-22410.27,22610.61,21761.64
1764510646.7044358,38735.37,51055.065,45070.2,51226.38,-11287.26,-22409.73,22611.51,21763.125
1764510646.7044358,38740.185,51061.095,45074.97,51230.835,-11282.04,-22404.825,22615.11,21767.58
1764510646.7044358,38739.15,51059.835,45073.26,51229.17,-11284.2,-22406.805,22614.21,21765.195
1764510646.7044358,38743.425,51065.1,45077.985,51232.905,-11279.835,-22403.115,22617.855,21769.785
1764510646.7044358,38737.845,51058.845,45071.055,51227.145,-11285.55,-22409.145,22614.12,21763.71
1764510646.7044358,38739.87,51060.24,45073.17,51228.225,-11283.48,-22407.705,22616.37,21765.87
1764510646.7056158,38743.92,51063.705,45076.995,51231.285,-11279.61,-22404.105,22619.16,21770.01
1764510646.7056158,38747.43,51067.035,45080.595,51234.12,-11276.865,-22401.54,22621.86,21773.43
1764510646.7056158,38745.675,51065.775,45079.155,51231.78,-11278.125,-22403.34,22620.645,21772.26
1764510646.7056158,38744.505,51065.235,45078.975,51230.7,-11279.205,-22404.69,22620.96,21771.27
1764510646.7056158,38744.01,51064.83,45078.435,51230.835,-11279.385,-22405.23,22620.42,21770.73
1764510646.7056158,38744.145,51065.595,45078.93,51230.88,-11278.665,-22404.15,22620.555,21771.405
1764510646.7056158,38742.615,51063.21,45076.68,51229.035,-11280.87,-22406.445,22618.62,21769.695
1764510646.7056158,38742.705,51062.445,45075.645,51229.035,-11281.725,-22407.165,22618.305,21769.245
1764510646.7056158,38735.865,51055.785,45068.085,51222.825,-11288.07,-22413.645,22613.085,21762.585
1764510646.7056158,38733.93,51054.255,45065.97,51221.88,-11289.06,-22414.635,22611.42,21760.965
1764510646.7056158,38732.13,51052.41,45064.26,51221.565,-11291.085,-22415.58,22610.16,21759.165
1764510646.748239,38733.03,51053.22,45065.16,51223.23,-11289.69,-22414.41,22610.61,21759.975
1764510646.748239,38735.505,51054.93,45067.455,51225.48,-11288.655,-22412.7,22611.465,21762.63
1764510646.748239,38736.585,51056.055,45068.805,51227.73,-11286.495,-22410.27,22612.095,21763.98
1764510646.748239,38738.835,51058.17,45071.145,51230.475,-11284.065,-22407.21,22612.455,21766.14
1764510646.748239,38741.445,51060.285,45073.395,51233.67,-11281.995,-22404.33,22613.895,21768.885
1764510646.748239,38742.615,51061.995,45073.98,51236.505,-11280.87,-22402.62,22614.435,21770.055
1764510646.748239,38743.2,51062.535,45075.06,51238.98,-11279.61,-22400.91,22615.02,21770.91
1764510646.748239,38738.16,51055.605,45069.255,51234.66,-11285.055,-22405.455,22610.925,21765.78
1764510646.748239,38743.2,51059.835,45073.215,51239.655,-11280.915,-22400.82,22613.085,21770.37
1764510646.748239,38742.345,51059.115,45072.18,51239.295,-11280.87,-22400.865,22611.645,21769.605
1764510646.7502494,38741.85,51058.62,45071.64,51238.665,-11281.5,-22400.37,22611.105,21769.56
1764510646.7502494,38738.115,51055.335,45067.68,51235.245,-11285.1,-22404.195,22608.99,21765.96
1764510646.7502494,38740.725,51058.395,45071.73,51237.945,-11282.445,-22401.495,22610.925,21768.885
1764510646.7502494,38738.835,51055.785,45069.345,51235.875,-11284.65,-22403.97,22609.575,21766.41
1764510646.751252,38735.325,51053.445,45066.195,51231.42,-11288.295,-22407.885,22607.415,21763.53
1764510646.751252,38738.07,51057.315,45069.57,51233.805,-11285.145,-22404.825,22609.935,21766.815
1764510646.751252,38740.545,51060.6,45072.495,51234.57,-11283.525,-22402.98,22612.815,21768.93
1764510646.751252,38735.775,51055.83,45067.545,51228.72,-11288.475,-22407.615,22608.81,21763.71
1764510646.751252,38739.96,51059.52,45072.27,51231.87,-11284.245,-22403.79,22611.645,21767.67
1764510646.751252,38741.76,51061.32,45074.16,51232.86,-11282.76,-22402.98,22613.535,21769.065
1764510646.751252,38742.12,51062.535,45074.385,51231.78,-11283.705,-22403.745,22614.12,21769.245
1764510646.751252,38737.98,51058.08,45069.93,51227.82,-11288.205,-22407.12,22611.15,21765.105
1764510646.7522483,38738.52,51058.71,45070.92,51228.585,-11287.035,-22406.49,22611.42,21765.69
1764510646.7522483,38738.385,51058.35,45070.425,51229.305,-11286.81,-22406.94,22611.06,21766.05
1764510646.7951353,38741.985,51061.365,45073.53,51232.5,-11283.795,-22403.115,22613.265,21769.785
1764510646.7951353,38742.66,51062.175,45074.925,51233.445,-11282.76,-22401.54,22614.345,21771.405
1764510646.7951353,38744.145,51063.255,45076.05,51235.56,-11281.14,-22399.92,22615.74,21772.71
1764510646.7951353,38736.81,51055.47,45067.77,51229.62,-11287.845,-22407.255,22610.16,21765.285
1764510646.7951353,38738.565,51056.91,45069.345,51231.105,-11285.685,-22405.77,22610.79,21767.13
1764510646.796148,38735.28,51053.085,45065.7,51228.27,-11288.88,-22409.64,22607.415,21763.395
1764510646.796148,38737.935,51055.83,45068.22,51230.565,-11286.45,-22406.85,22608.63,21765.915
1764510646.796148,38734.47,51052.005,45064.53,51227.055,-11290.68,-22410.63,22607.19,21762.45
1764510646.796148,38736.585,51053.085,45066.24,51228.225,-11290.005,-22409.91,22608.765,21764.115
1764510646.796148,38737.485,51054.525,45067.86,51229.845,-11288.97,-22407.795,22608.36,21766.095
1764510646.796148,38735.01,51052.545,45065.205,51226.83,-11291.76,-22410.945,22607.055,21762.585
1764510646.796148,38735.145,51052.275,45064.44,51226.92,-11292.39,-22411.53,22607.37,21762.495
1764510646.796148,38737.89,51054.84,45067.365,51229.26,-11289.42,-22408.245,22609.485,21765.915
1764510646.796148,38732.355,51047.46,45061.425,51223.185,-11295.405,-22414.41,22604.67,21759.12
1764510646.796148,38732.445,51047.82,45060.84,51222.69,-11295.09,-22414.95,22604.805,21758.67
1764510646.796148,38734.965,51051.285,45063.585,51225.12,-11291.895,-22412.025,22607.145,21761.64
1764510646.796148,38735.19,51051.465,45063.675,51224.805,-11292.12,-22412.16,22606.38,21761.73
1764510646.796148,38733.57,51049.98,45062.01,51223.365,-11293.245,-22413.51,22604.355,21760.02
1764510646.796148,38733.345,51050.07,45061.605,51222.87,-11293.2,-22413.555,22604.895,21759.975
1764510646.796148,38733.435,51049.935,45061.785,51222.42,-11293.56,-22413.96,22606.02,21759.66
1764510646.796148,38732.22,51048.945,45060.705,51221.52,-11294.73,-22415.67,22605.66,21758.265
1764510646.796148,38736.18,51053.67,45065.205,51226.02,-11291.22,-22411.98,22608.495,21762.9
1764510646.796148,38736.99,51053.985,45066.285,51227.685,-11290.23,-22410.36,22608.945,21763.8
1764510646.796148,38734.515,51051.51,45062.955,51225.255,-11292.93,-22412.565,22606.11,21760.47
1764510646.842245,38737.485,51053.625,45064.845,51227.37,-11291.58,-22411.17,22607.91,21762.495
1764510646.842245,38736.225,51052.905,45063.54,51227.955,-11291.4,-22410.54,22607.37,21762.27
1764510646.842245,38732.805,51049.125,45059.985,51224.535,-11294.055,-22413.24,22605.345,21759.57
1764510646.842245,38734.11,51051.105,45061.56,51226.65,-11292.615,-22411.305,22605.21,21760.92
1764510646.842245,38733.93,51051.33,45061.335,51226.785,-11292.66,-22411.53,22605.12,21760.605
1764510646.842245,38731.905,51048.63,45058.725,51225.39,-11295.405,-22414.59,22603.185,21758.535
1764510646.842245,38728.08,51044.13,45054.54,51221.79,-11299.005,-22418.415,22600.35,21754.53
1764510646.842245,38728.845,51044.13,45054.495,51223.05,-11298.555,-22417.335,22600.71,21755.25
1764510646.842245,38734.38,51051.33,45060.795,51228.405,-11293.245,-22411.53,22604.31,21760.785
1764510646.842245,38732.445,51048.765,45058.635,51226.245,-11295.045,-22414.185,22602.555,21758.49
1764510646.842245,38730.42,51046.38,45056.475,51224.805,-11297.565,-22416.39,22601.565,21756.555
1764510646.842245,38733.165,51049.395,45059.985,51228.135,-11294.91,-22412.97,22603.635,21760.02
1764510646.842245,38730.465,51046.695,45057.51,51225.3,-11297.295,-22415.04,22601.205,21757.545
1764510646.842245,38731.23,51047.19,45057.735,51225.885,-11296.53,-22415.355,22600.485,21757.86
1764510646.842245,38729.385,51044.58,45055.305,51223.005,-11298.465,-22418.73,22598.82,21755.205
1764510646.842245,38729.34,51044.76,45056.385,51223.185,-11297.88,-22418.685,22598.145,21756.105
1764510646.843758,38725.065,51040.44,45052.38,51219.27,-11302.92,-22423.005,22595.76,21752.19
1764510646.843758,38726.145,51041.16,45052.605,51219.54,-11302.065,-22422.195,22596.525,21753.18
1764510646.843758,38733.66,51047.55,45059.76,51225.885,-11295.675,-22416.03,22600.935,21759.795
1764510646.843758,38730.015,51043.86,45056.385,51222.87,-11299.005,-22419.18,22598.325,21755.61
1764510646.843758,38727.855,51042.33,45054.225,51220.53,-11301.345,-22421.565,22597.515,21753.36
1764510646.843758,38729.565,51044.625,45055.53,51221.745,-11298.645,-22419.72,22597.38,21755.475
1764510646.8911898,38729.34,51043.41,45055.08,51221.07,-11298.69,-22420.395,22597.515,21755.565
1764510646.8911898,38725.11,51038.235,45050.22,51217.56,-11303.505,-22424.805,22594.95,21750.57
1764510646.8911898,38724.975,51038.055,45050.625,51217.11,-11303.37,-22424.67,22594.23,21750.21
1764510646.8911898,38728.53,51041.43,45055.035,51221.025,-11298.96,-22420.17,22596.21,21753.0
1764510646.8911898,38729.7,51042.825,45056.61,51221.88,-11297.115,-22418.55,22597.605,21754.395
1764510646.8911898,38727.99,51040.755,45054.54,51219.54,-11298.195,-22419.945,22595.58,21753.405
1764510646.8911898,38728.98,51041.835,45054.945,51220.935,-11298.105,-22420.62,22596.03,21753.27
1764510646.8911898,38724.21,51037.335,45050.805,51216.795,-11302.47,-22424.625,22592.295,21748.68
1764510646.8911898,38726.235,51038.73,45053.505,51219.045,-11299.68,-22422.51,22593.15,21751.11
1764510646.8911898,38725.965,51038.145,45053.055,51219.045,-11299.905,-22422.915,22592.565,21750.345
1764510646.8911898,38727.135,51039.18,45053.82,51219.585,-11298.465,-22421.16,22593.555,21750.57
1764510646.8911898,38723.175,51035.805,45050.085,51216.39,-11301.165,-22425.255,22589.955,21746.475
1764510646.8911898,38725.335,51038.46,45051.93,51218.19,-11299.725,-22423.77,22591.17,21749.31
1764510646.8911898,38722.23,51035.355,45047.88,51215.58,-11303.55,-22425.795,22589.01,21746.43
1764510646.8911898,38726.82,51039.495,45052.335,51220.08,-11299.005,-22419.9,22592.745,21750.885
1764510646.8911898,38728.89,51041.97,45054.72,51222.555,-11297.385,-22417.47,22594.815,21752.91
1764510646.8911898,38729.79,51043.455,45056.07,51223.905,-11295.99,-22416.795,22595.13,21753.81
1764510646.8911898,38726.37,51039.45,45051.885,51220.305,-11299.365,-22420.035,22591.665,21750.3
1764510646.892737,38725.11,51038.955,45050.67,51219.54,-11300.715,-22421.565,22590.81,21749.985
1764510646.892737,38723.58,51036.93,45048.555,51218.685,-11302.245,-22422.465,22589.46,21748.23
1764510646.892737,38720.925,51033.96,45045.945,51216.03,-11305.035,-22425.03,22587.705,21745.44
1764510646.892737,38723.445,51036.525,45048.69,51218.235,-11302.785,-22422.87,22588.29,21747.195
1764510646.892737,38721.645,51035.22,45047.745,51217.875,-11303.415,-22423.545,22587.795,21745.8
1764510646.892737,38717.82,51031.575,45044.1,51214.005,-11306.79,-22427.19,22584.555,21742.47
1764510646.936102,38720.655,51034.68,45047.475,51216.885,-11304.135,-22423.905,22585.95,21745.26
1764510646.936102,38719.755,51034.545,45046.755,51217.2,-11304.315,-22423.185,22585.86,21745.305
1764510646.936102,38719.575,51034.32,45046.17,51216.84,-11304.36,-22422.555,22586.085,21745.035
1764510646.936102,38714.85,51029.01,45041.355,51212.52,-11309.625,-22427.37,22582.35,21739.86
1764510646.936102,38715.705,51029.1,45041.31,51213.195,-11309.175,-22427.64,22581.585,21739.725
1764510646.936102,38716.335,51029.685,45041.535,51214.95,-11308.14,-22426.74,22581.27,21740.67
1764510646.936102,38714.13,51027.39,45039.33,51213.375,-11309.94,-22428.855,22580.28,21738.78
1764510646.936102,38715.12,51028.695,45040.185,51214.77,-11308.635,-22427.46,22580.235,21740.13
1764510646.936102,38714.85,51027.75,45039.78,51214.86,-11309.04,-22427.955,22580.01,21739.905
1764510646.936102,38712.51,51025.32,45037.71,51212.7,-11311.695,-22431.195,22578.21,21736.935
1764510646.936102,38708.595,51020.73,45033.885,51207.57,-11315.07,-22435.605,22574.97,21732.75
1764510646.936102,38711.52,51023.52,45035.775,51209.37,-11312.685,-22433.265,22577.175,21735.18
1764510646.936102,38717.595,51029.685,45041.895,51215.13,-11306.385,-22426.965,22581.72,21741.93
1764510646.936102,38715.48,51027.705,45040.185,51213.285,-11307.78,-22428.9,22580.37,21740.04
1764510646.936102,38713.635,51026.265,45037.935,51211.305,-11309.49,-22430.925,22580.01,21738.33
1764510646.936102,38713.41,51025.23,45036.81,51210.045,-11310.705,-22432.815,22579.335,21738.24
1764510646.936102,38714.895,51026.985,45039.285,51212.07,-11309.085,-22431.87,22580.325,21739.77
1764510646.936102,38712.96,51025.32,45036.765,51210.72,-11310.975,-22433.805,22579.245,21738.06
1764510646.936102,38711.835,51023.385,45034.695,51208.38,-11312.64,-22435.695,22578.165,21735.855
1764510646.936102,38708.46,51020.145,45032.04,51204.42,-11316.15,-22439.655,22575.735,21732.525
1764510646.936102,38704.185,51016.32,45028.26,51200.1,-11320.155,-22444.245,22573.935,21728.745
1764510646.936102,38705.76,51017.535,45029.79,51201.315,-11318.265,-22443.12,22575.87,21730.725
1764510646.936102,38710.71,51022.665,45034.38,51205.95,-11314.44,-22438.665,22579.785,21735.27
1764510646.936102,38706.255,51018.66,45029.925,51200.64,-11318.94,-22442.715,22576.545,21730.635
1764510646.9850414,38708.73,51021.045,45031.635,51202.035,-11317.095,-22440.915,22578.21,21733.335
1764510646.9850414,38705.445,51017.49,45028.35,51198.165,-11320.965,-22444.74,22576.95,21730.14
1764510646.9855692,38707.02,51019.56,45030.78,51199.785,-11319.12,-22442.49,22578.615,21731.715
1764510646.9855692,38710.44,51022.17,45033.75,51201.765,-11316.735,-22439.97,22579.83,21734.82
1764510646.9855692,38709.135,51020.46,45031.275,51199.38,-11318.985,-22442.49,22580.1,21732.66
1764510646.9865837,38711.745,51023.475,45034.92,51202.53,-11316.78,-22440.285,22581.36,21735.405
1764510646.9865837,38712.195,51024.645,45036.09,51202.845,-11316.375,-22440.42,22581.54,21735.855
1764510646.9865837,38709.495,51021.405,45033.3,51200.955,-11318.715,-22443.48,22579.74,21732.93
1764510646.9865837,38713.77,51025.455,45037.17,51204.87,-11315.07,-22440.06,22583.205,21737.565
1764510646.9865837,38710.935,51022.26,45033.39,51200.91,-11319.39,-22443.21,22580.055,21733.74
1764510646.9874475,38707.695,51018.39,45029.52,51197.58,-11322.63,-22446.495,22577.895,21730.095
1764510646.9874475,38709.945,51020.01,45031.095,51198.93,-11320.47,-22444.74,22579.11,21732.66
1764510646.9874475,38707.02,51017.85,45028.485,51196.005,-11322.765,-22447.98,22577.58,21729.555
1764510646.9874475,38708.955,51020.01,45029.43,51197.175,-11322.27,-22446.72,22577.67,21730.185
1764510646.9874475,38707.56,51017.985,45027.54,51196.185,-11324.745,-22447.395,22577.085,21728.925
1764510646.9874475,38706.435,51017.805,45026.775,51194.925,-11325.645,-22447.8,22575.87,21728.385
1764510646.9884627,38705.535,51017.805,45026.37,51193.98,-11326.41,-22448.835,22574.835,21728.16
1764510646.9884627,38706.48,51018.345,45027.405,51194.52,-11325.285,-22447.845,22575.465,21729.42
1764510646.9884627,38711.88,51022.305,45031.545,51199.2,-11320.38,-22442.76,22578.3,21734.46
1764510646.9884627,38709.18,51020.235,45029.205,51197.445,-11322.585,-22444.875,22575.555,21731.94
1764510646.9884627,38707.695,51019.785,45028.845,51196.635,-11323.935,-22445.055,22574.205,21730.95
1764510646.9884627,38706.66,51018.12,45027.36,51195.195,-11325.51,-22446.18,22572.81,21729.465
1764510646.9884627,38706.795,51017.76,45027.36,51195.645,-11325.285,-22446.045,22573.71,21730.275
1764510646.9884627,38702.925,51013.935,45023.13,51192.495,-11328.075,-22449.6,22572.18,21727.755
1764510647.0347102,38703.06,51013.71,45022.545,51192.36,-11328.525,-22449.51,22571.955,21726.495
1764510647.0347102,38703.195,51014.115,45023.67,51192.9,-11328.795,-22449.105,22571.775,21726.855
1764510647.0347102,38705.175,51016.815,45025.83,51194.925,-11326.455,-22446.585,22573.26,21730.14
1764510647.0347102,38706.39,51017.805,45026.82,51196.905,-11324.835,-22445.505,22573.98,21731.805
1764510647.0347102,38710.71,51021.36,45030.51,51201.405,-11320.965,-22441.77,22576.185,21736.17
1764510647.0347102,38706.615,51016.68,45026.685,51198.21,-11324.295,-22444.56,22573.35,21731.175
1764510647.0347102,38709.135,51020.19,45030.285,51201.72,-11320.92,-22441.725,22575.105,21734.01
1764510647.0347102,38705.22,51015.735,45025.785,51198.03,-11324.565,-22445.37,22572.135,21730.095
1764510647.0360544,38707.965,51018.435,45028.485,51200.595,-11321.82,-22442.22,22573.71,21732.795
1764510647.0360544,38704.275,51014.835,45024.345,51196.77,-11325.06,-22446.315,22571.19,21728.88
1764510647.0360544,38707.11,51016.995,45027.495,51199.02,-11323.215,-22444.605,22573.035,21731.625
1764510647.0360544,38709.045,51018.705,45030.06,51202.62,-11319.975,-22441.77,22574.07,21733.38
1764510647.0360544,38706.3,51017.22,45027.585,51200.37,-11320.965,-22444.155,22572.72,21730.905
1764510647.0360544,38709.45,51020.91,45030.555,51203.52,-11317.545,-22440.825,22574.52,21733.785
1764510647.0360544,38710.62,51021.81,45031.995,51205.095,-11316.465,-22439.79,22576.005,21735.18
1764510647.0360544,38706.615,51017.4,45028.26,51201.18,-11320.605,-22443.255,22573.125,21731.4
1764510647.0360544,38710.395,51020.055,45031.5,51203.565,-11317.23,-22439.61,22573.8,21733.785
1764510647.0360544,38709.405,51018.885,45030.06,51202.17,-11318.985,-22440.33,22572.315,21733.56
1764510647.0360544,38706.03,51015.375,45026.28,51199.155,-11322.045,-22443.795,22571.37,21730.545
1764510647.0360544,38707.47,51016.005,45027.81,51200.145,-11320.065,-22442.58,22571.55,21731.31
1764510647.0360544,38704.275,51012.81,45024.075,51198.12,-11322.54,-22445.64,22569.66,21727.44
1764510647.0360544,38705.76,51014.52,45025.56,51199.605,-11319.48,-22442.85,22570.2,21729.195
1764510647.0782998,38706.705,51016.86,45028.035,51201.18,-11318.67,-22441.905,22572.405,21731.085
1764510647.0782998,38705.85,51015.195,45026.235,51200.01,-11320.335,-22442.94,22572.405,21729.735
1764510647.0782998,38709.18,51018.615,45029.025,51202.575,-11317.41,-22439.7,22574.16,21732.57
1764510647.0782998,38702.565,51011.64,45022.86,51197.085,-11323.26,-22446.405,22568.85,21726.36
1764510647.0782998,38704.725,51013.935,45025.065,51199.605,-11322.09,-22445.01,22569.84,21728.295
1764510647.0782998,38703.51,51012.45,45023.535,51198.795,-11324.07,-22446.99,22568.31,21726.765
1764510647.0782998,38699.73,51008.895,45019.395,51194.88,-11327.625,-22450.815,22566.195,21722.85
1764510647.0782998,38698.65,51008.04,45018.495,51193.035,-11328.66,-22451.04,22564.8,21721.995
1764510647.0782998,38701.35,51010.92,45021.735,51196.095,-11325.735,-22448.025,22566.78,21724.965
1764510647.0782998,38700.855,51010.245,45021.465,51195.105,-11326.59,-22448.565,22567.59,21723.885
1764510647.0782998,38701.575,51010.65,45021.105,51195.24,-11326.68,-22448.565,22568.49,21724.65
1764510647.0782998,38703.33,51012.27,45022.185,51196.455,-11324.34,-22446.54,22569.975,21726.495
1764510647.0782998,38709.585,51019.02,45029.205,51201.99,-11318.175,-22440.105,22575.33,21733.02
1764510647.0782998,38704.005,51013.08,45023.13,51196.905,-11324.07,-22445.46,22570.38,21726.81
1764510647.0782998,38704.77,51013.89,45023.895,51197.67,-11323.215,-22443.975,22570.56,21727.89
1764510647.0782998,38704.23,51014.16,45023.175,51196.905,-11323.17,-22444.38,22570.47,21727.035
1764510647.0782998,38703.87,51014.205,45022.905,51196.5,-11323.665,-22444.38,22570.335,21727.08
1764510647.0782998,38699.955,51009.48,45018.765,51192.27,-11327.04,-22448.61,22567.14,21723.12
1764510647.0782998,38702.835,51012.72,45021.78,51195.6,-11323.98,-22445.73,22569.03,21726.36
1764510647.0782998,38703.51,51014.34,45022.59,51196.32,-11324.115,-22445.19,22569.66,21727.305
1764510647.0782998,38705.49,51015.87,45024.255,51197.715,-11322.945,-22444.2,22571.82,21729.285
1764510647.0782998,38704.95,51014.97,45022.905,51196.275,-11324.115,-22444.74,22572.45,21728.745
1764510647.0782998,38711.475,51021.405,45029.52,51201.855,-11317.32,-22438.98,22577.895,21734.865
1764510647.0782998,38705.85,51016.545,45024.255,51197.31,-11322.855,-22444.83,22573.575,21728.835
1764510647.1257792,38702.745,51013.62,45022.005,51194.205,-11326.005,-22447.755,22571.145,21725.37
1764510647.1257792,38702.115,51012.495,45021.15,51193.26,-11326.77,-22448.655,22569.84,21724.785
1764510647.1257792,38704.545,51014.7,45022.455,51196.14,-11324.115,-22446.585,22571.145,21727.935
1764510647.1257792,38700.36,51009.795,45017.595,51191.685,-11329.29,-22451.67,22567.5,21722.985
1764510647.1257792,38699.685,51009.66,45017.01,51190.29,-11330.415,-22452.75,22567.68,21721.635
1764510647.1257792,38698.92,51009.255,45016.2,51190.335,-11330.46,-22452.795,22567.455,21721.005
1764510647.1267922,38698.335,51008.4,45015.975,51189.795,-11331.63,-22453.11,22566.735,21721.005
1764510647.1267922,38698.47,51008.76,45016.29,51189.525,-11330.73,-22453.38,22567.095,21722.22
1764510647.1267922,38703.15,51013.305,45020.385,51193.08,-11327.355,-22449.33,22569.93,21726.27
1764510647.1267922,38701.035,51010.785,45017.82,51190.605,-11329.245,-22451.985,22567.455,21723.615
1764510647.1267922,38698.83,51008.94,45015.75,51188.985,-11331.09,-22454.64,22565.925,21722.175
1764510647.1267922,38695.725,51004.53,45012.06,51184.71,-11335.32,-22458.735,22563.585,21718.26
1764510647.1267922,38697.075,51005.565,45013.725,51185.7,-11334.015,-22457.655,22564.215,21719.025
1764510647.1267922,38699.91,51009.03,45015.93,51189.12,-11330.64,-22454.55,22566.06,21722.13
1764510647.1267922,38698.875,51008.085,45015.795,51187.68,-11331.765,-22454.91,22566.915,21721.41
1764510647.1267922,38701.71,51010.83,45018.18,51189.03,-11329.605,-22452.075,22568.76,21723.39
1764510647.1267922,38702.205,51011.46,45019.035,51189.48,-11329.47,-22452.255,22569.165,21724.29
1764510647.1267922,38700.27,51009.705,45017.595,51187.815,-11331.225,-22454.145,22567.59,21722.715
1764510647.1267922,38699.46,51007.995,45016.38,51186.33,-11332.53,-22456.395,22567.095,21721.23
1764510647.1267922,38694.105,51002.595,45010.71,51181.335,-11338.155,-22462.38,22562.37,21715.515
1764510647.1267922,38699.01,51006.42,45014.715,51184.665,-11333.97,-22458.51,22565.385,21720.24
1764510647.1267922,38698.065,51005.52,45014.13,51183.18,-11335.095,-22459.185,22565.34,21719.88
1764510647.1711907,38700.27,51008.535,45016.74,51185.835,-11332.53,-22456.35,22566.06,21722.58
1764510647.1731987,38699.46,51008.31,45016.11,51185.52,-11332.755,-22456.395,22565.25,21722.625
1764510647.1731987,38698.425,51007.005,45014.805,51185.025,-11334.24,-22457.385,22565.025,21721.68
1764510647.1731987,38695.455,51003.81,45011.52,51182.055,-11337.48,-22460.13,22563.045,21718.395
1764510647.1731987,38697.3,51006.645,45014.625,51184.485,-11335.05,-22457.79,22565.295,21720.96
1764510647.1731987,38696.31,51005.16,45012.915,51182.325,-11336.94,-22460.13,22564.935,21718.98
1764510647.1731987,38700.405,51008.985,45016.425,51186.735,-11332.98,-22455.945,22567.14,21723.66
1764510647.1731987,38697.66,51005.97,45013.455,51184.62,-11335.995,-22458.915,22563.675,21720.51
1764510647.1731987,38697.165,51005.25,45013.68,51184.395,-11336.22,-22459.545,22563.135,21719.655
1764510647.1731987,38696.31,51004.485,45013.5,51183.72,-11337.165,-22460.22,22561.65,21718.845
1764510647.1731987,38693.205,51002.19,45010.35,51179.985,-11339.505,-22463.505,22559.76,21715.56
1764510647.1731987,38694.42,51003.495,45012.195,51181.605,-11337.93,-22462.11,22560.03,21717.18
1764510647.1731987,38700.18,51009.39,45018.81,51188.22,-11332.215,-22456.215,22564.26,21722.49
1764510647.1731987,38702.34,51011.325,45020.97,51190.245,-11331.09,-22455.09,22566.06,21723.84
1764510647.1731987,38705.355,51013.935,45023.445,51192.765,-11329.38,-22453.11,22567.275,21725.82
1764510647.1731987,38705.895,51014.61,45023.625,51193.755,-11327.715,-22451.175,22568.535,21727.08
1764510647.1731987,38707.56,51016.275,45026.055,51196.545,-11325.06,-22447.53,22570.92,21729.42
1764510647.1731987,38706.84,51015.78,45026.82,51197.13,-11324.52,-22446.405,22570.83,21730.005
1764510647.1731987,38707.38,51016.095,45027.315,51198.12,-11323.44,-22445.82,22572.045,21730.275
1764510647.1731987,38703.33,51012.72,45024.255,51195.735,-11325.51,-22448.43,22570.74,21726.495
1764510647.1731987,38704.32,51013.53,45025.425,51197.625,-11322.9,-22445.1,22572.9,21728.295
1764510647.1731987,38704.365,51012.585,45023.94,51197.445,-11323.125,-22444.11,22573.08,21728.205
1764510647.1731987,38705.58,51012.99,45025.38,51199.785,-11321.91,-22442.22,22574.61,21729.645
1764510647.1731987,38704.095,51011.595,45023.535,51198.57,-11322.09,-22442.22,22573.71,21729.06
1764510647.2187915,38703.285,51010.92,45022.635,51198.525,-11322.18,-22442.22,22572.81,21728.61
1764510647.2187915,38706.255,51014.385,45025.56,51202.485,-11317.68,-22437.945,22575.375,21731.715
1764510647.2187915,38705.22,51012.675,45024.12,51201.72,-11318.535,-22438.665,22575.465,21730.86
1764510647.2187915,38699.37,51005.205,45016.92,51195.825,-11324.34,-22443.795,22571.19,21725.1
1764510647.2187915,38703.375,51008.13,45019.305,51198.66,-11321.73,-22440.555,22573.62,21728.295
1764510647.2187915,38700.18,51004.755,45014.76,51194.565,-11325.105,-22444.065,22571.37,21725.37
1764510647.2187915,38697.12,51000.57,45009.36,51190.245,-11329.38,-22448.43,22569.57,21723.255
1764510647.2187915,38699.235,51001.11,45008.64,51189.93,-11329.47,-22448.43,22570.335,21725.01
1764510647.2187915,38696.805,50997.465,45004.68,51184.845,-11333.61,-22453.065,22568.355,21722.76
1764510647.2187915,38700.045,51001.38,45007.515,51187.275,-11331.18,-22451.04,22569.255,21725.46
1764510647.2187915,38702.43,51003.765,45009.9,51188.895,-11330.46,-22449.87,22569.3,21727.035
1764510647.2187915,38701.26,51003.405,45010.575,51189.48,-11331.63,-22452.12,22566.51,21725.91
1764510647.2198014,38701.98,51005.16,45013.095,51190.38,-11331.225,-22451.355,22566.105,21725.685
1764510647.2198014,38698.785,51002.73,45012.285,51187.995,-11333.07,-22454.235,22563.045,21721.905
1764510647.2198014,38695.77,50999.76,45009.405,51186.51,-11335.455,-22457.25,22560.885,21717.99
1764510647.2204783,38697.435,51001.83,45011.16,51188.76,-11334.24,-22456.35,22561.155,21719.07
1764510647.2207007,38703.51,51007.32,45016.92,51194.655,-11328.03,-22451.355,22564.845,21724.605
1764510647.2209084,38703.69,51007.95,45017.73,51194.745,-11327.67,-22449.69,22565.25,21724.83
1764510647.2209084,38702.115,51006.87,45016.875,51193.125,-11328.705,-22451.04,22564.935,21723.57
1764510647.2209084,38705.22,51009.75,45019.71,51195.735,-11325.51,-22448.07,22566.87,21726.045
1764510647.2209084,38704.68,51009.12,45019.395,51195.06,-11326.14,-22449.015,22566.195,21725.19
1764510647.2209084,38700.855,51005.025,45015.795,51191.865,-11329.83,-22452.48,22563.72,21721.815
1764510647.221921,38704.455,51008.58,45019.98,51195.105,-11326.32,-22448.385,22566.735,21725.64
1764510647.221921,38699.46,51004.26,45015.885,51190.74,-11330.505,-22451.715,22564.305,21721.365
1764510647.2691684,38701.395,51007.05,45017.82,51192.63,-11327.445,-22448.79,22565.61,21723.615
1764510647.2696033,38697.795,51004.125,45013.905,51189.93,-11331.45,-22453.875,22562.28,21718.98
1764510647.2696033,38699.37,51005.88,45015.75,51190.92,-11330.865,-22452.705,22563.045,21720.15
1764510647.2696033,38703.555,51009.57,45019.755,51195.015,-11326.14,-22448.745,22565.565,21724.92
1764510647.2696033,38704.995,51011.37,45020.835,51195.96,-11324.655,-22447.89,22567.05,21726.315
1764510647.2701771,38704.5,51010.605,45019.71,51195.105,-11325.015,-22448.205,22566.825,21725.82
1764510647.2702134,38703.825,51010.155,45018.81,51194.385,-11326.095,-22449.195,22567.635,21725.28
1764510647.2702134,38706.3,51012.855,45020.61,51196.275,-11323.53,-22446.81,22568.445,21727.44
1764510647.2702134,38707.335,51013.53,45020.925,51196.545,-11322.855,-22445.865,22569.345,21728.745
1764510647.2702134,38705.13,51011.28,45018.675,51193.53,-11325.465,-22448.565,22566.645,21726.765
1764510647.2702134,38700.54,51006.69,45014.76,51188.94,-11330.19,-22453.29,22564.17,21722.175
1764510647.2702134,38699.82,51005.655,45013.545,51187.905,-11330.73,-22453.92,22563.585,21720.555
1764510647.2702134,38701.35,51006.96,45014.49,51189.57,-11329.605,-22452.84,22565.115,21722.085
1764510647.2702134,38700.36,51006.33,45014.13,51188.715,-11329.92,-22453.47,22564.305,21721.635
1764510647.2702134,38700.135,51006.105,45014.085,51188.22,-11330.82,-22453.83,22564.305,21721.545
1764510647.2712202,38700.09,51005.34,45013.5,51187.275,-11331.495,-22454.055,22563.36,21720.915
1764510647.2712202,38699.91,51005.52,45013.95,51187.32,-11331.315,-22453.29,22563.99,21721.095
1764510647.2712202,38701.26,51007.77,45015.885,51189.705,-11328.255,-22451.4,22565.925,21723.21
1764510647.2712202,38705.085,51012.495,45020.115,51193.485,-11324.52,-22447.845,22568.085,21727.035
1764510647.2712202,38701.71,51008.67,45015.795,51189.345,-11328.615,-22451.715,22564.845,21723.21
1764510647.2712202,38700.27,51007.095,45013.95,51188.535,-11330.28,-22452.795,22564.485,21721.815
1764510647.2712202,38703.825,51010.335,45017.505,51191.865,-11327.13,-22449.375,22566.78,21724.92
1764510647.2712202,38701.98,51007.905,45015.615,51190.38,-11328.84,-22451.895,22565.655,21723.66
1764510647.2712202,38704.815,51009.48,45017.865,51192.72,-11326.14,-22449.105,22566.735,21726.315
1764510647.3130617,38702.79,51007.635,45015.66,51191.37,-11328.12,-22450.185,22565.43,21723.975
1764510647.3130617,38698.92,51003.585,45011.34,51188.4,-11332.215,-22454.19,22563.135,21719.385
1764510647.3130617,38698.65,51002.91,45011.34,51188.4,-11332.395,-22455.0,22562.235,21719.115
1764510647.3130617,38699.145,51003.585,45011.385,51188.805,-11330.64,-22454.01,22561.785,21719.835
1764510647.3130617,38703.33,51006.87,45014.4,51192.54,-11327.04,-22449.69,22564.17,21723.435
1764510647.3130617,38699.91,51004.08,45011.295,51190.425,-11330.955,-22452.795,22561.38,21720.15
1764510647.314592,38701.305,51005.835,45014.04,51191.91,-11329.695,-22451.58,22562.91,21721.77
1764510647.314592,38704.635,51008.67,45016.785,51195.105,-11325.825,-22448.97,22565.07,21724.605
1764510647.314592,38704.23,51008.175,45015.075,51194.835,-11326.86,-22449.375,22564.8,21723.975
1764510647.314592,38698.83,51002.82,45010.125,51188.94,-11332.17,-22454.415,22561.2,21719.34
1764510647.314592,38699.28,51003.135,45010.71,51189.39,-11331.855,-22454.64,22561.785,21720.06
1764510647.314592,38700.945,51005.025,45012.42,51191.145,-11329.965,-22452.66,22562.1,21721.41
1764510647.314592,38700.045,51004.71,45011.295,51190.425,-11330.685,-22453.38,22561.875,21721.05
1764510647.314592,38699.145,51003.99,45010.575,51189.435,-11331.54,-22454.235,22562.325,21720.15
1764510647.314592,38698.065,51003.135,45009.585,51188.715,-11332.17,-22455.09,22561.2,21719.385
1764510647.314592,38693.205,50997.33,45004.32,51184.53,-11336.22,-22459.995,22556.52,21714.48
1764510647.314592,38690.505,50993.955,45001.305,51181.11,-11339.505,-22463.685,22554.72,21712.005
1764510647.314592,38692.62,50996.88,45004.185,51183.18,-11336.715,-22461.12,22555.98,21714.12
1764510647.314592,38692.035,50996.16,45003.33,51182.55,-11337.525,-22462.245,22555.62,21713.355
1764510647.314592,38694.015,50997.96,45005.94,51184.08,-11335.77,-22460.625,22556.43,21715.785
1764510647.314592,38691.315,50994.36,45002.7,51180.03,-11338.605,-22464.36,22554.18,21712.545
1764510647.314592,38689.38,50991.66,45000.135,51177.78,-11340.585,-22466.385,22551.57,21710.43
1764510647.314592,38690.37,50993.055,45001.62,51179.085,-11338.965,-22465.08,22552.605,21712.05
1764510647.314592,38694.51,50997.24,45005.085,51183.585,-11335.05,-22461.705,22554.36,21715.245
1764510647.3597202,38695.5,50998.23,45005.67,51184.935,-11334.105,-22460.715,22555.665,21716.73
1764510647.3597202,38690.46,50993.28,45000.72,51180.57,-11339.01,-22465.53,22552.245,21712.32
1764510647.3602538,38694.105,50997.15,45005.535,51183.63,-11335.005,-22462.02,22554.765,21716.505
1764510647.3602538,38692.665,50996.79,45004.5,51182.55,-11335.455,-22462.47,22553.955,21716.055
1764510647.3602538,38688.93,50992.2,45001.035,51179.535,-11339.37,-22466.16,22551.345,21711.825
1764510647.3602538,38688.66,50992.155,45001.035,51178.995,-11339.1,-22466.025,22550.76,21711.42
1764510647.3602538,38690.505,50994.495,45002.88,51180.345,-11337.525,-22463.415,22552.065,21713.13
1764510647.3602538,38693.97,50998.005,45005.805,51182.955,-11334.33,-22460.445,22552.83,21716.235
1764510647.3602538,38692.62,50996.925,45005.4,51182.595,-11335.23,-22461.57,22551.66,21715.245
1764510647.3602538,38686.86,50990.985,45000.855,51177.555,-11339.775,-22464.81,22548.15,21710.07
1764510647.3602538,38690.145,50993.865,45003.69,51179.985,-11337.12,-22462.695,22548.825,21712.23
1764510647.3602538,38688.705,50993.37,45002.52,51178.365,-11338.56,-22464.27,22547.43,21711.06
1764510647.3602538,38690.145,50994.585,45003.915,51179.085,-11337.345,-22462.83,22548.6,21712.635
1764510647.3602538,38688.705,50993.505,45003.555,51178.05,-11338.515,-22463.46,22547.385,21711.285
1764510647.3602538,38685.06,50990.265,44999.595,51174.63,-11342.115,-22466.565,22544.865,21707.685
1764510647.3602538,38683.08,50989.005,44997.66,51173.28,-11343.465,-22468.23,22542.75,21706.02
1764510647.3602538,38683.755,50989.455,44998.245,51174.27,-11342.43,-22467.555,22542.12,21706.74
1764510647.3602538,38687.13,50993.01,45001.935,51178.185,-11339.145,-22463.235,22543.83,21710.43
1764510647.3602538,38689.875,50995.485,45004.545,51180.03,-11336.94,-22460.805,22546.17,21712.455
1764510647.3602538,38690.415,50995.89,45005.22,51181.56,-11336.22,-22459.995,22546.89,21713.67
1764510647.3602538,38689.785,50994.945,45004.905,51182.145,-11335.815,-22459.995,22547.07,21713.535
1764510647.3602538,38687.85,50993.37,45003.105,51180.345,-11337.705,-22461.48,22545.495,21711.645
