Timestamp,Channel1,Channel2,Channel3,Channel4,Channel5,Channel6,Channel7,Channel8
1764510723.0990438,-4482.99,-38650.77,-31774.5,-5961.105,-6502.724999999999,-38660.355,-23548.905,-25188.3
1764510723.0990438,-4483.26,-38649.78,-31772.79,-5959.08,-6501.465,-38658.915,-23549.445,-25190.73
1764510723.0990438,-4483.44,-38650.545,-31773.33,-5959.26,-6502.005,-38659.815,-23550.795,-25195.32
1764510723.0990438,-4485.645,-38653.155,-31775.715,-5961.69,-6504.435,-38662.155,-23554.395,-25201.575
1764510723.0990438,-4487.22,-38654.775,-31778.01,-5964.075,-6506.505,-38665.215,-23555.79,-25206.165
1764510723.0990438,-4492.755,-38659.77,-31784.265,-5969.565,-6511.679999999999,-38672.145,-23561.19,-25214.13
1764510723.0990438,-4494.24,-38660.625,-31786.47,-5970.87,-6513.48,-38673.585,-23562.72,-25218.09
1764510723.0990438,-4489.425,-38654.505,-31780.755,-5965.56,-6508.08,-38667.825,-23558.31,-25216.155
1764510723.0990438,-4489.605,-38654.82,-31781.745,-5967.09,-6509.429999999999,-38669.49,-23558.175,-25219.755
1764510723.0990438,-4495.139999999999,-38661.39,-31788.315,-5973.344999999999,-6515.865,-38676.465,-23563.845,-25230.105
1764510723.0990438,-4496.804999999999,-38661.84,-31788.99,-5973.66,-6516.405,-38677.14,-23563.935,-25234.38
1764510723.0990438,-4494.42,-38657.52,-31785.12,-5970.33,-6513.165,-38674.17,-23562.045,-25234.695
1764510723.0990438,-4491.045,-38653.155,-31781.025,-5965.469999999999,-6508.53,-38670.12,-23557.905,-25232.58
1764510723.0990438,-4497.12,-38660.13,-31788.315,-5971.455,-6514.92,-38676.555,-23563.305,-25239.87
1764510723.0990438,-4494.33,-38657.835,-31786.065,-5969.205,-6512.49,-38674.125,-23561.415,-25239.24
1764510723.0990438,-4494.42,-38658.105,-31785.48,-5967.54,-6512.175,-38674.305,-23561.73,-25239.78
1764510723.0990438,-4495.59,-38659.725,-31786.92,-5967.855,-6513.165,-38675.475,-23563.665,-25240.95
1764510723.0990438,-4496.22,-38660.13,-31786.785,-5967.585,-6513.84,-38675.745,-23564.97,-25244.415
1764510723.0990438,-4499.505,-38662.47,-31788.63,-5968.98,-6515.46,-38677.365,-23566.68,-25249.095
1764510723.0990438,-4506.03,-38667.555,-31793.58,-5974.469999999999,-6520.679999999999,-38682.585,-23570.955,-25256.43
1764510723.0990438,-4509.179999999999,-38669.445,-31795.065,-5975.775,-6521.49,-38683.845,-23571.81,-25259.625
1764510723.0990438,-4504.905,-38664.09,-31789.215,-5970.69,-6515.73,-38677.905,-23566.815,-25255.62
1764510723.0990438,-4504.32,-38664.36,-31789.215,-5970.285,-6516.224999999999,-38678.445,-23565.915,-25255.665
1764510723.1000624,-4507.38,-38668.14,-31793.445,-5973.525,-6519.645,-38682.27,-23569.155,-25260.48
1764510723.1466415,-4511.655,-38673.99,-31799.295,-5978.79,-6525.9,-38688.75,-23573.385,-25265.52
1764510723.1466415,-4506.615,-38667.105,-31792.905,-5973.03,-6519.465,-38682.18,-23568.39,-25261.56
1764510723.1466415,-4505.355,-38663.685,-31790.43,-5970.375,-6516.179999999999,-38679.795,-23566.275,-25258.905
1764510723.1466415,-4507.38,-38664.27,-31791.24,-5970.87,-6515.865,-38679.705,-23566.77,-25258.635
1764510723.1466415,-4512.96,-38670.39,-31796.865,-5976.63,-6521.219999999999,-38685.24,-23572.215,-25263.45
1764510723.1466415,-4513.095,-38668.995,-31795.605,-5975.01,-6519.78,-38684.16,-23572.305,-25261.695
1764510723.1466415,-4509.99,-38664.855,-31792.14,-5971.005,-6515.73,-38679.795,-23569.695,-25256.925
1764510723.1466415,-4512.15,-38666.52,-31794.57,-5973.974999999999,-6517.755,-38681.775,-23571.81,-25257.195
1764510723.1466415,-4508.82,-38663.64,-31791.465,-5970.645,-6514.155,-38679.48,-23569.83,-25251.3
1764510723.1466415,-4511.745,-38666.835,-31794.84,-5973.12,-6517.665,-38682.855,-23574.6,-25251.12
1764510723.1466415,-4506.165,-38660.49,-31789.08,-5967.63,-6512.219999999999,-38676.87,-23570.955,-25241.895
1764510723.1466415,-4504.5,-38659.995,-31788.9,-5966.955,-6510.915,-38675.565,-23571.63,-25237.08
1764510723.1466415,-4506.21,-38663.91,-31792.77,-5970.105,-6513.795,-38678.67,-23575.185,-25235.865
1764510723.1466415,-4500.63,-38655.855,-31784.94,-5962.545,-6505.92,-38671.38,-23570.19,-25225.29
1764510723.1466415,-4501.215,-38657.07,-31786.515,-5963.04,-6506.82,-38673.135,-23573.07,-25222.05
1764510723.1466415,-4494.51,-38650.815,-31779.72,-5955.885,-6500.115,-38665.89,-23568.885,-25213.68
1764510723.1466415,-4491.675,-38650.095,-31778.325,-5954.625,-6499.665,-38664.495,-23568.255,-25209.72
1764510723.1466415,-4487.715,-38646.09,-31774.59,-5951.025,-6496.065,-38661.39,-23565.915,-25205.04
1764510723.1476598,-4485.24,-38645.955,-31774.5,-5950.62,-6495.435,-38660.805,-23565.375,-25201.08
1764510723.1476598,-4484.115,-38646.045,-31774.905,-5950.98,-6495.344999999999,-38661.075,-23567.805,-25200.63
1764510723.1476598,-4482.0,-38643.885,-31773.42,-5949.719999999999,-6494.219999999999,-38659.725,-23569.11,-25198.29
1764510723.1476598,-4478.4,-38641.095,-31771.395,-5947.245,-6491.79,-38657.79,-23569.335,-25193.88
1764510723.193746,-4474.44,-38638.845,-31770.99,-5946.165,-6490.125,-38657.07,-23568.795,-25190.325
1764510723.1947613,-4472.235,-38640.87,-31773.51,-5948.73,-6492.014999999999,-38659.14,-23571.0,-25188.705
1764510723.1947613,-4475.34,-38649.51,-31782.33,-5956.469999999999,-6500.925,-38667.33,-23578.02,-25191.495
1764510723.1947613,-4472.775,-38648.655,-31781.565,-5956.29,-6499.935,-38666.565,-23579.865,-25187.715
1764510723.1947613,-4469.04,-38647.62,-31780.935,-5956.02,-6499.98,-38665.845,-23579.685,-25183.395
1764510723.1947613,-4464.855,-38645.82,-31779.27,-5954.58,-6499.395,-38664.27,-23577.93,-25179.57
1764510723.1947613,-4456.665,-38642.355,-31776.48,-5951.07,-6495.75,-38661.255,-23574.15,-25171.74
1764510723.1947613,-4454.775,-38643.705,-31778.82,-5952.915,-6496.695,-38662.605,-23574.69,-25169.535
1764510723.1957583,-4453.695,-38645.91,-31781.295,-5955.12,-6499.215,-38664.09,-23575.275,-25167.825
1764510723.1957583,-4455.63,-38651.985,-31787.01,-5960.745,-6505.11,-38670.12,-23580.72,-25170.93
1764510723.1957583,-4453.245,-38650.545,-31785.255,-5959.215,-6503.355,-38668.005,-23579.595,-25169.31
1764510723.1957583,-4444.605,-38641.725,-31777.785,-5951.25,-6495.389999999999,-38659.545,-23572.8,-25163.1
1764510723.1957583,-4442.445,-38641.77,-31778.145,-5951.429999999999,-6496.11,-38659.95,-23571.36,-25161.93
1764510723.1957583,-4441.545,-38643.48,-31779.225,-5952.915,-6497.775,-38661.57,-23571.495,-25162.38
1764510723.1957583,-4439.385,-38644.155,-31779.495,-5953.455,-6498.855,-38662.155,-23571.675,-25161.795
1764510723.1957583,-4437.27,-38643.975,-31780.62,-5954.264999999999,-6499.395,-38662.65,-23572.035,-25161.66
1764510723.1957583,-4433.445,-38641.905,-31779.63,-5953.185,-6498.585,-38661.48,-23571.45,-25160.67
1764510723.197273,-4431.33,-38642.4,-31780.26,-5953.995,-6499.215,-38661.84,-23572.08,-25161.255
1764510723.1976843,-4429.53,-38644.605,-31781.61,-5955.525,-6500.745,-38664.0,-23575.005,-25161.21
1764510723.1976843,-4430.565,-38647.485,-31785.39,-5958.855,-6504.03,-38668.32,-23579.55,-25164.27
1764510723.1982925,-4423.995,-38642.49,-31779.63,-5953.05,-6498.719999999999,-38663.415,-23575.68,-25159.005
1764510723.1982925,-4419.54,-38640.15,-31777.155,-5950.17,-6495.48,-38660.4,-23574.42,-25158.015
1764510723.1982925,-4421.745,-38645.955,-31783.14,-5955.12,-6501.014999999999,-38665.395,-23578.83,-25161.615
1764510723.1982925,-4420.53,-38647.305,-31783.59,-5955.255,-6502.23,-38666.34,-23579.775,-25161.75
1764510723.2388582,-4416.84,-38646.135,-31781.475,-5952.735,-6500.565,-38663.775,-23579.145,-25161.435
1764510723.2388582,-4409.595,-38640.555,-31775.4,-5945.985,-6494.219999999999,-38656.26,-23574.69,-25156.53
1764510723.2388582,-4408.065,-38641.455,-31776.345,-5947.02,-6495.165,-38657.025,-23576.04,-25156.44
1764510723.2388582,-4409.235,-38643.885,-31777.92,-5948.955,-6497.594999999999,-38659.95,-23578.83,-25158.645
1764510723.2388582,-4409.639999999999,-38646.315,-31779.72,-5950.17,-6499.889999999999,-38662.065,-23582.115,-25159.725
1764510723.2388582,-4414.32,-38651.22,-31785.165,-5954.67,-6504.84,-38667.51,-23588.505,-25164.18
1764510723.2388582,-4413.375,-38648.07,-31782.96,-5952.195,-6501.735,-38664.54,-23587.245,-25163.505
1764510723.2388582,-4407.57,-38641.095,-31775.94,-5945.715,-6494.445,-38657.97,-23582.43,-25160.85
1764510723.2388582,-4411.17,-38647.755,-31782.15,-5951.295,-6500.115,-38663.82,-23587.605,-25167.24
1764510723.2388582,-4405.41,-38641.86,-31775.4,-5944.95,-6493.545,-38656.845,-23583.915,-25163.19
1764510723.2388582,-4402.935,-38640.285,-31772.97,-5942.115,-6491.429999999999,-38654.595,-23582.79,-25162.38
1764510723.2388582,-4403.16,-38639.79,-31772.79,-5941.17,-6490.215,-38654.37,-23583.645,-25163.37
1764510723.2388582,-4403.655,-38642.49,-31775.985,-5943.78,-6492.285,-38657.52,-23583.87,-25164.99
1764510723.2388582,-4406.22,-38645.145,-31779.855,-5947.695,-6496.38,-38661.075,-23586.075,-25168.77
1764510723.2409172,-4407.795,-38646.315,-31781.16,-5948.505,-6498.045,-38662.29,-23587.065,-25171.245
1764510723.2409172,-4408.965,-38646.99,-31780.98,-5948.054999999999,-6498.719999999999,-38662.695,-23588.325,-25173.945
1764510723.241933,-4413.87,-38653.605,-31787.415,-5954.264999999999,-6504.929999999999,-38669.22,-23592.87,-25181.73
1764510723.241933,-4413.375,-38653.155,-31785.84,-5953.139999999999,-6503.985,-38668.32,-23593.68,-25183.08
1764510723.241933,-4407.435,-38645.37,-31778.73,-5945.355,-6496.74,-38661.165,-23589.09,-25178.355
1764510723.241933,-4407.795,-38645.325,-31778.55,-5944.995,-6496.74,-38661.57,-23589.72,-25180.02
1764510723.241933,-4412.565,-38648.385,-31782.015,-5948.099999999999,-6499.349999999999,-38665.665,-23594.04,-25186.23
1764510723.241933,-4408.47,-38640.33,-31774.32,-5940.719999999999,-6491.88,-38658.915,-23588.37,-25183.755
1764510723.241933,-4411.125,-38641.77,-31776.75,-5942.655,-6493.95,-38660.85,-23588.505,-25187.895
1764510723.241933,-4420.845,-38651.805,-31787.505,-5953.094999999999,-6504.21,-38671.29,-23597.55,-25198.965
1764510723.2835443,-4424.264999999999,-38655.675,-31790.835,-5956.695,-6508.035,-38675.25,-23600.52,-25203.465
1764510723.2835443,-4426.335,-38655.27,-31791.915,-5956.74,-6507.495,-38676.195,-23601.555,-25204.77
1764510723.2835443,-4426.02,-38653.92,-31790.925,-5955.389999999999,-6505.29,-38674.62,-23601.24,-25205.85
1764510723.2835443,-4421.34,-38646.09,-31782.195,-5947.065,-6497.19,-38665.98,-23596.065,-25200.63
1764510723.2835443,-4421.745,-38643.39,-31779.27,-5945.535,-6495.57,-38663.64,-23595.615,-25200.045
1764510723.2835443,-4425.3,-38645.73,-31781.745,-5947.74,-6497.685,-38666.565,-23597.865,-25203.6
1764510723.2835443,-4431.915,-38652.345,-31788.405,-5953.679999999999,-6502.995,-38673.225,-23602.365,-25209.09
1764510723.2835443,-4427.595,-38644.11,-31780.89,-5946.12,-6494.58,-38665.395,-23596.515,-25203.915
1764510723.2835443,-4426.74,-38642.265,-31779.135,-5944.094999999999,-6492.78,-38664.54,-23594.985,-25203.465
1764510723.2858112,-4435.38,-38650.275,-31787.685,-5952.825,-6500.115,-38672.37,-23603.265,-25211.88
1764510723.2858112,-4436.955,-38651.445,-31788.765,-5954.085,-6501.195,-38672.595,-23603.895,-25212.33
1764510723.2858112,-4433.804999999999,-38647.26,-31784.085,-5949.764999999999,-6497.19,-38668.23,-23599.215,-25209.54
1764510723.2858112,-4434.255,-38646.585,-31784.49,-5949.99,-6497.46,-38668.41,-23597.865,-25210.08
1764510723.2858112,-4435.29,-38645.19,-31784.4,-5949.495,-6495.435,-38666.79,-23596.965,-25210.44
1764510723.2858112,-4435.47,-38644.155,-31783.005,-5948.73,-6494.219999999999,-38665.62,-23597.235,-25211.385
1764510723.2858112,-4435.875,-38643.885,-31782.96,-5948.639999999999,-6494.445,-38665.305,-23597.685,-25212.42
1764510723.2858112,-4440.465,-38648.16,-31787.955,-5952.96,-6498.36,-38669.805,-23601.42,-25215.12
1764510723.2858112,-4434.525,-38639.745,-31778.91,-5944.139999999999,-6489.855,-38660.94,-23595.03,-25208.91
1764510723.2858112,-4432.77,-38636.82,-31775.625,-5942.115,-6487.469999999999,-38657.79,-23592.51,-25207.47
1764510723.2858112,-4436.37,-38638.845,-31778.37,-5945.264999999999,-6489.855,-38660.13,-23596.29,-25210.395
1764510723.2858112,-4439.16,-38642.13,-31781.7,-5948.099999999999,-6492.645,-38663.595,-23600.745,-25212.195
1764510723.2858112,-4443.389999999999,-38647.125,-31786.56,-5952.96,-6497.28,-38668.365,-23607.27,-25217.145
1764510723.2858112,-4444.83,-38648.745,-31788.765,-5954.355,-6498.675,-38669.22,-23608.44,-25217.415
1764510723.2858112,-4443.345,-38647.305,-31788.495,-5953.365,-6497.955,-38668.365,-23608.53,-25215.57
1764510723.330068,-4440.87,-38645.73,-31788.09,-5952.915,-6497.28,-38667.105,-23606.955,-25213.185
1764510723.330068,-4436.46,-38642.13,-31784.355,-5949.315,-6493.545,-38663.37,-23602.905,-25208.955
1764510723.330068,-4440.915,-38648.79,-31791.15,-5956.02,-6500.61,-38670.525,-23608.08,-25213.455
1764510723.330068,-4439.429999999999,-38645.415,-31788.36,-5953.32,-6497.415,-38668.32,-23607.09,-25210.935
1764510723.330068,-4430.295,-38637.18,-31780.44,-5944.86,-6489.179999999999,-38660.445,-23601.555,-25202.925
1764510723.330068,-4432.139999999999,-38642.445,-31785.705,-5950.62,-6493.995,-38665.89,-23607.315,-25205.265
1764510723.330068,-4431.554999999999,-38643.39,-31787.055,-5952.014999999999,-6496.11,-38667.87,-23608.035,-25205.31
1764510723.330068,-4426.695,-38640.105,-31785.57,-5950.8,-6494.13,-38665.26,-23606.415,-25201.17
1764510723.3305798,-4417.74,-38633.13,-31780.215,-5945.715,-6488.19,-38658.645,-23602.23,-25193.43
1764510723.3305798,-4411.889999999999,-38632.545,-31780.17,-5945.31,-6487.965,-38658.735,-23602.68,-25189.92
1764510723.3305798,-4407.389999999999,-38635.2,-31783.005,-5947.2,-6489.719999999999,-38660.805,-23604.39,-25187.22
1764510723.3305798,-4402.755,-38635.92,-31783.905,-5947.965,-6490.935,-38662.38,-23605.785,-25183.17
1764510723.3305798,-4398.57,-38637.135,-31785.48,-5949.315,-6493.139999999999,-38663.19,-23606.73,-25180.29
1764510723.3311217,-4391.82,-38634.345,-31781.79,-5946.165,-6489.675,-38659.32,-23605.02,-25174.62
1764510723.3311217,-4387.139999999999,-38632.23,-31780.44,-5944.905,-6488.775,-38657.745,-23604.03,-25169.4
1764510723.3311217,-4385.565,-38633.04,-31781.295,-5945.76,-6489.719999999999,-38657.925,-23605.695,-25167.015
1764510723.3311217,-4381.29,-38632.365,-31781.655,-5945.67,-6489.045,-38657.61,-23606.19,-25163.505
1764510723.3311217,-4382.595,-38637.18,-31787.37,-5952.465,-6494.58,-38663.64,-23613.93,-25164.18
1764510723.3311217,-4379.58,-38636.055,-31787.955,-5952.915,-6494.804999999999,-38664.315,-23616.18,-25158.96
1764510723.3311217,-4370.67,-38628.0,-31781.43,-5945.13,-6486.66,-38656.305,-23611.5,-25148.7
1764510723.3311217,-4366.305,-38626.38,-31781.925,-5944.724999999999,-6486.075,-38655.54,-23611.41,-25144.965
1764510723.3311217,-4364.55,-38626.83,-31783.365,-5945.895,-6487.2,-38655.945,-23613.03,-25144.38
1764510723.3311217,-4365.63,-38632.815,-31788.99,-5951.385,-6492.78,-38661.795,-23618.52,-25147.395
1764510723.3311217,-4358.07,-38626.065,-31782.69,-5945.58,-6486.255,-38655.45,-23613.615,-25141.815
1764510723.3749683,-4355.46,-38627.28,-31783.905,-5946.48,-6486.84,-38656.08,-23613.435,-25142.265
1764510723.3749683,-4361.22,-38635.02,-31792.365,-5954.804999999999,-6495.84,-38665.215,-23621.31,-25150.14
1764510723.3749683,-4359.465,-38636.505,-31793.31,-5956.245,-6497.415,-38666.565,-23621.58,-25151.94
1764510723.3749683,-4352.625,-38631.465,-31788.675,-5951.295,-6492.645,-38661.57,-23617.89,-25148.16
1764510723.376566,-4350.555,-38632.815,-31791.24,-5953.455,-6494.219999999999,-38663.595,-23618.88,-25149.195
1764510723.376566,-4348.62,-38633.895,-31793.76,-5956.56,-6496.335,-38666.205,-23621.4,-25151.625
1764510723.376566,-4353.255,-38642.085,-31802.04,-5965.514999999999,-6505.02,-38674.485,-23628.51,-25158.78
1764510723.376566,-4352.58,-38641.455,-31802.265,-5965.74,-6505.065,-38674.89,-23630.13,-25159.32
1764510723.376566,-4345.965,-38634.435,-31796.235,-5959.98,-6498.405,-38668.59,-23624.865,-25151.715
1764510723.376566,-4344.705,-38632.635,-31794.255,-5958.585,-6496.29,-38666.52,-23623.74,-25149.825
1764510723.376566,-4348.035,-38636.055,-31797.63,-5961.645,-6499.259999999999,-38669.985,-23626.17,-25151.58
1764510723.376566,-4356.54,-38642.67,-31803.48,-5968.08,-6506.37,-38675.835,-23633.595,-25156.17
1764510723.3786478,-4352.895,-38637.315,-31799.25,-5962.995,-6501.195,-38671.92,-23629.005,-25150.905
1764510723.3786478,-4354.11,-38638.935,-31801.185,-5964.929999999999,-6501.96,-38674.62,-23630.49,-25151.04
1764510723.3786478,-4361.13,-38643.93,-31806.585,-5970.69,-6507.63,-38680.29,-23634.54,-25155.18
1764510723.3786478,-4359.24,-38638.125,-31801.59,-5965.29,-6501.599999999999,-38674.755,-23629.545,-25151.13
1764510723.3786478,-4360.77,-38636.865,-31800.33,-5963.175,-6500.07,-38674.08,-23626.845,-25149.78
1764510723.3786478,-4362.93,-38636.775,-31800.24,-5963.985,-6499.844999999999,-38674.62,-23625.405,-25150.455
1764510723.3786478,-4367.115,-38638.53,-31802.31,-5965.514999999999,-6501.24,-38676.105,-23625.9,-25152.93
1764510723.3786478,-4372.605,-38640.915,-31804.965,-5968.349999999999,-6503.759999999999,-38678.895,-23627.16,-25156.62
1764510723.4254754,-4369.77,-38634.795,-31799.655,-5963.13,-6497.639999999999,-38673.765,-23621.85,-25152.795
1764510723.4254754,-4375.665,-38638.71,-31804.2,-5967.315,-6501.87,-38678.625,-23623.92,-25156.845
1764510723.4254754,-4384.349999999999,-38645.595,-31811.49,-5973.795,-6508.844999999999,-38685.735,-23628.51,-25164.27
1764510723.4254754,-4386.96,-38644.785,-31811.76,-5973.929999999999,-6508.08,-38686.185,-23628.015,-25166.16
1764510723.4254754,-4383.99,-38636.82,-31803.615,-5966.505,-6500.429999999999,-38679.075,-23621.22,-25160.58
1764510723.4254754,-4387.05,-38636.82,-31803.705,-5966.55,-6500.115,-38679.435,-23619.105,-25160.49
1764510723.4254754,-4389.885,-38635.92,-31803.48,-5966.054999999999,-6498.945,-38678.715,-23617.215,-25161.615
1764510723.4254754,-4393.125,-38636.82,-31804.74,-5967.675,-6500.07,-38679.615,-23617.485,-25163.865
1764510723.4264886,-4400.145,-38643.255,-31811.49,-5975.415,-6507.45,-38686.86,-23621.4,-25169.67
1764510723.4264886,-4401.36,-38642.265,-31810.995,-5975.19,-6506.505,-38686.725,-23620.23,-25168.995
1764510723.4264886,-4398.389999999999,-38638.305,-31807.485,-5971.32,-6502.455,-38683.215,-23616.18,-25164.135
1764510723.4264886,-4407.57,-38647.26,-31817.745,-5981.264999999999,-6511.77,-38692.665,-23623.155,-25171.605
1764510723.4264886,-4409.595,-38647.89,-31818.6,-5982.255,-6512.355,-38692.755,-23623.425,-25173.585
1764510723.4264886,-4408.92,-38645.955,-31816.44,-5980.545,-6510.195,-38690.865,-23622.3,-25174.17
1764510723.4264886,-4407.03,-38641.455,-31812.705,-5977.17,-6506.685,-38687.04,-23619.195,-25173.135
1764510723.4264886,-4402.755,-38635.065,-31806.765,-5971.679999999999,-6500.474999999999,-38681.64,-23613.03,-25168.725
1764510723.4264886,-4407.75,-38639.88,-31812.57,-5976.495,-6504.84,-38687.13,-23616.36,-25174.305
1764510723.4264886,-4409.865,-38642.13,-31815.18,-5979.735,-6507.855,-38690.01,-23617.485,-25178.175
1764510723.4264886,-4411.53,-38642.04,-31815.045,-5980.455,-6507.945,-38690.595,-23616.09,-25180.47
1764510723.4264886,-4413.465,-38639.565,-31812.345,-5977.98,-6505.065,-38688.705,-23612.895,-25179.12
1764510723.4264886,-4409.73,-38632.365,-31805.055,-5971.679999999999,-6498.495,-38682.135,-23605.2,-25174.08
1764510723.4264886,-4415.13,-38634.39,-31807.17,-5974.155,-6500.88,-38685.105,-23606.415,-25176.645
1764510723.4264886,-4419.675,-38635.2,-31808.205,-5974.875,-6501.33,-38686.32,-23607.18,-25176.87
1764510723.4264886,-4427.325,-38638.755,-31812.21,-5979.42,-6504.929999999999,-38690.46,-23610.915,-25180.38
1764510723.4711587,-4427.595,-38633.4,-31807.575,-5975.325,-6500.295,-38685.69,-23606.325,-25175.34
1764510723.4711587,-4431.915,-38633.985,-31808.7,-5976.764999999999,-6501.105,-38687.355,-23605.785,-25174.17
1764510723.4711587,-4435.92,-38634.705,-31810.68,-5978.295,-6502.32,-38688.3,-23606.37,-25173.135
1764510723.4711587,-4441.77,-38638.53,-31814.145,-5982.885,-6505.605,-38691.135,-23607.495,-25172.955
1764510723.4711587,-4449.33,-38646.045,-31821.165,-5990.04,-6512.58,-38698.11,-23613.12,-25177.095
1764510723.4711587,-4449.915,-38644.02,-31819.905,-5988.87,-6511.365,-38697.255,-23613.03,-25176.42
1764510723.4711587,-4447.485,-38638.35,-31814.28,-5983.29,-6505.695,-38692.53,-23607.18,-25171.695
1764510723.4711587,-4451.625,-38639.61,-31816.935,-5985.764999999999,-6507.179999999999,-38695.095,-23608.53,-25174.215
1764510723.4711587,-4457.655,-38644.785,-31822.605,-5992.11,-6512.715,-38700.945,-23613.075,-25179.705
1764510723.4711587,-4457.25,-38642.265,-31819.995,-5991.255,-6510.645,-38699.64,-23612.22,-25178.445
1764510723.4711587,-4455.09,-38638.08,-31816.305,-5987.07,-6507.0,-38696.58,-23609.79,-25174.755
1764510723.4711587,-4456.665,-38637.99,-31817.115,-5987.969999999999,-6507.585,-38697.03,-23609.115,-25172.055
1764510723.4711587,-4457.925,-38637.135,-31817.34,-5987.969999999999,-6507.134999999999,-38697.795,-23608.08,-25169.94
1764510723.4711587,-4458.105,-38634.705,-31816.08,-5987.115,-6506.37,-38696.13,-23606.235,-25166.88
1764510723.4711587,-4455.09,-38630.07,-31811.13,-5983.02,-6501.105,-38691.63,-23601.465,-25159.5
1764510723.4711587,-4454.639999999999,-38628.9,-31810.275,-5982.3,-6500.205,-38690.955,-23600.79,-25157.43
1764510723.4711587,-4456.62,-38629.305,-31811.445,-5983.2,-6500.835,-38691.18,-23600.07,-25157.16
1764510723.4711587,-4461.255,-38632.95,-31815.63,-5987.429999999999,-6504.165,-38694.69,-23602.545,-25158.42
1764510723.4711587,-4463.37,-38634.21,-31816.575,-5988.96,-6505.875,-38696.625,-23601.735,-25157.7
1764510723.4711587,-4464.315,-38633.085,-31815.54,-5989.139999999999,-6504.929999999999,-38696.31,-23601.015,-25156.44
1764510723.4726925,-4467.195,-38633.805,-31816.62,-5989.545,-6505.425,-38696.58,-23601.42,-25154.955
1764510723.4726925,-4469.804999999999,-38634.93,-31819.41,-5992.02,-6506.594999999999,-38699.37,-23602.59,-25154.235
1764510723.4726925,-4475.205,-38639.475,-31824.27,-5996.969999999999,-6511.094999999999,-38704.32,-23606.325,-25157.115
1764510723.4726925,-4475.97,-38637.27,-31822.245,-5995.71,-6509.384999999999,-38702.61,-23605.47,-25154.37
1764510723.521393,-4475.25,-38635.785,-31821.03,-5994.495,-6508.035,-38701.53,-23604.3,-25150.635
1764510723.521393,-4469.849999999999,-38630.97,-31816.215,-5989.77,-6503.49,-38696.22,-23598.54,-25143.705
1764510723.521393,-4469.264999999999,-38630.655,-31816.08,-5990.355,-6503.31,-38695.905,-23595.93,-25141.455
1764510723.521393,-4475.745,-38637.585,-31822.92,-5998.005,-6510.33,-38703.78,-23600.07,-25146.225
1764510723.521393,-4476.014999999999,-38638.53,-31823.685,-5998.905,-6511.05,-38704.14,-23600.7,-25147.485
1764510723.521393,-4474.575,-38638.17,-31823.685,-5999.67,-6510.645,-38704.23,-23600.025,-25147.35
1764510723.521393,-4473.72,-38637.045,-31823.01,-5998.41,-6509.565,-38703.195,-23598.945,-25146.675
1764510723.521393,-4470.57,-38634.435,-31820.715,-5996.52,-6507.719999999999,-38700.405,-23596.65,-25143.66
1764510723.521393,-4473.09,-38639.385,-31826.385,-6003.179999999999,-6513.66,-38706.705,-23599.755,-25146.405
1764510723.521393,-4470.03,-38637.945,-31824.495,-6001.785,-6512.58,-38705.13,-23597.73,-25144.38
1764510723.521393,-4472.28,-38641.635,-31829.085,-6006.195,-6516.405,-38709.45,-23599.44,-25147.71
1764510723.521393,-4467.15,-38636.82,-31824.54,-6002.054999999999,-6511.905,-38705.58,-23595.75,-25143.705
1764510723.521393,-4465.26,-38636.415,-31824.54,-6002.73,-6512.219999999999,-38705.805,-23593.545,-25142.625
1764510723.521393,-4473.45,-38645.505,-31834.08,-6011.37,-6521.13,-38715.21,-23600.205,-25148.475
1764510723.521393,-4474.395,-38647.215,-31836.42,-6014.115,-6523.605,-38717.595,-23601.645,-25149.24
1764510723.521393,-4473.0,-38647.35,-31835.79,-6013.755,-6523.74,-38717.415,-23600.835,-25149.195
1764510723.521393,-4469.264999999999,-38643.84,-31831.83,-6010.245,-6519.915,-38713.905,-23596.47,-25144.65
1764510723.521393,-4472.73,-38647.665,-31836.555,-6015.554999999999,-6524.054999999999,-38718.72,-23600.115,-25147.305
1764510723.521393,-4470.165,-38644.83,-31833.63,-6012.9,-6520.995,-38715.165,-23597.73,-25143.57
1764510723.521393,-4471.92,-38648.295,-31836.465,-6016.23,-6523.92,-38718.27,-23600.88,-25146.99
1764510723.521393,-4467.105,-38642.625,-31831.56,-6012.045,-6518.295,-38712.915,-23597.1,-25142.715
1764510723.521393,-4465.485,-38641.815,-31830.21,-6012.224999999999,-6518.07,-38712.555,-23596.965,-25140.915
1764510723.521393,-4466.385,-38644.065,-31833.0,-6014.565,-6520.185,-38714.94,-23599.305,-25142.985
1764510723.521393,-4473.764999999999,-38653.47,-31842.945,-6024.014999999999,-6528.915,-38725.02,-23607.765,-25152.57
1764510723.5654976,-4471.695,-38652.975,-31842.54,-6024.24,-6528.465,-38724.93,-23608.755,-25152.48
1764510723.5654976,-4464.27,-38646.81,-31836.555,-6017.58,-6522.389999999999,-38718.315,-23603.94,-25147.98
1764510723.5654976,-4461.03,-38646.045,-31836.195,-6016.5,-6520.679999999999,-38717.19,-23602.815,-25147.575
1764510723.5654976,-4459.455,-38646.405,-31837.32,-6016.59,-6521.13,-38717.91,-23604.255,-25147.665
1764510723.5654976,-4464.36,-38654.55,-31845.78,-6024.69,-6530.804999999999,-38726.19,-23612.175,-25155.09
1764510723.5654976,-4463.865,-38656.08,-31847.04,-6026.264999999999,-6532.695,-38727.27,-23615.685,-25156.125
1764510723.5654976,-4456.755,-38650.095,-31841.145,-6019.74,-6525.675,-38720.385,-23612.4,-25150.095
1764510723.5654976,-4456.889999999999,-38652.525,-31842.54,-6021.719999999999,-6526.98,-38721.87,-23615.91,-25151.13
1764510723.5654976,-4447.845,-38645.865,-31835.025,-6014.34,-6520.005,-38714.22,-23612.49,-25144.47
1764510723.5654976,-4444.47,-38647.98,-31837.14,-6015.554999999999,-6521.445,-38715.39,-23616.09,-25144.2
1764510723.5654976,-4443.57,-38651.13,-31840.83,-6018.03,-6524.594999999999,-38718.27,-23619.42,-25142.94
1764510723.5654976,-4439.79,-38651.31,-31841.595,-6018.705,-6525.179999999999,-38718.765,-23621.4,-25141.725
1764510723.5654976,-4434.795,-38651.175,-31840.29,-6017.355,-6523.92,-38716.47,-23623.065,-25138.215
1764510723.5654976,-4436.505,-38657.025,-31845.87,-6022.889999999999,-6529.455,-38722.14,-23629.32,-25139.07
1764510723.5654976,-4432.59,-38656.395,-31844.115,-6020.505,-6528.33,-38720.79,-23629.77,-25134.435
1764510723.5654976,-4425.525,-38653.02,-31840.515,-6016.139999999999,-6524.91,-38716.155,-23627.52,-25125.795
1764510723.5654976,-4425.66,-38657.205,-31843.71,-6020.145,-6529.185,-38719.62,-23631.48,-25124.715
1764510723.5654976,-4420.08,-38655.855,-31840.515,-6017.58,-6527.07,-38717.145,-23629.95,-25119.27
1764510723.5654976,-4411.44,-38650.14,-31834.755,-6010.83,-6521.13,-38711.16,-23624.19,-25109.235
1764510723.5654976,-4411.17,-38653.83,-31838.67,-6015.15,-6525.224999999999,-38714.67,-23627.97,-25108.47
1764510723.5654976,-4413.645,-38658.51,-31844.43,-6020.505,-6529.59,-38719.305,-23632.92,-25110.135
1764510723.5654976,-4406.58,-38652.57,-31839.165,-6015.69,-6524.37,-38713.815,-23629.23,-25101.09
1764510723.5654976,-4407.12,-38658.645,-31845.645,-6022.395,-6531.165,-38719.305,-23633.865,-25099.425
1764510723.5654976,-4401.36,-38653.02,-31840.155,-6017.849999999999,-6526.395,-38713.005,-23633.505,-25091.19
1764510723.6145208,-4403.115,-38658.42,-31844.97,-6022.17,-6530.49,-38717.865,-23637.33,-25090.245
1764510723.6145208,-4397.175,-38655.63,-31842.63,-6018.929999999999,-6527.429999999999,-38714.445,-23635.62,-25083.99
1764510723.6145208,-4397.535,-38659.545,-31846.995,-6023.295,-6532.785,-38718.945,-23638.68,-25084.53
1764510723.6145208,-4389.21,-38651.265,-31838.67,-6015.915,-6524.19,-38710.53,-23632.92,-25076.115
1764510723.615523,-4386.105,-38651.985,-31839.075,-6016.005,-6523.83,-38710.035,-23633.37,-25074.045
1764510723.615523,-4391.37,-38661.255,-31848.615,-6023.969999999999,-6533.145,-38718.855,-23640.66,-25079.805
1764510723.615523,-4389.705,-38660.985,-31848.75,-6023.295,-6532.74,-38718.225,-23640.12,-25078.365
1764510723.615523,-4385.52,-38658.915,-31846.23,-6021.224999999999,-6530.4,-38715.57,-23638.995,-25075.305
1764510723.615523,-4382.91,-38659.635,-31846.95,-6022.26,-6530.804999999999,-38715.615,-23641.245,-25073.28
1764510723.615523,-4379.985,-38659.185,-31846.41,-6021.27,-6529.545,-38714.535,-23642.145,-25072.785
1764510723.615523,-4373.28,-38654.415,-31841.415,-6016.635,-6524.594999999999,-38709.09,-23639.58,-25068.87
1764510723.615523,-4374.72,-38655.765,-31842.27,-6017.715,-6525.54,-38709.45,-23642.865,-25072.695
1764510723.615523,-4370.13,-38651.175,-31837.995,-6012.585,-6520.679999999999,-38704.905,-23638.365,-25070.985
1764510723.615523,-4371.03,-38652.615,-31839.75,-6014.205,-6522.12,-38706.255,-23639.265,-25074.81
1764510723.615523,-4365.495,-38646.72,-31835.07,-6008.67,-6516.63,-38701.44,-23634.765,-25072.065
1764510723.615523,-4368.24,-38651.04,-31839.21,-6012.405,-6520.77,-38705.76,-23637.78,-25075.26
1764510723.615523,-4371.3,-38655.495,-31843.215,-6016.005,-6524.145,-38709.63,-23642.1,-25079.355
1764510723.615523,-4368.15,-38650.905,-31838.04,-6012.179999999999,-6520.365,-38705.67,-23640.66,-25077.465
1764510723.615523,-4374.135,-38657.385,-31843.53,-6017.49,-6527.07,-38711.835,-23647.23,-25083.585
1764510723.615523,-4374.495,-38654.865,-31840.83,-6014.385,-6523.92,-38709.765,-23648.445,-25083.855
1764510723.615523,-4372.47,-38650.86,-31837.095,-6010.83,-6520.005,-38706.03,-23648.445,-25081.92
1764510723.615523,-4371.705,-38649.69,-31835.88,-6009.389999999999,-6518.16,-38705.535,-23649.12,-25082.28
1764510723.615523,-4366.935,-38642.67,-31828.365,-6002.594999999999,-6510.509999999999,-38698.245,-23645.07,-25078.905
1764510723.615523,-4366.08,-38641.635,-31826.34,-6000.525,-6509.835,-38696.58,-23646.24,-25079.715
1764510723.66018,-4367.07,-38645.1,-31829.22,-6002.955,-6513.525,-38699.37,-23648.265,-25082.955
1764510723.66018,-4372.74,-38651.22,-31834.395,-6008.04,-6519.554999999999,-38704.815,-23655.06,-25090.2
1764510723.66018,-4371.435,-38648.205,-31830.84,-6004.935,-6516.719999999999,-38702.07,-23654.88,-25090.245
1764510723.66018,-4366.395,-38643.12,-31824.945,-6000.03,-6510.87,-38697.165,-23651.28,-25087.32
1764510723.66018,-4368.78,-38647.17,-31828.68,-6003.495,-6514.92,-38700.945,-23654.115,-25090.785
1764510723.6611986,-4365.045,-38643.03,-31823.82,-5999.49,-6511.455,-38696.67,-23652.225,-25088.13
1764510723.6611986,-4368.33,-38646.945,-31826.79,-6002.37,-6515.009999999999,-38700.135,-23655.78,-25090.605
1764510723.6611986,-4364.82,-38643.57,-31823.64,-5998.59,-6510.645,-38697.39,-23653.8,-25087.32
1764510723.6611986,-4367.07,-38647.935,-31828.095,-6002.639999999999,-6514.74,-38701.755,-23657.445,-25091.145
1764510723.6611986,-4361.985,-38640.195,-31820.49,-5995.304999999999,-6507.945,-38693.925,-23652.045,-25086.78
1764510723.6611986,-4361.49,-38640.015,-31820.49,-5994.764999999999,-6508.44,-38694.285,-23652.63,-25087.095
1764510723.6611986,-4365.495,-38644.785,-31825.44,-6000.255,-6513.48,-38699.46,-23657.4,-25092.18
1764510723.6611986,-4369.724999999999,-38649.24,-31830.12,-6005.115,-6517.755,-38703.87,-23661.855,-25096.725
1764510723.6611986,-4367.52,-38645.73,-31826.88,-6002.505,-6514.38,-38701.17,-23662.71,-25094.745
1764510723.6611986,-4371.84,-38650.68,-31832.1,-6007.365,-6519.465,-38706.615,-23668.29,-25100.19
1764510723.6611986,-4371.75,-38649.285,-31829.355,-6005.385,-6517.98,-38704.14,-23669.91,-25099.11
1764510723.6617088,-4366.17,-38642.58,-31823.055,-5999.04,-6511.139999999999,-38698.11,-23663.385,-25091.865
1764510723.6617088,-4364.865,-38644.605,-31824.45,-6000.12,-6512.04,-38699.415,-23664.465,-25092.225
1764510723.6617088,-4371.255,-38651.805,-31831.83,-6007.139999999999,-6519.825,-38706.84,-23672.25,-25097.265
1764510723.6617088,-4370.04,-38649.105,-31829.22,-6003.81,-6517.304999999999,-38703.78,-23672.205,-25093.98
1764510723.6617088,-4363.335,-38642.985,-31822.11,-5996.79,-6509.52,-38695.815,-23666.49,-25084.575
1764510723.6617088,-4364.955,-38645.865,-31824.81,-5999.625,-6511.634999999999,-38698.65,-23669.73,-25084.665
1764510723.70515,-4368.69,-38651.085,-31831.29,-6005.07,-6517.215,-38704.23,-23674.68,-25089.255
1764510723.70515,-4367.655,-38651.76,-31831.065,-6005.565,-6517.98,-38704.005,-23676.39,-25089.3
1764510723.70515,-4364.28,-38648.34,-31827.915,-6001.83,-6514.02,-38700.405,-23673.78,-25085.655
1764510723.70515,-4356.945,-38641.23,-31820.715,-5994.54,-6506.594999999999,-38692.395,-23667.75,-25079.76
1764510723.70515,-4359.195,-38644.425,-31823.64,-5998.995,-6510.915,-38695.32,-23672.025,-25082.19
1764510723.70515,-4352.76,-38640.735,-31820.715,-5995.215,-6506.82,-38692.71,-23667.795,-25078.59
1764510723.706689,-4348.44,-38638.305,-31819.14,-5992.02,-6503.49,-38689.92,-23665.815,-25075.62
1764510723.706689,-4347.09,-38638.26,-31818.78,-5990.49,-6503.445,-38689.29,-23665.95,-25075.395
1764510723.706689,-4348.98,-38639.655,-31820.715,-5992.11,-6505.155,-38691.63,-23667.03,-25076.34
1764510723.7076983,-4354.92,-38646.54,-31826.97,-5999.445,-6511.634999999999,-38698.2,-23670.54,-25081.695
1764510723.7076983,-4351.635,-38641.815,-31821.3,-5995.395,-6507.179999999999,-38694.06,-23664.06,-25077.465
1764510723.7076983,-4356.495,-38646.405,-31825.665,-5999.625,-6511.41,-38698.695,-23666.94,-25081.38
1764510723.7076983,-4356.99,-38645.415,-31824.405,-5998.094999999999,-6509.969999999999,-38697.435,-23666.49,-25080.345
1764510723.7076983,-4353.345,-38639.295,-31817.565,-5991.165,-6502.724999999999,-38690.64,-23661.72,-25073.865
1764510723.7076983,-4358.115,-38644.02,-31822.2,-5995.665,-6507.315,-38694.645,-23665.005,-25076.52
1764510723.7076983,-4359.195,-38643.39,-31821.48,-5994.045,-6506.145,-38692.845,-23663.295,-25074.9
1764510723.7076983,-4353.84,-38636.325,-31814.73,-5987.025,-6498.179999999999,-38686.005,-23656.455,-25068.195
1764510723.7076983,-4351.635,-38632.23,-31810.275,-5982.615,-6493.679999999999,-38680.83,-23652.27,-25062.885
1764510723.7090003,-4352.625,-38633.04,-31810.59,-5982.705,-6494.67,-38681.325,-23652.495,-25061.895
1764510723.7090003,-4359.599999999999,-38642.715,-31819.41,-5991.795,-6504.12,-38690.73,-23661.765,-25067.835
1764510723.7090003,-4358.295,-38643.03,-31820.04,-5991.615,-6504.075,-38690.955,-23663.07,-25067.97
1764510723.7090003,-4354.514999999999,-38641.995,-31818.195,-5990.219999999999,-6502.32,-38689.47,-23662.98,-25066.305
1764510723.7566774,-4347.0,-38636.325,-31811.94,-5984.594999999999,-6496.245,-38683.755,-23658.93,-25060.59
1764510723.7566774,-4348.755,-38640.645,-31816.62,-5988.465,-6500.745,-38688.39,-23663.565,-25063.245
1764510723.7566774,-4343.31,-38637.09,-31812.57,-5983.965,-6496.605,-38684.43,-23661.72,-25060.32
1764510723.7566774,-4343.76,-38639.16,-31813.245,-5984.955,-6498.585,-38685.78,-23664.645,-25061.85
1764510723.7566774,-4335.705,-38632.77,-31806.27,-5977.98,-6492.375,-38678.58,-23660.955,-25056.9
1764510723.7566774,-4331.7,-38630.52,-31804.155,-5974.965,-6489.99,-38676.33,-23661.315,-25055.055
1764510723.7566774,-4332.33,-38634.39,-31807.98,-5977.755,-6493.23,-38679.885,-23663.43,-25056.855
1764510723.7566774,-4338.405,-38645.055,-31817.25,-5987.07,-6502.545,-38689.515,-23673.96,-25066.395
1764510723.7566774,-4338.0,-38646.855,-31817.79,-5987.25,-6503.895,-38690.775,-23676.165,-25068.915
1764510723.7566774,-4337.19,-38646.99,-31816.89,-5986.844999999999,-6503.804999999999,-38690.595,-23676.39,-25070.13
1764510723.7566774,-4335.12,-38645.055,-31815.09,-5984.594999999999,-6501.645,-38689.065,-23677.515,-25070.67
1764510723.7576492,-4327.92,-38637.45,-31806.855,-5976.99,-6493.815,-38680.425,-23673.78,-25066.755
1764510723.7576492,-4329.0,-38638.215,-31805.73,-5976.855,-6494.849999999999,-38679.93,-23675.355,-25069.095
1764510723.7576492,-4336.065,-38646.585,-31814.865,-5984.37,-6501.96,-38688.525,-23682.06,-25078.14
1764510723.7576492,-4337.19,-38646.225,-31814.91,-5984.19,-6501.24,-38688.165,-23682.645,-25081.155
1764510723.7576492,-4330.845,-38637.81,-31806.09,-5975.594999999999,-6492.735,-38679.705,-23676.435,-25077.42
1764510723.7576492,-4329.0,-38636.19,-31804.92,-5972.535,-6491.025,-38678.04,-23674.59,-25078.725
1764510723.7576492,-4333.005,-38640.645,-31808.88,-5976.27,-6494.895,-38682.54,-23679.855,-25085.61
1764510723.7576492,-4340.295,-38646.405,-31813.83,-5981.13,-6500.655,-38688.165,-23685.615,-25092.585
1764510723.7576492,-4339.889999999999,-38643.165,-31811.265,-5978.385,-6498.405,-38686.14,-23683.68,-25093.395
1764510723.7576492,-4345.38,-38648.025,-31816.62,-5983.785,-6504.12,-38691.99,-23689.71,-25102.98
1764510723.7576492,-4346.55,-38647.755,-31815.99,-5983.245,-6503.67,-38691.18,-23691.15,-25106.94
1764510723.758158,-4342.365,-38641.77,-31809.555,-5976.405,-6496.695,-38685.015,-23686.38,-25103.7
1764510723.758158,-4343.355,-38642.22,-31809.915,-5976.675,-6497.099999999999,-38684.25,-23687.145,-25105.635
1764510723.758158,-4346.955,-38645.01,-31812.795,-5979.375,-6499.889999999999,-38686.095,-23689.35,-25109.73
1764510723.758158,-4352.805,-38649.105,-31816.845,-5983.38,-6504.12,-38690.145,-23694.165,-25115.445
1764510723.803581,-4352.445,-38645.55,-31813.47,-5979.87,-6499.844999999999,-38686.095,-23691.33,-25113.69
1764510723.803581,-4362.389999999999,-38654.145,-31821.3,-5987.88,-6508.125,-38694.105,-23697.855,-25121.655
1764510723.803581,-4362.57,-38650.905,-31817.52,-5984.594999999999,-6504.48,-38690.19,-23695.83,-25119.72
1764510723.803581,-4369.365,-38654.955,-31820.985,-5987.79,-6507.585,-38693.16,-23697.63,-25124.31
1764510723.803581,-4366.935,-38648.655,-31814.28,-5981.804999999999,-6500.745,-38686.455,-23692.005,-25119.72
1764510723.803581,-4368.06,-38648.07,-31813.335,-5981.4,-6499.98,-38685.24,-23690.925,-25118.1
1764510723.803581,-4371.03,-38649.645,-31814.64,-5982.255,-6501.599999999999,-38687.445,-23691.42,-25119.63
1764510723.803581,-4373.01,-38650.86,-31816.08,-5982.57,-6502.32,-38688.39,-23692.275,-25120.98
1764510723.803581,-4373.145,-38650.14,-31814.64,-5981.13,-6500.925,-38686.365,-23690.43,-25120.44
1764510723.803581,-4374.315,-38650.23,-31814.235,-5981.13,-6500.474999999999,-38685.465,-23688.315,-25118.82
1764510723.803581,-4376.52,-38652.48,-31817.115,-5983.695,-6503.175,-38687.265,-23690.07,-25118.055
1764510723.803581,-4379.94,-38655.405,-31820.13,-5986.44,-6506.325,-38689.29,-23693.265,-25119.585
1764510723.803581,-4383.855,-38658.96,-31824.27,-5990.58,-6510.014999999999,-38693.205,-23697.495,-25121.07
1764510723.803581,-4382.46,-38656.71,-31822.155,-5988.825,-6507.855,-38691.225,-23697.855,-25117.155
1764510723.8041365,-4378.95,-38650.59,-31815.945,-5982.255,-6501.465,-38684.88,-23693.445,-25109.955
1764510723.8041365,-4383.0,-38653.695,-31817.88,-5984.639999999999,-6504.03,-38686.77,-23697.585,-25111.08
1764510723.8041365,-4382.055,-38650.995,-31815.09,-5981.4,-6500.88,-38683.89,-23696.955,-25106.265
1764510723.8041365,-4376.79,-38645.55,-31809.285,-5976.09,-6495.57,-38678.625,-23693.355,-25097.49
1764510723.8041365,-4378.815,-38648.43,-31812.255,-5979.825,-6498.719999999999,-38681.55,-23697.99,-25096.32
1764510723.8041365,-4372.2,-38643.615,-31806.72,-5973.84,-6492.915,-38675.16,-23693.715,-25086.825
1764510723.8041365,-4369.59,-38645.37,-31807.8,-5974.74,-6493.275,-38675.16,-23695.02,-25082.37
1764510723.8041365,-4374.585,-38651.895,-31814.37,-5982.255,-6501.599999999999,-38681.37,-23704.29,-25085.43
1764510723.8491557,-4366.98,-38646.585,-31809.645,-5977.395,-6496.245,-38677.095,-23699.475,-25076.43
1764510723.8491557,-4363.02,-38644.245,-31807.485,-5974.38,-6493.005,-38674.755,-23697.0,-25071.48
1764510723.8491557,-4360.005,-38641.545,-31804.92,-5972.04,-6490.035,-38671.92,-23695.245,-25068.06
1764510723.8491557,-4357.755,-38640.78,-31803.57,-5971.455,-6489.179999999999,-38671.47,-23695.515,-25065.99
1764510723.8491557,-4356.405,-38640.42,-31803.39,-5970.915,-6489.179999999999,-38671.2,-23695.02,-25064.64
1764510723.8491557,-4356.9,-38641.05,-31804.695,-5971.185,-6490.304999999999,-38672.775,-23694.48,-25063.785
1764510723.8501587,-4357.755,-38641.815,-31805.19,-5972.67,-6491.115,-38674.215,-23694.3,-25063.47
1764510723.8501587,-4361.715,-38644.83,-31808.295,-5976.27,-6494.13,-38677.275,-23696.955,-25065.18
1764510723.8501587,-4359.24,-38639.16,-31803.03,-5971.05,-6488.145,-38671.83,-23691.06,-25058.88
1764510723.8501587,-4362.885,-38640.285,-31805.01,-5972.804999999999,-6489.81,-38673.54,-23691.69,-25057.98
1764510723.8501587,-4364.145,-38638.845,-31803.39,-5971.815,-6488.73,-38672.82,-23690.115,-25055.1
1764510723.8501587,-4364.46,-38637.9,-31802.22,-5970.105,-6487.02,-38672.37,-23688.9,-25052.94
1764510723.8501587,-4366.395,-38638.53,-31802.985,-5970.915,-6487.83,-38673.045,-23689.215,-25051.23
1764510723.8501587,-4365.945,-38636.145,-31800.645,-5968.935,-6485.219999999999,-38670.3,-23688.045,-25047.765
1764510723.8501587,-4366.98,-38635.02,-31799.565,-5967.719999999999,-6483.915,-38669.04,-23687.1,-25045.02
1764510723.8501587,-4372.065,-38639.025,-31803.435,-5971.545,-6487.92,-38673.225,-23690.205,-25046.685
1764510723.8501587,-4369.815,-38634.3,-31798.665,-5967.27,-6482.88,-38669.49,-23685.39,-25040.43
1764510723.8501587,-4372.514999999999,-38637.405,-31801.815,-5970.645,-6486.435,-38672.55,-23687.865,-25039.53
1764510723.8501587,-4369.32,-38632.59,-31797.495,-5966.55,-6481.844999999999,-38667.915,-23683.545,-25032.465
1764510723.8501587,-4372.065,-38635.335,-31801.185,-5969.969999999999,-6485.67,-38671.515,-23685.75,-25033.005
1764510723.8501587,-4376.205,-38640.24,-31806.72,-5975.145,-6491.115,-38676.645,-23688.675,-25034.445
1764510723.8501587,-4376.88,-38640.15,-31806.99,-5975.775,-6491.115,-38677.14,-23689.08,-25032.42
1764510723.8501587,-4373.37,-38636.19,-31804.155,-5972.264999999999,-6487.29,-38673.63,-23685.615,-25027.965
1764510723.8501587,-4369.05,-38630.61,-31798.71,-5967.09,-6481.98,-38668.815,-23680.485,-25020.54
1764510723.8962896,-4372.83,-38634.39,-31803.39,-5971.815,-6485.94,-38673.72,-23682.51,-25021.17
1764510723.8962896,-4367.925,-38629.035,-31797.99,-5967.405,-6481.035,-38668.815,-23677.74,-25014.51
1764510723.8962896,-4366.349999999999,-38628.18,-31797.09,-5966.594999999999,-6480.764999999999,-38667.645,-23675.67,-25011.45
1764510723.8962896,-4365.09,-38627.1,-31796.955,-5965.965,-6479.099999999999,-38667.105,-23674.77,-25007.715
1764510723.8962896,-4365.855,-38631.33,-31801.545,-5970.42,-6483.554999999999,-38670.795,-23676.345,-25007.805
1764510723.8962896,-4372.965,-38640.87,-31810.77,-5979.195,-6493.5,-38679.57,-23683.5,-25013.88
1764510723.8962896,-4371.57,-38640.645,-31810.23,-5979.15,-6492.509999999999,-38679.12,-23682.105,-25012.395
1764510723.8962896,-4364.82,-38634.165,-31804.875,-5973.75,-6485.985,-38673.54,-23676.165,-25006.32
1764510723.8962896,-4367.07,-38637.495,-31808.745,-5977.755,-6490.125,-38677.725,-23678.775,-25007.715
1764510723.8962896,-4363.965,-38634.165,-31805.865,-5974.74,-6487.469999999999,-38674.8,-23675.895,-25003.125
1764510723.8962896,-4367.745,-38639.34,-31810.77,-5980.32,-6492.509999999999,-38679.75,-23679.72,-25006.14
1764510723.8962896,-4367.07,-38638.62,-31810.77,-5979.645,-6491.925,-38680.11,-23678.505,-25005.78
1764510723.8962896,-4360.68,-38629.17,-31802.265,-5970.87,-6482.52,-38671.38,-23671.665,-24998.265
1764510723.8962896,-4359.06,-38626.425,-31798.665,-5968.575,-6479.55,-38668.23,-23668.605,-24996.06
1764510723.8962896,-4361.445,-38629.62,-31802.445,-5971.815,-6482.565,-38671.245,-23669.28,-24997.59
1764510723.8962896,-4365.315,-38634.255,-31807.35,-5977.08,-6487.38,-38677.005,-23673.015,-25001.415
1764510723.8962896,-4367.88,-38636.19,-31809.69,-5979.105,-6489.99,-38678.58,-23673.42,-25004.07
1764510723.8962896,-4373.639999999999,-38642.22,-31815.765,-5984.639999999999,-6495.57,-38683.98,-23676.84,-25010.64
1764510723.8962896,-4370.4,-38637.18,-31811.355,-5979.645,-6491.205,-38680.02,-23672.565,-25008.975
1764510723.8962896,-4372.514999999999,-38636.91,-31811.58,-5980.005,-6491.115,-38680.965,-23672.07,-25011.315
1764510723.8962896,-4378.815,-38644.245,-31818.87,-5987.835,-6499.035,-38688.795,-23676.705,-25019.28
1764510723.8981898,-4379.985,-38644.47,-31819.995,-5989.094999999999,-6500.205,-38689.02,-23675.805,-25021.89
1764510723.8981898,-4375.035,-38636.55,-31813.02,-5981.895,-6492.915,-38681.595,-23667.975,-25017.03
1764510723.8981898,-4374.27,-38635.425,-31812.48,-5981.13,-6491.474999999999,-38681.145,-23666.04,-25016.805
1764510723.9433026,-4375.62,-38638.395,-31816.035,-5985.0,-6494.219999999999,-38684.43,-23666.985,-25020.18
1764510723.9433026,-4382.415,-38644.92,-31821.975,-5991.344999999999,-6500.745,-38690.505,-23672.655,-25027.785
1764510723.9433026,-4379.22,-38641.365,-31818.6,-5988.51,-6497.415,-38687.265,-23669.1,-25026.255
1764510723.9433026,-4383.495,-38646.18,-31824.675,-5994.224999999999,-6502.679999999999,-38692.485,-23673.555,-25031.565
1764510723.9433026,-4385.474999999999,-38646.54,-31826.475,-5995.304999999999,-6504.165,-38693.7,-23673.51,-25033.77
1764510723.9433026,-4385.655,-38644.245,-31824.495,-5993.145,-6501.87,-38691.72,-23671.305,-25033.365
1764510723.9433026,-4382.01,-38638.44,-31818.78,-5988.375,-6496.695,-38685.51,-23666.22,-25029.18
1764510723.9433026,-4387.139999999999,-38642.895,-31823.46,-5993.19,-6501.33,-38690.19,-23669.055,-25032.42
1764510723.9433026,-4384.755,-38638.125,-31818.87,-5988.06,-6496.605,-38685.78,-23664.465,-25028.955
1764510723.9433026,-4383.764999999999,-38635.605,-31816.62,-5986.17,-6494.355,-38683.89,-23661.9,-25027.605
1764510723.9433026,-4387.275,-38638.035,-31819.59,-5989.23,-6496.83,-38686.95,-23662.755,-25028.865
1764510723.9433026,-4398.974999999999,-38650.14,-31832.955,-6001.83,-6509.7,-38699.505,-23673.06,-25037.055
1764510723.9433026,-4403.52,-38653.695,-31837.23,-6005.34,-6513.66,-38703.6,-23675.985,-25038.405
1764510723.9433026,-4406.355,-38652.345,-31835.97,-6005.295,-6512.219999999999,-38702.745,-23675.76,-25037.055
1764510723.9433026,-4407.93,-38650.455,-31834.845,-6003.675,-6510.375,-38701.71,-23673.69,-25034.715
1764510723.9433026,-4408.47,-38648.565,-31833.63,-6001.605,-6508.844999999999,-38700.27,-23671.845,-25031.7
1764510723.9433026,-4407.21,-38644.74,-31829.49,-5997.78,-6503.355,-38695.86,-23668.29,-25026.93
1764510723.9433026,-4404.599999999999,-38639.025,-31824.54,-5992.965,-6498.179999999999,-38690.82,-23663.79,-25020.18
1764510723.9433026,-4405.05,-38639.115,-31824.18,-5993.19,-6498.585,-38691.045,-23662.26,-25018.785
1764510723.9443383,-4405.23,-38638.44,-31822.605,-5993.145,-6497.505,-38690.64,-23660.19,-25017.525
1764510723.9443383,-4407.03,-38639.565,-31824.405,-5995.17,-6497.865,-38691.405,-23659.605,-25015.77
1764510723.9443383,-4412.385,-38644.335,-31830.84,-6000.705,-6503.04,-38697.48,-23664.69,-25018.47
1764510723.9909856,-4406.22,-38637.18,-31824.09,-5993.37,-6495.75,-38690.595,-23658.84,-25010.19
1764510723.9909856,-4405.905,-38637.405,-31823.82,-5993.37,-6496.245,-38690.28,-23657.49,-25007.49
1764510723.9909856,-4406.445,-38640.465,-31826.88,-5995.44,-6499.08,-38692.305,-23657.49,-25005.42
1764510723.9909856,-4406.13,-38640.015,-31826.385,-5995.844999999999,-6498.405,-38691.81,-23655.24,-25001.415
1764510723.9909856,-4406.58,-38640.915,-31827.645,-5997.42,-6499.304999999999,-38692.53,-23654.295,-24999.57
1764510723.9909856,-4410.45,-38644.515,-31831.74,-6001.695,-6503.355,-38696.805,-23655.42,-25001.325
1764510723.9909856,-4405.815,-38640.195,-31828.275,-5997.96,-6499.665,-38692.89,-23650.56,-24994.53
1764510723.9909856,-4406.805,-38641.77,-31830.345,-6000.03,-6501.78,-38694.78,-23650.92,-24993.09
1764510723.9909856,-4402.17,-38637.0,-31826.475,-5996.474999999999,-6498.09,-38689.875,-23644.395,-24986.52
1764510723.9909856,-4404.599999999999,-38639.835,-31828.995,-5999.264999999999,-6500.52,-38692.845,-23645.61,-24987.105
1764510723.9909856,-4405.995,-38641.23,-31829.85,-5999.985,-6501.465,-38693.61,-23643.765,-24986.295
1764510723.9909856,-4411.53,-38646.225,-31834.305,-6004.844999999999,-6506.594999999999,-38698.155,-23646.465,-24989.22
1764510723.9909856,-4411.395,-38645.28,-31833.99,-6004.844999999999,-6505.605,-38697.12,-23644.935,-24988.455
1764510723.9909856,-4408.02,-38640.735,-31829.49,-6000.57,-6500.79,-38691.945,-23640.3,-24984.27
1764510723.9909856,-4411.575,-38643.57,-31833.63,-6004.665,-6504.884999999999,-38695.59,-23641.695,-24986.16
1764510723.9909856,-4407.93,-38636.73,-31827.24,-5999.13,-6498.27,-38689.38,-23636.88,-24981.795
1764510723.9920037,-4406.445,-38635.785,-31826.385,-5999.04,-6497.685,-38688.39,-23634.9,-24981.39
1764510723.9920037,-4411.26,-38641.005,-31831.695,-6004.844999999999,-6503.04,-38694.105,-23637.42,-24985.98
1764510723.9920037,-4409.19,-38637.27,-31828.365,-6001.155,-6499.889999999999,-38690.82,-23632.695,-24982.47
1764510723.9920037,-4412.655,-38639.25,-31830.57,-6002.594999999999,-6502.275,-38693.385,-23632.605,-24984.81
1764510723.9920037,-4414.32,-38636.91,-31828.23,-6001.56,-6500.565,-38691.045,-23632.56,-24984.945
1764510723.9920037,-4415.175,-38636.145,-31827.645,-6001.605,-6499.889999999999,-38690.865,-23632.56,-24985.8
1764510723.9920037,-4419.495,-38640.78,-31832.82,-6006.285,-6504.57,-38696.31,-23635.17,-24990.345
1764510723.993008,-4417.2,-38637.495,-31830.21,-6002.91,-6500.655,-38693.925,-23631.84,-24988.815
1764510724.0334363,-4421.34,-38642.94,-31836.42,-6008.445,-6505.965,-38699.235,-23635.845,-24994.08
1764510724.0334363,-4422.33,-38645.145,-31837.995,-6010.245,-6508.304999999999,-38700.54,-23637.24,-24994.62
1764510724.0334363,-4417.875,-38638.35,-31831.245,-6003.81,-6502.005,-38693.88,-23630.04,-24989.94
1764510724.0334363,-4416.165,-38635.875,-31829.49,-6002.19,-6499.259999999999,-38691.63,-23627.655,-24988.455
1764510724.0334363,-4418.099999999999,-38638.395,-31832.37,-6005.745,-6502.185,-38695.14,-23628.33,-24989.94
1764510724.0334363,-4424.355,-38642.67,-31837.095,-6011.01,-6507.27,-38699.91,-23633.64,-24995.295
1764510724.0334363,-4421.565,-38638.62,-31833.9,-6007.905,-6504.03,-38696.355,-23630.805,-24991.965
1764510724.0334363,-4427.639999999999,-38644.965,-31840.38,-6014.745,-6511.094999999999,-38703.24,-23636.52,-24995.97
1764510724.0334363,-4428.179999999999,-38645.055,-31839.39,-6014.565,-6510.915,-38703.42,-23637.24,-24995.79
1764510724.0334363,-4420.889999999999,-38638.395,-31832.46,-6008.04,-6503.219999999999,-38697.03,-23631.66,-24990.84
1764510724.0352254,-4420.889999999999,-38638.395,-31832.37,-6008.715,-6502.634999999999,-38697.885,-23631.435,-24989.49
1764510724.0352254,-4422.78,-38640.105,-31835.295,-6010.785,-6505.335,-38700.54,-23633.775,-24990.3
1764510724.0352254,-4422.735,-38640.015,-31836.105,-6011.01,-6505.065,-38701.26,-23634.72,-24990.57
1764510724.0352254,-4421.16,-38638.215,-31834.17,-6009.84,-6503.49,-38699.01,-23635.125,-24988.59
1764510724.0362391,-4420.215,-38638.35,-31834.485,-6010.74,-6503.445,-38699.595,-23635.08,-24987.51
1764510724.0362391,-4421.925,-38640.96,-31837.59,-6013.349999999999,-6506.415,-38703.105,-23637.69,-24989.58
1764510724.0362391,-4420.305,-38639.475,-31836.6,-6012.36,-6505.56,-38702.34,-23636.7,-24987.375
1764510724.0362391,-4419.855,-38641.095,-31838.49,-6014.79,-6507.63,-38704.545,-23637.465,-24986.43
1764510724.0362391,-4422.78,-38645.415,-31843.17,-6020.505,-6511.815,-38709.315,-23641.155,-24989.22
1764510724.0362391,-4417.29,-38639.7,-31838.22,-6015.87,-6506.594999999999,-38704.275,-23637.15,-24984.63
1764510724.0362391,-4415.355,-38640.195,-31838.625,-6016.094999999999,-6507.045,-38704.14,-23636.025,-24983.28
1764510724.0362391,-4414.185,-38640.015,-31838.625,-6016.32,-6506.73,-38704.23,-23636.115,-24981.705
1764510724.0362391,-4415.175,-38640.87,-31841.1,-6017.849999999999,-6508.395,-38706.21,-23636.925,-24981.84
1764510724.0362391,-4417.83,-38645.37,-31845.375,-6022.935,-6512.445,-38710.845,-23640.165,-24985.08
1764510724.0838864,-4411.53,-38639.97,-31840.47,-6018.075,-6507.495,-38705.985,-23635.8,-24980.31
1764510724.0838864,-4412.07,-38640.825,-31841.145,-6019.514999999999,-6508.259999999999,-38706.93,-23636.565,-24979.815
1764510724.0838864,-4413.735,-38640.96,-31842.18,-6020.099999999999,-6508.98,-38707.29,-23637.06,-24980.13
1764510724.0838864,-4416.974999999999,-38646.315,-31848.21,-6026.219999999999,-6515.009999999999,-38712.735,-23641.02,-24983.865
1764510724.0838864,-4412.97,-38642.94,-31845.915,-6023.745,-6512.31,-38710.08,-23637.33,-24980.76
1764510724.0838864,-4415.22,-38645.91,-31848.975,-6026.355,-6515.145,-38712.96,-23638.86,-24983.37
1764510724.0838864,-4412.07,-38642.175,-31845.24,-6022.485,-6511.185,-38709.09,-23635.215,-24978.645
1764510724.0838864,-4413.87,-38642.895,-31846.455,-6023.969999999999,-6512.67,-38709.945,-23635.17,-24979.545
1764510724.0838864,-4420.665,-38650.05,-31854.105,-6032.52,-6520.365,-38717.415,-23639.94,-24985.35
1764510724.0838864,-4419.63,-38647.305,-31852.17,-6031.08,-6517.935,-38715.255,-23638.005,-24984.495
1764510724.0838864,-4414.905,-38639.7,-31845.105,-6023.295,-6510.195,-38708.01,-23631.48,-24978.78
1764510724.0838864,-4421.655,-38645.595,-31850.73,-6029.594999999999,-6516.179999999999,-38714.445,-23636.88,-24984.765
1764510724.0838864,-4420.935,-38643.75,-31849.29,-6028.155,-6514.29,-38712.78,-23634.72,-24982.605
1764510724.0838864,-4428.585,-38650.365,-31856.13,-6035.31,-6520.905,-38718.945,-23638.59,-24988.95
1764510724.0838864,-4429.53,-38650.05,-31855.365,-6035.67,-6520.139999999999,-38718.495,-23637.15,-24989.31
1764510724.0838864,-4425.165,-38643.795,-31849.47,-6029.955,-6514.065,-38712.42,-23631.525,-24984.81
1764510724.0838864,-4427.82,-38645.82,-31851.54,-6031.17,-6516.405,-38714.805,-23630.67,-24985.98
1764510724.0838864,-4429.665,-38644.47,-31851.045,-6030.855,-6515.82,-38713.905,-23629.095,-24986.52
1764510724.0838864,-4431.33,-38643.525,-31850.775,-6030.764999999999,-6515.505,-38713.995,-23626.665,-24986.97
1764510724.0838864,-4433.355,-38643.93,-31851.315,-6031.304999999999,-6516.09,-38714.85,-23624.46,-24987.42
1764510724.0838864,-4436.639999999999,-38646.27,-31854.96,-6034.365,-6518.79,-38718.0,-23623.47,-24988.77
1764510724.0838864,-4441.095,-38649.24,-31858.065,-6036.84,-6521.355,-38720.745,-23625.855,-24991.83
1764510724.129393,-4444.56,-38651.175,-31859.415,-6038.639999999999,-6522.884999999999,-38722.455,-23625.135,-24992.91
1764510724.129393,-4447.26,-38652.3,-31860.765,-6040.395,-6525.045,-38725.155,-23624.505,-24994.08
1764510724.129393,-4449.78,-38652.3,-31861.26,-6041.16,-6524.82,-38726.145,-23624.28,-24994.17
1764510724.129393,-4451.22,-38652.21,-31860.855,-6041.655,-6524.685,-38725.92,-23623.245,-24994.62
1764510724.129393,-4455.179999999999,-38652.885,-31861.71,-6043.77,-6526.215,-38727.36,-23622.345,-24995.295
1764510724.129393,-4460.49,-38655.0,-31864.32,-6046.02,-6529.365,-38730.555,-23622.57,-24996.24
1764510724.129393,-4466.88,-38660.265,-31869.675,-6051.105,-6534.315,-38736.585,-23625.405,-24999.12
1764510724.129393,-4464.54,-38653.02,-31862.475,-6044.804999999999,-6526.755,-38729.43,-23618.07,-24993.855
1764510724.129393,-4467.195,-38652.03,-31861.62,-6043.905,-6525.179999999999,-38728.08,-23615.145,-24991.695
1764510724.130393,-4477.365,-38660.22,-31869.99,-6052.139999999999,-6534.224999999999,-38736.765,-23620.725,-24998.445
1764510724.130393,-4481.82,-38662.74,-31871.79,-6055.065,-6536.52,-38738.7,-23620.095,-24998.31
1764510724.130393,-4484.429999999999,-38659.275,-31868.37,-6053.13,-6532.335,-38736.045,-23616.63,-24995.745
1764510724.130393,-4483.304999999999,-38654.145,-31864.5,-6048.224999999999,-6527.34,-38732.085,-23609.52,-24990.615
1764510724.130393,-4491.179999999999,-38659.68,-31869.405,-6053.625,-6532.514999999999,-38737.215,-23611.455,-24994.53
1764510724.130393,-4494.33,-38660.31,-31870.98,-6054.974999999999,-6534.764999999999,-38737.71,-23609.655,-24993.765
1764510724.130393,-4493.34,-38656.62,-31867.11,-6051.465,-6531.57,-38733.75,-23604.48,-24989.4
1764510724.130393,-4500.045,-38662.74,-31872.825,-6057.224999999999,-6537.599999999999,-38739.24,-23607.405,-24992.55
1764510724.130393,-4498.74,-38657.16,-31867.02,-6051.645,-6532.02,-38734.155,-23600.07,-24986.745
1764510724.130393,-4499.235,-38656.89,-31866.57,-6052.094999999999,-6530.804999999999,-38733.795,-23596.47,-24984.18
1764510724.130393,-4507.514999999999,-38664.945,-31874.85,-6060.51,-6538.455,-38741.985,-23600.115,-24988.23
1764510724.130393,-4506.525,-38660.535,-31870.98,-6057.495,-6535.215,-38738.655,-23594.265,-24982.47
1764510724.130393,-4507.02,-38659.545,-31870.215,-6056.91,-6534.719999999999,-38737.575,-23591.925,-24980.535
1764510724.130393,-4511.115,-38662.605,-31873.32,-6060.195,-6538.094999999999,-38741.355,-23592.915,-24980.94
1764510724.130393,-4517.865,-38669.76,-31880.07,-6066.764999999999,-6544.935,-38748.465,-23596.29,-24985.62
1764510724.1741064,-4516.695,-38665.845,-31876.29,-6063.12,-6540.795,-38744.775,-23591.34,-24982.155
1764510724.1741064,-4518.945,-38666.745,-31877.55,-6064.514999999999,-6542.145,-38746.17,-23590.755,-24980.67
1764510724.1741064,-4524.705,-38672.46,-31883.265,-6070.77,-6548.13,-38751.615,-23593.68,-24984.405
1764510724.175824,-4519.62,-38665.395,-31875.3,-6064.29,-6540.21,-38744.955,-23586.705,-24977.52
1764510724.175824,-4520.07,-38663.595,-31873.815,-6063.12,-6538.995,-38744.055,-23583.69,-24975.045
1764510724.175824,-4524.48,-38665.395,-31875.93,-6065.28,-6541.875,-38745.99,-23584.05,-24976.845
1764510724.175824,-4530.87,-38672.415,-31883.895,-6073.065,-6548.715,-38753.1,-23587.605,-24981.57
1764510724.1768394,-4531.905,-38673.81,-31885.335,-6074.19,-6549.705,-38754.135,-23587.2,-24981.705
1764510724.1768394,-4529.7,-38670.57,-31882.635,-6071.94,-6546.69,-38751.975,-23582.97,-24978.015
1764510724.1773462,-4536.045,-38677.185,-31889.295,-6079.32,-6553.44,-38758.905,-23587.83,-24983.505
1764510724.1773462,-4538.835,-38681.73,-31893.885,-6083.73,-6557.445,-38763.0,-23589.36,-24985.665
1764510724.1773462,-4538.565,-38680.38,-31893.975,-6083.19,-6557.849999999999,-38761.92,-23587.92,-24984.495
1764510724.1773462,-4538.295,-38678.175,-31892.805,-6081.615,-6555.78,-38760.3,-23584.77,-24983.415
1764510724.1773462,-4536.27,-38675.61,-31890.15,-6079.77,-6553.44,-38758.77,-23581.485,-24980.625
1764510724.1773462,-4530.06,-38667.195,-31882.5,-6072.21,-6545.79,-38750.715,-23574.24,-24974.415
1764510724.178356,-4537.575,-38674.08,-31889.43,-6080.13,-6553.259999999999,-38758.05,-23578.875,-24979.95
1764510724.178356,-4539.42,-38675.88,-31890.645,-6082.065,-6555.42,-38759.985,-23578.83,-24979.815
1764510724.178356,-4536.405,-38670.975,-31886.1,-6077.429999999999,-6550.38,-38755.755,-23574.015,-24975.945
1764510724.178356,-4541.58,-38676.015,-31891.185,-6082.83,-6555.645,-38760.345,-23578.065,-24979.995
1764510724.178356,-4544.505,-38678.805,-31894.065,-6086.295,-6558.75,-38763.63,-23579.865,-24980.85
1764510724.178356,-4545.315,-38678.715,-31894.245,-6086.429999999999,-6558.66,-38764.395,-23577.57,-24979.68
1764510724.17936,-4541.76,-38672.955,-31888.845,-6081.389999999999,-6553.53,-38758.995,-23571.225,-24973.74
1764510724.223513,-4540.455,-38671.515,-31887.315,-6080.355,-6551.37,-38757.06,-23568.525,-24970.095
1764510724.223513,-4541.76,-38674.17,-31890.24,-6083.19,-6554.115,-38760.12,-23568.345,-24969.195
1764510724.223513,-4544.415,-38680.335,-31896.675,-6089.04,-6560.505,-38766.105,-23571.09,-24970.545
1764510724.223513,-4550.58,-38687.58,-31904.1,-6096.735,-6568.02,-38773.62,-23576.94,-24975.54
1764510724.223513,-4550.67,-38685.555,-31902.165,-6094.844999999999,-6565.365,-38771.28,-23574.33,-24973.74
1764510724.223513,-4545.224999999999,-38677.995,-31894.605,-6087.42,-6558.165,-38763.99,-23566.995,-24965.955
1764510724.223513,-4545.224999999999,-38678.67,-31894.74,-6087.645,-6558.48,-38764.17,-23566.005,-24963.84
1764510724.223513,-4550.31,-38685.465,-31901.58,-6094.889999999999,-6565.634999999999,-38771.19,-23570.01,-24968.025
1764510724.223513,-4546.08,-38680.515,-31896.54,-6089.76,-6560.19,-38766.195,-23564.385,-24963.165
1764510724.223513,-4549.365,-38683.575,-31900.05,-6093.27,-6563.429999999999,-38769.075,-23567.67,-24964.695
1764510724.223513,-4551.48,-38685.33,-31902.075,-6096.42,-6565.634999999999,-38770.965,-23568.66,-24965.505
1764510724.223513,-4550.49,-38684.655,-31900.68,-6095.474999999999,-6565.05,-38770.605,-23565.915,-24963.345
1764510724.223513,-4546.08,-38680.695,-31897.485,-6091.74,-6561.09,-38766.24,-23561.235,-24958.395
1764510724.223513,-4550.94,-38685.78,-31902.84,-6097.724999999999,-6566.895,-38772.0,-23566.365,-24962.895
1764510724.223513,-4552.695,-38688.48,-31905.72,-6100.38,-6569.73,-38774.34,-23568.615,-24964.065
1764510724.223513,-4552.065,-38687.535,-31905.45,-6099.974999999999,-6569.415,-38774.025,-23568.345,-24963.93
1764510724.223513,-4550.94,-38685.69,-31904.64,-6099.255,-6568.514999999999,-38772.765,-23565.645,-24961.32
1764510724.223513,-4545.764999999999,-38680.515,-31898.655,-6093.9,-6562.575,-38767.095,-23559.435,-24954.93
1764510724.223513,-4545.179999999999,-38679.57,-31897.575,-6093.27,-6561.855,-38766.015,-23557.095,-24953.49
1764510724.223513,-4546.575,-38681.595,-31899.465,-6095.474999999999,-6563.7,-38767.545,-23557.005,-24954.48
1764510724.223513,-4547.88,-38683.395,-31900.32,-6096.645,-6564.915,-38769.165,-23556.15,-24954.345
1764510724.223513,-4548.195,-38681.55,-31898.835,-6095.565,-6563.16,-38767.545,-23554.62,-24953.895
1764510724.223513,-4549.455,-38681.415,-31899.555,-6096.06,-6563.205,-38767.455,-23552.64,-24954.255
1764510724.223513,-4558.095,-38690.55,-31907.565,-6104.565,-6571.755,-38775.87,-23559.165,-24962.445
1764510724.2672727,-4559.804999999999,-38692.485,-31909.275,-6106.005,-6573.15,-38776.725,-23559.48,-24964.785
1764510724.2672727,-4560.03,-38692.17,-31909.815,-6106.275,-6573.105,-38776.725,-23557.995,-24964.425
1764510724.2672727,-4560.615,-38691.81,-31910.67,-6106.905,-6573.645,-38777.04,-23556.375,-24965.415
1764510724.2672727,-4561.74,-38692.53,-31911.84,-6108.21,-6574.545,-38777.445,-23556.195,-24966.945
1764510724.2672727,-4563.179999999999,-38692.665,-31912.155,-6108.525,-6574.679999999999,-38778.165,-23554.755,-24966.72
1764510724.2672727,-4564.665,-38692.935,-31912.38,-6109.11,-6575.219999999999,-38779.2,-23552.415,-24966.9
1764510724.2672727,-4562.145,-38688.48,-31907.43,-6104.385,-6570.27,-38774.385,-23548.14,-24963.525
1764510724.2672727,-4562.325,-38687.985,-31907.07,-6104.07,-6569.639999999999,-38773.62,-23546.25,-24963.525
1764510724.2672727,-4566.554999999999,-38691.63,-31910.355,-6108.344999999999,-6573.554999999999,-38777.4,-23547.69,-24966.945
1764510724.2672727,-4576.05,-38700.72,-31919.58,-6118.02,-6582.78,-38787.39,-23555.655,-24975.675
1764510724.2672727,-4576.905,-38699.19,-31918.635,-6117.705,-6582.014999999999,-38787.12,-23555.925,-24977.655
1764510724.2678075,-4577.67,-38697.885,-31917.15,-6115.815,-6579.945,-38785.815,-23556.15,-24978.645
1764510724.269825,-4578.57,-38696.985,-31916.79,-6115.05,-6579.405,-38784.78,-23556.825,-24978.69
1764510724.269825,-4577.31,-38693.025,-31913.64,-6111.764999999999,-6576.165,-38780.64,-23554.575,-24977.88
1764510724.269825,-4571.145,-38685.105,-31905.405,-6103.395,-6567.389999999999,-38772.315,-23548.995,-24972.165
1764510724.269825,-4570.875,-38684.07,-31904.595,-6102.63,-6566.804999999999,-38771.505,-23549.13,-24972.84
1764510724.27082,-4575.42,-38689.965,-31910.265,-6108.389999999999,-6572.835,-38777.805,-23554.845,-24978.015
1764510724.27082,-4571.415,-38685.06,-31905.495,-6103.98,-6567.705,-38772.0,-23550.705,-24975.36
1764510724.27082,-4569.795,-38682.945,-31904.1,-6102.764999999999,-6565.724999999999,-38769.84,-23548.635,-24974.37
1764510724.27082,-4572.27,-38685.105,-31905.945,-6104.385,-6567.3,-38772.54,-23550.03,-24976.98
1764510724.27082,-4572.045,-38685.285,-31905.855,-6104.34,-6567.929999999999,-38772.225,-23550.75,-24976.845
1764510724.27082,-4573.395,-38684.565,-31905.09,-6104.474999999999,-6567.974999999999,-38770.875,-23552.19,-24977.34
1764510724.27082,-4579.11,-38689.92,-31910.535,-6110.685,-6573.42,-38776.635,-23557.995,-24982.29
1764510724.27082,-4576.095,-38685.105,-31905.63,-6105.24,-6567.66,-38772.09,-23554.035,-24978.555
1764510724.3137915,-4577.58,-38684.655,-31905.27,-6105.014999999999,-6567.344999999999,-38771.73,-23553.495,-24977.025
1764510724.3137915,-4583.07,-38689.695,-31910.265,-6110.505,-6573.24,-38777.22,-23559.57,-24981.12
1764510724.3143013,-4583.565,-38688.705,-31909.095,-6109.695,-6572.52,-38776.095,-23560.245,-24980.4
1764510724.3143013,-4577.895,-38678.175,-31898.205,-6099.255,-6560.955,-38764.125,-23552.955,-24971.76
1764510724.3143013,-4575.915,-38675.7,-31895.415,-6096.554999999999,-6557.625,-38761.56,-23550.84,-24966.9
1764510724.3143013,-4579.875,-38678.715,-31898.52,-6099.525,-6560.955,-38764.89,-23554.17,-24967.71
1764510724.3143013,-4581.585,-38678.13,-31897.485,-6099.48,-6561.09,-38764.62,-23553.9,-24966.27
1764510724.3143013,-4581.045,-38675.43,-31894.335,-6096.915,-6558.12,-38761.92,-23552.28,-24963.66
1764510724.3143013,-4582.845,-38674.89,-31894.065,-6097.365,-6557.895,-38761.65,-23552.775,-24962.67
1764510724.3143013,-4584.195,-38673.405,-31891.365,-6095.16,-6556.05,-38759.58,-23552.01,-24960.06
1764510724.3163135,-4585.32,-38672.64,-31890.195,-6094.485,-6554.565,-38759.175,-23551.605,-24959.7
1764510724.3163135,-4586.804999999999,-38671.695,-31888.89,-6094.08,-6553.62,-38758.545,-23552.01,-24958.035
1764510724.3163135,-4589.37,-38672.685,-31891.005,-6096.014999999999,-6555.87,-38759.985,-23553.495,-24958.125
1764510724.3163135,-4593.285,-38674.845,-31893.795,-6098.94,-6558.84,-38762.82,-23557.86,-24959.97
1764510724.3163135,-4589.145,-38669.535,-31888.08,-6093.63,-6553.17,-38757.915,-23553.81,-24953.67
1764510724.3163135,-4589.01,-38668.725,-31887.27,-6093.045,-6552.27,-38757.69,-23554.17,-24951.825
1764510724.3163135,-4591.17,-38672.595,-31891.455,-6096.78,-6555.645,-38762.145,-23555.97,-24953.4
1764510724.3163135,-4596.525,-38678.67,-31896.9,-6102.54,-6561.585,-38768.22,-23560.38,-24956.91
1764510724.3163135,-4592.025,-38673.945,-31892.355,-6098.085,-6556.77,-38763.27,-23556.555,-24950.925
1764510724.3163135,-4593.33,-38674.845,-31892.985,-6099.389999999999,-6557.804999999999,-38763.63,-23556.96,-24949.305
1764510724.3163135,-4599.675,-38683.17,-31901.355,-6106.815,-6565.41,-38771.28,-23563.53,-24953.4
1764510724.3163135,-4598.955,-38681.1,-31900.23,-6105.06,-6564.105,-38769.93,-23562.405,-24950.34
1764510724.3163135,-4590.855,-38672.505,-31890.96,-6097.139999999999,-6554.925,-38761.2,-23554.98,-24940.305
1764510724.3163135,-4586.985,-38669.94,-31888.215,-6095.16,-6552.36,-38758.32,-23552.145,-24936.39
1764510724.360984,-4585.32,-38669.31,-31888.215,-6095.385,-6552.27,-38757.42,-23551.605,-24934.635
1764510724.360984,-4588.965,-38674.665,-31894.47,-6100.605,-6558.165,-38763.495,-23556.195,-24937.965
1764510724.360984,-4593.465,-38681.415,-31901.355,-6107.625,-6565.41,-38769.75,-23562.99,-24940.44
1764510724.360984,-4591.575,-38679.345,-31899.555,-6105.96,-6563.61,-38767.005,-23562.945,-24937.38
1764510724.360984,-4584.554999999999,-38672.235,-31892.715,-6098.445,-6556.455,-38759.94,-23556.015,-24928.47
1764510724.360984,-4583.97,-38673.315,-31893.345,-6099.21,-6556.995,-38760.525,-23556.06,-24926.265
1764510724.360984,-4583.835,-38676.15,-31896.315,-6102.63,-6560.054999999999,-38763.54,-23557.77,-24926.625
1764510724.360984,-4586.175,-38682.045,-31902.39,-6108.57,-6566.13,-38769.165,-23562.495,-24931.755
1764510724.360984,-4583.925,-38680.335,-31900.905,-6107.49,-6564.69,-38767.86,-23562.135,-24930.18
1764510724.360984,-4578.525,-38675.835,-31897.125,-6103.26,-6560.28,-38763.27,-23559.39,-24926.985
1764510724.360984,-4573.304999999999,-38670.84,-31891.77,-6098.535,-6556.139999999999,-38758.23,-23556.285,-24921.765
1764510724.360984,-4576.635,-38676.78,-31896.99,-6103.755,-6561.585,-38763.945,-23563.395,-24925.68
1764510724.362987,-4573.304999999999,-38674.305,-31894.83,-6101.55,-6558.66,-38761.425,-23562.225,-24924.6
1764510724.362987,-4566.195,-38665.395,-31886.415,-6092.955,-6549.884999999999,-38753.37,-23555.565,-24918.03
1764510724.362987,-4562.639999999999,-38660.67,-31882.23,-6088.5,-6544.98,-38749.59,-23551.605,-24914.475
1764510724.362987,-4563.09,-38662.02,-31884.165,-6091.11,-6546.78,-38751.705,-23553.54,-24916.005
1764510724.362987,-4568.49,-38670.3,-31892.04,-6099.795,-6555.33,-38759.625,-23559.975,-24921.81
1764510724.362987,-4567.905,-38671.29,-31893.39,-6100.065,-6556.005,-38759.895,-23560.83,-24922.89
1764510724.362987,-4562.28,-38665.98,-31888.08,-6094.575,-6550.245,-38754.63,-23556.375,-24919.155
1764510724.362987,-4560.75,-38664.63,-31886.46,-6093.945,-6548.67,-38754.135,-23555.34,-24919.47
1764510724.3639812,-4560.03,-38665.035,-31886.505,-6094.889999999999,-6549.929999999999,-38754.63,-23555.52,-24919.56
1764510724.3639812,-4562.37,-38669.04,-31891.005,-6098.76,-6554.7,-38759.04,-23558.4,-24922.71
1764510724.408971,-4565.25,-38671.965,-31893.93,-6101.865,-6556.815,-38761.83,-23560.11,-24924.195
1764510724.408971,-4565.16,-38672.055,-31894.425,-6102.179999999999,-6556.32,-38761.425,-23561.865,-24925.995
1764510724.4096465,-4569.389999999999,-38677.095,-31900.14,-6107.804999999999,-6562.215,-38767.14,-23566.635,-24932.34
1764510724.4096465,-4569.57,-38675.565,-31898.43,-6106.815,-6560.73,-38766.015,-23565.375,-24933.51
1764510724.4096465,-4563.855,-38667.42,-31890.375,-6099.705,-6552.495,-38758.005,-23558.76,-24927.435
1764510724.4096465,-4565.295,-38668.59,-31891.725,-6100.74,-6554.34,-38759.265,-23559.39,-24928.38
1764510724.4096465,-4570.514999999999,-38673.72,-31896.135,-6105.69,-6558.615,-38763.72,-23563.35,-24933.33
1764510724.4096465,-4566.465,-38668.185,-31891.14,-6101.28,-6553.304999999999,-38758.455,-23558.31,-24929.955
1764510724.4096465,-4567.815,-38668.995,-31891.905,-6101.505,-6553.889999999999,-38759.355,-23557.905,-24932.16
1764510724.4096465,-4575.33,-38675.835,-31899.015,-6107.895,-6560.955,-38765.61,-23564.61,-24939.09
1764510724.4096465,-4571.73,-38670.93,-31893.48,-6102.9,-6555.69,-38760.435,-23560.38,-24936.48
1764510724.4096465,-4571.235,-38670.3,-31892.535,-6102.81,-6554.429999999999,-38759.22,-23560.245,-24935.85
1764510724.4096465,-4572.585,-38669.85,-31892.67,-6102.719999999999,-6554.115,-38759.4,-23560.92,-24937.155
1764510724.4111605,-4576.365,-38673.855,-31895.955,-6106.23,-6558.48,-38763.225,-23563.485,-24939.945
1764510724.4111605,-4584.105,-38680.38,-31902.12,-6112.665,-6564.42,-38769.435,-23568.57,-24944.715
1764510724.4111605,-4585.59,-38680.29,-31903.02,-6113.025,-6564.554999999999,-38770.11,-23569.65,-24944.94
1764510724.4111605,-4583.835,-38677.005,-31900.095,-6110.325,-6561.405,-38767.095,-23567.625,-24943.05
1764510724.4121735,-4577.625,-38669.22,-31892.715,-6103.62,-6554.52,-38759.58,-23561.145,-24935.445
1764510724.4121735,-4578.389999999999,-38670.12,-31894.065,-6104.655,-6555.195,-38760.165,-23560.74,-24935.535
1764510724.4126587,-4587.389999999999,-38680.02,-31903.56,-6114.014999999999,-6564.554999999999,-38769.03,-23569.695,-24944.04
1764510724.4126587,-4585.995,-38677.635,-31901.13,-6111.855,-6562.53,-38766.465,-23567.265,-24942.555
1764510724.4126587,-4580.415,-38671.605,-31895.19,-6105.915,-6556.545,-38760.84,-23562.72,-24937.335
1764510724.4126587,-4584.51,-38676.69,-31900.455,-6111.09,-6561.27,-38766.195,-23566.41,-24941.43
1764510724.4126587,-4583.385,-38675.565,-31900.05,-6110.82,-6560.145,-38764.89,-23564.79,-24940.665
1764510724.4544775,-4578.21,-38669.76,-31894.515,-6105.96,-6554.474999999999,-38759.49,-23560.245,-24936.615
1764510724.4544775,-4584.375,-38676.195,-31900.815,-6113.385,-6560.955,-38765.295,-23565.96,-24941.655
1764510724.4544775,-4584.554999999999,-38675.205,-31900.32,-6112.08,-6560.685,-38764.755,-23566.365,-24940.305
1764510724.4544775,-4580.865,-38670.345,-31895.91,-6107.58,-6555.78,-38759.94,-23561.73,-24936.12
1764510724.4544775,-4573.935,-38663.46,-31888.71,-6100.965,-6548.219999999999,-38752.245,-23554.935,-24929.91
1764510724.4544775,-4575.285,-38665.305,-31890.465,-6102.27,-6549.525,-38753.505,-23557.005,-24929.82
1764510724.4544775,-4574.97,-38664.855,-31888.89,-6101.82,-6549.03,-38752.425,-23555.34,-24929.055
1764510724.4544775,-4576.185,-38665.665,-31889.52,-6102.585,-6549.525,-38752.65,-23555.7,-24929.19
1764510724.4544775,-4580.19,-38670.615,-31894.47,-6107.31,-6554.474999999999,-38757.825,-23559.615,-24932.34
1764510724.4544775,-4575.87,-38664.765,-31889.205,-6101.775,-6548.985,-38752.47,-23555.16,-24926.58
1764510724.4544775,-4574.79,-38664.045,-31888.53,-6101.505,-6548.625,-38750.94,-23553.54,-24924.105
1764510724.4544775,-4576.23,-38665.53,-31890.015,-6102.719999999999,-6550.335,-38751.84,-23555.43,-24925.14
1764510724.4544775,-4580.325,-38671.65,-31896.405,-6109.38,-6555.375,-38757.555,-23560.695,-24929.73
1764510724.4544775,-4574.655,-38665.62,-31889.745,-6103.17,-6548.759999999999,-38751.615,-23554.845,-24923.7
1764510724.4544775,-4573.62,-38665.935,-31889.925,-6103.08,-6549.12,-38751.795,-23552.1,-24921.72
1764510724.4544775,-4573.889999999999,-38665.89,-31890.15,-6103.98,-6549.12,-38752.245,-23552.46,-24922.89
1764510724.4544775,-4571.505,-38663.235,-31887.09,-6101.325,-6546.285,-38749.275,-23550.705,-24921.045
1764510724.4544775,-4572.99,-38663.82,-31887.675,-6101.91,-6546.33,-38749.905,-23551.695,-24921.135
1764510724.4544775,-4578.705,-38672.415,-31896.45,-6109.74,-6554.88,-38758.815,-23557.77,-24928.74
1764510724.4544775,-4579.2,-38672.55,-31896.72,-6111.0,-6555.42,-38759.94,-23559.03,-24928.83
1764510724.4554915,-4573.98,-38665.53,-31890.105,-6104.655,-6548.94,-38753.73,-23552.865,-24923.07
1764510724.4554915,-4573.98,-38664.765,-31889.565,-6104.07,-6548.49,-38753.64,-23551.245,-24922.935
1764510724.4998374,-4576.545,-38666.655,-31891.59,-6106.5,-6551.145,-38756.115,-23554.305,-24924.51
1764510724.4998374,-4581.764999999999,-38671.83,-31897.62,-6112.935,-6557.49,-38762.82,-23560.155,-24928.83
1764510724.4998374,-4579.92,-38668.905,-31894.47,-6109.605,-6554.655,-38760.255,-23555.79,-24925.32
1764510724.4998374,-4581.81,-38669.58,-31895.325,-6110.28,-6556.005,-38761.38,-23557.23,-24925.68
1764510724.4998374,-4581.45,-38667.87,-31893.615,-6108.75,-6554.115,-38759.67,-23556.6,-24924.915
1764510724.4998374,-4582.44,-38666.205,-31891.68,-6107.67,-6552.495,-38758.455,-23554.17,-24924.87
1764510724.4998374,-4586.31,-38669.04,-31894.38,-6111.09,-6554.969999999999,-38762.19,-23556.465,-24928.11
1764510724.4998374,-4581.72,-38662.56,-31888.71,-6104.16,-6549.03,-38756.7,-23552.37,-24923.7
1764510724.4998374,-4579.29,-38660.4,-31886.82,-6102.99,-6547.634999999999,-38754.99,-23550.12,-24922.665
1764510724.5013754,-4582.215,-38663.73,-31889.52,-6106.275,-6550.785,-38757.555,-23551.245,-24925.5
1764510724.5013754,-4587.57,-38669.715,-31896.855,-6112.62,-6557.804999999999,-38764.26,-23556.375,-24931.125
1764510724.5013754,-4582.8,-38663.235,-31890.78,-6106.724999999999,-6551.775,-38758.23,-23552.01,-24927.21
1764510724.5013754,-4581.495,-38662.47,-31890.645,-6107.31,-6550.29,-38757.33,-23549.895,-24926.625
1764510724.5013754,-4585.995,-38668.725,-31896.72,-6113.429999999999,-6555.96,-38763.045,-23553.45,-24931.53
1764510724.5013754,-4590.855,-38672.46,-31900.815,-6118.38,-6559.83,-38767.635,-23556.015,-24936.705
1764510724.5013754,-4588.38,-38666.07,-31895.1,-6112.665,-6554.16,-38762.1,-23551.2,-24933.735
1764510724.5013754,-4591.349999999999,-38669.985,-31898.07,-6116.175,-6558.255,-38766.195,-23553.63,-24938.415
1764510724.5013754,-4592.655,-38671.38,-31899.465,-6117.389999999999,-6559.65,-38767.68,-23554.89,-24941.205
1764510724.5013754,-4594.05,-38671.47,-31899.15,-6117.57,-6559.514999999999,-38767.23,-23554.395,-24941.205
1764510724.5013754,-4593.42,-38667.915,-31896.54,-6115.005,-6556.455,-38764.665,-23551.965,-24939.855
1764510724.5013754,-4593.69,-38665.71,-31894.695,-6113.79,-6554.969999999999,-38762.955,-23551.2,-24937.92
1764510724.5013754,-4592.52,-38663.775,-31892.265,-6110.73,-6552.315,-38760.795,-23549.58,-24936.21
1764510724.5013754,-4587.435,-38658.24,-31886.955,-6105.105,-6546.599999999999,-38755.35,-23543.46,-24930.63
1764510724.5013754,-4591.44,-38660.85,-31890.645,-6109.245,-6550.155,-38759.265,-23545.53,-24932.7
1764510724.5456164,-4594.365,-38663.64,-31893.795,-6112.62,-6553.17,-38762.595,-23547.645,-24934.005
1764510724.5456164,-4597.38,-38666.61,-31897.305,-6115.815,-6556.455,-38765.79,-23550.615,-24935.625
1764510724.5466304,-4603.185,-38672.73,-31903.245,-6121.304999999999,-6562.215,-38771.28,-23556.465,-24940.62
1764510724.5466304,-4603.995,-38670.165,-31900.815,-6119.19,-6559.2,-38768.58,-23556.24,-24938.82
1764510724.5466304,-4598.46,-38661.255,-31892.535,-6111.99,-6551.28,-38760.48,-23549.535,-24931.305
1764510724.5466304,-4599.045,-38661.165,-31893.03,-6113.295,-6551.82,-38762.055,-23548.905,-24930.945
1764510724.5476298,-4605.84,-38667.69,-31899.375,-6119.865,-6558.03,-38768.985,-23554.035,-24935.535
1764510724.5476298,-4606.02,-38666.925,-31898.52,-6119.73,-6557.67,-38768.715,-23553.72,-24933.24
1764510724.5476298,-4600.44,-38659.455,-31891.455,-6112.755,-6550.92,-38761.65,-23548.41,-24925.455
1764510724.5476298,-4602.105,-38660.94,-31892.67,-6114.69,-6552.27,-38763.27,-23550.075,-24926.175
1764510724.5476298,-4607.82,-38668.59,-31900.005,-6121.755,-6559.245,-38770.29,-23555.205,-24932.295
1764510724.5476298,-4608.63,-38669.085,-31900.5,-6122.34,-6560.145,-38771.055,-23556.78,-24933.555
1764510724.5488696,-4607.82,-38667.51,-31899.105,-6122.16,-6558.75,-38770.47,-23555.07,-24932.07
1764510724.5488696,-4605.84,-38664.765,-31896.72,-6119.594999999999,-6556.139999999999,-38767.32,-23552.955,-24929.55
1764510724.5498643,-4598.46,-38656.575,-31888.755,-6111.315,-6547.815,-38759.22,-23545.215,-24923.205
1764510724.550682,-4599.0,-38657.835,-31888.755,-6112.844999999999,-6547.95,-38759.67,-23545.26,-24923.52
1764510724.550682,-4604.264999999999,-38662.965,-31894.47,-6117.66,-6553.665,-38764.755,-23549.85,-24927.615
1764510724.550682,-4600.755,-38658.555,-31890.015,-6113.969999999999,-6549.435,-38760.795,-23546.7,-24924.42
1764510724.550682,-4599.81,-38659.005,-31890.735,-6114.87,-6549.705,-38761.38,-23547.015,-24924.555
1764510724.550682,-4601.88,-38661.975,-31894.11,-6117.705,-6552.495,-38764.215,-23549.265,-24928.155
1764510724.550682,-4606.47,-38666.43,-31898.34,-6122.88,-6557.264999999999,-38768.67,-23552.82,-24932.07
1764510724.550682,-4606.11,-38664.855,-31896.54,-6121.53,-6555.87,-38766.915,-23551.02,-24931.98
1764510724.590461,-4599.764999999999,-38656.98,-31888.08,-6113.07,-6547.094999999999,-38758.455,-23543.73,-24925.77
1764510724.590461,-4599.63,-38655.225,-31886.685,-6111.719999999999,-6545.565,-38756.79,-23542.2,-24924.645
1764510724.590461,-4602.24,-38657.88,-31889.97,-6114.735,-6549.12,-38759.535,-23543.685,-24926.805
1764510724.590461,-4609.08,-38665.485,-31897.845,-6121.889999999999,-6556.724999999999,-38767.545,-23549.715,-24932.43
1764510724.5921369,-4612.095,-38666.025,-31898.88,-6122.52,-6556.995,-38768.805,-23550.255,-24932.565
1764510724.5921369,-4605.705,-38658.24,-31890.42,-6114.915,-6548.715,-38761.02,-23543.73,-24926.67
1764510724.5921369,-4605.389999999999,-38656.98,-31889.7,-6114.195,-6548.31,-38760.435,-23542.74,-24925.32
1764510724.5921369,-4610.25,-38661.795,-31894.47,-6118.965,-6552.495,-38765.34,-23546.79,-24928.65
1764510724.5921369,-4611.195,-38662.29,-31894.065,-6119.415,-6552.99,-38765.34,-23546.43,-24929.1
1764510724.5921369,-4612.139999999999,-38661.84,-31893.525,-6118.83,-6553.125,-38765.34,-23546.115,-24929.325
1764510724.5921369,-4614.03,-38661.255,-31893.39,-6118.02,-6552.63,-38764.395,-23546.07,-24928.245
1764510724.5921369,-4621.635,-38666.115,-31898.52,-6123.42,-6557.264999999999,-38770.245,-23549.85,-24932.7
1764510724.5921369,-4623.255,-38665.215,-31897.62,-6122.565,-6556.275,-38769.075,-23549.04,-24932.655
1764510724.5921369,-4619.52,-38659.77,-31892.355,-6116.804999999999,-6551.099999999999,-38764.215,-23544.09,-24929.19
1764510724.5921369,-4624.38,-38664.315,-31896.855,-6120.405,-6555.87,-38768.625,-23547.195,-24933.645
1764510724.5921369,-4621.455,-38660.04,-31892.625,-6116.625,-6551.73,-38763.855,-23543.1,-24928.74
1764510724.5921369,-4621.139999999999,-38660.49,-31892.85,-6118.02,-6552.045,-38764.53,-23541.615,-24926.715
1764510724.5921369,-4624.65,-38664.765,-31895.91,-6121.035,-6555.195,-38768.175,-23543.82,-24930.18
1764510724.5941482,-4628.565,-38668.815,-31899.42,-6124.995,-6558.884999999999,-38771.055,-23546.565,-24933.915
1764510724.5941482,-4625.955,-38663.46,-31894.695,-6120.405,-6554.025,-38766.285,-23543.37,-24930.18
1764510724.5941482,-4629.87,-38667.465,-31899.42,-6124.23,-6557.985,-38770.605,-23546.34,-24934.41
1764510724.5941482,-4625.37,-38661.57,-31892.355,-6118.38,-6551.55,-38764.89,-23541.165,-24930.18
1764510724.5941482,-4623.075,-38658.51,-31889.385,-6115.41,-6548.67,-38761.38,-23539.815,-24927.39
1764510724.5941482,-4623.57,-38658.06,-31889.61,-6115.23,-6548.04,-38761.2,-23541.48,-24927.03
1764510724.6381412,-4623.615,-38657.52,-31889.34,-6115.545,-6547.275,-38761.155,-23542.605,-24926.265
1764510724.6381412,-4621.005,-38656.305,-31887.81,-6114.195,-6545.745,-38759.265,-23540.265,-24924.87
1764510724.6381412,-4619.25,-38656.665,-31888.755,-6114.599999999999,-6546.06,-38760.03,-23539.59,-24924.915
1764510724.6381412,-4623.435,-38661.84,-31894.38,-6120.27,-6551.19,-38765.61,-23544.36,-24928.02
1764510724.6381412,-4626.36,-38665.62,-31896.63,-6123.42,-6554.655,-38769.12,-23548.5,-24932.07
1764510724.6381412,-4621.905,-38659.995,-31890.465,-6117.929999999999,-6548.849999999999,-38763.765,-23543.865,-24927.57
1764510724.6381412,-4621.995,-38659.905,-31890.96,-6117.84,-6548.849999999999,-38764.08,-23543.28,-24926.58
1764510724.640154,-4622.535,-38660.76,-31892.22,-6119.415,-6550.065,-38765.88,-23545.215,-24928.56
1764510724.640154,-4621.005,-38659.275,-31890.87,-6118.2,-6549.12,-38764.845,-23545.575,-24927.705
1764510724.640154,-4621.59,-38659.545,-31891.095,-6118.875,-6549.705,-38764.935,-23546.475,-24928.965
1764510724.640154,-4626.72,-38665.395,-31897.755,-6125.625,-6556.77,-38771.865,-23553.495,-24934.545
1764510724.640154,-4626.045,-38665.62,-31898.205,-6126.389999999999,-6557.58,-38772.315,-23554.755,-24934.59
1764510724.640154,-4620.645,-38659.455,-31892.805,-6120.36,-6551.46,-38766.87,-23550.03,-24928.965
1764510724.640154,-4622.4,-38660.22,-31893.795,-6122.25,-6552.405,-38767.68,-23551.425,-24928.965
1764510724.640154,-4626.764999999999,-38665.485,-31898.79,-6128.28,-6558.12,-38773.215,-23557.05,-24933.555
1764510724.640154,-4627.304999999999,-38666.655,-31900.545,-6129.63,-6559.29,-38774.79,-23559.345,-24933.645
1764510724.640154,-4626.855,-38667.42,-31902.03,-6131.115,-6560.054999999999,-38775.24,-23559.975,-24932.97
1764510724.640154,-4626.224999999999,-38666.7,-31900.905,-6130.889999999999,-6559.2,-38775.24,-23559.705,-24930.765
1764510724.6431508,-4621.815,-38661.12,-31895.145,-6125.219999999999,-6553.62,-38770.38,-23555.79,-24925.455
1764510724.6431508,-4624.74,-38664.765,-31899.33,-6129.179999999999,-6557.4,-38774.115,-23559.885,-24928.2
1764510724.6431508,-4621.77,-38661.525,-31896.45,-6127.155,-6554.07,-38771.37,-23559.435,-24926.04
1764510724.6431508,-4615.11,-38654.955,-31889.745,-6121.575,-6547.139999999999,-38765.07,-23553.72,-24918.21
1764510724.686753,-4613.58,-38655.945,-31890.69,-6122.115,-6547.995,-38766.285,-23552.775,-24916.725
1764510724.686753,-4618.44,-38662.38,-31898.115,-6128.82,-6555.195,-38772.54,-23557.905,-24920.82
1764510724.686753,-4622.94,-38668.635,-31904.505,-6134.535,-6561.63,-38778.615,-23562.675,-24924.465
1764510724.6877527,-4618.08,-38663.325,-31899.78,-6130.17,-6556.59,-38774.16,-23559.255,-24919.515
1764510724.6877527,-4621.724999999999,-38668.365,-31904.325,-6135.48,-6561.179999999999,-38778.84,-23562.945,-24922.035
1764510724.6877527,-4622.804999999999,-38671.965,-31907.115,-6139.08,-6565.094999999999,-38782.08,-23566.14,-24923.745
1764510724.6877527,-4623.165,-38672.73,-31908.015,-6139.215,-6565.995,-38783.34,-23567.355,-24923.115
1764510724.6877527,-4621.5,-38670.12,-31906.08,-6137.37,-6563.969999999999,-38781.405,-23566.5,-24920.325
1764510724.6877527,-4619.88,-38667.87,-31903.785,-6135.389999999999,-6561.27,-38778.795,-23566.005,-24917.985
1764510724.6888683,-4616.145,-38666.07,-31901.67,-6133.275,-6559.2,-38776.725,-23565.105,-24915.105
1764510724.6888683,-4609.71,-38661.795,-31897.395,-6129.27,-6555.375,-38772.63,-23562.045,-24909.84
1764510724.6888683,-4614.48,-38668.545,-31904.595,-6136.56,-6561.945,-38778.705,-23568.435,-24914.835
1764510724.6888683,-4610.025,-38664.0,-31900.275,-6131.925,-6557.13,-38773.755,-23565.33,-24910.605
1764510724.689865,-4613.085,-38668.005,-31904.685,-6136.065,-6561.855,-38777.805,-23569.29,-24913.935
1764510724.689865,-4612.95,-38668.365,-31905.675,-6136.92,-6562.304999999999,-38778.615,-23570.865,-24914.07
1764510724.689865,-4610.429999999999,-38666.61,-31904.37,-6135.255,-6560.594999999999,-38776.68,-23570.28,-24912.765
1764510724.689865,-4604.264999999999,-38659.59,-31896.99,-6128.82,-6554.295,-38769.3,-23565.465,-24905.835
1764510724.690866,-4607.865,-38665.305,-31902.3,-6134.58,-6559.469999999999,-38774.115,-23570.28,-24909.84
1764510724.6918702,-4607.19,-38665.17,-31902.255,-6134.625,-6559.38,-38773.215,-23570.37,-24910.065
1764510724.6918702,-4599.675,-38658.33,-31895.595,-6128.145,-6552.63,-38766.78,-23565.06,-24904.665
1764510724.6918702,-4599.179999999999,-38659.545,-31897.89,-6129.315,-6553.755,-38768.94,-23566.77,-24905.655
1764510724.6918702,-4603.365,-38666.97,-31905.855,-6136.785,-6561.09,-38775.645,-23574.465,-24913.935
1764510724.6918702,-4603.185,-38668.095,-31907.16,-6138.224999999999,-6562.17,-38777.67,-23576.355,-24916.59
1764510724.6918702,-4598.955,-38663.415,-31903.02,-6134.94,-6557.759999999999,-38773.485,-23575.005,-24914.79
1764510724.6918702,-4591.304999999999,-38654.73,-31894.965,-6127.425,-6549.12,-38764.035,-23569.38,-24909.615
1764510724.6918702,-4590.72,-38654.91,-31895.73,-6128.054999999999,-6550.56,-38765.61,-23571.0,-24910.605
1764510724.7332318,-4594.095,-38660.13,-31900.365,-6133.545,-6556.139999999999,-38771.055,-23576.67,-24915.825
1764510724.7332318,-4594.139999999999,-38659.86,-31901.04,-6134.04,-6555.915,-38771.28,-23578.155,-24917.175
1764510724.7332318,-4591.53,-38657.79,-31899.42,-6133.59,-6553.889999999999,-38769.84,-23577.48,-24917.355
1764510724.7332318,-4587.795,-38654.46,-31896.855,-6131.7,-6551.099999999999,-38767.77,-23575.23,-24915.105
1764510724.7332318,-4580.55,-38648.43,-31891.095,-6126.885,-6545.7,-38762.01,-23570.73,-24909.795
1764510724.7332318,-4586.535,-38658.42,-31901.04,-6136.83,-6555.645,-38771.64,-23579.505,-24918.3
1764510724.7332318,-4584.599999999999,-38656.98,-31900.455,-6136.065,-6554.7,-38771.01,-23580.45,-24918.705
1764510724.7332318,-4576.905,-38649.78,-31893.21,-6129.36,-6547.455,-38763.54,-23576.04,-24913.17
1764510724.7332318,-4577.13,-38650.77,-31895.145,-6131.7,-6549.3,-38765.295,-23577.84,-24915.015
1764510724.7332318,-4571.415,-38645.415,-31890.78,-6127.469999999999,-6544.17,-38761.515,-23574.375,-24911.55
1764510724.7332318,-4571.685,-38647.755,-31894.155,-6131.16,-6547.365,-38765.295,-23576.895,-24914.205
1764510724.7332318,-4566.599999999999,-38644.155,-31890.285,-6128.594999999999,-6545.205,-38762.415,-23574.24,-24911.055
1764510724.7332318,-4570.155,-38648.7,-31895.1,-6133.679999999999,-6549.435,-38767.185,-23579.145,-24913.53
1764510724.7332318,-4569.03,-38647.62,-31894.29,-6133.275,-6548.355,-38766.6,-23578.695,-24912.0
1764510724.7332318,-4563.945,-38644.515,-31891.005,-6129.9,-6545.655,-38763.72,-23574.645,-24906.33
1764510724.7332318,-4564.845,-38647.35,-31893.525,-6132.915,-6548.264999999999,-38766.195,-23576.985,-24906.42
1764510724.7357843,-4565.34,-38647.98,-31894.785,-6134.31,-6549.3,-38767.59,-23576.895,-24905.34
1764510724.7357843,-4566.465,-38649.915,-31897.44,-6137.054999999999,-6551.415,-38770.245,-23577.57,-24904.305
1764510724.7357843,-4567.59,-38651.985,-31899.735,-6140.025,-6554.565,-38772.9,-23578.965,-24904.665
1764510724.7357843,-4572.63,-38658.735,-31905.585,-6146.46,-6560.19,-38778.165,-23584.68,-24908.58
1764510724.7357843,-4572.224999999999,-38656.53,-31903.2,-6144.885,-6557.94,-38776.635,-23583.195,-24905.07
1764510724.7357843,-4566.33,-38650.635,-31897.305,-6139.304999999999,-6552.719999999999,-38771.415,-23578.785,-24896.925
1764510724.7791328,-4566.96,-38653.965,-31900.455,-6142.005,-6556.139999999999,-38773.8,-23579.73,-24894.855
1764510724.7791328,-4570.47,-38659.905,-31906.8,-6148.665,-6561.9,-38779.74,-23582.79,-24896.475
1764510724.7791328,-4565.295,-38655.63,-31902.12,-6143.804999999999,-6556.679999999999,-38775.6,-23577.165,-24888.645
1764510724.7791328,-4571.37,-38663.55,-31910.265,-6151.32,-6563.969999999999,-38783.07,-23583.6,-24891.3
1764510724.7791328,-4570.605,-38663.73,-31909.815,-6151.41,-6564.735,-38782.53,-23584.68,-24888.06
1764510724.7791328,-4565.429999999999,-38659.05,-31904.73,-6145.92,-6559.469999999999,-38777.625,-23580.855,-24880.77
1764510724.7791328,-4566.465,-38661.435,-31906.755,-6148.215,-6560.865,-38779.605,-23581.755,-24879.555
1764510724.7791328,-4566.87,-38663.46,-31909.455,-6150.915,-6563.52,-38782.17,-23583.24,-24878.745
1764510724.7791328,-4569.795,-38666.43,-31913.28,-6154.38,-6567.615,-38785.68,-23585.85,-24879.33
1764510724.7791328,-4569.389999999999,-38666.205,-31912.65,-6153.84,-6566.804999999999,-38785.095,-23584.815,-24876.27
1764510724.7791328,-4564.304999999999,-38661.12,-31906.935,-6148.889999999999,-6562.125,-38779.74,-23578.695,-24869.115
1764510724.7791328,-4561.29,-38659.23,-31904.37,-6147.63,-6560.054999999999,-38777.04,-23575.905,-24865.965
1764510724.7791328,-4561.38,-38660.355,-31905.675,-6148.44,-6561.495,-38777.715,-23575.59,-24865.29
1764510724.7791328,-4567.679999999999,-38669.49,-31914.675,-6157.125,-6570.27,-38786.715,-23582.07,-24871.905
1764510724.7791328,-4564.575,-38664.99,-31910.265,-6152.94,-6566.219999999999,-38782.755,-23577.885,-24867.99
1764510724.7791328,-4566.51,-38667.375,-31912.155,-6155.594999999999,-6568.875,-38785.005,-23579.46,-24868.98
1764510724.7791328,-4560.705,-38660.085,-31904.415,-6147.27,-6560.865,-38777.175,-23573.295,-24862.635
1764510724.7791328,-4558.724999999999,-38656.62,-31901.49,-6143.625,-6557.355,-38774.43,-23572.485,-24861.375
1764510724.7791328,-4562.685,-38660.04,-31905.315,-6147.855,-6560.325,-38777.49,-23576.355,-24865.425
1764510724.7791328,-4562.82,-38661.03,-31905.045,-6147.99,-6560.639999999999,-38777.22,-23577.12,-24865.47
1764510724.7801485,-4560.255,-38657.52,-31901.67,-6144.66,-6557.49,-38774.07,-23574.15,-24863.58
1764510724.7801485,-4553.505,-38651.445,-31895.415,-6138.405,-6550.469999999999,-38767.365,-23568.075,-24858.27
1764510724.7801485,-4550.849999999999,-38649.465,-31894.515,-6137.099999999999,-6549.03,-38765.475,-23566.275,-24857.1
1764510724.7801485,-4553.82,-38654.145,-31899.24,-6141.87,-6553.889999999999,-38769.795,-23570.685,-24860.115
1764510724.8286428,-4555.215,-38656.26,-31901.04,-6143.355,-6555.69,-38771.415,-23571.99,-24862.05
1764510724.8286428,-4560.75,-38661.93,-31906.305,-6148.17,-6561.495,-38777.4,-23576.445,-24866.64
1764510724.8286428,-4556.34,-38657.565,-31901.13,-6143.445,-6556.32,-38772.315,-23571.63,-24862.635
1764510724.8286428,-4556.97,-38659.59,-31903.515,-6144.615,-6557.895,-38773.305,-23573.07,-24865.47
1764510724.8296545,-4561.38,-38664.135,-31909.275,-6150.105,-6563.969999999999,-38778.93,-23577.48,-24871.725
1764510724.8296545,-4558.815,-38661.885,-31906.485,-6148.349999999999,-6561.495,-38776.86,-23574.915,-24870.78
1764510724.8296545,-4562.01,-38666.745,-31910.4,-6152.445,-6565.365,-38781.09,-23578.29,-24874.29
1764510724.8296545,-4558.23,-38662.29,-31906.395,-6148.71,-6560.865,-38777.355,-23575.455,-24870.645
1764510724.8296545,-4558.275,-38662.335,-31906.98,-6148.304999999999,-6561.585,-38778.03,-23574.96,-24871.905
1764510724.8296545,-4564.17,-38668.59,-31912.56,-6154.38,-6568.02,-38785.095,-23581.035,-24880.095
1764510724.8296545,-4563.63,-38667.33,-31911.795,-6153.03,-6566.4,-38783.115,-23580.63,-24881.4
1764510724.8296545,-4561.514999999999,-38664.18,-31908.285,-6149.79,-6561.719999999999,-38778.84,-23578.92,-24881.085
1764510724.8296545,-4555.755,-38655.63,-31900.23,-6141.51,-6553.485,-38770.74,-23572.98,-24877.215
1764510724.8296545,-4559.94,-38661.255,-31905.315,-6147.719999999999,-6559.785,-38777.49,-23577.255,-24883.02
1764510724.8296545,-4559.445,-38660.22,-31904.28,-6147.224999999999,-6559.469999999999,-38777.895,-23577.57,-24884.595
1764510724.8296545,-4554.675,-38654.37,-31899.78,-6142.365,-6553.665,-38772.99,-23573.52,-24881.04
1764510724.8296545,-4557.69,-38657.07,-31902.39,-6145.065,-6556.545,-38775.06,-23576.22,-24884.82
1764510724.8296545,-4551.57,-38648.43,-31893.795,-6136.38,-6547.724999999999,-38766.195,-23569.29,-24879.96
1764510724.8296545,-4549.41,-38644.38,-31890.42,-6133.139999999999,-6544.395,-38763.09,-23565.825,-24877.845
1764510724.8296545,-4554.63,-38650.005,-31896.9,-6139.26,-6550.695,-38769.075,-23571.18,-24884.055
1764510724.8296545,-4560.75,-38655.945,-31903.245,-6146.054999999999,-6556.545,-38776.095,-23576.715,-24890.22
1764510724.8296545,-4561.83,-38653.29,-31900.05,-6143.219999999999,-6553.53,-38773.44,-23575.545,-24889.185
1764510724.8296545,-4555.845,-38644.515,-31890.87,-6134.264999999999,-6544.304999999999,-38764.485,-23567.94,-24882.615
1764510724.8296545,-4559.804999999999,-38648.61,-31893.93,-6138.09,-6548.49,-38768.22,-23570.1,-24885.63
1764510724.8731816,-4559.445,-38646.9,-31891.59,-6135.929999999999,-6545.745,-38765.655,-23568.345,-24884.415
1764510724.873696,-4556.97,-38640.96,-31886.82,-6130.215,-6539.264999999999,-38759.265,-23562.72,-24878.16
1764510724.873696,-4559.76,-38642.85,-31889.25,-6132.51,-6542.145,-38761.38,-23564.295,-24879.51
1764510724.873696,-4554.945,-38634.705,-31881.42,-6124.679999999999,-6534.315,-38753.415,-23558.94,-24872.715
1764510724.873696,-4553.595,-38632.545,-31878.72,-6122.969999999999,-6531.389999999999,-38751.12,-23556.87,-24869.655
1764510724.873696,-4561.965,-38641.185,-31886.955,-6130.575,-6539.31,-38759.58,-23563.575,-24875.28
1764510724.873696,-4564.08,-38644.02,-31889.07,-6133.094999999999,-6541.425,-38761.245,-23565.87,-24875.955
1764510724.873696,-4561.245,-38639.925,-31884.615,-6129.36,-6537.87,-38757.105,-23562.9,-24870.51
1764510724.873696,-4564.349999999999,-38643.165,-31887.27,-6132.285,-6541.56,-38760.48,-23565.6,-24871.32
1764510724.873696,-4561.2,-38639.655,-31883.49,-6128.55,-6537.87,-38756.115,-23562.09,-24865.83
1764510724.8742075,-4561.514999999999,-38640.555,-31883.895,-6129.719999999999,-6538.32,-38756.385,-23562.045,-24863.715
1764510724.8742075,-4563.495,-38642.76,-31885.56,-6131.429999999999,-6540.165,-38758.005,-23563.935,-24863.31
1764510724.8742075,-4567.679999999999,-38650.005,-31892.355,-6137.865,-6547.094999999999,-38764.395,-23569.965,-24867.855
1764510724.8742075,-4563.36,-38644.515,-31886.82,-6131.925,-6541.245,-38758.68,-23566.455,-24861.78
1764510724.8742075,-4561.02,-38641.365,-31882.095,-6128.639999999999,-6536.565,-38754.54,-23564.16,-24856.2
1764510724.8742075,-4562.28,-38643.975,-31884.975,-6131.745,-6539.355,-38757.645,-23567.67,-24855.165
1764510724.8742075,-4561.965,-38647.215,-31888.71,-6134.355,-6543.224999999999,-38760.705,-23570.865,-24855.615
1764510724.8742075,-4565.16,-38655.09,-31895.415,-6141.554999999999,-6550.92,-38767.905,-23578.065,-24859.71
1764510724.8742075,-4563.27,-38653.92,-31893.75,-6139.98,-6549.165,-38767.635,-23578.065,-24857.55
1764510724.8742075,-4557.15,-38646.99,-31886.82,-6133.094999999999,-6541.695,-38760.705,-23573.88,-24850.8
1764510724.8742075,-4553.865,-38643.795,-31884.48,-6130.125,-6539.04,-38757.33,-23573.97,-24847.29
1764510724.8742075,-4552.155,-38645.28,-31885.335,-6131.34,-6540.615,-38758.5,-23576.4,-24845.94
1764510724.921698,-4550.355,-38648.16,-31887.585,-6133.005,-6542.415,-38760.3,-23579.19,-24844.725
1764510724.921698,-4547.79,-38647.305,-31886.775,-6132.78,-6541.38,-38759.445,-23580.27,-24841.305
1764510724.921698,-4546.035,-38646.54,-31887.045,-6132.51,-6540.165,-38759.49,-23581.08,-24839.775
1764510724.921698,-4552.29,-38656.215,-31896.99,-6142.23,-6550.785,-38769.345,-23590.71,-24846.705
1764510724.921698,-4551.795,-38657.385,-31898.025,-6142.815,-6551.73,-38770.11,-23593.095,-24847.29
1764510724.921698,-4549.724999999999,-38655.585,-31896.63,-6141.465,-6550.425,-38768.49,-23593.41,-24845.04
1764510724.921698,-4541.49,-38648.385,-31890.015,-6135.165,-6543.179999999999,-38761.605,-23589.315,-24839.19
1764510724.921698,-4539.105,-38647.395,-31889.79,-6134.94,-6543.179999999999,-38761.11,-23590.395,-24838.425
1764510724.921698,-4540.455,-38649.78,-31892.94,-6137.55,-6545.25,-38763.72,-23593.185,-24839.82
1764510724.921698,-4543.514999999999,-38654.73,-31898.205,-6141.69,-6549.75,-38768.76,-23599.8,-24843.33
1764510724.921698,-4534.785,-38647.215,-31891.545,-6135.344999999999,-6543.134999999999,-38762.37,-23596.155,-24838.425
1764510724.921698,-4530.96,-38644.695,-31889.52,-6133.679999999999,-6541.469999999999,-38761.47,-23596.425,-24837.345
1764510724.9227166,-4529.97,-38644.155,-31890.06,-6133.995,-6541.65,-38761.11,-23597.19,-24838.695
1764510724.9227166,-4536.045,-38652.93,-31899.33,-6143.535,-6550.65,-38770.29,-23606.55,-24848.1
1764510724.9227166,-4533.929999999999,-38652.3,-31899.15,-6143.895,-6550.469999999999,-38770.47,-23607.9,-24849.9
1764510724.9227166,-4527.99,-38648.295,-31895.505,-6141.33,-6546.735,-38766.42,-23605.605,-24847.605
1764510724.9227166,-4528.215,-38648.295,-31897.17,-6142.139999999999,-6548.085,-38768.22,-23607.045,-24850.035
1764510724.9227166,-4534.47,-38655.9,-31904.505,-6149.655,-6555.69,-38776.545,-23613.975,-24858.18
1764510724.9227166,-4533.929999999999,-38655.045,-31904.505,-6149.88,-6554.969999999999,-38776.23,-23614.425,-24860.79
1764510724.9227166,-4528.215,-38646.495,-31897.215,-6143.04,-6547.139999999999,-38769.345,-23608.935,-24857.055
1764510724.9227166,-4527.36,-38645.01,-31895.37,-6142.95,-6545.745,-38769.12,-23608.845,-24858.765
1764510724.9227166,-4531.23,-38648.79,-31899.15,-6147.945,-6550.155,-38773.305,-23613.39,-24864.615
1764510724.9227166,-4525.875,-38641.455,-31892.175,-6141.014999999999,-6542.46,-38766.195,-23608.53,-24861.15
1764510724.9227166,-4530.825,-38647.485,-31897.845,-6146.325,-6547.455,-38772.135,-23614.155,-24867.585
1764510724.9682672,-4526.775,-38642.625,-31894.335,-6142.094999999999,-6543.54,-38768.22,-23611.005,-24863.67
1764510724.9682672,-4531.005,-38647.44,-31899.33,-6147.719999999999,-6549.165,-38773.44,-23614.47,-24868.035
1764510724.9682672,-4526.19,-38641.23,-31893.975,-6142.139999999999,-6543.27,-38769.03,-23611.005,-24864.21
1764510724.9682672,-4529.745,-38643.48,-31896.315,-6145.155,-6545.925,-38771.235,-23614.47,-24866.865
1764510724.9682672,-4527.09,-38638.8,-31891.815,-6141.554999999999,-6541.56,-38767.32,-23611.905,-24863.895
1764510724.9682672,-4531.77,-38644.74,-31897.89,-6148.395,-6547.32,-38773.305,-23616.18,-24866.37
1764510724.9691648,-4533.84,-38646.54,-31899.735,-6149.295,-6548.67,-38775.06,-23616.99,-24866.145
1764510724.9691648,-4528.889999999999,-38641.725,-31895.235,-6144.525,-6544.349999999999,-38770.11,-23611.995,-24860.07
1764510724.970189,-4527.675,-38639.7,-31893.255,-6142.23,-6542.099999999999,-38768.67,-23610.195,-24856.515
1764510724.970189,-4532.31,-38642.445,-31896.225,-6145.875,-6544.755,-38771.235,-23613.075,-24858.45
1764510724.970189,-4537.53,-38648.115,-31901.31,-6151.5,-6549.884999999999,-38775.87,-23617.53,-24861.735
1764510724.970189,-4534.83,-38643.795,-31896.405,-6146.73,-6545.07,-38770.74,-23613.57,-24856.695
1764510724.970189,-4538.295,-38646.315,-31899.015,-6149.655,-6548.715,-38773.215,-23614.515,-24856.335
1764510724.970189,-4538.79,-38645.145,-31897.215,-6148.125,-6547.275,-38770.965,-23612.895,-24853.455
1764510724.971182,-4539.195,-38643.84,-31895.325,-6146.325,-6545.655,-38769.075,-23610.33,-24850.44
1764510724.971182,-4537.98,-38641.095,-31892.715,-6145.02,-6543.134999999999,-38767.77,-23607.45,-24846.57
1764510724.971182,-4533.84,-38635.425,-31887.09,-6139.71,-6537.33,-38762.28,-23601.87,-24840.135
1764510724.971182,-4533.165,-38634.03,-31886.64,-6139.215,-6536.52,-38761.38,-23600.655,-24838.83
1764510724.971182,-4532.94,-38635.47,-31887.72,-6140.295,-6536.969999999999,-38762.595,-23599.755,-24838.83
1764510724.9725685,-4534.605,-38635.515,-31887.27,-6140.25,-6536.79,-38761.875,-23598.855,-24838.74
1764510724.9725685,-4534.83,-38634.615,-31886.955,-6139.62,-6536.025,-38761.47,-23597.73,-24837.705
1764510724.973571,-4534.695,-38635.2,-31888.215,-6140.52,-6537.554999999999,-38762.505,-23597.685,-24839.82
1764510724.973571,-4539.105,-38641.095,-31893.165,-6145.2,-6542.73,-38767.545,-23601.6,-24844.41
1764510724.974564,-4534.514999999999,-38636.73,-31888.215,-6140.25,-6538.455,-38762.955,-23597.865,-24841.215
1764510725.0137584,-4533.165,-38637.675,-31889.25,-6141.33,-6538.679999999999,-38763.585,-23596.965,-24843.06
1764510725.0147746,-4536.764999999999,-38643.39,-31895.37,-6147.179999999999,-6544.17,-38769.66,-23601.69,-24848.46
1764510725.0147746,-4532.804999999999,-38639.97,-31892.265,-6143.715,-6540.21,-38766.195,-23597.37,-24844.635
1764510725.0157695,-4529.745,-38638.125,-31890.105,-6141.69,-6538.455,-38764.395,-23596.11,-24843.33
1764510725.0157695,-4530.014999999999,-38640.78,-31892.67,-6143.985,-6540.66,-38766.825,-23597.64,-24844.365
1764510725.0157695,-4533.48,-38645.37,-31896.945,-6148.53,-6545.34,-38771.235,-23601.645,-24848.865
1764510725.0157695,-4537.665,-38650.995,-31902.345,-6153.84,-6551.145,-38776.995,-23607.045,-24854.445
1764510725.0157695,-4536.45,-38651.04,-31901.94,-6153.929999999999,-6551.37,-38776.23,-23607.63,-24855.795
1764510725.0157695,-4533.66,-38648.97,-31900.185,-6151.905,-6549.075,-38774.115,-23606.505,-24852.96
1764510725.01677,-4531.995,-38647.08,-31898.52,-6150.195,-6547.77,-38772.765,-23606.28,-24851.34
1764510725.01677,-4525.83,-38640.87,-31892.94,-6145.29,-6541.83,-38767.275,-23602.455,-24846.93
1764510725.01677,-4524.929999999999,-38642.31,-31893.93,-6146.505,-6541.875,-38767.815,-23603.085,-24847.2
1764510725.01677,-4525.74,-38645.145,-31896.225,-6148.8,-6544.665,-38770.2,-23605.245,-24848.64
1764510725.01677,-4526.595,-38647.08,-31898.295,-6150.69,-6546.599999999999,-38772.18,-23606.235,-24849.855
1764510725.01677,-4528.665,-38649.375,-31901.94,-6154.695,-6550.29,-38775.555,-23608.485,-24850.755
1764510725.01677,-4535.325,-38657.205,-31910.085,-6162.48,-6559.155,-38784.375,-23616.135,-24858.63
1764510725.01677,-4534.605,-38656.305,-31908.87,-6160.995,-6557.804999999999,-38783.97,-23616.045,-24857.955
1764510725.01677,-4530.285,-38650.635,-31903.515,-6155.639999999999,-6552.134999999999,-38778.345,-23613.03,-24852.69
1764510725.01677,-4532.94,-38654.415,-31907.52,-6160.41,-6555.915,-38782.35,-23616.36,-24856.29
1764510725.01677,-4527.27,-38647.035,-31900.545,-6152.985,-6548.94,-38775.645,-23611.05,-24851.475
1764510725.01677,-4527.224999999999,-38647.62,-31900.275,-6153.435,-6549.48,-38776.545,-23610.645,-24851.565
1764510725.01677,-4532.04,-38652.975,-31905.855,-6158.25,-6555.42,-38781.72,-23615.415,-24856.785
1764510725.0615232,-4532.715,-38652.84,-31905.81,-6158.79,-6556.275,-38781.9,-23615.46,-24857.595
1764510725.0615232,-4528.53,-38649.6,-31902.84,-6156.315,-6553.259999999999,-38779.29,-23612.76,-24856.065
1764510725.0615232,-4522.77,-38643.48,-31896.765,-6150.24,-6546.15,-38773.8,-23605.92,-24851.43
1764510725.0615232,-4528.349999999999,-38650.05,-31902.705,-6156.63,-6552.764999999999,-38780.19,-23610.915,-24857.28
1764510725.0615232,-4521.69,-38642.58,-31894.695,-6148.889999999999,-6545.115,-38772.225,-23605.29,-24850.71
1764510725.0615232,-4520.565,-38641.59,-31893.165,-6148.26,-6544.08,-38771.685,-23604.57,-24848.145
1764510725.0615232,-4522.23,-38644.2,-31894.965,-6150.465,-6546.06,-38774.655,-23606.19,-24849.18
1764510725.0615232,-4526.054999999999,-38648.565,-31899.915,-6154.65,-6550.425,-38779.29,-23609.925,-24853.14
1764510725.0615232,-4519.71,-38643.165,-31894.74,-6149.655,-6544.349999999999,-38773.665,-23603.265,-24847.47
1764510725.0615232,-4518.945,-38642.31,-31893.66,-6149.115,-6544.17,-38773.08,-23601.6,-24845.58
1764510725.0615232,-4520.429999999999,-38644.335,-31895.595,-6150.51,-6546.465,-38775.105,-23602.095,-24844.77
1764510725.0615232,-4520.745,-38645.415,-31896.27,-6151.59,-6547.094999999999,-38776.095,-23601.51,-24842.925
1764510725.0615232,-4521.915,-38645.955,-31895.91,-6151.95,-6547.094999999999,-38775.645,-23601.015,-24841.395
1764510725.0615232,-4529.429999999999,-38653.11,-31903.38,-6159.24,-6553.844999999999,-38782.35,-23607.09,-24847.02
1764510725.0615232,-4529.655,-38652.435,-31902.795,-6158.79,-6553.349999999999,-38781.945,-23605.875,-24846.255
1764510725.0615232,-4524.57,-38644.695,-31894.515,-6150.825,-6545.295,-38774.7,-23597.235,-24839.055
1764510725.0615232,-4530.285,-38649.465,-31898.52,-6155.505,-6549.344999999999,-38779.29,-23598.99,-24842.115
1764510725.0625243,-4531.905,-38650.095,-31898.475,-6156.315,-6549.84,-38779.56,-23598.855,-24841.53
1764510725.0625243,-4529.97,-38647.8,-31895.955,-6154.38,-6546.96,-38777.22,-23597.055,-24838.38
1764510725.0625243,-4526.505,-38642.895,-31891.095,-6149.88,-6542.19,-38772.09,-23591.61,-24832.305
1764510725.0625243,-4528.755,-38646.36,-31894.335,-6153.3,-6545.79,-38775.555,-23593.32,-24833.25
1764510725.0625243,-4534.965,-38653.875,-31901.13,-6160.455,-6553.304999999999,-38783.25,-23598.9,-24837.93
1764510725.0625243,-4529.474999999999,-38644.515,-31891.725,-6151.86,-6544.215,-38774.745,-23591.43,-24830.19
1764510725.0625243,-4529.745,-38643.345,-31891.23,-6151.365,-6543.63,-38774.025,-23590.08,-24828.84
1764510725.1079578,-4529.835,-38642.13,-31890.465,-6150.599999999999,-6542.73,-38773.17,-23589.45,-24826.545
1764510725.1079578,-4531.86,-38644.335,-31892.67,-6153.795,-6544.62,-38775.465,-23590.89,-24827.13
1764510725.1079578,-4538.429999999999,-38651.67,-31899.465,-6160.005,-6551.054999999999,-38782.395,-23595.12,-24832.305
1764510725.1079578,-4537.304999999999,-38649.915,-31897.935,-6158.745,-6549.929999999999,-38781.045,-23593.185,-24828.57
1764510725.1079578,-4542.165,-38655.585,-31903.74,-6164.37,-6556.455,-38786.76,-23596.515,-24832.62
1764510725.1079578,-4539.33,-38651.265,-31898.43,-6159.24,-6551.91,-38781.585,-23592.465,-24828.57
1764510725.1079578,-4539.375,-38650.725,-31897.44,-6158.745,-6551.099999999999,-38780.775,-23590.98,-24827.805
1764510725.1089733,-4538.7,-38649.825,-31896.225,-6159.33,-6550.65,-38781.045,-23589.27,-24827.76
1764510725.1089733,-4539.915,-38649.33,-31896.18,-6159.465,-6550.425,-38781.18,-23587.515,-24827.04
1764510725.1089733,-4544.235,-38653.02,-31900.59,-6163.155,-6554.07,-38784.87,-23588.28,-24830.01
1764510725.1089733,-4544.639999999999,-38652.75,-31900.455,-6162.12,-6553.665,-38784.87,-23586.435,-24829.965
1764510725.1089733,-4548.014999999999,-38655.0,-31901.58,-6163.605,-6555.78,-38786.265,-23586.705,-24832.305
1764510725.1089733,-4554.585,-38660.13,-31907.655,-6168.78,-6560.91,-38791.395,-23590.17,-24837.03
1764510725.1089733,-4556.925,-38659.77,-31907.52,-6169.635,-6561.179999999999,-38791.755,-23589.945,-24836.85
1764510725.1089733,-4553.55,-38654.775,-31902.165,-6164.099999999999,-6555.42,-38787.03,-23584.905,-24833.025
1764510725.1089733,-4555.53,-38654.865,-31901.85,-6163.245,-6555.42,-38787.57,-23584.41,-24833.79
1764510725.1089733,-4560.705,-38658.105,-31905.405,-6167.565,-6559.785,-38791.35,-23586.48,-24840.0
1764510725.1089733,-4557.599999999999,-38650.455,-31897.575,-6160.5,-6551.639999999999,-38783.295,-23578.695,-24837.12
1764510725.1089733,-4559.715,-38651.58,-31898.97,-6161.804999999999,-6552.315,-38784.42,-23577.12,-24840.27
1764510725.1089733,-4564.71,-38656.035,-31904.19,-6166.44,-6557.264999999999,-38789.01,-23579.685,-24847.02
1764510725.1089733,-4566.69,-38655.405,-31904.19,-6166.844999999999,-6557.175,-38788.74,-23579.28,-24850.395
1764510725.1089733,-4569.389999999999,-38656.305,-31905.18,-6168.24,-6558.255,-38789.775,-23578.74,-24854.58
1764510725.1089733,-4574.88,-38660.985,-31910.265,-6173.685,-6563.295,-38795.895,-23581.53,-24862.68
1764510725.1089733,-4571.865,-38655.495,-31905.225,-6168.87,-6558.705,-38791.08,-23576.355,-24862.095
1764510725.1524189,-4574.61,-38656.395,-31907.295,-6169.995,-6560.19,-38792.925,-23575.77,-24864.705
1764510725.1524189,-4582.935,-38664.0,-31914.27,-6177.51,-6567.255,-38800.62,-23581.305,-24872.31
1764510725.1524189,-4584.285,-38662.515,-31912.965,-6176.925,-6565.95,-38800.08,-23579.865,-24874.515
1764510725.1524189,-4578.929999999999,-38653.335,-31904.415,-6168.825,-6557.895,-38792.565,-23571.945,-24871.95
1764510725.1524189,-4578.795,-38652.57,-31904.64,-6168.33,-6557.175,-38792.115,-23570.055,-24874.335
1764510725.1534393,-4584.87,-38656.17,-31908.24,-6172.469999999999,-6560.775,-38796.525,-23573.115,-24880.14
1764510725.1534393,-4590.36,-38659.185,-31912.245,-6176.07,-6563.835,-38800.17,-23574.915,-24885.18
1764510725.1534393,-4588.38,-38654.505,-31907.61,-6171.165,-6559.02,-38795.355,-23570.82,-24884.1
1764510725.1534393,-4589.595,-38653.38,-31906.08,-6169.77,-6557.94,-38794.23,-23569.29,-24884.955
1764510725.1534393,-4594.275,-38656.755,-31910.895,-6174.0,-6562.304999999999,-38798.73,-23570.64,-24888.69
1764510725.1534393,-4601.385,-38663.145,-31918.185,-6180.57,-6568.83,-38805.93,-23574.915,-24896.475
1764510725.1534393,-4599.99,-38661.165,-31915.08,-6178.77,-6566.219999999999,-38802.915,-23572.53,-24896.07
1764510725.1534393,-4605.255,-38665.62,-31920.12,-6183.855,-6571.08,-38807.73,-23576.805,-24900.615
1764510725.1534393,-4601.835,-38659.185,-31914.27,-6178.59,-6565.32,-38801.97,-23572.08,-24896.52
1764510725.1534393,-4603.139999999999,-38659.23,-31914.36,-6179.445,-6565.5,-38802.42,-23570.64,-24896.43
1764510725.1534393,-4606.695,-38661.255,-31916.88,-6182.054999999999,-6568.11,-38804.535,-23573.16,-24898.14
1764510725.1534393,-4607.235,-38661.48,-31917.645,-6182.775,-6568.514999999999,-38805.39,-23572.62,-24898.59
1764510725.1534393,-4607.55,-38662.065,-31917.87,-6183.405,-6569.19,-38805.435,-23572.62,-24898.23
1764510725.1534393,-4606.155,-38660.67,-31915.89,-6182.099999999999,-6567.389999999999,-38803.95,-23571.45,-24896.655
1764510725.1545956,-4605.345,-38659.41,-31914.09,-6181.469999999999,-6565.275,-38802.33,-23570.82,-24894.63
1764510725.156593,-4607.73,-38663.235,-31917.735,-6185.07,-6568.425,-38804.94,-23572.8,-24896.25
1764510725.156593,-4601.16,-38654.865,-31909.815,-6176.745,-6560.415,-38797.065,-23567.22,-24888.195
1764510725.2023473,-4598.28,-38652.525,-31906.44,-6173.865,-6557.895,-38793.87,-23563.98,-24884.505
1764510725.2023473,-4599.99,-38655.135,-31909.095,-6176.88,-6561.134999999999,-38796.795,-23566.005,-24883.515
1764510725.2023473,-4595.67,-38651.4,-31904.37,-6173.054999999999,-6557.085,-38793.555,-23562.945,-24875.595
1764510725.2023473,-4599.764999999999,-38658.69,-31910.085,-6179.49,-6563.115,-38800.08,-23570.685,-24876.945
1764510725.2023473,-4597.83,-38656.89,-31909.635,-6177.465,-6560.865,-38798.145,-23570.1,-24871.725
1764510725.2023473,-4595.445,-38655.495,-31908.645,-6175.98,-6558.75,-38795.31,-23569.245,-24867.27
1764510725.2023473,-4591.215,-38653.245,-31906.305,-6174.179999999999,-6556.094999999999,-38792.34,-23567.445,-24861.78
1764510725.2023473,-4585.77,-38649.33,-31903.02,-6170.895,-6552.495,-38789.19,-23563.71,-24854.58
1764510725.2023473,-4583.88,-38650.68,-31903.38,-6172.29,-6553.665,-38789.82,-23563.89,-24850.35
1764510725.2023473,-4581.675,-38650.725,-31902.885,-6171.615,-6554.07,-38789.235,-23565.06,-24846.795
1764510725.2023473,-4579.83,-38651.85,-31903.605,-6172.065,-6554.925,-38789.415,-23566.005,-24844.095
1764510725.2023473,-4582.215,-38656.98,-31908.105,-6177.69,-6559.514999999999,-38793.96,-23569.515,-24843.735
1764510725.2023473,-4577.13,-38653.605,-31904.64,-6174.9,-6555.014999999999,-38789.685,-23565.24,-24835.545
1764510725.2023473,-4580.099999999999,-38660.265,-31912.515,-6181.965,-6561.855,-38796.48,-23571.09,-24837.615
1764510725.2023473,-4577.94,-38660.13,-31911.93,-6181.469999999999,-6561.27,-38795.85,-23571.27,-24834.24
1764510725.2023473,-4574.16,-38657.745,-31908.87,-6178.995,-6558.66,-38792.79,-23570.415,-24831.0
1764510725.2023473,-4567.59,-38650.905,-31902.075,-6172.65,-6552.179999999999,-38786.715,-23564.115,-24823.215
1764510725.2023473,-4567.05,-38650.365,-31901.805,-6173.46,-6552.36,-38787.165,-23563.305,-24819.39
1764510725.2023473,-4569.929999999999,-38656.08,-31907.925,-6179.04,-6558.165,-38791.845,-23567.895,-24821.46
1764510725.2023473,-4564.845,-38653.83,-31905.495,-6175.575,-6555.69,-38788.695,-23566.005,-24816.555
1764510725.2033377,-4564.304999999999,-38655.045,-31906.395,-6177.645,-6557.264999999999,-38790.63,-23566.77,-24815.61
1764510725.2033377,-4566.645,-38658.87,-31911.03,-6182.594999999999,-6561.405,-38795.265,-23569.92,-24818.085
1764510725.2033377,-4561.605,-38655.855,-31907.88,-6179.31,-6558.344999999999,-38791.665,-23566.14,-24813.54
1764510725.2033377,-4566.87,-38662.2,-31914.54,-6185.7,-6565.679999999999,-38797.965,-23570.46,-24818.22
1764510725.2466493,-4561.065,-38655.36,-31908.105,-6180.165,-6558.795,-38791.98,-23565.015,-24813.405
1764510725.2466493,-4559.804999999999,-38654.955,-31907.115,-6180.03,-6558.389999999999,-38791.08,-23564.565,-24812.28
1764510725.2476614,-4563.81,-38659.5,-31911.93,-6184.665,-6563.16,-38796.21,-23568.075,-24815.88
1764510725.2476614,-4558.77,-38654.28,-31906.17,-6179.04,-6557.355,-38790.54,-23563.755,-24811.83
1764510725.2476614,-4556.79,-38651.85,-31904.415,-6177.51,-6554.79,-38788.29,-23560.38,-24809.265
1764510725.2476614,-4558.545,-38653.56,-31905.765,-6179.445,-6556.32,-38790.09,-23560.11,-24810.705
1764510725.2476614,-4562.955,-38661.03,-31912.515,-6186.42,-6563.34,-38796.615,-23564.115,-24816.33
1764510725.2476614,-4561.83,-38660.175,-31911.075,-6185.115,-6562.17,-38795.355,-23562.81,-24816.465
1764510725.2476614,-4556.16,-38651.31,-31903.155,-6176.969999999999,-6553.755,-38787.57,-23556.6,-24810.03
1764510725.2476614,-4561.514999999999,-38658.42,-31910.265,-6183.27,-6560.685,-38795.22,-23561.865,-24816.15
1764510725.2476614,-4557.554999999999,-38654.19,-31906.215,-6179.49,-6556.995,-38790.765,-23557.77,-24813.36
1764510725.2476614,-4558.23,-38654.505,-31906.665,-6180.525,-6558.03,-38791.305,-23558.22,-24813.315
1764510725.2476614,-4560.345,-38658.375,-31910.445,-6184.17,-6562.08,-38795.49,-23560.83,-24815.79
1764510725.2476614,-4564.8,-38662.92,-31915.395,-6188.715,-6566.13,-38799.54,-23564.07,-24819.66
1764510725.2476614,-4559.445,-38657.565,-31910.13,-6183.405,-6560.594999999999,-38793.96,-23558.67,-24814.665
1764510725.2476614,-4560.435,-38659.455,-31911.795,-6185.385,-6562.844999999999,-38795.985,-23559.165,-24817.545
1764510725.2476614,-4567.05,-38665.935,-31917.69,-6192.135,-6569.594999999999,-38803.365,-23564.43,-24824.385
1764510725.2476614,-4567.32,-38665.395,-31917.195,-6191.415,-6568.514999999999,-38802.825,-23562.63,-24825.105
1764510725.2476614,-4563.81,-38662.695,-31914.585,-6188.715,-6566.13,-38800.125,-23557.41,-24822.54
1764510725.2476614,-4569.48,-38667.87,-31919.67,-6193.98,-6571.304999999999,-38805.21,-23560.83,-24828.57
1764510725.2476614,-4565.429999999999,-38660.13,-31912.02,-6186.285,-6563.384999999999,-38798.37,-23555.115,-24823.395
1764510725.2481673,-4566.105,-38660.265,-31912.245,-6187.23,-6563.745,-38798.415,-23553.81,-24824.745
1764510725.296322,-4573.26,-38667.645,-31919.265,-6194.295,-6570.36,-38806.02,-23558.895,-24831.945
1764510725.296322,-4575.554999999999,-38668.995,-31920.345,-6195.915,-6572.34,-38808.18,-23560.74,-24834.195
1764510725.296322,-4576.275,-38667.15,-31919.04,-6194.88,-6570.719999999999,-38806.965,-23558.805,-24833.16
1764510725.296322,-4575.78,-38665.71,-31917.69,-6193.08,-6569.28,-38805.3,-23557.005,-24832.89
1764510725.296322,-4570.245,-38659.455,-31911.525,-6186.465,-6562.304999999999,-38799.45,-23551.155,-24828.75
1764510725.296322,-4570.02,-38658.24,-31909.995,-6185.115,-6561.405,-38797.605,-23549.94,-24828.39
1764510725.296322,-4573.215,-38661.48,-31913.73,-6188.445,-6564.87,-38800.845,-23551.92,-24830.055
1764510725.296322,-4579.38,-38667.735,-31919.67,-6194.07,-6570.495,-38806.38,-23556.015,-24834.465
1764510725.296322,-4585.005,-38671.92,-31923.72,-6198.389999999999,-6573.69,-38810.34,-23558.4,-24839.37
1764510725.296322,-4584.33,-38668.68,-31920.12,-6195.195,-6569.685,-38807.235,-23555.925,-24837.705
1764510725.296322,-4580.505,-38661.66,-31912.74,-6187.815,-6563.655,-38800.665,-23549.265,-24831.405
1764510725.296322,-4585.005,-38663.73,-31914.54,-6190.245,-6566.535,-38803.095,-23550.525,-24835.68
1764510725.296322,-4586.715,-38662.83,-31914.27,-6189.165,-6565.275,-38801.745,-23547.915,-24835.545
1764510725.296322,-4584.24,-38658.78,-31910.13,-6186.06,-6560.73,-38797.065,-23543.73,-24831.27
1764510725.296322,-4588.92,-38662.695,-31913.28,-6190.38,-6565.05,-38801.25,-23544.81,-24834.645
1764510725.296322,-4585.995,-38657.52,-31908.195,-6185.925,-6559.785,-38795.805,-23539.635,-24831.045
1764510725.296322,-4589.145,-38659.41,-31910.175,-6187.139999999999,-6561.764999999999,-38797.695,-23538.78,-24831.495
1764510725.296322,-4598.37,-38669.265,-31919.67,-6197.4,-6572.25,-38807.73,-23546.16,-24838.695
1764510725.296322,-4601.429999999999,-38670.255,-31920.885,-6198.3,-6573.06,-38808.72,-23546.655,-24839.865
1764510725.296322,-4602.645,-38670.705,-31920.795,-6197.985,-6572.745,-38809.485,-23546.655,-24840.045
1764510725.296322,-4603.23,-38670.48,-31919.985,-6197.94,-6572.7,-38809.62,-23545.395,-24840.36
1764510725.296322,-4603.005,-38669.04,-31918.365,-6196.365,-6571.349999999999,-38807.415,-23544.09,-24839.415
1764510725.296322,-4598.73,-38662.47,-31911.66,-6190.74,-6564.554999999999,-38801.115,-23538.555,-24833.565
1764510725.296322,-4604.264999999999,-38668.095,-31917.33,-6196.455,-6570.045,-38806.47,-23542.29,-24837.84
1764510725.3428524,-4605.48,-38668.005,-31917.69,-6197.085,-6569.865,-38806.785,-23542.605,-24837.93
1764510725.3428524,-4600.889999999999,-38660.625,-31910.67,-6190.065,-6561.855,-38799.45,-23536.395,-24831.945
1764510725.3428524,-4601.655,-38661.975,-31912.29,-6191.235,-6563.52,-38800.485,-23536.53,-24832.89
1764510725.3428524,-4609.485,-38671.47,-31921.065,-6201.45,-6573.33,-38810.115,-23543.82,-24840.855
1764510725.3428524,-4606.74,-38668.59,-31919.04,-6198.84,-6570.224999999999,-38806.74,-23540.265,-24837.66
1764510725.3428524,-4610.205,-38673.135,-31924.035,-6203.07,-6574.59,-38810.88,-23543.19,-24841.44
1764510725.3428524,-4604.985,-38667.645,-31918.05,-6198.075,-6568.92,-38805.075,-23537.565,-24837.57
1764510725.3428524,-4604.04,-38667.015,-31917.33,-6197.445,-6568.335,-38804.58,-23536.125,-24837.3
1764510725.3428524,-4602.735,-38663.505,-31914.675,-6194.88,-6565.679999999999,-38802.06,-23533.695,-24836.625
1764510725.3428524,-4601.655,-38660.625,-31911.93,-6191.955,-6562.71,-38799.63,-23532.345,-24836.355
1764510725.3428524,-4606.02,-38664.945,-31916.25,-6196.59,-6566.849999999999,-38803.95,-23536.89,-24840.27
1764510725.3438654,-4604.355,-38662.155,-31913.055,-6194.205,-6564.014999999999,-38801.025,-23534.73,-24838.11
1764510725.3438654,-4598.28,-38654.415,-31905.225,-6185.925,-6555.645,-38793.105,-23528.385,-24831.99
1764510725.3438654,-4600.035,-38655.405,-31906.845,-6186.78,-6557.264999999999,-38794.32,-23530.365,-24833.565
1764510725.3438654,-4601.295,-38656.125,-31907.295,-6188.175,-6558.48,-38795.085,-23531.175,-24835.005
1764510725.3438654,-4604.985,-38660.625,-31911.795,-6192.9,-6563.205,-38800.035,-23536.08,-24841.305
1764510725.3438654,-4606.47,-38660.94,-31912.38,-6193.98,-6563.52,-38800.305,-23536.665,-24842.115
1764510725.3438654,-4607.595,-38661.345,-31913.055,-6194.565,-6563.835,-38800.62,-23536.44,-24842.655
1764510725.3438654,-4607.82,-38660.04,-31911.93,-6192.315,-6562.17,-38798.64,-23534.685,-24841.305
1764510725.3438654,-4608.09,-38659.905,-31911.75,-6192.27,-6562.215,-38798.145,-23534.955,-24841.17
1764510725.3438654,-4606.92,-38657.745,-31910.13,-6191.505,-6560.639999999999,-38797.29,-23533.155,-24838.74
1764510725.3438654,-4601.07,-38648.61,-31900.275,-6182.01,-6551.415,-38787.975,-23526.315,-24831.27
1764510725.3438654,-4599.855,-38648.25,-31899.645,-6181.469999999999,-6550.514999999999,-38787.12,-23524.065,-24829.38
1764510725.3438654,-4604.535,-38654.19,-31905.36,-6187.95,-6556.634999999999,-38792.88,-23527.89,-24833.115
1764510725.391829,-4605.795,-38656.665,-31908.24,-6190.965,-6559.514999999999,-38795.805,-23529.96,-24833.835
1764510725.391829,-4609.62,-38661.615,-31913.055,-6195.78,-6564.465,-38800.53,-23533.83,-24837.705
1764510725.391829,-4611.42,-38661.705,-31914.18,-6196.95,-6565.95,-38801.7,-23533.605,-24839.64
1764510725.391829,-4611.915,-38661.3,-31914.45,-6197.219999999999,-6566.445,-38801.655,-23533.065,-24839.64
