Timestamp,Channel1,Channel2,Channel3,Channel4,Channel5,Channel6,Channel7,Channel8
1764510879.2060575,-5689.755,-38251.35,-31087.62,-7338.195,-7347.014999999999,-37869.345,-23533.245,-23749.875
1764510879.2060575,-5686.2,-38245.14,-31081.905,-7333.245,-7341.389999999999,-37863.765,-23526.765,-23745.555
1764510879.2060575,-5692.365,-38250.18,-31087.08,-7338.599999999999,-7346.34,-37868.58,-23528.97,-23750.055
1764510879.2060575,-5694.255,-38251.53,-31088.79,-7340.58,-7347.465,-37870.245,-23528.385,-23751.63
1764510879.2060575,-5694.075,-38248.695,-31086.315,-7337.79,-7345.665,-37867.905,-23523.93,-23749.695
1764510879.2060575,-5691.33,-38243.97,-31080.915,-7332.344999999999,-7341.12,-37863.72,-23517.675,-23745.465
1764510879.2060575,-5696.775,-38249.01,-31085.73,-7337.969999999999,-7345.485,-37867.995,-23519.655,-23750.055
1764510879.2060575,-5697.719999999999,-38250.27,-31086.765,-7339.275,-7346.474999999999,-37868.4,-23519.205,-23751.36
1764510879.2060575,-5694.48,-38245.32,-31081.32,-7334.144999999999,-7341.03,-37863.54,-23513.4,-23746.14
1764510879.2060575,-5696.594999999999,-38245.365,-31080.96,-7333.514999999999,-7340.445,-37863.405,-23512.635,-23747.13
1764510879.2060575,-5698.17,-38243.52,-31079.88,-7331.49,-7338.69,-37861.56,-23510.25,-23747.76
1764510879.2060575,-5701.905,-38245.05,-31081.455,-7332.75,-7340.804999999999,-37862.91,-23510.79,-23748.795
1764510879.2060575,-5704.56,-38245.095,-31081.77,-7333.38,-7340.309999999999,-37862.73,-23510.565,-23749.695
1764510879.2060575,-5710.59,-38250.27,-31085.505,-7337.655,-7344.719999999999,-37867.77,-23514.3,-23754.78
1764510879.2060575,-5712.12,-38250.675,-31085.55,-7337.16,-7344.764999999999,-37868.13,-23514.03,-23756.58
1764510879.2060575,-5708.295,-38244.51,-31079.88,-7331.085,-7338.014999999999,-37861.695,-23508.405,-23752.71
1764510879.2060575,-5709.465,-38245.59,-31081.455,-7332.389999999999,-7339.5,-37863.36,-23508.585,-23753.745
1764510879.2060575,-5711.175,-38247.3,-31082.445,-7332.884999999999,-7341.12,-37864.44,-23510.655,-23755.23
1764510879.2060575,-5709.645,-38245.77,-31080.24,-7330.905,-7339.59,-37862.01,-23510.97,-23754.555
1764510879.2060575,-5711.804999999999,-38246.22,-31081.23,-7332.75,-7341.434999999999,-37862.955,-23513.805,-23757.615
1764510879.2060575,-5718.014999999999,-38252.25,-31087.8,-7338.42,-7347.105,-37868.985,-23519.475,-23763.87
1764510879.2060575,-5718.195,-38251.845,-31087.395,-7337.61,-7346.205,-37868.715,-23520.015,-23764.95
1764510879.2510638,-5714.19,-38246.67,-31081.68,-7332.525,-7340.49,-37862.865,-23515.155,-23760.945
1764510879.2510638,-5716.215,-38248.47,-31084.335,-7335.315,-7342.65,-37864.62,-23517.54,-23764.455
1764510879.2510638,-5721.48,-38253.42,-31090.095,-7340.445,-7348.184999999999,-37870.065,-23524.965,-23770.08
1764510879.2510638,-5723.145,-38253.555,-31089.96,-7340.085,-7347.735,-37869.39,-23526.45,-23770.17
1764510879.2510638,-5716.98,-38246.67,-31082.94,-7334.099999999999,-7340.67,-37862.595,-23521.68,-23765.49
1764510879.2520592,-5715.945,-38245.815,-31082.13,-7333.38,-7339.905,-37861.695,-23520.915,-23766.12
1764510879.2520592,-5719.23,-38248.605,-31084.875,-7335.99,-7342.065,-37864.44,-23523.21,-23768.325
1764510879.2520592,-5724.045,-38252.88,-31088.88,-7339.455,-7346.16,-37868.22,-23529.42,-23772.87
1764510879.2520592,-5726.925,-38256.39,-31092.525,-7343.19,-7350.389999999999,-37872.405,-23534.73,-23777.1
1764510879.2530608,-5721.84,-38252.385,-31089.33,-7340.715,-7348.41,-37870.11,-23533.83,-23774.76
1764510879.2530608,-5722.02,-38254.005,-31090.68,-7341.84,-7349.49,-37871.955,-23535.54,-23776.38
1764510879.2530608,-5722.02,-38255.04,-31090.995,-7342.2,-7350.03,-37871.64,-23537.07,-23778.045
1764510879.2530608,-5722.74,-38256.165,-31092.705,-7343.955,-7351.2,-37872.99,-23539.185,-23779.53
1764510879.2530608,-5726.655,-38260.755,-31096.44,-7348.679999999999,-7355.205,-37877.85,-23545.125,-23783.94
1764510879.254063,-5721.615,-38254.455,-31090.77,-7343.415,-7348.815,-37872.135,-23542.11,-23779.755
1764510879.254063,-5719.23,-38252.745,-31088.79,-7341.389999999999,-7346.969999999999,-37870.74,-23541.615,-23778.54
1764510879.254063,-5719.995,-38253.87,-31090.14,-7342.245,-7348.32,-37872.9,-23543.01,-23779.305
1764510879.254063,-5721.255,-38256.795,-31092.525,-7345.844999999999,-7351.335,-37875.33,-23547.24,-23782.68
1764510879.254063,-5722.65,-38258.865,-31094.325,-7348.59,-7353.585,-37877.31,-23548.86,-23784.795
1764510879.254063,-5717.655,-38252.25,-31088.475,-7342.2,-7346.969999999999,-37871.73,-23543.37,-23779.17
1764510879.254063,-5719.139999999999,-38253.24,-31090.185,-7343.594999999999,-7347.915,-37873.305,-23545.17,-23780.16
1764510879.254063,-5713.695,-38248.29,-31085.28,-7338.644999999999,-7342.469999999999,-37868.4,-23541.84,-23775.39
1764510879.2552028,-5712.48,-38247.615,-31084.74,-7338.195,-7341.434999999999,-37867.455,-23540.805,-23772.465
1764510879.2552028,-5714.37,-38250.36,-31087.53,-7341.255,-7344.809999999999,-37870.47,-23542.47,-23772.96
1764510879.2981143,-5718.78,-38255.535,-31093.29,-7346.745,-7350.929999999999,-37875.78,-23546.52,-23776.155
1764510879.2981143,-5715.224999999999,-38250.81,-31088.295,-7342.2,-7345.125,-37871.37,-23541.525,-23770.755
1764510879.2981143,-5716.304999999999,-38252.43,-31090.23,-7344.269999999999,-7346.88,-37873.08,-23541.255,-23770.8
1764510879.2981143,-5724.315,-38259.675,-31097.79,-7351.29,-7354.304999999999,-37880.415,-23546.34,-23776.92
1764510879.2981143,-5720.985,-38253.735,-31091.04,-7345.53,-7348.094999999999,-37874.52,-23540.13,-23771.7
1764510879.2981143,-5722.605,-38254.23,-31091.4,-7346.205,-7348.545,-37875.42,-23538.87,-23771.565
1764510879.2981143,-5726.205,-38256.165,-31093.245,-7347.644999999999,-7350.615,-37877.445,-23537.925,-23773.14
1764510879.2981143,-5730.974999999999,-38258.19,-31095.855,-7349.715,-7353.179999999999,-37879.92,-23537.565,-23775.84
1764510879.2981143,-5728.139999999999,-38251.935,-31088.835,-7343.325,-7345.98,-37873.35,-23529.42,-23770.395
1764510879.2981143,-5731.02,-38253.195,-31089.195,-7343.82,-7346.88,-37873.71,-23527.665,-23770.44
1764510879.2991233,-5737.59,-38258.55,-31094.19,-7349.04,-7352.19,-37879.02,-23529.195,-23774.715
1764510879.2991233,-5736.06,-38252.025,-31087.98,-7343.91,-7345.62,-37872.495,-23521.905,-23770.8
1764510879.2991233,-5737.77,-38252.475,-31087.62,-7344.99,-7346.565,-37872.225,-23519.025,-23771.565
1764510879.2991233,-5742.855,-38255.805,-31090.32,-7348.139999999999,-7349.715,-37875.465,-23519.52,-23776.695
1764510879.2991233,-5750.054999999999,-38260.35,-31094.46,-7352.505,-7353.585,-37879.74,-23521.725,-23782.095
1764510879.2991233,-5753.34,-38260.845,-31095.135,-7353.179999999999,-7354.53,-37880.19,-23520.105,-23782.545
1764510879.2991233,-5754.735,-38259.63,-31093.695,-7352.144999999999,-7352.594999999999,-37879.335,-23517.855,-23781.78
1764510879.2991233,-5757.344999999999,-38258.64,-31092.03,-7351.92,-7351.155,-37877.49,-23515.875,-23782.41
1764510879.2991233,-5754.78,-38252.295,-31085.82,-7346.07,-7344.269999999999,-37871.595,-23509.845,-23778.855
1764510879.2991233,-5758.245,-38253.87,-31087.845,-7347.42,-7346.205,-37873.44,-23510.925,-23780.79
1764510879.2991233,-5765.715,-38259.315,-31093.56,-7353.585,-7351.83,-37879.065,-23516.055,-23787.315
1764510879.2991233,-5763.825,-38255.265,-31089.24,-7350.12,-7347.78,-37874.79,-23512.86,-23785.245
1764510879.2991233,-5765.985,-38257.335,-31091.49,-7351.469999999999,-7349.49,-37876.905,-23514.21,-23787.405
1764510879.2991233,-5774.625,-38265.345,-31099.23,-7359.165,-7357.05,-37884.42,-23521.455,-23796.225
1764510879.343673,-5775.795,-38264.625,-31097.97,-7358.445,-7356.465,-37884.105,-23522.04,-23797.62
1764510879.343673,-5775.255,-38263.23,-31096.305,-7357.679999999999,-7355.384999999999,-37881.99,-23521.905,-23798.79
1764510879.343673,-5770.98,-38256.165,-31089.42,-7350.705,-7348.094999999999,-37875.24,-23516.28,-23794.2
1764510879.343673,-5769.63,-38252.835,-31085.865,-7346.835,-7344.719999999999,-37872.0,-23514.615,-23794.425
1764510879.343673,-5772.599999999999,-38255.175,-31088.745,-7348.905,-7347.375,-37874.205,-23517.405,-23797.665
1764510879.343673,-5780.52,-38264.04,-31097.655,-7358.625,-7356.78,-37883.925,-23525.865,-23806.08
1764510879.343673,-5781.51,-38264.58,-31098.465,-7359.344999999999,-7357.005,-37884.24,-23528.16,-23808.465
1764510879.343673,-5774.895,-38257.56,-31090.77,-7352.19,-7349.13,-37876.77,-23523.165,-23803.875
1764510879.343673,-5773.815,-38258.145,-31091.985,-7353.269999999999,-7349.94,-37878.705,-23524.38,-23804.415
1764510879.343673,-5780.115,-38266.065,-31099.77,-7361.775,-7358.13,-37887.435,-23532.57,-23812.2
1764510879.343673,-5778.63,-38265.705,-31099.995,-7362.405,-7357.679999999999,-37887.03,-23533.92,-23812.065
1764510879.343673,-5773.05,-38261.295,-31094.82,-7357.32,-7352.55,-37882.62,-23530.365,-23807.7
1764510879.343673,-5773.815,-38265.165,-31098.915,-7361.009999999999,-7356.42,-37886.58,-23534.865,-23811.705
1764510879.343673,-5767.785,-38260.845,-31095.36,-7357.094999999999,-7353.269999999999,-37883.07,-23532.84,-23807.79
1764510879.3442078,-5767.245,-38263.995,-31098.285,-7361.73,-7356.599999999999,-37887.12,-23537.565,-23808.96
1764510879.3442078,-5761.62,-38259.99,-31094.82,-7358.13,-7352.639999999999,-37883.16,-23536.44,-23804.505
1764510879.3442078,-5759.594999999999,-38259.72,-31095.18,-7358.264999999999,-7352.91,-37882.845,-23538.33,-23804.415
1764510879.3442078,-5761.71,-38265.255,-31101.03,-7364.205,-7358.58,-37888.245,-23544.72,-23808.69
1764510879.3442078,-5755.545,-38259.72,-31095.99,-7359.12,-7352.91,-37883.655,-23542.47,-23804.325
1764510879.3442078,-5754.51,-38260.575,-31096.71,-7360.38,-7353.315,-37885.545,-23545.08,-23804.19
1764510879.3452194,-5756.58,-38266.065,-31101.12,-7366.545,-7358.759999999999,-37891.305,-23550.84,-23807.34
1764510879.3452194,-5752.125,-38262.42,-31097.835,-7363.17,-7355.565,-37887.66,-23549.22,-23802.795
1764510879.3890567,-5751.99,-38263.455,-31098.825,-7364.34,-7357.005,-37888.245,-23550.255,-23802.66
1764510879.3890567,-5753.88,-38266.92,-31102.02,-7367.49,-7360.2,-37891.665,-23554.71,-23806.125
1764510879.3890567,-5749.92,-38262.87,-31097.79,-7363.62,-7355.88,-37888.29,-23552.19,-23804.145
1764510879.3890567,-5754.96,-38267.28,-31102.515,-7368.615,-7360.11,-37892.43,-23556.465,-23809.095
1764510879.3890567,-5757.705,-38268.63,-31104.27,-7370.775,-7361.235,-37894.455,-23557.05,-23810.22
1764510879.3890567,-5757.03,-38266.47,-31101.93,-7368.344999999999,-7359.795,-37892.565,-23554.62,-23807.43
1764510879.3890567,-5751.719999999999,-38260.755,-31096.08,-7363.259999999999,-7354.53,-37887.48,-23548.455,-23802.975
1764510879.3890567,-5754.42,-38262.195,-31097.295,-7364.519999999999,-7356.014999999999,-37889.46,-23548.5,-23804.415
1764510879.3890567,-5759.28,-38266.29,-31101.3,-7368.48,-7360.38,-37893.375,-23550.84,-23809.32
1764510879.3890567,-5759.145,-38264.67,-31099.32,-7366.679999999999,-7358.535,-37891.17,-23547.735,-23809.5
1764510879.3890567,-5755.77,-38257.875,-31093.47,-7360.469999999999,-7351.785,-37884.42,-23540.4,-23804.64
1764510879.3890567,-5755.995,-38256.12,-31091.22,-7358.894999999999,-7348.724999999999,-37881.855,-23536.17,-23803.83
1764510879.3890567,-5757.75,-38255.49,-31090.95,-7357.995,-7348.094999999999,-37880.865,-23532.84,-23803.83
1764510879.3890567,-5760.045,-38256.93,-31091.94,-7359.03,-7350.12,-37882.485,-23531.445,-23805.36
1764510879.3890567,-5760.179999999999,-38257.47,-31092.615,-7360.965,-7351.38,-37884.195,-23529.69,-23805.675
1764510879.3890567,-5761.44,-38257.38,-31093.065,-7360.965,-7351.245,-37883.925,-23527.935,-23804.64
1764510879.3905902,-5764.635,-38260.17,-31095.18,-7363.259999999999,-7354.304999999999,-37886.67,-23527.125,-23805.27
1764510879.3905902,-5767.065,-38262.06,-31096.17,-7364.745,-7356.105,-37888.74,-23526.945,-23808.06
1764510879.3905902,-5768.145,-38261.745,-31095.585,-7364.115,-7354.62,-37888.47,-23524.74,-23806.98
1764510879.3905902,-5769.99,-38261.79,-31095.09,-7364.205,-7354.17,-37888.29,-23524.065,-23806.35
1764510879.3905902,-5771.205,-38262.735,-31095.99,-7364.655,-7354.485,-37889.01,-23524.74,-23806.305
1764510879.3905902,-5773.23,-38265.075,-31097.835,-7366.455,-7357.094999999999,-37891.62,-23525.775,-23806.26
1764510879.3905902,-5778.54,-38269.53,-31102.785,-7371.495,-7361.82,-37896.345,-23529.87,-23809.59
1764510879.3905902,-5774.04,-38263.68,-31097.205,-7365.33,-7355.474999999999,-37890.27,-23526.675,-23804.145
1764510879.4350991,-5772.42,-38262.42,-31096.215,-7362.9,-7353.719999999999,-37888.515,-23527.125,-23802.075
1764510879.4360964,-5775.57,-38265.21,-31099.365,-7365.96,-7356.465,-37891.62,-23531.535,-23803.695
1764510879.4360964,-5772.69,-38263.545,-31097.385,-7364.429999999999,-7354.844999999999,-37890.405,-23531.04,-23799.375
1764510879.4360964,-5777.505,-38270.7,-31103.775,-7371.045,-7361.235,-37897.965,-23539.14,-23803.02
1764510879.4360964,-5775.165,-38267.955,-31101.39,-7368.165,-7358.715,-37895.265,-23539.005,-23799.78
1764510879.4360964,-5766.929999999999,-38258.505,-31092.84,-7359.66,-7349.94,-37886.58,-23533.74,-23790.96
1764510879.4360964,-5763.105,-38255.67,-31090.23,-7357.86,-7347.195,-37884.195,-23531.94,-23786.325
1764510879.4360964,-5763.645,-38258.415,-31092.255,-7361.054999999999,-7350.3,-37886.13,-23535.45,-23786.1
1764510879.4360964,-5766.48,-38264.04,-31099.005,-7367.085,-7355.61,-37891.935,-23542.695,-23789.7
1764510879.4360964,-5761.935,-38259.225,-31094.28,-7362.719999999999,-7349.804999999999,-37887.39,-23540.175,-23784.12
1764510879.4360964,-5758.514999999999,-38257.515,-31092.165,-7360.875,-7347.78,-37885.815,-23538.69,-23781.42
1764510879.4360964,-5755.455,-38254.365,-31089.105,-7357.95,-7344.855,-37883.34,-23537.25,-23778.63
1764510879.4360964,-5754.24,-38253.06,-31088.61,-7357.139999999999,-7344.179999999999,-37882.53,-23536.665,-23775.84
1764510879.4366093,-5755.094999999999,-38253.555,-31088.34,-7357.905,-7345.259999999999,-37880.91,-23539.365,-23775.57
1764510879.4366093,-5753.969999999999,-38254.05,-31089.555,-7358.715,-7344.945,-37881.72,-23538.78,-23774.58
1764510879.4366093,-5751.54,-38252.61,-31088.7,-7356.69,-7342.965,-37881.18,-23537.88,-23773.23
1764510879.4366093,-5750.145,-38251.665,-31087.395,-7354.755,-7342.514999999999,-37880.325,-23536.395,-23770.935
1764510879.4366093,-5749.245,-38250.315,-31086.27,-7355.07,-7342.245,-37879.02,-23535.0,-23770.665
1764510879.4366093,-5753.16,-38254.86,-31090.365,-7359.165,-7346.295,-37883.07,-23536.845,-23774.535
1764510879.4366093,-5752.889999999999,-38253.915,-31089.285,-7357.365,-7344.045,-37881.045,-23536.215,-23774.22
1764510879.4366093,-5749.65,-38251.485,-31086.765,-7354.844999999999,-7341.03,-37878.57,-23533.47,-23771.34
1764510879.4366093,-5743.755,-38244.645,-31080.015,-7348.365,-7334.28,-37872.405,-23526.675,-23765.715
1764510879.4806492,-5745.06,-38245.545,-31081.05,-7349.715,-7335.54,-37874.34,-23526.405,-23766.255
1764510879.4806492,-5752.485,-38253.825,-31089.78,-7358.49,-7344.315,-37883.07,-23532.03,-23773.59
1764510879.4806492,-5751.675,-38252.88,-31087.8,-7357.365,-7342.74,-37881.405,-23530.365,-23772.51
1764510879.4806492,-5746.32,-38245.455,-31080.465,-7350.03,-7335.224999999999,-37873.89,-23523.795,-23767.245
1764510879.4816616,-5746.139999999999,-38244.465,-31078.62,-7348.769999999999,-7333.785,-37872.63,-23522.445,-23767.2
1764510879.4816616,-5751.855,-38249.505,-31082.805,-7354.304999999999,-7338.42,-37877.31,-23526.81,-23771.565
1764510879.4816616,-5751.63,-38246.895,-31080.33,-7351.83,-7335.45,-37874.07,-23522.895,-23769.63
1764510879.4816616,-5757.03,-38251.665,-31085.505,-7356.24,-7340.67,-37878.93,-23526.315,-23774.265
1764510879.4816616,-5756.13,-38249.055,-31083.075,-7354.035,-7337.79,-37877.04,-23524.245,-23771.745
1764510879.4816616,-5761.395,-38251.305,-31084.38,-7356.42,-7341.075,-37878.03,-23526.495,-23774.58
1764510879.4816616,-5757.3,-38244.78,-31079.025,-7350.075,-7335.045,-37873.485,-23520.645,-23769.855
1764510879.4816616,-5761.8,-38246.355,-31080.78,-7352.415,-7336.53,-37875.78,-23522.58,-23773.59
1764510879.4816616,-5767.29,-38251.17,-31084.38,-7355.7,-7340.804999999999,-37879.29,-23526.045,-23778.945
1764510879.4816616,-5765.804999999999,-38246.94,-31079.115,-7351.065,-7335.315,-37874.25,-23522.175,-23777.82
1764510879.4816616,-5770.98,-38250.0,-31082.4,-7354.035,-7337.745,-37877.265,-23523.795,-23782.77
1764510879.4816616,-5771.025,-38246.67,-31078.845,-7350.389999999999,-7334.054999999999,-37873.53,-23520.42,-23781.51
1764510879.4816616,-5773.139999999999,-38246.22,-31078.08,-7350.21,-7333.425,-37873.305,-23518.935,-23783.355
1764510879.4816616,-5777.639999999999,-38249.1,-31080.51,-7352.415,-7335.99,-37875.825,-23520.69,-23788.665
1764510879.4816616,-5786.37,-38257.11,-31088.88,-7360.245,-7343.009999999999,-37883.565,-23526.585,-23798.07
1764510879.4816616,-5787.495,-38254.95,-31086.315,-7358.219999999999,-7340.804999999999,-37882.305,-23525.28,-23799.015
1764510879.4816616,-5783.625,-38246.94,-31078.8,-7351.065,-7333.559999999999,-37877.445,-23519.475,-23794.515
1764510879.4816616,-5792.264999999999,-38255.085,-31087.35,-7359.075,-7341.884999999999,-37885.725,-23525.955,-23803.065
1764510879.530912,-5794.785,-38256.57,-31088.385,-7360.65,-7341.929999999999,-37883.79,-23524.605,-23805.27
1764510879.530912,-5796.585,-38257.11,-31088.79,-7360.335,-7341.3,-37880.73,-23521.545,-23806.26
1764510879.530912,-5793.885,-38252.97,-31085.145,-7357.275,-7337.969999999999,-37878.03,-23517.315,-23803.83
1764510879.530912,-5794.065,-38252.43,-31084.155,-7356.15,-7337.115,-37878.525,-23517.27,-23805.315
1764510879.530912,-5794.29,-38254.23,-31086.045,-7357.905,-7338.375,-37879.56,-23518.89,-23809.095
1764510879.530912,-5799.014999999999,-38261.34,-31092.03,-7363.62,-7344.045,-37885.59,-23523.93,-23815.44
1764510879.530912,-5796.81,-38259.09,-31090.23,-7361.82,-7342.29,-37883.475,-23522.985,-23813.955
1764510879.530912,-5787.945,-38249.64,-31080.915,-7353.315,-7333.38,-37874.07,-23515.785,-23806.485
1764510879.530912,-5788.53,-38254.05,-31085.145,-7357.769999999999,-7338.014999999999,-37878.48,-23517.765,-23808.33
1764510879.530912,-5794.695,-38261.745,-31093.65,-7365.915,-7347.105,-37886.49,-23525.865,-23815.62
1764510879.530912,-5786.91,-38255.49,-31087.17,-7358.67,-7339.995,-37880.055,-23520.735,-23809.455
1764510879.530912,-5783.219999999999,-38252.655,-31084.11,-7356.509999999999,-7337.519999999999,-37877.355,-23520.69,-23806.485
1764510879.530912,-5783.94,-38256.165,-31087.755,-7359.929999999999,-7341.255,-37880.64,-23524.83,-23809.5
1764510879.530912,-5780.16,-38254.815,-31086.315,-7358.58,-7339.23,-37879.695,-23524.605,-23808.105
1764510879.5319116,-5772.33,-38249.01,-31080.465,-7353.495,-7333.559999999999,-37874.205,-23521.185,-23801.805
1764510879.5319116,-5772.375,-38251.8,-31084.29,-7357.634999999999,-7337.384999999999,-37878.255,-23526.99,-23803.695
1764510879.5319116,-5771.474999999999,-38252.88,-31085.505,-7359.12,-7338.87,-37879.38,-23530.005,-23804.865
1764510879.5319116,-5768.01,-38252.07,-31083.885,-7357.905,-7337.295,-37877.715,-23529.465,-23803.965
1764510879.5319116,-5762.07,-38249.685,-31081.77,-7355.205,-7334.865,-37875.69,-23528.475,-23799.87
1764510879.5319116,-5766.344999999999,-38255.265,-31086.72,-7361.325,-7341.705,-37880.91,-23535.405,-23802.525
1764510879.5319116,-5760.719999999999,-38252.43,-31084.02,-7358.309999999999,-7338.24,-37878.93,-23533.2,-23798.295
1764510879.5319116,-5762.07,-38257.875,-31090.995,-7365.014999999999,-7344.945,-37886.4,-23539.59,-23802.075
1764510879.5319116,-5761.395,-38259.135,-31092.39,-7366.95,-7346.519999999999,-37888.92,-23542.245,-23802.12
1764510879.5319116,-5758.785,-38257.02,-31090.14,-7364.429999999999,-7344.09,-37886.175,-23541.84,-23800.32
1764510879.5319116,-5751.675,-38249.415,-31082.13,-7357.23,-7336.62,-37878.615,-23538.105,-23792.85
1764510879.5319116,-5749.38,-38246.94,-31080.015,-7355.7,-7333.425,-37876.86,-23537.655,-23790.42
1764510879.5764077,-5749.245,-38247.03,-31079.925,-7355.295,-7333.155,-37876.32,-23537.7,-23790.015
1764510879.5764077,-5748.795,-38245.455,-31078.665,-7353.495,-7331.625,-37874.97,-23537.43,-23789.34
1764510879.5764077,-5750.37,-38247.57,-31080.915,-7355.969999999999,-7333.605,-37878.255,-23537.88,-23789.34
1764510879.5764077,-5754.915,-38251.08,-31084.155,-7359.48,-7337.205,-37881.855,-23540.625,-23791.32
1764510879.5764077,-5754.87,-38250.0,-31082.445,-7358.309999999999,-7336.394999999999,-37881.09,-23540.13,-23790.42
1764510879.5764077,-5755.5,-38250.0,-31082.04,-7357.815,-7335.855,-37881.315,-23540.085,-23790.195
1764510879.5764077,-5759.28,-38250.72,-31082.715,-7359.075,-7335.945,-37881.81,-23540.22,-23791.59
1764510879.5764077,-5764.77,-38252.745,-31084.83,-7362.09,-7338.33,-37883.115,-23542.245,-23794.65
1764510879.5764077,-5762.295,-38247.165,-31079.52,-7356.509999999999,-7332.48,-37878.165,-23537.52,-23789.79
1764510879.5764077,-5763.014999999999,-38246.31,-31078.08,-7355.34,-7331.309999999999,-37876.545,-23535.81,-23788.575
1764510879.5764077,-5766.525,-38246.4,-31078.035,-7355.565,-7330.815,-37876.545,-23535.18,-23788.8
1764510879.5764077,-5772.87,-38250.27,-31080.825,-7359.03,-7334.775,-37881.09,-23536.845,-23792.85
1764510879.5764077,-5771.88,-38245.59,-31075.425,-7354.17,-7330.365,-37875.645,-23531.22,-23787.72
1764510879.5764077,-5775.525,-38246.94,-31076.505,-7355.565,-7330.41,-37876.77,-23531.805,-23788.44
1764510879.5764077,-5777.46,-38246.445,-31075.605,-7354.304999999999,-7329.78,-37876.005,-23530.68,-23788.89
1764510879.5764077,-5780.88,-38245.95,-31075.29,-7353.945,-7329.644999999999,-37875.555,-23531.175,-23788.98
1764510879.5764077,-5783.76,-38246.355,-31075.605,-7353.945,-7329.195,-37875.87,-23530.815,-23788.98
1764510879.5764077,-5787.45,-38247.03,-31076.01,-7354.53,-7329.24,-37876.59,-23531.265,-23789.52
1764510879.5764077,-5790.87,-38247.345,-31076.865,-7355.115,-7329.69,-37877.13,-23531.49,-23789.475
1764510879.5764077,-5794.065,-38246.85,-31077.27,-7355.34,-7330.365,-37876.77,-23532.12,-23790.195
1764510879.622489,-5801.445,-38252.61,-31082.265,-7361.054999999999,-7335.63,-37882.44,-23535.54,-23795.37
1764510879.622489,-5802.525,-38250.81,-31080.33,-7359.344999999999,-7333.514999999999,-37880.595,-23533.47,-23794.11
1764510879.622489,-5797.8,-38243.205,-31073.13,-7352.28,-7326.09,-37873.845,-23526.99,-23787.675
1764510879.622489,-5800.455,-38244.42,-31073.58,-7353.09,-7326.63,-37875.465,-23527.665,-23789.295
1764510879.622489,-5806.304999999999,-38248.155,-31078.215,-7357.815,-7331.67,-37881.36,-23532.075,-23793.075
1764510879.622489,-5807.16,-38246.715,-31077.675,-7358.219999999999,-7332.075,-37882.665,-23532.525,-23792.85
1764510879.622489,-5805.764999999999,-38246.085,-31077.045,-7357.455,-7330.455,-37881.18,-23531.265,-23791.545
1764510879.622489,-5803.38,-38243.205,-31073.445,-7353.45,-7324.83,-37873.575,-23525.595,-23789.07
1764510879.622489,-5808.915,-38249.955,-31079.61,-7359.615,-7330.455,-37877.535,-23527.89,-23793.795
1764510879.622489,-5806.304999999999,-38246.76,-31076.82,-7357.094999999999,-7328.61,-37877.175,-23525.73,-23790.87
1764510879.622489,-5807.52,-38249.595,-31079.79,-7359.48,-7330.905,-37881.135,-23528.25,-23792.76
1764510879.622489,-5801.849999999999,-38243.655,-31074.66,-7354.17,-7324.92,-37874.835,-23523.21,-23788.08
1764510879.622489,-5801.355,-38243.61,-31074.255,-7353.99,-7325.37,-37874.52,-23522.04,-23787.675
1764510879.622489,-5803.605,-38248.02,-31078.215,-7357.5,-7330.455,-37879.605,-23526.765,-23790.555
1764510879.622489,-5805.405,-38251.98,-31082.715,-7361.955,-7334.144999999999,-37883.745,-23529.51,-23794.74
1764510879.622489,-5805.135,-38252.205,-31082.58,-7362.764999999999,-7333.92,-37882.305,-23528.565,-23794.695
1764510879.622489,-5800.139999999999,-38247.3,-31077.765,-7358.04,-7330.05,-37877.94,-23525.37,-23789.385
1764510879.622489,-5803.38,-38251.62,-31082.265,-7362.585,-7334.505,-37883.07,-23530.23,-23792.895
1764510879.622489,-5803.38,-38252.565,-31083.21,-7362.855,-7334.865,-37884.42,-23531.58,-23792.49
1764510879.622489,-5799.96,-38249.55,-31080.375,-7360.74,-7332.255,-37882.08,-23530.455,-23790.555
1764510879.622489,-5794.065,-38244.42,-31076.055,-7356.465,-7328.25,-37877.49,-23527.17,-23786.01
1764510879.622489,-5793.929999999999,-38244.195,-31075.38,-7356.599999999999,-7327.844999999999,-37877.805,-23529.24,-23786.64
1764510879.622489,-5787.135,-38239.65,-31070.295,-7351.605,-7322.445,-37872.54,-23526.27,-23782.275
1764510879.622489,-5786.775,-38239.155,-31070.745,-7352.19,-7323.48,-37873.44,-23528.835,-23782.545
1764510879.6677651,-5790.69,-38244.69,-31076.46,-7357.455,-7328.115,-37878.75,-23534.19,-23786.145
1764510879.6677651,-5790.645,-38245.68,-31076.73,-7358.13,-7328.7,-37878.75,-23536.62,-23786.37
1764510879.6677651,-5787.0,-38243.025,-31074.84,-7355.88,-7326.045,-37876.68,-23536.26,-23783.625
1764510879.6677651,-5782.32,-38239.155,-31071.96,-7352.054999999999,-7322.985,-37873.125,-23533.47,-23779.575
1764510879.6677651,-5784.84,-38243.61,-31076.28,-7356.735,-7327.53,-37876.68,-23537.97,-23782.77
1764510879.6677651,-5784.12,-38242.215,-31074.525,-7355.16,-7325.415,-37875.105,-23539.005,-23780.925
1764510879.6677651,-5779.889999999999,-38237.625,-31069.08,-7349.58,-7319.745,-37870.335,-23535.27,-23776.065
1764510879.6677651,-5783.219999999999,-38240.775,-31072.005,-7353.269999999999,-7323.57,-37873.755,-23537.88,-23779.17
1764510879.6677651,-5776.965,-38231.775,-31063.455,-7344.269999999999,-7314.57,-37865.565,-23531.265,-23772.42
1764510879.6677651,-5778.0,-38232.765,-31064.265,-7344.99,-7315.11,-37867.095,-23531.805,-23772.33
1764510879.6677651,-5780.205,-38235.69,-31066.695,-7348.05,-7317.855,-37869.57,-23533.065,-23773.905
1764510879.6677651,-5782.139999999999,-38237.58,-31069.08,-7349.759999999999,-7319.474999999999,-37870.83,-23534.19,-23775.3
1764510879.6677651,-5787.224999999999,-38243.52,-31075.47,-7355.025,-7325.28,-37876.365,-23537.655,-23779.755
1764510879.6677651,-5785.469999999999,-38240.415,-31072.5,-7352.639999999999,-7322.13,-37874.205,-23534.685,-23778.045
1764510879.6677651,-5790.42,-38246.13,-31077.72,-7358.58,-7326.99,-37880.1,-23538.105,-23782.275
1764510879.6677651,-5792.67,-38247.345,-31078.845,-7360.065,-7328.429999999999,-37881.18,-23538.96,-23782.95
1764510879.6677651,-5791.815,-38246.175,-31077.63,-7359.075,-7327.125,-37879.92,-23536.44,-23781.78
1764510879.6677651,-5786.775,-38239.2,-31070.565,-7351.965,-7319.025,-37872.54,-23529.06,-23776.065
1764510879.6677651,-5786.054999999999,-38237.805,-31068.54,-7350.255,-7316.639999999999,-37870.605,-23526.63,-23775.795
1764510879.6677651,-5794.875,-38246.535,-31077.09,-7358.894999999999,-7326.09,-37880.01,-23533.065,-23783.85
1764510879.6677651,-5796.764999999999,-38247.12,-31077.54,-7359.974999999999,-7326.179999999999,-37881.09,-23532.48,-23785.29
1764510879.6677651,-5794.155,-38240.91,-31069.665,-7354.215,-7320.42,-37873.845,-23526.945,-23781.105
1764510879.6689656,-5795.639999999999,-38242.89,-31071.465,-7355.205,-7321.95,-37875.555,-23525.82,-23781.78
1764510879.6689656,-5801.625,-38249.235,-31078.125,-7361.37,-7328.61,-37881.72,-23530.32,-23787.225
1764510879.7129412,-5801.4,-38247.48,-31075.875,-7359.255,-7326.224999999999,-37878.93,-23527.8,-23785.155
1764510879.7129412,-5807.115,-38254.23,-31082.175,-7365.285,-7331.759999999999,-37886.13,-23531.715,-23790.96
1764510879.7129412,-5808.014999999999,-38255.085,-31082.265,-7366.139999999999,-7332.974999999999,-37886.355,-23531.805,-23791.905
1764510879.7129412,-5802.12,-38247.48,-31075.335,-7359.344999999999,-7326.405,-37879.605,-23524.83,-23785.38
1764510879.7129412,-5799.78,-38245.95,-31073.67,-7357.86,-7324.92,-37879.02,-23523.075,-23783.445
1764510879.7129412,-5803.74,-38249.91,-31077.27,-7362.0,-7328.79,-37882.845,-23526.0,-23787.045
1764510879.7129412,-5809.139999999999,-38255.67,-31083.12,-7368.165,-7335.045,-37888.56,-23530.545,-23791.275
1764510879.7129412,-5811.885,-38254.23,-31081.14,-7367.94,-7334.82,-37885.86,-23531.535,-23791.23
1764510879.7129412,-5812.29,-38253.33,-31080.555,-7365.69,-7332.21,-37883.79,-23529.465,-23790.555
1764510879.7129412,-5806.08,-38249.28,-31074.84,-7360.019999999999,-7325.415,-37878.93,-23524.47,-23785.38
1764510879.7129412,-5806.71,-38248.785,-31073.715,-7360.38,-7325.73,-37878.57,-23525.865,-23785.83
1764510879.7129412,-5800.41,-38243.79,-31070.025,-7355.565,-7320.285,-37874.79,-23521.68,-23780.25
1764510879.7139597,-5798.969999999999,-38243.115,-31069.44,-7354.53,-7319.34,-37874.745,-23521.32,-23778.675
1764510879.7139597,-5797.53,-38241.81,-31068.36,-7353.54,-7318.349999999999,-37874.025,-23522.04,-23777.28
1764510879.7139597,-5794.965,-38239.83,-31066.47,-7351.83,-7316.37,-37872.54,-23520.78,-23774.49
1764510879.7139597,-5796.495,-38241.63,-31068.54,-7354.394999999999,-7318.62,-37875.645,-23523.03,-23774.805
1764510879.7139597,-5796.54,-38243.295,-31070.34,-7356.195,-7320.554999999999,-37876.905,-23525.1,-23776.155
1764510879.7139597,-5801.49,-38247.93,-31075.38,-7361.594999999999,-7325.28,-37881.54,-23530.185,-23781.555
1764510879.7139597,-5800.995,-38247.435,-31074.975,-7361.099999999999,-7324.875,-37881.18,-23530.86,-23781.555
1764510879.7139597,-5801.264999999999,-38247.12,-31074.48,-7361.505,-7324.2,-37880.865,-23531.67,-23780.79
1764510879.7139597,-5800.635,-38245.995,-31074.255,-7361.19,-7323.48,-37880.64,-23531.31,-23780.25
1764510879.7139597,-5794.92,-38239.425,-31067.1,-7354.215,-7316.73,-37874.52,-23526.765,-23774.175
1764510879.7139597,-5794.38,-38239.2,-31067.235,-7354.304999999999,-7317.045,-37874.475,-23527.89,-23772.78
1764510879.7139597,-5797.44,-38243.16,-31071.645,-7359.03,-7320.69,-37878.345,-23532.3,-23774.76
1764510879.7581336,-5791.545,-38238.165,-31066.515,-7354.035,-7315.875,-37873.395,-23527.845,-23769.405
1764510879.7581336,-5792.355,-38239.785,-31068.315,-7354.844999999999,-7318.035,-37875.15,-23530.5,-23769.45
1764510879.7581336,-5795.46,-38241.54,-31070.52,-7356.554999999999,-7320.195,-37878.03,-23533.65,-23771.745
1764510879.7581336,-5792.715,-38237.625,-31066.155,-7353.269999999999,-7316.684999999999,-37874.52,-23532.255,-23767.29
1764510879.7581336,-5794.695,-38241.0,-31069.62,-7357.455,-7319.205,-37877.58,-23535.135,-23769.495
1764510879.7581336,-5791.77,-38236.68,-31064.94,-7352.73,-7314.344999999999,-37872.405,-23531.895,-23764.32
1764510879.7581336,-5795.235,-38239.11,-31067.82,-7356.105,-7316.91,-37874.79,-23535.9,-23765.94
1764510879.7581336,-5792.625,-38235.78,-31064.67,-7352.73,-7312.995,-37871.955,-23532.39,-23762.385
1764510879.7581336,-5791.635,-38236.23,-31064.535,-7352.235,-7312.724999999999,-37872.36,-23531.445,-23761.35
1764510879.7581336,-5794.29,-38239.11,-31067.235,-7355.205,-7316.594999999999,-37875.195,-23533.875,-23763.645
1764510879.7581336,-5791.05,-38236.32,-31064.49,-7352.955,-7313.625,-37872.63,-23531.76,-23760.675
1764510879.7586613,-5797.08,-38243.565,-31071.15,-7360.155,-7320.78,-37879.92,-23538.915,-23766.12
1764510879.7586613,-5795.91,-38242.395,-31069.89,-7358.264999999999,-7318.98,-37878.165,-23538.375,-23763.825
1764510879.7586613,-5792.219999999999,-38236.725,-31063.815,-7352.91,-7313.58,-37872.405,-23535.27,-23759.73
1764510879.7586613,-5795.865,-38239.83,-31067.595,-7356.87,-7317.045,-37876.14,-23538.735,-23762.025
1764510879.7586613,-5793.48,-38236.86,-31065.03,-7354.44,-7313.894999999999,-37873.665,-23535.72,-23759.19
1764510879.7586613,-5796.045,-38241.99,-31070.385,-7359.615,-7318.755,-37879.11,-23538.645,-23762.43
1764510879.7586613,-5792.625,-38237.265,-31065.615,-7354.575,-7313.58,-37874.43,-23534.19,-23757.93
1764510879.7586613,-5792.58,-38236.365,-31063.815,-7353.54,-7312.545,-37873.08,-23533.38,-23756.31
1764510879.7586613,-5793.615,-38235.78,-31063.59,-7353.36,-7312.41,-37873.08,-23532.705,-23756.13
1764510879.7586613,-5792.715,-38233.575,-31062.33,-7351.875,-7310.115,-37871.145,-23530.68,-23755.095
1764510879.759679,-5795.415,-38236.905,-31064.94,-7355.115,-7313.175,-37873.8,-23533.065,-23758.155
1764510879.809095,-5800.59,-38242.26,-31070.34,-7361.28,-7319.7,-37879.515,-23537.79,-23762.97
1764510879.809095,-5800.635,-38242.98,-31071.465,-7361.82,-7320.599999999999,-37880.685,-23537.88,-23764.005
1764510879.8097565,-5797.53,-38238.93,-31067.28,-7357.545,-7316.73,-37877.04,-23533.65,-23760.765
1764510879.8097565,-5802.165,-38244.375,-31072.77,-7362.315,-7321.815,-37882.17,-23537.835,-23765.985
1764510879.8097565,-5803.425,-38246.13,-31073.805,-7363.844999999999,-7323.21,-37883.655,-23539.095,-23767.695
1764510879.8097565,-5803.965,-38246.31,-31073.355,-7364.205,-7323.165,-37883.115,-23537.79,-23767.515
1764510879.8097565,-5803.469999999999,-38245.77,-31073.58,-7363.844999999999,-7322.94,-37883.565,-23537.97,-23766.795
1764510879.8097565,-5800.679999999999,-38241.72,-31069.71,-7359.255,-7318.665,-37879.74,-23535.18,-23765.13
1764510879.8097565,-5794.469999999999,-38235.69,-31063.5,-7353.0,-7312.32,-37873.395,-23528.43,-23759.1
1764510879.8097565,-5796.764999999999,-38240.055,-31067.1,-7357.23,-7316.594999999999,-37877.085,-23531.175,-23762.115
1764510879.8097565,-5798.474999999999,-38242.71,-31069.215,-7359.795,-7318.98,-37879.065,-23532.345,-23764.41
1764510879.8107493,-5802.615,-38247.705,-31074.435,-7364.745,-7324.2,-37884.42,-23537.025,-23769.315
1764510879.8107493,-5795.73,-38241.09,-31068.315,-7359.12,-7316.684999999999,-37878.03,-23532.795,-23764.68
1764510879.8107493,-5797.035,-38243.79,-31071.06,-7361.46,-7318.844999999999,-37880.19,-23535.63,-23769.09
1764510879.8107493,-5791.635,-38240.91,-31068.045,-7358.264999999999,-7315.74,-37876.995,-23532.21,-23767.38
1764510879.8107493,-5790.645,-38239.92,-31066.065,-7357.094999999999,-7314.705,-37876.545,-23531.445,-23766.615
1764510879.8107493,-5791.724999999999,-38241.045,-31067.64,-7358.355,-7315.605,-37877.985,-23533.29,-23767.56
1764510879.8107493,-5793.795,-38242.485,-31069.89,-7360.38,-7317.719999999999,-37879.695,-23535.315,-23769.45
1764510879.8107493,-5786.01,-38234.79,-31061.07,-7351.695,-7308.855,-37871.055,-23528.43,-23762.655
1764510879.8107493,-5785.695,-38235.15,-31061.43,-7352.19,-7309.485,-37871.28,-23529.96,-23764.365
1764510879.8107493,-5790.735,-38242.08,-31067.91,-7358.894999999999,-7316.325,-37878.795,-23535.72,-23770.665
1764510879.8122833,-5790.78,-38243.43,-31069.53,-7359.75,-7318.17,-37880.28,-23537.97,-23771.835
1764510879.8521955,-5788.98,-38242.53,-31068.63,-7358.94,-7316.639999999999,-37879.38,-23538.195,-23771.565
1764510879.8521955,-5786.594999999999,-38241.63,-31068.18,-7358.13,-7315.83,-37878.885,-23538.555,-23770.485
1764510879.8521955,-5784.12,-38241.765,-31068.99,-7359.12,-7316.144999999999,-37879.875,-23539.185,-23769.405
1764510879.8521955,-5782.5,-38241.675,-31068.495,-7358.94,-7316.46,-37879.29,-23540.355,-23769.18
1764510879.8521955,-5780.115,-38238.84,-31064.76,-7356.915,-7314.075,-37875.555,-23540.67,-23766.795
1764510879.8521955,-5771.205,-38232.81,-31059.18,-7351.019999999999,-7307.594999999999,-37870.47,-23535.0,-23758.83
1764510879.8541796,-5767.74,-38233.755,-31060.89,-7350.884999999999,-7308.405,-37871.505,-23535.765,-23757.615
1764510879.8541796,-5769.045,-38237.895,-31065.165,-7354.665,-7312.86,-37876.365,-23541.57,-23761.44
1764510879.8541796,-5770.485,-38241.72,-31069.935,-7358.58,-7316.91,-37880.865,-23547.51,-23763.735
1764510879.8541796,-5765.13,-38237.265,-31065.705,-7355.205,-7312.769999999999,-37876.185,-23545.845,-23758.83
1764510879.8541796,-5767.11,-38241.99,-31070.115,-7359.48,-7316.594999999999,-37880.64,-23551.56,-23761.08
1764510879.8541796,-5761.08,-38236.68,-31065.12,-7354.44,-7311.059999999999,-37875.69,-23549.67,-23755.14
1764510879.8541796,-5757.344999999999,-38234.34,-31062.465,-7351.335,-7308.945,-37873.215,-23550.345,-23752.17
1764510879.8541796,-5756.445,-38232.495,-31059.72,-7349.804999999999,-7307.955,-37871.82,-23551.83,-23751.27
1764510879.8541796,-5755.094999999999,-38234.115,-31061.745,-7351.065,-7309.08,-37874.295,-23553.405,-23750.145
1764510879.8541796,-5753.969999999999,-38234.565,-31062.96,-7351.92,-7309.259999999999,-37875.825,-23555.745,-23748.525
1764510879.8541796,-5754.42,-38233.53,-31061.925,-7351.245,-7308.179999999999,-37874.7,-23556.78,-23746.815
1764510879.8541796,-5761.71,-38240.37,-31069.17,-7357.815,-7315.155,-37881.765,-23565.33,-23753.475
1764510879.8541796,-5761.125,-38238.255,-31067.235,-7355.7,-7313.264999999999,-37880.46,-23565.915,-23752.665
1764510879.8541796,-5761.575,-38236.86,-31066.425,-7354.755,-7312.184999999999,-37879.38,-23565.555,-23752.17
1764510879.8541796,-5760.99,-38235.87,-31064.94,-7353.63,-7310.79,-37878.93,-23563.935,-23750.91
1764510879.8541796,-5757.435,-38230.065,-31058.73,-7348.139999999999,-7305.21,-37873.755,-23559.66,-23745.555
1764510879.8541796,-5758.875,-38230.155,-31058.955,-7348.545,-7305.165,-37874.295,-23560.605,-23746.23
1764510879.8541796,-5765.31,-38236.095,-31064.265,-7354.889999999999,-7311.644999999999,-37879.065,-23566.77,-23750.955
1764510879.898527,-5765.219999999999,-38236.23,-31065.165,-7355.115,-7311.33,-37879.92,-23565.015,-23749.335
1764510879.898527,-5767.965,-38238.3,-31066.83,-7356.24,-7312.679999999999,-37882.755,-23565.96,-23751.72
1764510879.8990595,-5762.429999999999,-38229.03,-31057.425,-7347.33,-7303.05,-37873.395,-23557.455,-23745.33
1764510879.8990595,-5765.58,-38229.75,-31058.055,-7348.59,-7304.49,-37874.925,-23556.915,-23746.68
1764510879.8990595,-5768.594999999999,-38233.035,-31060.53,-7350.84,-7306.875,-37877.985,-23557.41,-23747.04
1764510879.8990595,-5770.395,-38233.665,-31060.8,-7351.29,-7306.65,-37878.57,-23556.375,-23746.95
1764510879.8990595,-5772.15,-38233.845,-31061.16,-7352.19,-7306.695,-37879.65,-23553.54,-23747.355
1764510879.8990595,-5776.514999999999,-38235.195,-31062.465,-7353.54,-7307.55,-37880.64,-23551.875,-23749.695
1764510879.8990595,-5783.94,-38241.945,-31068.27,-7359.795,-7313.804999999999,-37886.355,-23556.015,-23756.31
1764510879.8990595,-5785.11,-38239.335,-31064.94,-7358.219999999999,-7312.769999999999,-37883.43,-23554.89,-23756.895
1764510879.8990595,-5782.005,-38231.055,-31056.705,-7351.695,-7306.155,-37874.97,-23547.645,-23750.235
1764510879.8990595,-5783.94,-38234.79,-31061.61,-7355.205,-7308.809999999999,-37880.055,-23546.565,-23751.54
1764510879.9010894,-5782.455,-38233.8,-31061.07,-7353.719999999999,-7308.269999999999,-37879.02,-23543.415,-23748.615
1764510879.9010894,-5786.955,-38238.48,-31065.57,-7359.03,-7313.49,-37883.79,-23546.25,-23751.945
1764510879.9010894,-5790.51,-38243.43,-31071.06,-7364.205,-7317.36,-37889.505,-23547.96,-23756.31
1764510879.9010894,-5790.78,-38242.845,-31070.61,-7363.98,-7316.235,-37888.74,-23546.925,-23755.095
1764510879.9010894,-5785.965,-38238.48,-31065.975,-7359.21,-7311.87,-37883.88,-23541.84,-23750.865
1764510879.9010894,-5790.554999999999,-38245.365,-31072.68,-7366.094999999999,-7318.71,-37890.81,-23545.665,-23756.04
1764510879.9010894,-5790.465,-38246.85,-31074.48,-7367.04,-7319.925,-37892.565,-23545.44,-23755.725
1764510879.9010894,-5786.55,-38240.415,-31067.28,-7362.045,-7314.795,-37884.78,-23540.895,-23752.665
1764510879.9010894,-5790.06,-38246.13,-31071.555,-7368.03,-7320.42,-37889.055,-23544.54,-23758.38
1764510879.901603,-5788.844999999999,-38247.435,-31072.68,-7368.84,-7321.139999999999,-37890.405,-23544.54,-23759.55
1764510879.901603,-5782.815,-38243.025,-31069.755,-7364.07,-7317.134999999999,-37886.445,-23538.33,-23755.32
1764510879.901603,-5782.905,-38244.465,-31070.97,-7365.554999999999,-7318.755,-37887.435,-23539.815,-23756.49
1764510879.9450357,-5780.61,-38243.655,-31069.485,-7364.745,-7317.495,-37886.265,-23539.59,-23756.13
1764510879.9450357,-5779.755,-38243.88,-31070.385,-7366.184999999999,-7317.809999999999,-37886.445,-23539.23,-23755.68
1764510879.9450357,-5780.025,-38245.14,-31071.375,-7367.264999999999,-7319.295,-37886.94,-23538.645,-23756.04
1764510879.9450357,-5779.26,-38245.365,-31071.33,-7367.085,-7319.519999999999,-37887.165,-23538.555,-23757.165
1764510879.9450357,-5779.349999999999,-38245.86,-31073.22,-7367.67,-7319.565,-37887.93,-23538.69,-23758.74
1764510879.9450357,-5783.13,-38251.08,-31077.855,-7372.394999999999,-7324.065,-37891.935,-23542.56,-23763.96
1764510879.9450357,-5778.36,-38244.51,-31071.015,-7365.24,-7317.585,-37885.365,-23536.35,-23760.54
1764510879.9460514,-5775.165,-38242.665,-31069.17,-7363.98,-7316.099999999999,-37883.655,-23534.91,-23759.01
1764510879.9460514,-5774.13,-38244.195,-31069.71,-7364.969999999999,-7316.865,-37885.005,-23535.135,-23759.91
1764510879.9465618,-5776.695,-38247.165,-31073.175,-7368.255,-7320.014999999999,-37887.57,-23537.565,-23764.005
1764510879.9465618,-5778.855,-38249.55,-31075.29,-7370.37,-7322.264999999999,-37890.045,-23539.005,-23767.02
1764510879.9465618,-5783.219999999999,-38256.39,-31081.545,-7375.95,-7328.88,-37896.345,-23544.045,-23773.68
1764510879.9465618,-5779.17,-38252.07,-31077.405,-7371.36,-7323.75,-37891.53,-23539.77,-23770.89
1764510879.9465618,-5779.17,-38253.15,-31077.945,-7372.304999999999,-7324.83,-37892.565,-23539.275,-23773.05
1764510879.9465618,-5779.71,-38255.985,-31080.33,-7374.285,-7327.394999999999,-37894.995,-23541.03,-23774.895
1764510879.9465618,-5781.014999999999,-38257.245,-31080.24,-7375.049999999999,-7328.025,-37895.49,-23542.92,-23776.065
1764510879.9465618,-5786.415,-38262.825,-31085.37,-7380.719999999999,-7333.74,-37900.845,-23547.78,-23782.68
1764510879.9465618,-5785.83,-38262.78,-31085.415,-7380.405,-7334.19,-37900.215,-23548.14,-23782.365
1764510879.9465618,-5781.96,-38259.72,-31081.77,-7376.67,-7330.815,-37897.02,-23546.115,-23778.135
1764510879.9465618,-5788.889999999999,-38266.065,-31087.62,-7383.24,-7337.745,-37904.22,-23553.585,-23784.48
1764510879.948079,-5787.27,-38264.49,-31086.405,-7380.99,-7335.585,-37902.33,-23553.18,-23783.265
1764510879.948079,-5782.77,-38258.415,-31080.51,-7374.509999999999,-7329.285,-37897.02,-23549.58,-23778.135
1764510879.948079,-5786.505,-38263.68,-31086.315,-7380.63,-7335.269999999999,-37903.005,-23555.43,-23782.23
1764510879.948079,-5785.875,-38265.615,-31088.115,-7381.844999999999,-7336.53,-37904.13,-23558.355,-23784.03
1764510879.9963927,-5780.655,-38260.305,-31082.67,-7376.445,-7331.849999999999,-37899.045,-23555.25,-23778.72
1764510879.9963927,-5780.205,-38260.935,-31083.03,-7376.759999999999,-7332.57,-37899.945,-23557.23,-23777.82
1764510879.9963927,-5779.485,-38260.215,-31082.715,-7375.815,-7331.219999999999,-37899.405,-23557.815,-23777.595
1764510879.9963927,-5778.945,-38258.64,-31081.275,-7376.49,-7331.4,-37898.28,-23560.515,-23776.92
1764510879.9963927,-5777.505,-38259.18,-31082.175,-7377.929999999999,-7331.94,-37899.36,-23561.73,-23775.255
1764510879.9963927,-5779.485,-38262.24,-31085.37,-7381.44,-7335.719999999999,-37902.15,-23566.995,-23777.055
1764510879.9963927,-5783.895,-38268.945,-31092.03,-7387.695,-7340.04,-37908.72,-23572.305,-23780.97
1764510879.9963927,-5783.49,-38268.135,-31091.355,-7387.514999999999,-7338.465,-37907.82,-23574.24,-23778.495
1764510879.9963927,-5779.62,-38262.87,-31086.315,-7382.565,-7333.92,-37903.41,-23570.82,-23772.24
1764510879.9963927,-5781.014999999999,-38262.33,-31085.775,-7381.889999999999,-7333.605,-37903.815,-23571.72,-23770.755
1764510879.9963927,-5775.615,-38255.94,-31079.16,-7375.455,-7326.54,-37897.83,-23566.455,-23764.005
1764510879.9963927,-5779.755,-38260.485,-31084.065,-7380.405,-7331.445,-37902.825,-23570.055,-23766.03
1764510879.9963927,-5781.195,-38260.395,-31083.57,-7380.855,-7331.13,-37903.05,-23571.27,-23764.185
1764510879.9963927,-5777.235,-38249.505,-31072.815,-7371.495,-7322.264999999999,-37892.565,-23564.835,-23754.15
1764510879.9963927,-5776.335,-38246.445,-31069.8,-7369.019999999999,-7318.98,-37889.415,-23561.28,-23749.155
1764510879.9963927,-5780.655,-38249.145,-31072.725,-7371.45,-7322.13,-37893.465,-23563.44,-23751.18
1764510879.9963927,-5783.94,-38254.32,-31077.405,-7376.13,-7325.28,-37899.54,-23565.33,-23753.16
1764510879.9963927,-5780.115,-38248.47,-31072.635,-7370.235,-7318.844999999999,-37895.175,-23558.895,-23747.805
1764510879.9963927,-5783.13,-38249.055,-31074.165,-7371.134999999999,-7320.195,-37895.805,-23557.905,-23747.265
1764510879.9963927,-5789.474999999999,-38254.68,-31078.08,-7375.59,-7325.37,-37901.07,-23561.19,-23750.865
1764510879.9963927,-5790.87,-38253.87,-31077.63,-7375.32,-7324.785,-37900.35,-23558.76,-23749.425
1764510879.9963927,-5791.724999999999,-38252.97,-31076.685,-7374.644999999999,-7323.705,-37899.18,-23555.97,-23748.39
1764510879.9963927,-5791.275,-38250.81,-31074.75,-7372.215,-7320.87,-37897.38,-23551.335,-23745.105
1764510879.9963927,-5787.135,-38245.14,-31069.08,-7366.41,-7315.65,-37891.35,-23542.74,-23738.625
1764510880.0406349,-5788.935,-38246.94,-31070.43,-7367.67,-7317.269999999999,-37892.7,-23542.74,-23738.715
1764510880.0406349,-5796.719999999999,-38253.015,-31077.18,-7374.375,-7323.66,-37899.315,-23548.68,-23744.655
1764510880.0406349,-5797.8,-38252.745,-31077.405,-7373.655,-7323.255,-37899.27,-23546.43,-23744.115
1764510880.0406349,-5800.185,-38253.96,-31078.665,-7374.24,-7324.38,-37900.125,-23545.845,-23743.665
1764510880.0406349,-5801.67,-38253.33,-31078.125,-7374.014999999999,-7323.795,-37899.675,-23544.09,-23742.09
1764510880.0406349,-5804.054999999999,-38254.095,-31079.79,-7375.5,-7325.144999999999,-37900.26,-23543.505,-23740.92
1764510880.0406349,-5800.815,-38247.12,-31073.445,-7369.965,-7318.889999999999,-37894.545,-23536.935,-23735.79
1764510880.0406349,-5801.219999999999,-38247.075,-31072.68,-7369.695,-7318.485,-37893.78,-23535.72,-23737.275
1764510880.0406349,-5803.92,-38249.37,-31073.76,-7371.63,-7320.24,-37895.085,-23537.745,-23740.47
1764510880.0406349,-5807.745,-38251.98,-31076.46,-7374.554999999999,-7322.804999999999,-37897.695,-23540.535,-23744.295
1764510880.0406349,-5805.495,-38247.165,-31072.365,-7370.505,-7318.349999999999,-37894.05,-23536.08,-23741.55
1764510880.0406349,-5812.92,-38252.475,-31077.585,-7376.535,-7324.469999999999,-37899.045,-23541.75,-23748.615
1764510880.0406349,-5811.21,-38250.945,-31075.74,-7374.509999999999,-7321.5,-37896.435,-23539.275,-23747.625
1764510880.0406349,-5817.96,-38258.055,-31083.165,-7381.17,-7328.384999999999,-37903.815,-23545.485,-23754.285
1764510880.0406349,-5823.495,-38261.43,-31086.045,-7384.724999999999,-7330.769999999999,-37907.37,-23547.915,-23757.255
1764510880.042194,-5826.33,-38264.4,-31088.7,-7387.38,-7332.795,-37909.215,-23549.265,-23760.135
1764510880.042194,-5828.219999999999,-38265.57,-31090.05,-7389.134999999999,-7333.83,-37910.88,-23549.58,-23762.295
1764510880.042194,-5828.04,-38264.355,-31089.24,-7387.695,-7332.974999999999,-37910.52,-23549.625,-23762.295
1764510880.042194,-5827.59,-38262.42,-31087.53,-7386.165,-7332.21,-37908.72,-23548.365,-23761.44
1764510880.042194,-5825.969999999999,-38260.125,-31085.145,-7383.375,-7329.69,-37906.065,-23546.655,-23760.045
1764510880.042194,-5820.929999999999,-38255.445,-31080.645,-7379.009999999999,-7325.28,-37901.34,-23542.92,-23756.31
1764510880.042194,-5824.26,-38256.39,-31080.6,-7381.259999999999,-7327.304999999999,-37901.655,-23546.655,-23759.73
1764510880.042194,-5818.094999999999,-38250.54,-31074.3,-7375.23,-7320.644999999999,-37895.13,-23542.155,-23753.88
1764510880.043733,-5817.42,-38251.26,-31075.38,-7375.634999999999,-7321.679999999999,-37894.815,-23543.73,-23754.78
1764510880.08623,-5814.99,-38251.62,-31076.685,-7375.769999999999,-7322.49,-37895.49,-23544.495,-23755.41
1764510880.08623,-5812.74,-38252.88,-31078.08,-7375.995,-7322.849999999999,-37897.605,-23544.945,-23756.31
1764510880.08623,-5811.84,-38252.79,-31077.72,-7375.769999999999,-7322.264999999999,-37897.965,-23546.07,-23757.435
1764510880.08623,-5811.48,-38253.105,-31078.575,-7376.58,-7322.67,-37898.73,-23548.005,-23759.145
1764510880.0877812,-5813.955,-38258.235,-31083.66,-7381.53,-7327.485,-37903.32,-23552.865,-23765.13
1764510880.088793,-5812.29,-38258.685,-31084.065,-7382.295,-7328.07,-37902.915,-23553.0,-23766.3
1764510880.088793,-5804.955,-38252.34,-31077.585,-7376.355,-7321.995,-37896.84,-23548.5,-23762.07
1764510880.088793,-5802.3,-38249.955,-31073.04,-7373.565,-7319.745,-37892.07,-23548.77,-23761.17
1764510880.088793,-5800.545,-38248.74,-31071.645,-7372.575,-7319.07,-37889.595,-23547.465,-23759.91
1764510880.088793,-5797.98,-38252.34,-31077.45,-7375.005,-7322.264999999999,-37895.22,-23547.87,-23760.45
1764510880.088793,-5795.145,-38252.925,-31078.215,-7375.59,-7323.434999999999,-37895.76,-23549.175,-23759.505
1764510880.088793,-5794.38,-38254.41,-31079.25,-7376.715,-7323.974999999999,-37896.255,-23550.615,-23760.675
1764510880.088793,-5797.08,-38259.63,-31084.335,-7381.17,-7328.61,-37901.295,-23555.79,-23764.545
1764510880.088793,-5795.505,-38259.09,-31083.795,-7380.945,-7327.53,-37900.845,-23556.15,-23764.41
1764510880.088793,-5790.465,-38256.84,-31081.815,-7378.335,-7324.469999999999,-37898.64,-23554.665,-23762.34
1764510880.088793,-5781.87,-38250.945,-31076.235,-7373.025,-7319.205,-37893.42,-23549.715,-23755.41
1764510880.088793,-5779.755,-38251.845,-31077.36,-7374.509999999999,-7321.59,-37894.5,-23550.075,-23755.05
1764510880.088793,-5780.969999999999,-38254.995,-31080.015,-7377.12,-7324.29,-37897.785,-23553.495,-23756.355
1764510880.088793,-5779.935,-38254.905,-31080.015,-7376.894999999999,-7324.155,-37896.885,-23554.395,-23755.815
1764510880.088793,-5783.67,-38260.44,-31085.865,-7382.655,-7329.644999999999,-37902.42,-23559.975,-23759.82
1764510880.088793,-5783.58,-38261.43,-31087.305,-7384.005,-7330.995,-37903.815,-23561.055,-23758.47
1764510880.088793,-5778.045,-38255.94,-31081.905,-7379.28,-7325.594999999999,-37899.495,-23557.545,-23751.72
1764510880.1360917,-5776.38,-38256.165,-31081.275,-7378.785,-7325.235,-37898.595,-23557.455,-23750.055
1764510880.1360917,-5778.405,-38257.605,-31081.455,-7379.054999999999,-7326.045,-37898.37,-23556.51,-23749.38
1764510880.1360917,-5783.13,-38261.43,-31085.325,-7382.565,-7330.59,-37902.555,-23558.985,-23751.0
1764510880.1360917,-5778.719999999999,-38257.245,-31080.915,-7377.705,-7326.269999999999,-37898.28,-23555.925,-23746.185
1764510880.1360917,-5778.9,-38257.425,-31081.725,-7377.57,-7326.585,-37899.405,-23556.105,-23744.205
1764510880.1360917,-5786.594999999999,-38265.48,-31089.69,-7385.759999999999,-7334.865,-37907.01,-23563.08,-23750.37
1764510880.1360917,-5787.764999999999,-38264.085,-31088.205,-7384.23,-7332.57,-37904.76,-23561.235,-23748.615
1764510880.1360917,-5785.065,-38257.065,-31080.555,-7377.48,-7326.405,-37896.795,-23555.52,-23742.54
1764510880.1360917,-5788.62,-38260.395,-31084.245,-7380.54,-7329.644999999999,-37901.295,-23556.645,-23745.015
1764510880.1360917,-5786.054999999999,-38256.48,-31080.465,-7376.219999999999,-7324.155,-37897.65,-23551.515,-23741.775
1764510880.1360917,-5790.375,-38259.765,-31083.165,-7378.92,-7327.125,-37900.485,-23552.64,-23744.115
1764510880.1360917,-5792.219999999999,-38260.35,-31083.525,-7379.82,-7327.394999999999,-37901.07,-23552.325,-23743.35
1764510880.1360917,-5791.815,-38257.155,-31080.645,-7377.255,-7324.29,-37898.73,-23549.04,-23740.29
1764510880.1360917,-5787.315,-38250.045,-31073.49,-7370.594999999999,-7316.955,-37891.755,-23542.065,-23734.26
1764510880.1360917,-5788.125,-38248.65,-31071.87,-7369.245,-7315.245,-37889.955,-23538.06,-23733.27
1764510880.1360917,-5790.645,-38247.93,-31071.105,-7368.3,-7315.155,-37889.28,-23537.745,-23733.99
1764510880.1360917,-5792.264999999999,-38246.805,-31070.115,-7368.03,-7314.525,-37888.74,-23536.215,-23733.72
1764510880.1360917,-5793.929999999999,-38244.42,-31067.145,-7366.23,-7312.32,-37886.04,-23535.315,-23732.505
1764510880.1360917,-5796.945,-38247.795,-31070.565,-7368.57,-7315.11,-37890.0,-23535.765,-23735.475
1764510880.1360917,-5803.335,-38251.755,-31074.48,-7373.16,-7320.105,-37893.78,-23539.905,-23740.875
1764510880.1360917,-5804.054999999999,-38251.44,-31074.57,-7373.429999999999,-7319.519999999999,-37894.23,-23540.13,-23741.19
1764510880.1360917,-5803.38,-38251.08,-31074.21,-7372.665,-7318.304999999999,-37894.815,-23538.51,-23741.01
1764510880.1360917,-5799.014999999999,-38245.905,-31068.495,-7366.95,-7313.264999999999,-37889.325,-23534.145,-23736.735
1764510880.1371017,-5798.7,-38245.905,-31068.54,-7366.95,-7313.13,-37889.19,-23534.1,-23737.14
1764510880.1851585,-5799.87,-38247.12,-31069.98,-7368.3,-7314.525,-37891.17,-23535.765,-23738.22
1764510880.1851585,-5800.545,-38246.04,-31069.305,-7367.625,-7313.67,-37891.125,-23537.295,-23740.11
1764510880.1851585,-5800.094999999999,-38245.095,-31068.405,-7366.5,-7312.679999999999,-37890.945,-23537.25,-23740.56
1764510880.1861763,-5800.23,-38248.38,-31071.69,-7369.245,-7315.695,-37894.14,-23540.76,-23743.305
1764510880.1865203,-5800.545,-38251.485,-31074.84,-7371.945,-7318.44,-37897.38,-23544.72,-23745.915
1764510880.1865203,-5803.965,-38257.47,-31081.545,-7378.74,-7324.74,-37904.445,-23552.55,-23751.315
1764510880.1865203,-5803.245,-38258.91,-31082.805,-7380.269999999999,-7325.955,-37906.02,-23556.06,-23752.035
1764510880.1865203,-5801.219999999999,-38258.46,-31082.13,-7379.73,-7325.054999999999,-37905.03,-23557.59,-23750.325
1764510880.1865203,-5799.105,-38259.36,-31083.255,-7380.764999999999,-7325.594999999999,-37905.12,-23559.75,-23749.335
1764510880.1865203,-5794.695,-38257.29,-31081.905,-7379.82,-7323.795,-37903.77,-23559.795,-23746.815
1764510880.1871529,-5788.98,-38253.735,-31079.205,-7377.165,-7321.139999999999,-37901.34,-23558.805,-23741.46
1764510880.1871529,-5791.77,-38259.045,-31084.515,-7382.745,-7326.719999999999,-37906.965,-23566.545,-23744.475
1764510880.1871529,-5785.74,-38253.87,-31079.25,-7378.559999999999,-7321.23,-37901.52,-23565.105,-23738.805
1764510880.1871529,-5786.955,-38258.64,-31084.2,-7383.195,-7326.719999999999,-37906.38,-23571.18,-23741.73
1764510880.1881745,-5784.075,-38257.965,-31082.895,-7381.889999999999,-7325.91,-37906.38,-23572.26,-23739.12
1764510880.1881745,-5776.92,-38250.0,-31076.37,-7375.139999999999,-7319.115,-37899.9,-23568.435,-23732.28
1764510880.1881745,-5773.724999999999,-38248.02,-31075.155,-7374.195,-7317.495,-37897.83,-23569.11,-23731.245
1764510880.1881745,-5773.815,-38251.485,-31077.855,-7377.03,-7319.519999999999,-37900.44,-23572.395,-23732.82
1764510880.1881745,-5777.325,-38255.445,-31082.22,-7381.08,-7324.019999999999,-37904.985,-23577.57,-23736.87
1764510880.1881745,-5772.735,-38250.18,-31076.955,-7375.995,-7318.844999999999,-37899.99,-23572.71,-23733.45
1764510880.1881745,-5771.295,-38250.045,-31075.83,-7374.375,-7317.315,-37898.73,-23570.865,-23732.46
1764510880.1881745,-5773.05,-38250.045,-31075.92,-7375.32,-7317.855,-37898.685,-23572.62,-23734.935
1764510880.2285218,-5773.995,-38250.99,-31076.505,-7375.769999999999,-7317.855,-37899.45,-23572.575,-23736.465
1764510880.2285218,-5780.969999999999,-38257.335,-31082.49,-7381.44,-7324.155,-37905.255,-23576.265,-23742.945
1764510880.2285218,-5785.29,-38259.945,-31084.38,-7383.735,-7326.585,-37906.965,-23577.12,-23745.87
1764510880.2285218,-5785.74,-38257.11,-31079.745,-7381.215,-7323.974999999999,-37903.365,-23574.87,-23745.825
1764510880.2285218,-5781.87,-38252.43,-31075.155,-7376.58,-7318.98,-37898.64,-23567.67,-23741.595
1764510880.2285218,-5786.73,-38256.21,-31080.465,-7380.179999999999,-7322.715,-37902.645,-23568.57,-23745.33
1764510880.2285218,-5787.764999999999,-38255.535,-31078.575,-7377.884999999999,-7320.96,-37901.79,-23565.33,-23745.015
1764510880.2285218,-5783.715,-38247.12,-31069.755,-7368.84,-7312.184999999999,-37893.69,-23556.87,-23739.57
1764510880.2285218,-5784.389999999999,-38246.265,-31068.72,-7367.804999999999,-7310.61,-37892.565,-23554.035,-23739.345
1764510880.2285218,-5789.429999999999,-38250.9,-31073.31,-7373.025,-7315.695,-37897.29,-23555.52,-23743.53
1764510880.2285218,-5795.054999999999,-38254.545,-31077.45,-7377.344999999999,-7320.014999999999,-37901.07,-23556.825,-23746.86
1764510880.2285218,-5793.12,-38251.08,-31073.04,-7372.304999999999,-7315.38,-37896.795,-23551.245,-23742.135
1764510880.2285218,-5794.92,-38251.8,-31073.58,-7373.115,-7315.92,-37897.65,-23550.795,-23741.28
1764510880.2285218,-5801.58,-38257.065,-31079.43,-7378.74,-7321.815,-37903.365,-23555.205,-23745.105
1764510880.2285218,-5801.895,-38255.67,-31077.945,-7377.389999999999,-7320.24,-37901.97,-23553.135,-23741.19
1764510880.2285218,-5806.62,-38260.98,-31082.805,-7382.519999999999,-7324.92,-37906.47,-23557.545,-23744.115
1764510880.2285218,-5803.965,-38257.245,-31079.205,-7379.19,-7321.815,-37902.555,-23554.665,-23740.605
1764510880.2285218,-5807.115,-38260.305,-31082.535,-7382.61,-7324.74,-37905.48,-23558.22,-23741.775
1764510880.2285218,-5804.37,-38256.705,-31079.475,-7379.325,-7321.32,-37902.105,-23555.79,-23736.87
1764510880.2285218,-5808.42,-38262.465,-31085.01,-7384.139999999999,-7326.764999999999,-37907.55,-23560.65,-23741.1
1764510880.2285218,-5802.525,-38258.64,-31080.69,-7379.594999999999,-7322.49,-37903.23,-23558.355,-23736.375
1764510880.2285218,-5799.78,-38257.425,-31079.295,-7379.054999999999,-7320.644999999999,-37901.88,-23558.4,-23735.07
1764510880.2285218,-5801.085,-38259.945,-31082.67,-7381.755,-7323.344999999999,-37904.31,-23560.965,-23736.78
1764510880.2285218,-5795.82,-38254.545,-31077.45,-7375.905,-7318.304999999999,-37899.27,-23557.905,-23731.38
1764510880.2773356,-5793.255,-38253.465,-31076.19,-7375.139999999999,-7317.405,-37898.145,-23557.905,-23729.895
1764510880.2773356,-5792.085,-38253.915,-31077.18,-7376.445,-7317.99,-37898.865,-23559.075,-23730.84
1764510880.2773356,-5794.2,-38257.695,-31081.14,-7379.955,-7321.815,-37902.42,-23562.855,-23735.205
1764510880.2773356,-5788.44,-38249.91,-31072.455,-7372.62,-7314.705,-37893.015,-23558.445,-23729.085
1764510880.2773356,-5788.215,-38252.115,-31073.985,-7375.139999999999,-7317.63,-37895.535,-23560.02,-23729.535
1764510880.2773356,-5794.83,-38263.095,-31086.405,-7384.679999999999,-7327.934999999999,-37907.82,-23568.525,-23738.355
1764510880.2773356,-5795.099999999999,-38263.365,-31087.035,-7384.769999999999,-7328.07,-37908.18,-23569.47,-23739.345
1764510880.2773356,-5794.065,-38263.005,-31086.36,-7384.905,-7327.665,-37907.46,-23568.975,-23739.165
1764510880.2773356,-5792.804999999999,-38261.115,-31084.875,-7382.61,-7325.37,-37905.255,-23567.85,-23738.04
1764510880.2773356,-5790.105,-38255.895,-31080.285,-7377.66,-7320.285,-37900.305,-23565.87,-23733.63
1764510880.2773356,-5784.57,-38249.055,-31073.985,-7371.405,-7313.804999999999,-37893.33,-23559.795,-23726.43
1764510880.2773356,-5782.139999999999,-38246.175,-31070.565,-7368.165,-7309.755,-37889.955,-23555.79,-23722.785
1764510880.2773356,-5780.655,-38245.5,-31069.395,-7367.759999999999,-7309.349999999999,-37889.64,-23554.62,-23721.48
1764510880.2773356,-5781.915,-38247.975,-31071.195,-7370.775,-7312.005,-37892.61,-23555.655,-23722.92
1764510880.2773356,-5775.705,-38240.325,-31064.445,-7362.63,-7304.625,-37884.87,-23548.59,-23717.52
1764510880.2773356,-5774.985,-38240.28,-31064.355,-7362.764999999999,-7304.894999999999,-37884.51,-23547.285,-23717.52
1764510880.2773356,-5774.219999999999,-38239.74,-31063.68,-7361.865,-7303.679999999999,-37883.88,-23545.62,-23716.845
1764510880.2773356,-5774.804999999999,-38240.73,-31064.67,-7363.394999999999,-7305.21,-37885.77,-23546.34,-23719.635
1764510880.2773356,-5778.719999999999,-38246.355,-31069.71,-7368.03,-7311.014999999999,-37891.215,-23550.255,-23724.495
1764510880.2773356,-5778.719999999999,-38245.545,-31068.54,-7366.769999999999,-7309.394999999999,-37889.64,-23549.4,-23724.945
1764510880.2773356,-5777.82,-38244.69,-31067.595,-7366.679999999999,-7308.045,-37889.37,-23548.365,-23724.45
1764510880.278318,-5776.83,-38243.88,-31066.695,-7365.105,-7307.594999999999,-37888.155,-23546.565,-23723.1
1764510880.278318,-5771.565,-38238.345,-31061.745,-7359.84,-7302.375,-37882.845,-23540.445,-23717.34
1764510880.278318,-5769.27,-38235.105,-31058.64,-7357.32,-7299.809999999999,-37880.28,-23538.105,-23713.785
1764510880.3225012,-5771.205,-38234.97,-31058.64,-7357.32,-7299.495,-37879.83,-23537.925,-23712.48
1764510880.3225012,-5777.28,-38241.405,-31064.535,-7364.16,-7305.75,-37885.77,-23544.63,-23717.25
1764510880.3225012,-5773.139999999999,-38237.445,-31059.9,-7359.21,-7300.889999999999,-37881.405,-23539.635,-23712.615
1764510880.3225012,-5775.165,-38239.56,-31062.105,-7360.695,-7302.195,-37882.8,-23540.4,-23712.975
1764510880.3225012,-5782.005,-38246.94,-31068.99,-7367.175,-7308.855,-37889.28,-23547.15,-23718.6
1764510880.3225012,-5782.77,-38245.905,-31067.46,-7366.184999999999,-7308.0,-37888.74,-23547.6,-23718.33
1764510880.3225012,-5779.62,-38240.82,-31062.555,-7361.594999999999,-7302.78,-37884.195,-23543.865,-23714.505
1764510880.3225012,-5783.085,-38242.35,-31064.04,-7362.719999999999,-7304.264999999999,-37885.77,-23544.945,-23716.215
1764510880.3225012,-5791.32,-38250.135,-31071.555,-7370.235,-7312.769999999999,-37893.33,-23550.615,-23722.92
1764510880.3225012,-5792.264999999999,-38249.64,-31070.565,-7368.974999999999,-7312.05,-37892.205,-23548.32,-23723.955
1764510880.3225012,-5789.969999999999,-38245.86,-31066.155,-7364.295,-7307.73,-37888.29,-23542.74,-23719.905
1764510880.3225012,-5799.014999999999,-38255.4,-31075.965,-7374.42,-7317.0,-37898.46,-23550.255,-23728.545
1764510880.3235111,-5801.715,-38257.065,-31077.63,-7375.905,-7318.44,-37899.675,-23550.525,-23730.84
1764510880.3235111,-5802.12,-38255.58,-31076.37,-7374.735,-7317.405,-37898.505,-23548.365,-23731.74
1764510880.3240492,-5799.42,-38251.53,-31072.5,-7370.865,-7312.905,-37894.32,-23542.155,-23730.165
1764510880.3240492,-5802.66,-38253.375,-31074.48,-7372.799999999999,-7314.48,-37895.445,-23541.21,-23732.955
1764510880.3240492,-5808.69,-38260.62,-31080.78,-7378.155,-7320.78,-37900.845,-23544.72,-23740.92
1764510880.3240492,-5809.23,-38261.07,-31080.915,-7378.11,-7320.915,-37901.25,-23543.19,-23742.675
1764510880.3250597,-5806.215,-38256.795,-31076.82,-7374.285,-7317.134999999999,-37896.84,-23538.195,-23739.885
1764510880.3250597,-5809.005,-38260.575,-31080.69,-7377.795,-7321.365,-37899.675,-23539.815,-23743.935
1764510880.3250597,-5804.82,-38256.795,-31076.64,-7374.465,-7317.585,-37896.255,-23534.775,-23741.505
1764510880.3250597,-5810.715,-38264.94,-31085.37,-7383.33,-7326.045,-37904.445,-23540.535,-23749.47
1764510880.3260615,-5810.895,-38266.74,-31087.215,-7384.905,-7327.215,-37905.21,-23540.985,-23750.82
1764510880.3260615,-5804.775,-38261.295,-31081.32,-7378.469999999999,-7321.815,-37899.27,-23535.99,-23745.87
1764510880.3707695,-5799.87,-38258.955,-31079.025,-7376.49,-7319.474999999999,-37896.615,-23533.92,-23743.62
1764510880.3707695,-5798.115,-38259.18,-31079.34,-7377.12,-7320.105,-37896.525,-23534.505,-23743.89
1764510880.3707695,-5795.865,-38260.755,-31080.915,-7378.74,-7323.03,-37897.92,-23536.53,-23744.34
1764510880.3707695,-5793.795,-38262.105,-31082.76,-7380.45,-7324.065,-37899.585,-23538.24,-23745.195
1764510880.3717694,-5792.264999999999,-38263.815,-31084.65,-7382.565,-7325.639999999999,-37901.835,-23541.075,-23747.715
1764510880.3717694,-5793.344999999999,-38267.505,-31087.89,-7385.625,-7329.554999999999,-37904.76,-23546.565,-23750.73
1764510880.3717694,-5784.885,-38259.855,-31080.555,-7378.065,-7322.445,-37897.515,-23543.775,-23744.655
1764510880.3717694,-5784.57,-38262.285,-31083.39,-7380.63,-7325.009999999999,-37899.54,-23548.41,-23746.32
1764510880.3717694,-5785.065,-38265.435,-31086.9,-7384.094999999999,-7328.745,-37903.365,-23553.99,-23749.155
1764510880.3717694,-5779.17,-38261.7,-31083.12,-7380.36,-7325.099999999999,-37899.765,-23552.19,-23745.195
1764510880.3717694,-5781.42,-38266.92,-31087.395,-7384.905,-7329.105,-37904.355,-23559.12,-23748.615
1764510880.3717694,-5779.26,-38265.48,-31086.36,-7383.825,-7328.025,-37903.68,-23561.37,-23747.805
1764510880.3717694,-5777.73,-38263.725,-31085.73,-7383.599999999999,-7326.945,-37903.185,-23562.945,-23746.005
1764510880.3717694,-5774.625,-38262.78,-31083.57,-7382.16,-7326.09,-37901.835,-23564.79,-23744.475
1764510880.3717694,-5773.05,-38262.915,-31084.245,-7382.34,-7326.675,-37902.735,-23568.12,-23743.89
1764510880.3717694,-5769.855,-38261.7,-31082.4,-7381.349999999999,-7325.144999999999,-37901.115,-23569.11,-23742.045
1764510880.3717694,-5765.31,-38257.56,-31077.945,-7377.255,-7320.735,-37897.29,-23566.995,-23736.87
1764510880.3717694,-5768.325,-38260.44,-31080.285,-7380.63,-7322.94,-37900.125,-23572.44,-23738.085
1764510880.3717694,-5762.295,-38252.655,-31073.22,-7373.384999999999,-7315.92,-37893.51,-23568.84,-23730.525
1764510880.3717694,-5766.389999999999,-38257.695,-31079.34,-7378.514999999999,-7322.13,-37899.18,-23575.275,-23734.89
1764510880.3717694,-5765.985,-38257.83,-31079.025,-7379.009999999999,-7321.679999999999,-37899.9,-23577.3,-23734.53
1764510880.3717694,-5758.65,-38249.19,-31071.06,-7370.684999999999,-7313.309999999999,-37891.44,-23571.99,-23726.295
1764510880.4148998,-5758.38,-38248.83,-31070.52,-7369.785,-7312.995,-37890.72,-23571.99,-23725.305
1764510880.4148998,-5764.23,-38255.13,-31076.55,-7375.995,-7318.71,-37897.065,-23576.94,-23729.94
1764510880.4148998,-5765.804999999999,-38255.805,-31077.09,-7377.075,-7319.295,-37897.74,-23577.03,-23729.49
1764510880.4148998,-5759.505,-38249.415,-31071.105,-7370.639999999999,-7312.679999999999,-37891.395,-23570.64,-23723.415
1764510880.4148998,-5759.82,-38250.36,-31071.69,-7370.955,-7313.445,-37892.925,-23570.28,-23722.74
1764510880.4148998,-5765.67,-38256.345,-31076.595,-7376.219999999999,-7319.429999999999,-37899.27,-23575.23,-23728.005
1764510880.4148998,-5762.115,-38251.08,-31070.97,-7370.865,-7313.715,-37894.095,-23570.415,-23722.245
1764510880.4148998,-5766.75,-38256.345,-31076.1,-7375.634999999999,-7318.889999999999,-37898.91,-23573.34,-23725.305
1764510880.4148998,-5768.01,-38257.29,-31077.18,-7377.389999999999,-7320.014999999999,-37900.215,-23573.16,-23725.215
1764510880.4148998,-5768.55,-38255.76,-31075.83,-7376.49,-7317.585,-37898.505,-23571.45,-23723.055
1764510880.4148998,-5767.83,-38253.105,-31073.58,-7374.33,-7314.615,-37896.39,-23568.795,-23720.625
1764510880.4148998,-5766.929999999999,-38249.055,-31069.845,-7370.73,-7311.105,-37892.295,-23564.34,-23718.105
1764510880.4148998,-5765.31,-38246.715,-31067.865,-7368.434999999999,-7308.269999999999,-37890.045,-23561.325,-23715.45
1764510880.4160714,-5762.295,-38243.43,-31063.905,-7365.105,-7304.49,-37886.04,-23557.995,-23710.995
1764510880.4160714,-5756.264999999999,-38234.61,-31055.49,-7357.32,-7295.94,-37878.165,-23550.795,-23702.67
1764510880.4160714,-5763.78,-38243.385,-31064.31,-7366.275,-7304.894999999999,-37886.805,-23556.24,-23707.44
1764510880.4160714,-5762.79,-38242.575,-31064.04,-7364.88,-7304.04,-37886.13,-23553.27,-23704.785
1764510880.417068,-5762.925,-38241.9,-31063.005,-7364.025,-7303.184999999999,-37885.59,-23551.38,-23703.57
1764510880.417068,-5766.57,-38244.105,-31066.065,-7366.769999999999,-7305.705,-37888.2,-23553.27,-23705.55
1764510880.417068,-5762.79,-38239.335,-31061.115,-7361.415,-7300.08,-37882.665,-23548.5,-23700.285
1764510880.417068,-5764.455,-38239.83,-31061.565,-7362.09,-7300.98,-37883.07,-23548.32,-23699.385
1764510880.417068,-5770.395,-38245.95,-31067.595,-7368.57,-7306.965,-37889.415,-23553.405,-23704.605
1764510880.417068,-5770.935,-38247.75,-31068.99,-7369.605,-7308.134999999999,-37890.9,-23554.215,-23705.055
1764510880.417068,-5768.73,-38246.67,-31068.36,-7368.66,-7306.83,-37889.415,-23553.18,-23703.705
1764510880.4640024,-5766.389999999999,-38245.14,-31066.47,-7367.58,-7305.389999999999,-37887.255,-23550.165,-23701.41
1764510880.4640024,-5771.52,-38252.7,-31073.625,-7373.969999999999,-7312.32,-37894.14,-23556.96,-23708.205
1764510880.4640024,-5768.054999999999,-38248.65,-31070.34,-7370.235,-7308.9,-37890.495,-23554.395,-23706.135
1764510880.4640024,-5772.33,-38255.58,-31075.695,-7375.995,-7314.884999999999,-37895.94,-23559.255,-23710.815
1764510880.4640024,-5772.15,-38257.29,-31076.685,-7377.344999999999,-7316.19,-37897.515,-23560.875,-23712.345
1764510880.4640024,-5771.295,-38257.695,-31077.27,-7377.974999999999,-7316.594999999999,-37897.605,-23561.37,-23714.145
1764510880.4640024,-5770.215,-38257.29,-31076.145,-7376.849999999999,-7315.605,-37895.67,-23560.785,-23714.775
1764510880.4651642,-5770.035,-38259.09,-31077.9,-7377.795,-7316.594999999999,-37897.11,-23561.145,-23717.295
1764510880.4651642,-5770.395,-38261.34,-31079.7,-7380.719999999999,-7319.429999999999,-37899.54,-23563.485,-23719.95
1764510880.4651642,-5768.82,-38260.53,-31078.395,-7380.045,-7318.8,-37898.235,-23562.855,-23719.23
1764510880.4651642,-5763.465,-38254.23,-31072.725,-7373.655,-7312.905,-37891.845,-23559.03,-23715.405
1764510880.4651642,-5765.264999999999,-38256.075,-31075.65,-7376.894999999999,-7315.785,-37893.33,-23562.72,-23718.645
1764510880.4651642,-5770.215,-38260.53,-31078.755,-7380.945,-7321.139999999999,-37896.255,-23568.66,-23723.865
1764510880.4651642,-5769.0,-38262.915,-31081.77,-7381.889999999999,-7321.95,-37899.54,-23569.29,-23725.8
1764510880.4651642,-5765.67,-38259.945,-31079.52,-7379.19,-7319.745,-37898.235,-23569.155,-23724.945
1764510880.4651642,-5762.52,-38257.605,-31077.045,-7376.535,-7317.315,-37895.985,-23567.805,-23722.92
1764510880.4651642,-5765.355,-38264.355,-31082.715,-7382.655,-7323.165,-37901.97,-23573.295,-23727.69
1764510880.4651642,-5760.09,-38258.01,-31077.135,-7377.48,-7317.495,-37896.39,-23570.91,-23723.46
1764510880.4651642,-5758.514999999999,-38256.57,-31075.74,-7376.49,-7316.73,-37895.58,-23570.865,-23722.83
1764510880.4651642,-5757.84,-38254.545,-31074.435,-7374.599999999999,-7315.29,-37894.275,-23571.585,-23722.38
1764510880.4651642,-5755.724999999999,-38251.305,-31071.33,-7371.224999999999,-7311.96,-37891.08,-23570.28,-23720.13
1764510880.4651642,-5755.679999999999,-38253.195,-31073.715,-7372.665,-7313.355,-37892.7,-23572.845,-23722.56
1764510880.4651642,-5755.77,-38254.59,-31075.065,-7372.844999999999,-7314.165,-37893.645,-23574.015,-23722.605
1764510880.4651642,-5757.84,-38256.12,-31076.73,-7374.554999999999,-7315.785,-37895.4,-23576.985,-23723.865
1764510880.5142274,-5762.565,-38262.06,-31082.4,-7380.945,-7321.995,-37901.655,-23582.52,-23729.535
1764510880.5142274,-5764.635,-38262.555,-31082.625,-7381.98,-7323.3,-37902.6,-23583.375,-23729.895
1764510880.5142274,-5765.219999999999,-38262.51,-31082.805,-7382.429999999999,-7323.884999999999,-37902.825,-23584.275,-23729.895
1764510880.5142274,-5765.355,-38262.87,-31083.66,-7383.014999999999,-7323.929999999999,-37903.32,-23585.355,-23731.965
1764510880.5142274,-5766.75,-38265.21,-31085.145,-7384.679999999999,-7325.144999999999,-37905.57,-23586.345,-23733.675
1764510880.5142274,-5765.219999999999,-38263.815,-31083.93,-7383.554999999999,-7323.344999999999,-37904.13,-23582.79,-23731.47
1764510880.5142274,-5761.665,-38261.925,-31081.905,-7380.99,-7322.04,-37901.835,-23578.56,-23727.87
1764510880.5142274,-5762.655,-38263.14,-31082.985,-7381.934999999999,-7322.58,-37902.51,-23578.965,-23729.22
1764510880.5142274,-5761.889999999999,-38262.42,-31081.365,-7381.08,-7321.5,-37902.42,-23577.93,-23728.59
1764510880.5142274,-5763.33,-38263.77,-31081.68,-7382.07,-7323.12,-37904.265,-23578.515,-23728.05
1764510880.5142274,-5763.42,-38263.23,-31081.68,-7380.945,-7322.49,-37903.05,-23576.94,-23727.24
1764510880.5142274,-5763.195,-38262.69,-31080.735,-7380.63,-7321.679999999999,-37902.015,-23574.375,-23726.34
1764510880.514748,-5762.745,-38261.835,-31079.7,-7380.315,-7320.915,-37901.025,-23572.035,-23726.34
1764510880.514748,-5762.88,-38261.025,-31079.88,-7379.684999999999,-7320.87,-37902.06,-23570.595,-23725.62
1764510880.514748,-5763.42,-38260.665,-31079.16,-7379.099999999999,-7320.059999999999,-37902.105,-23569.065,-23724.495
1764510880.514748,-5763.465,-38260.62,-31078.35,-7379.054999999999,-7320.195,-37900.44,-23567.355,-23724.18
1764510880.514748,-5763.42,-38260.53,-31078.575,-7378.605,-7320.78,-37899.855,-23566.005,-23724.045
1764510880.514748,-5766.344999999999,-38264.67,-31082.805,-7382.16,-7324.469999999999,-37903.68,-23568.705,-23728.14
1764510880.514748,-5769.45,-38267.28,-31085.82,-7384.995,-7326.945,-37906.785,-23571.27,-23730.75
1764510880.514748,-5766.3,-38260.305,-31078.53,-7378.965,-7320.285,-37899.135,-23566.095,-23725.53
1764510880.514748,-5765.58,-38259.81,-31079.115,-7377.705,-7320.059999999999,-37899.495,-23563.485,-23725.215
1764510880.514748,-5767.29,-38261.16,-31081.275,-7379.144999999999,-7321.545,-37901.07,-23563.35,-23726.565
1764510880.514748,-5772.105,-38265.93,-31085.955,-7384.365,-7325.865,-37905.255,-23567.265,-23729.805
1764510880.514748,-5772.06,-38264.265,-31083.705,-7383.375,-7324.2,-37903.995,-23566.815,-23731.065
1764510880.5585985,-5772.51,-38263.905,-31083.3,-7382.835,-7324.514999999999,-37903.635,-23566.545,-23730.39
1764510880.5585985,-5772.69,-38261.835,-31081.59,-7380.99,-7323.03,-37902.195,-23564.205,-23728.275
1764510880.5585985,-5767.83,-38255.985,-31075.56,-7375.23,-7317.45,-37897.155,-23558.445,-23722.83
1764510880.5585985,-5773.185,-38262.105,-31081.365,-7380.945,-7322.355,-37902.915,-23563.17,-23727.465
1764510880.5585985,-5771.52,-38258.415,-31078.305,-7376.894999999999,-7318.889999999999,-37899.27,-23560.83,-23724.18
1764510880.5585985,-5775.03,-38261.61,-31081.14,-7378.965,-7321.905,-37901.52,-23564.205,-23726.205
1764510880.5585985,-5770.98,-38255.805,-31075.29,-7373.474999999999,-7315.559999999999,-37895.13,-23559.84,-23721.48
1764510880.5585985,-5775.615,-38260.35,-31079.34,-7377.929999999999,-7320.014999999999,-37898.91,-23563.71,-23724.99
1764510880.5585985,-5772.014999999999,-38255.355,-31074.3,-7372.53,-7315.965,-37894.635,-23560.245,-23720.58
1764510880.5585985,-5770.575,-38251.26,-31069.755,-7368.48,-7311.87,-37890.855,-23558.13,-23717.565
1764510880.5585985,-5770.62,-38251.17,-31070.205,-7368.84,-7311.599999999999,-37891.08,-23559.21,-23716.665
1764510880.5596142,-5772.915,-38253.06,-31071.915,-7370.594999999999,-7313.264999999999,-37892.79,-23561.28,-23718.78
1764510880.5596142,-5767.92,-38248.11,-31067.37,-7365.87,-7308.36,-37887.615,-23556.96,-23713.605
1764510880.5596142,-5769.495,-38250.495,-31069.035,-7368.03,-7310.16,-37888.83,-23559.66,-23713.965
1764510880.5596142,-5774.264999999999,-38256.795,-31075.245,-7374.465,-7315.92,-37895.175,-23565.33,-23718.78
1764510880.5596142,-5774.31,-38257.065,-31075.965,-7374.554999999999,-7316.82,-37895.76,-23566.095,-23718.915
1764510880.5596142,-5770.395,-38253.51,-31072.77,-7371.179999999999,-7313.355,-37892.52,-23562.855,-23714.775
1764510880.5596142,-5776.469999999999,-38259.72,-31078.395,-7377.929999999999,-7320.375,-37897.74,-23569.92,-23720.13
1764510880.5596142,-5774.58,-38259.495,-31078.53,-7376.759999999999,-7319.565,-37898.055,-23569.425,-23720.58
1764510880.5596142,-5768.82,-38252.97,-31071.645,-7370.054999999999,-7312.32,-37891.71,-23563.53,-23715.0
1764510880.5596142,-5767.785,-38251.665,-31069.89,-7367.58,-7310.835,-37889.955,-23562.225,-23713.605
1764510880.5596142,-5765.94,-38248.83,-31067.235,-7365.195,-7307.955,-37887.345,-23561.73,-23711.805
1764510880.5596142,-5765.219999999999,-38247.3,-31065.255,-7363.934999999999,-7305.344999999999,-37885.815,-23560.83,-23710.995
1764510880.5596142,-5769.99,-38251.26,-31069.8,-7368.3,-7308.945,-37890.585,-23566.095,-23714.91
1764510880.6062794,-5768.685,-38249.145,-31068.36,-7367.49,-7306.83,-37889.145,-23565.06,-23714.505
1764510880.6062794,-5764.275,-38244.42,-31064.445,-7362.9,-7302.465,-37884.105,-23562.135,-23711.58
1764510880.6062794,-5766.705,-38247.48,-31067.865,-7365.915,-7305.615,-37887.84,-23565.375,-23714.055
1764510880.6062794,-5764.41,-38244.51,-31064.895,-7363.125,-7303.724999999999,-37885.275,-23563.44,-23711.58
1764510880.6062794,-5769.045,-38249.955,-31069.755,-7368.075,-7308.945,-37890.72,-23568.345,-23715.27
1764510880.6062794,-5765.355,-38245.23,-31064.04,-7362.809999999999,-7303.679999999999,-37885.095,-23564.565,-23711.625
1764510880.6062794,-5765.264999999999,-38245.005,-31063.95,-7362.36,-7303.32,-37884.42,-23562.765,-23710.95
1764510880.6062794,-5770.349999999999,-38251.71,-31070.565,-7368.525,-7309.934999999999,-37890.27,-23567.67,-23714.595
1764510880.6065948,-5765.4,-38245.635,-31063.995,-7363.349999999999,-7303.59,-37884.42,-23563.305,-23709.33
1764510880.6065948,-5769.54,-38248.02,-31066.47,-7366.455,-7306.155,-37887.03,-23566.32,-23712.57
1764510880.6065948,-5766.255,-38242.755,-31061.79,-7360.875,-7300.889999999999,-37881.81,-23562.36,-23707.98
1764510880.6065948,-5764.86,-38241.36,-31061.025,-7359.344999999999,-7299.809999999999,-37880.55,-23560.695,-23705.46
1764510880.6065948,-5764.59,-38240.28,-31060.08,-7357.995,-7298.505,-37878.84,-23559.615,-23704.29
1764510880.6065948,-5765.625,-38240.28,-31060.26,-7357.679999999999,-7298.28,-37879.02,-23559.345,-23703.165
1764510880.6065948,-5766.885,-38240.685,-31060.395,-7359.165,-7299.09,-37879.74,-23559.705,-23703.03
1764510880.6065948,-5772.465,-38247.57,-31066.155,-7365.599999999999,-7305.929999999999,-37886.04,-23563.845,-23707.575
1764510880.6065948,-5770.035,-38245.05,-31064.04,-7362.855,-7303.275,-37883.88,-23560.515,-23704.515
1764510880.6065948,-5772.06,-38248.515,-31068.495,-7367.175,-7307.82,-37888.155,-23564.16,-23705.595
1764510880.6065948,-5768.415,-38245.365,-31065.165,-7363.844999999999,-7304.67,-37884.69,-23560.875,-23701.41
1764510880.6065948,-5771.474999999999,-38250.09,-31069.755,-7367.715,-7308.945,-37889.19,-23565.69,-23705.64
1764510880.6513617,-5767.155,-38244.78,-31064.58,-7363.08,-7303.769999999999,-37884.105,-23561.91,-23701.23
1764510880.6513617,-5765.355,-38245.5,-31063.995,-7362.99,-7304.58,-37883.88,-23561.82,-23701.14
1764510880.6513617,-5763.735,-38245.95,-31064.355,-7362.45,-7304.445,-37883.295,-23561.73,-23702.31
1764510880.6513617,-5764.545,-38245.725,-31062.87,-7362.405,-7304.894999999999,-37881.765,-23562.495,-23702.355
1764510880.6513617,-5765.49,-38248.425,-31065.525,-7364.655,-7306.29,-37884.465,-23563.17,-23704.11
1764510880.6513617,-5768.415,-38254.005,-31072.185,-7368.795,-7311.69,-37889.685,-23566.995,-23707.755
1764510880.6513617,-5765.175,-38247.975,-31065.795,-7363.934999999999,-7307.594999999999,-37883.295,-23563.26,-23703.975
1764510880.6513617,-5766.255,-38251.305,-31069.98,-7367.985,-7311.15,-37887.795,-23565.375,-23707.26
1764510880.6513617,-5759.37,-38243.25,-31062.465,-7360.605,-7303.679999999999,-37880.64,-23558.895,-23701.545
1764510880.652661,-5761.304999999999,-38245.77,-31064.31,-7362.719999999999,-7304.715,-37882.17,-23560.11,-23702.625
1764510880.652661,-5766.84,-38251.17,-31069.665,-7367.849999999999,-7309.394999999999,-37887.525,-23564.88,-23707.89
1764510880.652661,-5769.0,-38251.53,-31070.52,-7367.985,-7310.474999999999,-37888.29,-23565.69,-23707.89
1764510880.652661,-5763.465,-38245.365,-31064.445,-7361.594999999999,-7304.67,-37882.395,-23561.64,-23703.615
1764510880.652661,-5763.735,-38246.445,-31065.03,-7362.405,-7305.165,-37882.935,-23562.54,-23703.705
1764510880.652661,-5769.0,-38252.88,-31071.06,-7369.065,-7310.61,-37888.92,-23567.895,-23708.205
1764510880.652661,-5770.08,-38254.32,-31072.185,-7369.74,-7311.465,-37889.73,-23568.84,-23709.645
1764510880.652661,-5768.594999999999,-38253.555,-31071.33,-7368.525,-7310.79,-37889.325,-23567.67,-23708.25
1764510880.652661,-5764.23,-38247.57,-31065.795,-7363.53,-7305.12,-37883.07,-23562.99,-23704.155
1764510880.652661,-5757.525,-38240.235,-31057.83,-7356.33,-7297.2,-37875.6,-23557.455,-23698.395
1764510880.652661,-5762.565,-38246.985,-31064.13,-7362.719999999999,-7304.13,-37882.26,-23563.8,-23703.21
1764510880.6542,-5760.585,-38246.67,-31063.5,-7362.764999999999,-7303.094999999999,-37881.63,-23563.44,-23702.625
1764510880.6542,-5755.41,-38243.115,-31059.18,-7359.344999999999,-7299.315,-37877.67,-23559.39,-23699.34
1764510880.6542,-5756.58,-38246.085,-31062.42,-7362.54,-7303.32,-37881.045,-23562.405,-23702.445
1764510880.6542,-5751.764999999999,-38241.765,-31057.92,-7357.95,-7299.09,-37876.41,-23560.02,-23698.53
1764510880.6552107,-5753.34,-38245.365,-31061.115,-7360.11,-7301.79,-37879.875,-23562.315,-23701.185
1764510880.6552107,-5751.045,-38243.07,-31058.64,-7357.41,-7299.675,-37877.13,-23560.29,-23699.745
1764510880.6989207,-5755.41,-38247.345,-31064.13,-7362.315,-7304.04,-37881.585,-23563.89,-23704.155
1764510880.6989207,-5754.78,-38245.545,-31062.465,-7361.28,-7302.195,-37880.82,-23564.43,-23703.705
1764510880.6989207,-5749.335,-38239.515,-31055.895,-7355.07,-7295.94,-37874.475,-23559.12,-23698.845
1764510880.6999228,-5754.645,-38246.58,-31062.51,-7361.19,-7302.24,-37880.415,-23565.195,-23704.605
1764510880.6999228,-5755.95,-38248.155,-31064.085,-7361.91,-7304.309999999999,-37881.9,-23566.275,-23705.28
1764510880.6999228,-5754.014999999999,-38246.535,-31062.645,-7361.19,-7303.365,-37880.64,-23567.22,-23704.515
1764510880.6999228,-5749.155,-38241.54,-31058.145,-7356.554999999999,-7299.405,-37876.14,-23562.855,-23701.5
1764510880.6999228,-5752.98,-38245.32,-31061.88,-7359.884999999999,-7302.96,-37879.335,-23566.365,-23705.28
1764510880.6999228,-5747.67,-38240.01,-31055.895,-7355.07,-7297.469999999999,-37874.205,-23562.81,-23700.69
1764510880.6999228,-5744.205,-38236.995,-31052.97,-7352.684999999999,-7294.23,-37871.325,-23561.55,-23698.845
1764510880.70092,-5744.295,-38238.93,-31054.905,-7353.54,-7295.715,-37872.675,-23562.855,-23698.98
1764510880.70092,-5747.58,-38244.33,-31060.26,-7358.94,-7300.98,-37877.985,-23568.12,-23702.085
1764510880.70092,-5741.505,-38237.625,-31054.23,-7353.45,-7294.275,-37872.18,-23564.07,-23696.37
1764510880.70092,-5743.935,-38240.325,-31056.165,-7355.205,-7296.525,-37874.34,-23567.94,-23699.52
1764510880.70092,-5737.815,-38235.78,-31051.665,-7350.344999999999,-7291.394999999999,-37869.39,-23564.565,-23694.255
1764510880.70092,-5737.185,-38237.355,-31053.33,-7351.38,-7293.014999999999,-37870.605,-23566.95,-23693.715
1764510880.70092,-5741.37,-38244.015,-31059.9,-7357.95,-7300.485,-37877.4,-23572.98,-23697.63
1764510880.70092,-5741.639999999999,-38246.265,-31061.79,-7359.66,-7302.375,-37879.65,-23575.275,-23696.64
1764510880.70092,-5735.655,-38239.695,-31055.445,-7353.315,-7295.715,-37873.89,-23572.53,-23689.395
1764510880.70092,-5733.81,-38239.11,-31054.185,-7352.37,-7294.094999999999,-37872.72,-23572.44,-23687.37
1764510880.70092,-5735.295,-38244.69,-31059.09,-7357.094999999999,-7299.179999999999,-37877.67,-23576.535,-23690.565
1764510880.702427,-5728.365,-38237.175,-31051.845,-7349.759999999999,-7291.98,-37870.785,-23572.485,-23683.23
1764510880.702427,-5726.205,-38234.835,-31049.055,-7347.24,-7290.09,-37869.705,-23572.665,-23680.665
1764510880.702427,-5729.04,-38238.48,-31052.655,-7350.525,-7293.195,-37873.305,-23577.48,-23683.5
1764510880.7432077,-5733.179999999999,-38243.61,-31056.615,-7354.665,-7297.65,-37877.895,-23582.205,-23687.73
1764510880.7432077,-5728.139999999999,-38237.13,-31050.36,-7348.995,-7291.71,-37872.045,-23578.02,-23683.815
1764510880.7432077,-5729.264999999999,-38237.49,-31051.485,-7350.389999999999,-7292.25,-37872.945,-23578.155,-23684.895
1764510880.7432077,-5735.61,-38243.385,-31057.515,-7356.735,-7298.37,-37879.425,-23583.6,-23692.32
1764510880.7432077,-5735.16,-38244.015,-31057.155,-7356.96,-7298.099999999999,-37878.705,-23584.185,-23693.535
1764510880.7432077,-5731.335,-38240.19,-31053.735,-7352.28,-7294.184999999999,-37874.88,-23579.865,-23691.15
1764510880.7432077,-5734.844999999999,-38242.17,-31056.165,-7354.035,-7296.705,-37877.49,-23580.99,-23694.615
1764510880.7432077,-5730.705,-38234.925,-31048.92,-7347.24,-7289.73,-37870.29,-23573.88,-23690.07
1764510880.7432077,-5728.724999999999,-38230.83,-31045.275,-7343.054999999999,-7284.96,-37866.105,-23568.93,-23685.93
1764510880.7442093,-5732.415,-38232.72,-31047.12,-7344.585,-7287.075,-37868.265,-23569.785,-23686.11
1764510880.7442093,-5732.955,-38233.395,-31047.795,-7345.08,-7288.019999999999,-37868.85,-23567.625,-23686.83
1764510880.7442093,-5733.764999999999,-38232.135,-31047.345,-7344.764999999999,-7287.3,-37868.175,-23565.24,-23686.965
1764510880.7442093,-5737.365,-38233.395,-31048.47,-7345.62,-7288.245,-37868.895,-23564.79,-23688.405
1764510880.7442093,-5745.96,-38241.765,-31055.895,-7353.719999999999,-7296.3,-37876.95,-23569.965,-23694.57
1764510880.7442093,-5747.67,-38242.17,-31055.625,-7354.62,-7296.84,-37877.265,-23568.615,-23693.805
1764510880.7442093,-5744.969999999999,-38237.31,-31050.855,-7349.715,-7292.384999999999,-37872.495,-23563.17,-23689.035
1764510880.7442093,-5750.37,-38241.63,-31055.895,-7353.269999999999,-7296.705,-37876.545,-23566.23,-23692.995
1764510880.7442093,-5750.325,-38240.415,-31054.545,-7352.28,-7294.905,-37874.745,-23564.7,-23691.87
1764510880.7442093,-5742.855,-38232.225,-31046.355,-7345.125,-7286.804999999999,-37867.455,-23557.635,-23684.805
1764510880.7442093,-5746.23,-38234.61,-31049.505,-7348.32,-7290.134999999999,-37869.93,-23559.03,-23687.37
1764510880.7455573,-5749.695,-38239.965,-31054.005,-7353.179999999999,-7294.905,-37874.25,-23562.945,-23690.115
1764510880.7455573,-5745.78,-38236.23,-31050.045,-7348.995,-7291.035,-37870.65,-23558.535,-23686.245
1764510880.7931132,-5749.875,-38241.945,-31055.715,-7354.62,-7297.065,-37875.6,-23562.495,-23690.97
1764510880.7931132,-5749.469999999999,-38242.215,-31056.21,-7355.16,-7297.245,-37874.97,-23562.99,-23690.25
1764510880.7931132,-5742.675,-38235.825,-31049.325,-7349.175,-7290.719999999999,-37868.94,-23557.455,-23683.725
1764510880.7931132,-5740.965,-38236.455,-31049.64,-7348.995,-7290.405,-37868.94,-23557.905,-23684.355
1764510880.794119,-5744.385,-38243.295,-31056.795,-7355.565,-7297.2,-37874.835,-23563.44,-23690.115
1764510880.794119,-5741.955,-38241.9,-31056.03,-7355.115,-7296.615,-37873.215,-23563.44,-23688.855
1764510880.794119,-5736.465,-38235.645,-31050.405,-7348.769999999999,-7290.945,-37867.365,-23557.59,-23683.905
1764510880.794119,-5741.19,-38241.675,-31056.255,-7354.304999999999,-7297.245,-37873.17,-23562.675,-23691.24
1764510880.794119,-5739.929999999999,-38241.495,-31055.04,-7353.945,-7296.165,-37872.405,-23562.36,-23691.6
1764510880.794119,-5734.53,-38235.105,-31048.695,-7346.969999999999,-7289.415,-37866.105,-23557.005,-23687.1
1764510880.794119,-5732.19,-38233.62,-31047.345,-7345.71,-7288.425,-37864.08,-23554.215,-23687.865
1764510880.794119,-5733.045,-38237.13,-31049.64,-7349.4,-7291.17,-37866.465,-23555.655,-23691.195
1764510880.794119,-5738.175,-38243.61,-31056.165,-7355.384999999999,-7297.155,-37872.45,-23559.93,-23697.855
1764510880.794119,-5737.545,-38243.97,-31056.21,-7354.889999999999,-7297.019999999999,-37872.675,-23559.435,-23699.475
1764510880.794119,-5737.32,-38242.665,-31055.67,-7353.495,-7297.065,-37872.045,-23557.365,-23699.565
1764510880.794119,-5736.014999999999,-38241.405,-31054.59,-7351.74,-7296.075,-37870.11,-23554.845,-23700.24
1764510880.794119,-5729.4,-38235.015,-31047.93,-7343.639999999999,-7288.11,-37862.37,-23547.24,-23695.74
1764510880.794119,-5730.075,-38234.925,-31047.57,-7343.325,-7288.514999999999,-37862.595,-23546.88,-23697.27
1764510880.794119,-5731.29,-38234.655,-31047.165,-7343.415,-7288.965,-37862.28,-23546.07,-23698.935
1764510880.794119,-5733.135,-38236.14,-31047.57,-7344.495,-7290.09,-37863.36,-23547.015,-23701.77
1764510880.794119,-5736.105,-38240.46,-31051.485,-7348.365,-7294.5,-37866.78,-23551.38,-23706.855
1764510880.794119,-5731.92,-38236.815,-31048.65,-7344.09,-7290.315,-37863.63,-23548.545,-23703.93
1764510880.794119,-5734.575,-38242.035,-31053.105,-7348.32,-7294.59,-37868.445,-23553.315,-23707.44
1764510880.794119,-5730.48,-38238.57,-31049.775,-7345.035,-7291.934999999999,-37864.89,-23551.56,-23704.425
1764510880.8392043,-5730.57,-38239.92,-31051.755,-7345.755,-7293.105,-37866.51,-23554.71,-23705.19
1764510880.8392043,-5733.0,-38245.455,-31055.355,-7349.13,-7296.929999999999,-37870.02,-23560.56,-23708.79
1764510880.8392043,-5726.835,-38239.56,-31049.1,-7342.875,-7290.269999999999,-37863.315,-23558.04,-23702.805
1764510880.8392043,-5727.15,-38241.495,-31050.945,-7345.394999999999,-7292.429999999999,-37865.565,-23562.45,-23703.84
1764510880.8392043,-5729.94,-38247.03,-31055.94,-7350.165,-7296.884999999999,-37870.695,-23568.21,-23706.27
1764510880.8392043,-5724.9,-38241.585,-31051.98,-7345.575,-7291.755,-37866.105,-23567.445,-23700.825
1764510880.8392043,-5722.92,-38241.36,-31052.25,-7346.34,-7292.61,-37866.42,-23570.82,-23699.25
1764510880.8392043,-5724.495,-38246.355,-31056.615,-7350.389999999999,-7297.559999999999,-37870.92,-23577.705,-23701.68
1764510880.8392043,-5717.565,-38239.875,-31050.945,-7344.764999999999,-7291.394999999999,-37865.115,-23576.085,-23695.155
1764510880.8392043,-5716.17,-38239.2,-31050.405,-7344.045,-7290.269999999999,-37864.8,-23579.73,-23692.59
1764510880.8392043,-5718.645,-38243.79,-31054.815,-7347.78,-7294.094999999999,-37868.58,-23586.975,-23693.805
1764510880.8392043,-5711.895,-38237.58,-31049.64,-7342.559999999999,-7288.785,-37862.775,-23585.535,-23685.48
1764510880.8392043,-5707.485,-38233.62,-31046.58,-7339.139999999999,-7285.32,-37859.265,-23584.68,-23680.35
1764510880.8392043,-5708.205,-38235.24,-31048.155,-7340.849999999999,-7287.615,-37861.02,-23589.18,-23680.62
1764510880.8392043,-5706.945,-38234.79,-31048.065,-7341.389999999999,-7287.12,-37860.93,-23591.79,-23676.975
1764510880.8392043,-5708.115,-38235.915,-31049.955,-7342.92,-7288.514999999999,-37863.0,-23594.985,-23675.985
1764510880.8392043,-5712.615,-38241.27,-31055.355,-7347.69,-7293.465,-37868.625,-23601.375,-23679.09
1764510880.8392043,-5709.78,-38239.155,-31052.565,-7345.215,-7290.809999999999,-37866.24,-23600.34,-23675.31
1764510880.8392043,-5703.525,-38231.595,-31045.14,-7338.105,-7284.059999999999,-37859.4,-23593.815,-23666.13
1764510880.8392043,-5702.849999999999,-38230.74,-31044.42,-7337.07,-7283.655,-37858.725,-23592.555,-23664.06
1764510880.8392043,-5701.995,-38230.875,-31044.69,-7337.07,-7284.15,-37859.355,-23591.97,-23663.88
1764510880.8392043,-5701.5,-38230.74,-31044.465,-7336.665,-7283.79,-37858.41,-23590.215,-23661.54
1764510880.885206,-5701.365,-38229.345,-31043.565,-7335.9,-7282.665,-37857.465,-23588.28,-23659.83
1764510880.885206,-5705.28,-38231.415,-31045.815,-7338.69,-7284.78,-37859.49,-23588.64,-23662.035
1764510880.885206,-5706.54,-38231.46,-31045.635,-7338.24,-7284.509999999999,-37859.625,-23586.75,-23662.98
1764510880.885206,-5711.49,-38234.835,-31048.605,-7341.48,-7288.425,-37863.99,-23587.695,-23666.445
1764510880.885206,-5709.599999999999,-38231.145,-31045.14,-7337.565,-7284.735,-37861.155,-23581.755,-23663.565
1764510880.885206,-5715.719999999999,-38237.31,-31051.35,-7343.955,-7290.99,-37866.78,-23584.455,-23669.73
1764510880.885206,-5717.429999999999,-38236.815,-31050.405,-7343.415,-7290.09,-37865.745,-23580.765,-23669.145
1764510880.885206,-5712.929999999999,-38229.21,-31042.575,-7335.855,-7282.62,-37857.825,-23571.45,-23664.195
1764510880.885206,-5719.005,-38233.98,-31046.94,-7340.219999999999,-7287.344999999999,-37863.09,-23572.17,-23667.93
1764510880.885206,-5721.03,-38234.34,-31046.625,-7340.355,-7287.884999999999,-37863.18,-23569.65,-23668.065
1764510880.885206,-5717.295,-38228.94,-31040.595,-7334.73,-7282.17,-37857.735,-23562.27,-23663.925
1764510880.885206,-5724.99,-38235.465,-31047.075,-7340.535,-7287.84,-37864.035,-23566.095,-23670.405
1764510880.885206,-5727.87,-38235.87,-31047.075,-7341.3,-7288.2,-37864.935,-23564.97,-23672.16
1764510880.885206,-5727.465,-38233.08,-31043.97,-7337.969999999999,-7284.87,-37862.595,-23560.695,-23670.855
1764510880.885206,-5724.9,-38227.635,-31038.66,-7332.795,-7279.514999999999,-37856.52,-23554.08,-23666.895
1764510880.885206,-5731.74,-38234.205,-31044.42,-7338.69,-7285.184999999999,-37862.145,-23558.355,-23672.745
1764510880.8861992,-5735.429999999999,-38236.77,-31046.67,-7340.67,-7287.165,-37864.17,-23559.84,-23675.4
1764510880.8861992,-5736.014999999999,-38236.14,-31045.77,-7339.724999999999,-7286.49,-37863.63,-23557.455,-23675.94
1764510880.8861992,-5731.38,-38230.245,-31039.695,-7333.83,-7280.19,-37856.61,-23551.605,-23671.305
1764510880.8861992,-5732.19,-38227.95,-31037.445,-7331.625,-7278.03,-37853.64,-23550.03,-23670.315
1764510880.8861992,-5733.855,-38227.05,-31036.68,-7330.634999999999,-7277.13,-37852.245,-23550.84,-23671.53
1764510880.8861992,-5741.28,-38235.285,-31044.51,-7338.105,-7284.78,-37859.895,-23557.05,-23678.82
1764510880.9293191,-5739.389999999999,-38232.72,-31041.315,-7334.955,-7281.179999999999,-37856.925,-23554.44,-23676.03
1764510880.9293191,-5740.425,-38233.935,-31042.17,-7335.54,-7282.62,-37858.005,-23556.42,-23676.975
1764510880.9293191,-5743.304999999999,-38237.715,-31045.23,-7338.285,-7285.455,-37860.165,-23560.245,-23681.52
1764510880.9293191,-5750.505,-38246.58,-31054.05,-7347.105,-7294.5,-37868.625,-23568.84,-23690.07
1764510880.9293191,-5749.29,-38244.78,-31051.665,-7345.17,-7292.429999999999,-37866.105,-23568.12,-23690.52
1764510880.9293191,-5748.705,-38244.555,-31051.665,-7344.54,-7292.565,-37866.015,-23568.705,-23693.13
1764510880.9293191,-5747.625,-38245.455,-31052.88,-7344.405,-7293.33,-37866.24,-23570.19,-23695.92
1764510880.9293191,-5746.005,-38245.05,-31052.52,-7344.045,-7293.24,-37865.88,-23571.54,-23697.9
1764510880.9293191,-5744.115,-38243.295,-31050.81,-7341.84,-7291.17,-37864.17,-23570.1,-23698.845
1764510880.9293191,-5745.599999999999,-38247.03,-31054.41,-7344.99,-7294.769999999999,-37866.78,-23573.295,-23704.155
1764510880.9293191,-5748.929999999999,-38253.465,-31060.575,-7350.57,-7301.25,-37872.54,-23579.1,-23711.355
1764510880.9293191,-5747.895,-38255.445,-31062.465,-7352.91,-7303.275,-37874.475,-23581.755,-23713.47
1764510880.9320304,-5744.429999999999,-38254.455,-31062.42,-7352.505,-7303.139999999999,-37873.71,-23581.17,-23714.415
1764510880.933028,-5738.085,-38250.945,-31057.605,-7347.285,-7298.37,-37869.075,-23577.705,-23711.31
1764510880.933028,-5738.67,-38255.445,-31062.915,-7352.099999999999,-7303.23,-37873.53,-23581.98,-23715.27
1764510880.933028,-5732.775,-38251.98,-31059.225,-7348.139999999999,-7299.855,-37869.57,-23580.18,-23711.58
1764510880.933028,-5728.679999999999,-38250.99,-31057.56,-7347.33,-7298.639999999999,-37868.445,-23579.73,-23710.455
1764510880.933028,-5724.45,-38249.28,-31057.29,-7346.519999999999,-7298.415,-37867.32,-23579.055,-23709.555
1764510880.933028,-5721.84,-38249.415,-31057.605,-7346.34,-7299.224999999999,-37868.04,-23580.405,-23708.16
1764510880.933028,-5722.785,-38254.32,-31062.42,-7351.425,-7304.355,-37872.99,-23585.22,-23711.805
1764510880.933028,-5716.395,-38250.045,-31058.685,-7347.825,-7300.665,-37868.58,-23583.24,-23707.44
1764510880.933028,-5716.08,-38252.655,-31061.07,-7350.255,-7303.455,-37871.19,-23586.255,-23708.205
1764510880.933028,-5709.87,-38249.235,-31057.965,-7346.07,-7299.315,-37867.545,-23583.15,-23702.67
1764510880.934028,-5711.219999999999,-38253.78,-31062.195,-7350.389999999999,-7303.32,-37872.0,-23587.74,-23704.47
1764510880.979041,-5704.695,-38248.065,-31057.02,-7344.315,-7297.965,-37866.33,-23583.465,-23697.81
1764510880.9795585,-5701.59,-38247.84,-31057.515,-7344.09,-7298.46,-37866.33,-23582.925,-23694.21
1764510880.9795585,-5700.105,-38247.57,-31057.47,-7343.55,-7298.144999999999,-37865.835,-23582.745,-23691.915
1764510880.9795585,-5698.395,-38245.545,-31055.895,-7342.019999999999,-7296.929999999999,-37864.665,-23581.71,-23689.305
1764510880.9795585,-5696.55,-38244.42,-31054.545,-7341.03,-7295.49,-37863.63,-23580.99,-23685.84
1764510880.9795585,-5701.275,-38249.91,-31059.81,-7345.8,-7300.259999999999,-37868.715,-23586.435,-23688.72
1764510880.9795585,-5697.27,-38243.565,-31054.23,-7340.355,-7294.59,-37863.855,-23581.395,-23681.34
1764510880.9795585,-5697.315,-38242.71,-31052.88,-7339.815,-7293.195,-37863.63,-23580.495,-23677.875
1764510880.9795585,-5700.24,-38243.52,-31053.465,-7341.03,-7294.094999999999,-37864.575,-23581.44,-23676.21
1764510880.9795585,-5704.74,-38247.615,-31058.01,-7345.349999999999,-7298.235,-37868.805,-23585.4,-23678.505
1764510880.9795585,-5701.905,-38242.305,-31052.97,-7340.67,-7292.969999999999,-37863.765,-23581.215,-23672.97
1764510880.9795585,-5705.594999999999,-38244.465,-31054.68,-7342.875,-7295.04,-37865.655,-23582.745,-23674.455
1764510880.9795585,-5704.155,-38240.37,-31050.765,-7338.554999999999,-7291.17,-37862.28,-23578.605,-23670.405
1764510880.9795585,-5708.969999999999,-38242.98,-31053.015,-7340.58,-7293.42,-37864.485,-23579.64,-23672.385
1764510880.9795585,-5706.27,-38238.165,-31046.94,-7335.09,-7287.344999999999,-37858.635,-23573.025,-23667.615
1764510880.9795585,-5713.965,-38244.915,-31053.375,-7341.48,-7294.005,-37864.845,-23576.49,-23671.98
1764510880.9795585,-5715.719999999999,-38243.43,-31053.33,-7340.49,-7292.835,-37863.765,-23573.655,-23671.035
1764510880.9795585,-5714.955,-38240.28,-31049.955,-7336.934999999999,-7289.009999999999,-37859.715,-23568.705,-23666.94
1764510880.9795585,-5719.77,-38244.195,-31052.97,-7340.175,-7292.655,-37863.225,-23570.19,-23670.045
1764510880.9795585,-5719.094999999999,-38239.695,-31048.83,-7335.99,-7288.019999999999,-37858.68,-23566.23,-23666.805
1764510880.9795585,-5724.719999999999,-38242.935,-31052.07,-7339.365,-7290.99,-37861.65,-23568.255,-23669.685
1764510880.9795585,-5726.88,-38242.755,-31051.305,-7338.87,-7290.315,-37860.93,-23566.59,-23670.18
1764510880.9795585,-5727.87,-38240.37,-31049.01,-7336.485,-7288.469999999999,-37858.59,-23562.54,-23668.92
1764510880.9795585,-5723.505,-38232.945,-31041.36,-7329.735,-7279.83,-37850.985,-23555.745,-23661.585
1764510881.0229115,-5725.395,-38232.405,-31041.18,-7329.825,-7279.875,-37850.58,-23555.115,-23661.945
1764510881.0229115,-5734.889999999999,-38241.27,-31050.36,-7338.465,-7288.875,-37859.085,-23562.045,-23669.64
1764510881.0229115,-5736.195,-38240.145,-31048.74,-7337.79,-7287.795,-37858.23,-23560.29,-23670.18
1764510881.0229115,-5732.28,-38233.89,-31042.53,-7331.264999999999,-7281.9,-37852.2,-23554.98,-23664.465
1764510881.0239422,-5733.405,-38234.34,-31042.98,-7331.264999999999,-7281.719999999999,-37851.975,-23554.62,-23665.32
1764510881.0239422,-5737.635,-38237.13,-31045.815,-7334.639999999999,-7284.42,-37855.395,-23558.04,-23670.135
1764510881.0239422,-5733.719999999999,-38233.17,-31040.64,-7330.455,-7279.74,-37850.715,-23554.26,-23666.49
1764510881.0239422,-5736.24,-38235.555,-31043.655,-7332.795,-7282.44,-37853.595,-23556.78,-23669.235
1764510881.0239422,-5733.36,-38231.955,-31040.865,-7329.465,-7279.74,-37850.175,-23554.89,-23667.705
1764510881.0239422,-5736.195,-38236.635,-31045.185,-7333.559999999999,-7283.429999999999,-37854.315,-23559.345,-23671.125
1764510881.024453,-5732.099999999999,-38232.63,-31041.405,-7329.69,-7279.469999999999,-37850.76,-23557.68,-23669.19
1764510881.024453,-5736.24,-38238.93,-31048.875,-7336.575,-7286.58,-37857.825,-23564.025,-23676.03
1764510881.024453,-5730.165,-38233.17,-31043.16,-7331.58,-7280.73,-37852.29,-23560.875,-23671.98
1764510881.024453,-5727.15,-38232.045,-31041.99,-7330.724999999999,-7279.965,-37850.625,-23560.92,-23671.215
1764510881.024453,-5727.554999999999,-38234.97,-31044.195,-7332.3,-7281.855,-37853.955,-23564.07,-23673.285
1764510881.024453,-5730.57,-38240.595,-31049.28,-7338.014999999999,-7287.03,-37859.49,-23571.135,-23678.64
1764510881.024453,-5728.094999999999,-38239.56,-31048.965,-7337.295,-7286.715,-37859.04,-23572.35,-23677.56
1764510881.024453,-5719.724999999999,-38233.44,-31043.79,-7331.625,-7281.315,-37853.1,-23569.605,-23671.845
1764510881.024453,-5715.45,-38234.295,-31044.6,-7332.884999999999,-7282.844999999999,-37853.865,-23572.35,-23671.125
1764510881.024453,-5716.26,-38239.92,-31049.82,-7337.969999999999,-7289.054999999999,-37859.265,-23579.28,-23674.635
1764510881.025965,-5709.105,-38235.555,-31046.355,-7334.054999999999,-7285.769999999999,-37855.17,-23577.165,-23671.125
1764510881.025965,-5711.355,-38242.44,-31053.42,-7340.58,-7292.88,-37861.47,-23584.95,-23674.185
1764510881.025965,-5708.385,-38243.295,-31054.095,-7341.66,-7293.915,-37861.605,-23587.56,-23673.555
1764510881.025965,-5705.054999999999,-38243.7,-31055.58,-7342.38,-7294.275,-37862.145,-23589.27,-23673.465
1764510881.0707264,-5700.645,-38243.61,-31055.625,-7342.019999999999,-7294.545,-37861.425,-23590.665,-23672.115
1764510881.0707264,-5696.594999999999,-38242.8,-31054.725,-7341.344999999999,-7293.96,-37860.795,-23592.105,-23670.36
1764510881.0707264,-5692.635,-38242.575,-31053.915,-7340.894999999999,-7293.554999999999,-37860.57,-23591.745,-23667.21
1764510881.0707264,-5685.12,-38236.815,-31048.335,-7334.955,-7287.57,-37854.18,-23587.65,-23660.415
1764510881.0707264,-5683.679999999999,-38236.545,-31048.155,-7335.45,-7287.615,-37853.595,-23588.505,-23660.325
1764510881.0707264,-5685.885,-38239.875,-31052.025,-7338.915,-7291.44,-37857.42,-23591.835,-23663.745
1764510881.0707264,-5681.07,-38234.79,-31046.94,-7333.559999999999,-7286.309999999999,-37852.245,-23587.425,-23660.19
1764510881.0707264,-5685.255,-38240.01,-31051.665,-7339.005,-7290.855,-37856.43,-23592.555,-23665.815
1764510881.0707264,-5682.285,-38236.995,-31047.84,-7335.315,-7287.344999999999,-37852.245,-23588.91,-23663.43
1764510881.0707264,-5684.085,-38239.65,-31050.855,-7336.62,-7289.46,-37854.315,-23591.34,-23666.22
1764510881.0707264,-5679.855,-38234.52,-31045.905,-7331.264999999999,-7283.745,-37849.05,-23585.625,-23662.845
1764510881.0707264,-5680.125,-38233.98,-31045.23,-7330.455,-7282.934999999999,-37848.465,-23583.105,-23663.115
1764510881.0707264,-5687.37,-38240.055,-31050.72,-7336.755,-7288.83,-37854.36,-23586.93,-23669.595
1764510881.0707264,-5690.969999999999,-38241.585,-31051.53,-7337.79,-7290.719999999999,-37855.62,-23585.22,-23673.195
1764510881.0707264,-5691.014999999999,-38239.965,-31050.36,-7335.495,-7289.91,-37853.82,-23582.025,-23673.105
1764510881.0707264,-5690.565,-38236.725,-31046.715,-7332.21,-7286.445,-37850.805,-23577.48,-23671.575
1764510881.0719864,-5688.764999999999,-38232.18,-31041.45,-7327.485,-7281.99,-37845.405,-23570.415,-23668.83
1764510881.0719864,-5694.389999999999,-38236.77,-31045.68,-7330.679999999999,-7285.679999999999,-37849.275,-23572.305,-23674.635
1764510881.0719864,-5692.59,-38233.305,-31041.675,-7326.179999999999,-7282.08,-37845.54,-23566.41,-23672.34
1764510881.0719864,-5698.53,-38237.94,-31046.49,-7331.175,-7286.67,-37850.355,-23566.77,-23677.29
1764510881.0719864,-5697.495,-38233.62,-31042.8,-7326.99,-7282.215,-37845.81,-23560.83,-23673.87
1764510881.0719864,-5699.7,-38234.79,-31044.015,-7327.889999999999,-7283.384999999999,-37846.665,-23559.57,-23675.22
1764510881.0719864,-5701.32,-38235.78,-31044.06,-7329.195,-7284.509999999999,-37848.105,-23558.715,-23676.075
1764510881.0719864,-5704.83,-38238.75,-31046.67,-7331.49,-7287.344999999999,-37850.355,-23559.57,-23678.46
1764510881.1165516,-5709.51,-38243.07,-31051.485,-7335.495,-7291.62,-37854.72,-23561.73,-23683.41
1764510881.1165516,-5703.389999999999,-38236.095,-31044.555,-7328.474999999999,-7284.915,-37847.835,-23555.205,-23678.865
1764510881.1165516,-5702.04,-38236.455,-31044.195,-7328.384999999999,-7284.644999999999,-37847.565,-23554.26,-23678.73
1764510881.1170857,-5708.34,-38244.465,-31052.52,-7336.08,-7292.79,-37855.035,-23561.82,-23685.705
1764510881.1170857,-5704.695,-38240.955,-31049.145,-7332.705,-7288.695,-37851.84,-23559.345,-23682.375
1764510881.1170857,-5707.71,-38246.445,-31054.275,-7338.33,-7293.87,-37856.925,-23564.565,-23687.28
1764510881.1170857,-5705.054999999999,-38245.68,-31054.365,-7337.61,-7293.509999999999,-37856.295,-23565.195,-23687.685
1764510881.1170857,-5699.429999999999,-38240.415,-31049.505,-7332.57,-7287.929999999999,-37850.94,-23561.595,-23683.455
1764510881.1170857,-5701.365,-38245.905,-31054.365,-7337.07,-7292.61,-37855.98,-23568.435,-23687.415
1764510881.1170857,-5699.52,-38246.85,-31055.625,-7337.969999999999,-7293.644999999999,-37857.78,-23571.045,-23687.64
1764510881.1170857,-5695.469999999999,-38245.095,-31053.6,-7335.9,-7291.844999999999,-37855.305,-23571.405,-23685.255
1764510881.1170857,-5687.639999999999,-38237.94,-31046.49,-7329.24,-7284.509999999999,-37848.33,-23568.345,-23679.045
1764510881.1170857,-5684.04,-38236.59,-31045.545,-7327.98,-7283.519999999999,-37847.25,-23570.28,-23677.875
1764510881.1170857,-5687.865,-38242.53,-31052.115,-7333.965,-7289.82,-37853.73,-23579.37,-23683.05
1764510881.1170857,-5685.57,-38241.225,-31050.405,-7332.705,-7288.695,-37852.29,-23579.865,-23681.34
1764510881.1170857,-5677.875,-38235.69,-31044.465,-7326.945,-7282.259999999999,-37846.755,-23576.76,-23675.085
1764510881.1170857,-5676.615,-38237.4,-31046.49,-7329.014999999999,-7283.655,-37848.555,-23579.37,-23675.445
1764510881.1170857,-5680.98,-38244.87,-31053.645,-7336.215,-7291.304999999999,-37855.17,-23587.245,-23681.07
1764510881.1170857,-5678.82,-38242.98,-31051.8,-7334.55,-7289.955,-37853.145,-23587.965,-23678.955
1764510881.1176174,-5670.54,-38234.7,-31043.88,-7326.764999999999,-7281.36,-37845.18,-23582.025,-23671.935
1764510881.1176174,-5673.06,-38238.435,-31047.615,-7330.32,-7285.769999999999,-37848.87,-23586.345,-23673.645
1764510881.1176174,-5670.179999999999,-38236.32,-31045.14,-7327.304999999999,-7282.889999999999,-37845.675,-23585.13,-23670.225
1764510881.1645277,-5662.395,-38229.705,-31039.065,-7321.455,-7277.085,-37839.87,-23579.595,-23662.755
1764510881.1645277,-5667.12,-38236.41,-31046.22,-7329.105,-7284.78,-37847.565,-23586.48,-23668.47
1764510881.1645277,-5665.95,-38235.555,-31045.095,-7327.98,-7283.07,-37846.665,-23586.84,-23667.93
1764510881.1645277,-5659.469999999999,-38227.32,-31036.365,-7319.565,-7274.16,-37837.935,-23580.36,-23661.0
1764510881.1645277,-5656.679999999999,-38225.295,-31034.7,-7317.764999999999,-7272.719999999999,-37836.36,-23578.47,-23659.02
1764510881.1645277,-5655.915,-38223.9,-31033.35,-7316.865,-7271.37,-37835.055,-23577.705,-23657.355
1764510881.1645277,-5656.724999999999,-38224.575,-31033.755,-7317.54,-7272.0,-37836.0,-23578.74,-23657.625
1764510881.1645277,-5662.935,-38231.505,-31040.82,-7324.38,-7279.514999999999,-37842.75,-23584.005,-23663.07
1764510881.1645277,-5664.42,-38230.65,-31041.045,-7324.019999999999,-7280.099999999999,-37842.345,-23583.645,-23663.25
1764510881.1645277,-5659.65,-38223.9,-31034.07,-7316.55,-7272.36,-37834.605,-23577.48,-23656.59
1764510881.1645277,-5659.65,-38221.83,-31032.09,-7314.884999999999,-7271.054999999999,-37832.895,-23575.185,-23654.52
1764510881.1645277,-5663.07,-38223.315,-31033.8,-7316.054999999999,-7272.315,-37834.56,-23575.995,-23655.825
1764510881.1645277,-5666.49,-38225.385,-31035.105,-7317.719999999999,-7273.575,-37836.135,-23576.22,-23658.345
1764510881.1645277,-5672.835,-38229.795,-31039.74,-7322.804999999999,-7278.48,-37840.5,-23580.18,-23663.115
1764510881.1645277,-5675.58,-38230.875,-31040.82,-7323.929999999999,-7279.785,-37841.265,-23579.865,-23663.565
1764510881.1645277,-5677.56,-38230.65,-31039.56,-7322.715,-7279.155,-37840.05,-23577.435,-23663.655
1764510881.1645277,-5680.304999999999,-38229.66,-31037.265,-7321.905,-7277.849999999999,-37838.385,-23574.735,-23664.06
1764510881.1645277,-5682.105,-38226.42,-31034.07,-7319.655,-7275.014999999999,-37835.82,-23570.505,-23663.88
1764510881.1645277,-5681.52,-38221.02,-31029.705,-7314.165,-7269.12,-37830.78,-23564.34,-23660.28
1764510881.1645277,-5682.87,-38220.795,-31028.94,-7313.625,-7267.815,-37830.105,-23561.1,-23661.0
1764510881.1645277,-5685.525,-38221.74,-31029.12,-7313.94,-7268.49,-37830.24,-23558.4,-23663.205
1764510881.1645277,-5691.825,-38225.16,-31032.72,-7316.955,-7272.09,-37832.49,-23560.29,-23668.47
1764510881.2142308,-5698.215,-38229.3,-31036.59,-7320.735,-7276.139999999999,-37835.73,-23562.045,-23675.22
1764510881.2142308,-5697.54,-38225.115,-31032.63,-7316.82,-7272.269999999999,-37831.545,-23556.69,-23674.14
1764510881.2142308,-5700.014999999999,-38224.755,-31033.08,-7316.144999999999,-7272.405,-37831.59,-23555.34,-23676.3
1764510881.2142308,-5702.219999999999,-38226.645,-31033.935,-7317.0,-7273.844999999999,-37832.625,-23554.62,-23679.765
1764510881.2142308,-5703.929999999999,-38227.95,-31035.06,-7318.844999999999,-7274.565,-37833.3,-23554.35,-23682.015
1764510881.2142308,-5709.69,-38232.27,-31040.325,-7323.03,-7278.615,-37836.63,-23557.905,-23687.64
1764510881.2142308,-5710.635,-38232.945,-31039.965,-7323.434999999999,-7278.48,-37835.685,-23556.24,-23689.125
1764510881.2142308,-5704.065,-38225.97,-31032.315,-7316.684999999999,-7271.73,-37828.89,-23548.995,-23684.85
1764510881.2142308,-5702.355,-38223.405,-31029.345,-7314.21,-7268.759999999999,-37826.055,-23545.665,-23683.86
1764510881.215249,-5703.615,-38226.69,-31032.99,-7316.955,-7272.36,-37829.52,-23547.735,-23687.865
1764510881.215249,-5703.3,-38228.355,-31035.195,-7318.215,-7275.33,-37832.04,-23549.58,-23689.755
1764510881.215249,-5707.215,-38235.015,-31041.72,-7324.605,-7282.889999999999,-37839.42,-23556.285,-23696.685
1764510881.215249,-5706.495,-38236.365,-31043.07,-7326.495,-7283.835,-37840.59,-23557.365,-23699.88
1764510881.215249,-5703.974999999999,-38235.69,-31043.295,-7325.144999999999,-7282.394999999999,-37839.06,-23557.32,-23699.7
1764510881.215249,-5696.91,-38231.235,-31039.02,-7320.059999999999,-7277.625,-37834.785,-23553.81,-23696.19
1764510881.215249,-5693.67,-38232.135,-31040.28,-7320.78,-7277.985,-37834.83,-23555.79,-23697.18
1764510881.215249,-5691.69,-38233.89,-31041.63,-7321.86,-7278.75,-37834.965,-23557.995,-23698.035
1764510881.215249,-5689.215,-38234.07,-31041.765,-7322.715,-7279.514999999999,-37835.73,-23560.11,-23697.99
1764510881.215249,-5684.985,-38231.64,-31039.515,-7321.545,-7279.65,-37836.18,-23560.83,-23696.37
1764510881.215249,-5682.825,-38232.36,-31039.92,-7321.455,-7279.92,-37837.17,-23563.845,-23697.0
1764510881.215249,-5679.315,-38231.64,-31039.245,-7320.014999999999,-7278.165,-37835.145,-23564.52,-23695.83
1764510881.215249,-5675.895,-38231.19,-31038.165,-7319.34,-7276.995,-37833.12,-23566.005,-23694.435
1764510881.215249,-5674.995,-38233.125,-31040.82,-7321.23,-7279.695,-37836.09,-23570.19,-23694.795
1764510881.215249,-5678.82,-38239.92,-31047.84,-7328.16,-7286.264999999999,-37843.38,-23577.885,-23700.78
1764510881.2598493,-5676.57,-38240.865,-31047.84,-7328.474999999999,-7286.715,-37842.975,-23579.505,-23700.33
1764510881.2598493,-5669.37,-38236.635,-31043.025,-7323.434999999999,-7281.269999999999,-37837.53,-23577.345,-23695.02
1764510881.2598493,-5667.57,-38235.78,-31042.71,-7323.075,-7281.675,-37837.53,-23578.02,-23693.67
1764510881.2598493,-5666.715,-38235.69,-31042.8,-7322.894999999999,-7281.764999999999,-37837.755,-23578.92,-23692.635
1764510881.2598493,-5664.105,-38235.015,-31041.315,-7322.4,-7281.405,-37837.395,-23580.225,-23692.23
1764510881.2598493,-5668.02,-38240.73,-31047.255,-7328.79,-7288.155,-37844.73,-23588.28,-23697.9
1764510881.2598493,-5662.17,-38234.52,-31041.99,-7322.985,-7281.99,-37838.97,-23584.545,-23692.815
1764510881.2598493,-5661.27,-38234.565,-31041.225,-7322.309999999999,-7281.179999999999,-37837.8,-23584.5,-23692.545
1764510881.2598493,-5666.849999999999,-38241.09,-31046.58,-7327.44,-7286.985,-37843.2,-23589.27,-23696.73
1764510881.2598493,-5665.679999999999,-38238.165,-31044.375,-7325.144999999999,-7283.88,-37841.22,-23587.92,-23694.93
1764510881.2598493,-5660.325,-38231.415,-31037.805,-7319.205,-7277.715,-37833.93,-23582.7,-23688.54
1764510881.2598493,-5660.415,-38232.765,-31038.345,-7319.88,-7277.985,-37834.38,-23581.53,-23688.135
1764510881.2598493,-5663.52,-38234.79,-31039.965,-7321.365,-7279.2,-37836.63,-23581.755,-23689.53
1764510881.2598493,-5668.065,-38237.31,-31042.89,-7323.929999999999,-7281.63,-37839.15,-23583.195,-23693.445
1764510881.2598493,-5664.78,-38230.38,-31036.005,-7317.855,-7275.644999999999,-37832.58,-23578.425,-23689.395
1764510881.2598493,-5673.15,-38235.375,-31040.37,-7322.355,-7281.764999999999,-37836.585,-23583.87,-23693.58
1764510881.2598493,-5675.355,-38236.005,-31041.36,-7323.21,-7282.08,-37836.99,-23583.105,-23694.12
1764510881.2598493,-5669.82,-38230.605,-31035.78,-7316.955,-7275.105,-37832.175,-23576.4,-23687.64
1764510881.2598493,-5670.405,-38228.13,-31033.44,-7315.065,-7272.945,-37830.24,-23573.295,-23685.21
1764510881.2598493,-5672.474999999999,-38228.13,-31032.855,-7314.84,-7273.035,-37829.34,-23572.215,-23685.075
1764510881.2598493,-5675.445,-38229.615,-31035.15,-7315.965,-7273.844999999999,-37830.78,-23572.305,-23686.11
1764510881.260851,-5680.08,-38232.63,-31038.435,-7319.07,-7276.95,-37833.795,-23574.69,-23689.305
1764510881.260851,-5676.929999999999,-38227.32,-31032.855,-7313.445,-7271.46,-37828.755,-23570.235,-23685.615
1764510881.260851,-5679.945,-38228.67,-31033.575,-7314.344999999999,-7272.855,-37830.15,-23570.235,-23686.92
1764510881.3045783,-5674.41,-38219.805,-31025.52,-7305.615,-7263.945,-37821.69,-23561.955,-23680.35
1764510881.3045783,-5675.67,-38219.625,-31025.43,-7306.38,-7263.855,-37821.375,-23561.955,-23681.25
1764510881.3045783,-5677.695,-38221.245,-31026.6,-7307.28,-7264.844999999999,-37821.87,-23562.81,-23682.645
1764510881.3045783,-5680.53,-38223.9,-31029.03,-7309.71,-7266.33,-37824.21,-23563.89,-23685.525
1764510881.3045783,-5686.83,-38228.94,-31034.115,-7315.469999999999,-7271.415,-37829.43,-23568.345,-23692.005
1764510881.3045783,-5688.179999999999,-38228.895,-31033.755,-7315.155,-7271.775,-37829.475,-23569.155,-23693.94
1764510881.3045783,-5685.66,-38226.51,-31031.415,-7312.5,-7269.48,-37827.045,-23566.905,-23692.725
1764510881.3045783,-5681.295,-38221.02,-31026.105,-7307.594999999999,-7264.665,-37821.78,-23561.955,-23688.945
1764510881.3045783,-5685.705,-38225.925,-31031.28,-7312.545,-7269.57,-37826.28,-23565.465,-23694.525
1764510881.3045783,-5685.165,-38225.43,-31030.47,-7311.42,-7268.804999999999,-37825.83,-23564.79,-23696.415
1764510881.3045783,-5680.44,-38221.065,-31026.015,-7306.29,-7264.08,-37820.52,-23559.345,-23692.23
1764510881.3055906,-5685.75,-38228.13,-31033.305,-7313.309999999999,-7271.415,-37827.18,-23566.455,-23698.755
1764510881.3055906,-5680.215,-38222.955,-31027.365,-7307.865,-7265.61,-37821.825,-23562.945,-23696.505
1764510881.3055906,-5685.03,-38230.29,-31034.655,-7315.425,-7272.54,-37828.89,-23568.795,-23703.57
1764510881.3055906,-5683.679999999999,-38228.67,-31033.305,-7313.625,-7270.74,-37826.865,-23567.265,-23703.93
1764510881.3055906,-5677.605,-38221.56,-31026.015,-7306.875,-7264.08,-37820.07,-23562.54,-23699.655
1764510881.3055906,-5678.01,-38223.63,-31028.175,-7308.495,-7265.565,-37821.915,-23565.105,-23700.33
1764510881.3055906,-5682.105,-38231.01,-31035.645,-7315.155,-7272.63,-37828.485,-23570.28,-23706.855
1764510881.3055906,-5678.46,-38228.13,-31032.54,-7312.769999999999,-7269.389999999999,-37825.47,-23568.345,-23706.18
1764510881.3065898,-5680.26,-38228.715,-31033.53,-7313.49,-7270.065,-37826.19,-23570.325,-23708.475
1764510881.3065898,-5674.724999999999,-38223.99,-31028.85,-7308.54,-7264.889999999999,-37820.655,-23566.905,-23704.11
1764510881.3065898,-5679.09,-38231.64,-31035.105,-7315.695,-7272.719999999999,-37828.395,-23574.015,-23710.455
1764510881.3065898,-5675.31,-38228.67,-31031.73,-7313.085,-7269.344999999999,-37825.29,-23572.755,-23708.295
1764510881.3065898,-5679.0,-38234.07,-31037.67,-7318.44,-7275.059999999999,-37830.645,-23578.965,-23713.74
1764510881.3509235,-5679.179999999999,-38234.34,-31039.155,-7319.115,-7276.275,-37831.005,-23581.08,-23714.64
1764510881.3509235,-5671.844999999999,-38227.095,-31032.36,-7312.32,-7268.759999999999,-37823.85,-23577.525,-23709.33
1764510881.3509235,-5669.37,-38226.555,-31031.685,-7311.554999999999,-7267.95,-37823.445,-23578.02,-23709.195
1764510881.3509235,-5670.495,-38229.21,-31033.845,-7314.66,-7270.695,-37826.145,-23581.935,-23710.905
1764510881.3509235,-5675.49,-38235.06,-31039.38,-7320.69,-7276.094999999999,-37831.95,-23589.09,-23716.215
1764510881.3509235,-5672.385,-38232.09,-31036.455,-7317.179999999999,-7273.215,-37829.025,-23589.495,-23714.37
1764510881.3509235,-5665.5,-38224.395,-31029.03,-7310.025,-7265.519999999999,-37821.825,-23584.275,-23707.08
1764510881.3509235,-5665.455,-38224.8,-31029.615,-7311.014999999999,-7266.105,-37822.32,-23586.03,-23707.8
1764510881.3509235,-5663.925,-38223.45,-31027.995,-7309.17,-7264.755,-37821.555,-23587.02,-23707.125
1764510881.3509235,-5664.195,-38224.755,-31029.615,-7310.969999999999,-7266.014999999999,-37823.085,-23589.135,-23707.62
1764510881.3509235,-5668.965,-38230.605,-31035.69,-7315.965,-7271.955,-37829.07,-23594.175,-23711.805
1764510881.3509235,-5667.03,-38228.535,-31033.26,-7313.13,-7269.12,-37826.595,-23592.24,-23709.24
1764510881.351941,-5671.844999999999,-38233.845,-31038.255,-7319.115,-7274.79,-37832.04,-23596.02,-23713.155
1764510881.351941,-5670.27,-38232.0,-31036.185,-7316.955,-7272.945,-37829.655,-23594.22,-23710.545
1764510881.351941,-5675.219999999999,-38237.49,-31041.63,-7321.905,-7277.58,-37834.605,-23598.27,-23714.01
1764510881.351941,-5674.59,-38234.07,-31037.985,-7318.17,-7274.295,-37831.455,-23596.605,-23711.805
1764510881.351941,-5668.29,-38223.675,-31028.085,-7308.495,-7264.485,-37822.23,-23589.225,-23704.875
1764510881.351941,-5675.535,-38231.505,-31035.96,-7315.785,-7271.505,-37829.205,-23594.985,-23711.58
1764510881.351941,-5676.03,-38231.055,-31034.79,-7314.48,-7271.054999999999,-37828.35,-23594.085,-23711.67
1764510881.351941,-5671.98,-38225.43,-31028.895,-7308.764999999999,-7265.835,-37823.625,-23588.28,-23706.135
1764510881.351941,-5673.69,-38225.25,-31029.165,-7309.62,-7265.519999999999,-37824.03,-23587.02,-23706.45
1764510881.351941,-5679.405,-38229.525,-31033.8,-7314.03,-7269.705,-37828.35,-23589.27,-23709.24
1764510881.351941,-5676.615,-38224.98,-31029.12,-7308.855,-7264.575,-37823.265,-23583.51,-23704.605
1764510881.351941,-5678.505,-38223.54,-31028.535,-7308.045,-7263.9,-37823.04,-23581.755,-23704.785
1764510881.3986936,-5685.03,-38229.03,-31034.205,-7313.58,-7270.065,-37828.8,-23584.455,-23709.78
1764510881.3986936,-5686.29,-38229.615,-31034.385,-7313.715,-7270.29,-37828.98,-23582.295,-23709.69
1764510881.3986936,-5682.87,-38221.245,-31026.195,-7305.795,-7262.054999999999,-37820.43,-23573.97,-23702.265
1764510881.3986936,-5686.065,-38223.54,-31027.68,-7308.315,-7264.035,-37822.68,-23573.025,-23704.83
1764510881.3986936,-5690.52,-38228.985,-31032.315,-7312.905,-7268.085,-37827.405,-23574.96,-23709.87
1764510881.3986936,-5688.585,-38225.97,-31028.265,-7308.495,-7264.349999999999,-37824.21,-23570.865,-23707.8
1764510881.3986936,-5688.9,-38224.215,-31026.915,-7307.28,-7263.315,-37822.635,-23568.03,-23707.89
1764510881.3986936,-5690.52,-38222.415,-31026.195,-7306.83,-7261.83,-37821.69,-23565.915,-23707.17
1764510881.3986936,-5692.995,-38223.315,-31027.05,-7307.82,-7262.37,-37822.86,-23564.43,-23707.62
1764510881.3986936,-5694.929999999999,-38224.755,-31028.67,-7309.259999999999,-7264.08,-37823.67,-23563.98,-23708.655
1764510881.400166,-5697.585,-38226.15,-31030.065,-7311.465,-7266.105,-37825.155,-23563.08,-23710.23
1764510881.400166,-5701.86,-38230.29,-31034.115,-7315.605,-7270.469999999999,-37829.745,-23566.32,-23713.875
1764510881.400166,-5697.675,-38224.89,-31027.995,-7309.44,-7264.17,-37823.445,-23561.415,-23709.465
1764510881.400166,-5703.57,-38231.28,-31034.43,-7315.11,-7270.559999999999,-37829.61,-23566.59,-23716.035
1764510881.400166,-5703.84,-38230.695,-31034.43,-7314.84,-7270.155,-37829.115,-23566.32,-23716.395
1764510881.400166,-5703.57,-38230.47,-31033.53,-7314.705,-7269.3,-37828.125,-23564.79,-23715.09
1764510881.400166,-5702.804999999999,-38229.525,-31031.91,-7312.769999999999,-7268.804999999999,-37827.315,-23564.34,-23715.045
1764510881.400166,-5698.349999999999,-38226.465,-31027.995,-7309.259999999999,-7264.394999999999,-37823.4,-23561.505,-23711.355
1764510881.400166,-5701.679999999999,-38231.775,-31034.07,-7315.155,-7269.57,-37828.89,-23566.59,-23715.855
1764510881.400166,-5702.895,-38233.845,-31035.645,-7316.82,-7271.054999999999,-37830.6,-23568.57,-23718.24
1764510881.400166,-5700.78,-38232.135,-31033.35,-7314.48,-7269.165,-37828.845,-23567.22,-23717.88
1764510881.400166,-5693.264999999999,-38226.24,-31028.13,-7308.855,-7263.269999999999,-37822.23,-23562.63,-23712.975
1764510881.448542,-5691.014999999999,-38225.475,-31026.78,-7307.73,-7263.045,-37821.33,-23562.135,-23713.695
1764510881.448542,-5697.0,-38233.71,-31035.375,-7315.695,-7270.605,-37829.385,-23569.695,-23720.67
1764510881.448542,-5695.245,-38234.07,-31035.15,-7315.425,-7270.83,-37829.025,-23570.955,-23720.49
1764510881.448542,-5688.315,-38227.77,-31029.21,-7309.035,-7264.71,-37822.77,-23566.995,-23714.775
1764510881.448542,-5686.514999999999,-38227.275,-31028.175,-7308.405,-7264.125,-37821.96,-23567.265,-23714.64
1764510881.448542,-5688.315,-38231.235,-31032.405,-7312.05,-7267.86,-37825.47,-23570.955,-23719.23
1764510881.448542,-5681.79,-38224.845,-31026.465,-7304.849999999999,-7261.425,-37819.17,-23566.59,-23715.09
