Timestamp,Channel1,Channel2,Channel3,Channel4,Channel5,Channel6,Channel7,Channel8
1764511503.8034947,-6619.365,-39884.76,-30515.805,-11006.73,-10926.09,-36607.455,-24873.03,-22185.405
1764511503.8034947,-6619.365,-39886.11,-30517.065,-11006.865,-10927.485,-36608.76,-24873.21,-22186.665
1764511503.8034947,-6624.495,-39892.5,-30522.825,-11012.22,-10933.245,-36615.33,-24875.91,-22190.895
1764511503.8398132,-6622.514999999999,-39893.22,-30523.5,-11014.02,-10934.595,-36614.835,-24873.705,-22188.465
1764511503.8398132,-6618.285,-39888.135,-30518.73,-11009.52,-10930.455,-36611.145,-24874.92,-22188.375
1764511503.8398132,-6602.849999999999,-39870.585,-30500.235,-10989.765,-10911.195,-36594.09,-24863.58,-22177.305
1764511503.8398132,-6594.66,-39861.405,-30491.505,-10981.665,-10902.24,-36584.055,-24851.745,-22167.09
1764511503.8398132,-6606.63,-39874.905,-30504.42,-10994.67,-10916.145,-36598.23,-24867.405,-22177.17
1764511503.8398132,-6625.125,-39894.39,-30522.105,-11013.795,-10936.17,-36616.14,-24881.715,-22193.055
1764511503.8398132,-6627.33,-39901.185,-30530.7,-11021.895,-10944.315,-36623.385,-24881.85,-22192.515
1764511503.8398132,-6625.08,-39900.915,-30531.015,-11020.5,-10942.83,-36622.89,-24884.1,-22198.005
1764511503.8398132,-6626.88,-39900.87,-30529.62,-11018.97,-10942.47,-36624.24,-24890.355,-22207.5
1764511503.8398132,-6628.139999999999,-39902.355,-30532.185,-11021.265,-10945.845,-36627.66,-24893.19,-22208.985
1764511503.8398132,-6624.764999999999,-39900.24,-30530.88,-11019.465,-10943.235,-36623.7,-24886.8,-22202.91
1764511503.8398132,-6627.33,-39903.255,-30532.995,-11021.445,-10944.54,-36624.195,-24886.935,-22205.205
1764511503.8398132,-6621.57,-39895.695,-30524.895,-11014.065,-10937.295,-36616.905,-24880.095,-22198.815
1764511503.8398132,-6622.92,-39894.615,-30523.905,-11013.525,-10937.745,-36616.5,-24881.175,-22201.155
1764511503.8398132,-6622.74,-39898.35,-30527.73,-11016.27,-10941.12,-36619.155,-24881.76,-22202.145
1764511503.8398132,-6618.87,-39894.12,-30522.105,-11010.645,-10935.18,-36614.295,-24881.715,-22201.83
1764511503.8398132,-6613.83,-39888.765,-30516.795,-11004.48,-10929.78,-36609.93,-24878.205,-22196.565
1764511503.8398132,-6617.429999999999,-39893.85,-30521.925,-11009.61,-10935.765,-36614.655,-24880.275,-22197.915
1764511503.840828,-6622.83,-39901.005,-30528.99,-11016.855,-10942.695,-36621.09,-24884.415,-22203.0
1764511503.840828,-6619.95,-39896.91,-30524.445,-11012.58,-10937.88,-36616.86,-24884.28,-22203.54
1764511503.840828,-6611.804999999999,-39889.8,-30517.605,-11005.425,-10929.555,-36608.85,-24876.765,-22196.7
1764511503.840828,-6609.645,-39886.56,-30514.545,-11001.825,-10926.99,-36606.33,-24875.46,-22195.395
1764511503.840828,-6611.04,-39886.92,-30514.815,-11001.645,-10928.025,-36607.41,-24876.495,-22199.85
1764511503.840828,-6608.07,-39881.655,-30508.74,-10996.02,-10922.085,-36602.055,-24875.955,-22205.655
1764511503.8880906,-6602.58,-39877.695,-30504.915,-10992.645,-10917.99,-36597.24,-24869.295,-22199.355
1764511503.8880906,-6613.065,-39894.3,-30521.925,-11010.06,-10935.585,-36613.89,-24876.81,-22194.495
1764511503.8880906,-6615.99,-39898.98,-30526.965,-11014.92,-10940.355,-36619.02,-24880.905,-22198.905
1764511503.8880906,-6617.205,-39898.17,-30525.075,-11013.345,-10939.275,-36618.57,-24882.57,-22204.485
1764511503.8880906,-6614.685,-39894.435,-30521.34,-11010.105,-10935.99,-36615.69,-24880.59,-22203.99
1764511503.8880906,-6614.009999999999,-39893.85,-30522.465,-11010.735,-10936.53,-36615.375,-24879.87,-22201.965
1764511503.8880906,-6609.96,-39890.16,-30517.875,-11006.91,-10931.67,-36610.335,-24877.08,-22199.94
1764511503.8880906,-6610.679999999999,-39891.465,-30518.55,-11008.215,-10933.245,-36612.99,-24879.33,-22202.28
1764511503.8880906,-6606.0,-39884.265,-30512.025,-11001.465,-10926.63,-36606.105,-24873.48,-22196.43
1764511503.8880906,-6607.98,-39885.615,-30513.78,-11002.95,-10927.845,-36606.465,-24873.66,-22196.835
1764511503.8880906,-6611.219999999999,-39889.89,-30518.775,-11007.855,-10931.805,-36611.505,-24876.54,-22199.265
1764511503.8880906,-6614.145,-39893.265,-30522.24,-11011.455,-10935.45,-36615.645,-24879.735,-22202.595
1764511503.8880906,-6611.264999999999,-39888.72,-30517.92,-11006.19,-10930.905,-36611.865,-24875.685,-22199.67
1764511503.8880906,-6615.63,-39894.21,-30522.33,-11010.6,-10935.63,-36616.77,-24879.285,-22203.54
1764511503.8880906,-6610.815,-39888.27,-30515.22,-11005.02,-10929.375,-36609.885,-24874.515,-22196.295
1764511503.8880906,-6610.32,-39886.695,-30513.69,-11004.57,-10929.42,-36607.905,-24874.155,-22195.17
1764511503.8880906,-6614.28,-39890.43,-30518.235,-11008.62,-10933.875,-36612.63,-24877.71,-22198.86
1764511503.8880906,-6610.905,-39884.13,-30512.43,-11002.635,-10927.575,-36606.195,-24872.22,-22193.595
1764511503.8880906,-6610.32,-39884.49,-30512.97,-11003.355,-10926.72,-36606.96,-24871.41,-22191.705
1764511503.8880906,-6614.639999999999,-39892.455,-30521.07,-11011.005,-10934.28,-36615.42,-24877.215,-22196.97
1764511503.8880906,-6613.83,-39890.295,-30519.72,-11009.52,-10932.48,-36614.25,-24877.08,-22197.015
1764511503.8880906,-6609.465,-39883.77,-30512.475,-11003.49,-10927.62,-36606.825,-24871.815,-22191.705
1764511503.8880906,-6608.565,-39884.715,-30514.005,-11005.29,-10928.25,-36607.185,-24869.34,-22186.215
1764511503.8880906,-6616.665,-39894.3,-30523.635,-11014.155,-10936.44,-36617.31,-24877.44,-22192.965
1764511503.9337542,-6618.33,-39894.345,-30523.14,-11013.255,-10935.63,-36618.795,-24882.57,-22196.52
1764511503.9337542,-6614.325,-39889.53,-30520.17,-11010.015,-10932.615,-36615.015,-24877.8,-22188.78
1764511503.9337542,-6602.445,-39875.355,-30505.23,-10995.12,-10917.72,-36600.795,-24866.55,-22174.83
1764511503.9348571,-6604.605,-39878.1,-30508.56,-10997.64,-10920.42,-36603.72,-24867.81,-22176.99
1764511503.9348571,-6606.81,-39880.8,-30512.25,-11000.835,-10923.48,-36606.96,-24868.53,-22178.115
1764511503.9358552,-6607.304999999999,-39882.06,-30512.79,-11002.005,-10924.74,-36607.32,-24869.07,-22178.79
1764511503.9358552,-6609.87,-39882.915,-30512.79,-11001.87,-10924.47,-36607.815,-24873.705,-22182.39
1764511503.9358552,-6605.955,-39876.615,-30506.985,-10995.975,-10918.44,-36602.46,-24868.665,-22176.54
1764511503.9358552,-6605.28,-39877.02,-30507.84,-10996.695,-10918.89,-36603.45,-24867.135,-22175.55
1764511503.9358552,-6607.215,-39878.955,-30510.855,-10999.665,-10921.725,-36606.015,-24868.845,-22177.485
1764511503.9358552,-6608.52,-39881.025,-30513.105,-11002.005,-10923.795,-36606.33,-24868.53,-22177.665
1764511503.9358552,-6610.59,-39881.97,-30513.645,-11002.095,-10925.19,-36607.725,-24874.2,-22182.03
1764511503.9358552,-6608.925,-39879.09,-30510.675,-10999.62,-10922.94,-36605.925,-24870.735,-22180.005
1764511503.9358552,-6606.27,-39875.265,-30506.355,-10995.84,-10918.215,-36601.245,-24866.64,-22177.44
1764511503.9368594,-6610.77,-39880.17,-30511.935,-11001.735,-10923.435,-36604.935,-24869.205,-22182.525
1764511503.9368594,-6607.844999999999,-39877.965,-30510.45,-10999.62,-10921.05,-36603.63,-24867.045,-22179.24
1764511503.9368594,-6609.825,-39879.9,-30512.565,-11001.69,-10923.57,-36606.195,-24869.205,-22180.86
1764511503.9368594,-6606.09,-39874.5,-30507.075,-10996.65,-10918.305,-36599.94,-24864.03,-22175.595
1764511503.9368594,-6605.145,-39873.42,-30505.995,-10993.995,-10916.685,-36598.095,-24862.005,-22173.57
1764511503.9368594,-6610.185,-39878.01,-30510.135,-10998.0,-10921.32,-36602.19,-24865.74,-22177.665
1764511503.9368594,-6607.215,-39874.005,-30505.95,-10994.895,-10917.36,-36598.41,-24860.61,-22174.2
1764511503.9368594,-6609.06,-39875.445,-30507.3,-10996.875,-10918.845,-36599.715,-24861.555,-22174.515
1764511503.9780383,-6606.224999999999,-39870.45,-30502.62,-10991.25,-10913.805,-36594.72,-24860.655,-22173.39
1764511503.9780383,-6610.724999999999,-39875.58,-30507.255,-10996.155,-10919.025,-36599.265,-24864.57,-22177.89
1764511503.9780383,-6609.735,-39875.13,-30506.265,-10995.705,-10918.53,-36598.68,-24862.14,-22176.27
1764511503.9780383,-6610.185,-39874.32,-30505.095,-10994.22,-10917.585,-36597.96,-24861.24,-22176.855
1764511503.9780383,-6609.69,-39873.645,-30504.195,-10993.365,-10916.19,-36595.98,-24857.64,-22177.17
1764511503.9780383,-6609.69,-39874.545,-30504.825,-10993.32,-10917.045,-36596.655,-24858.495,-22180.095
1764511503.9780383,-6610.32,-39876.48,-30507.345,-10995.075,-10919.97,-36600.03,-24861.915,-22181.04
1764511503.9780383,-6619.815,-39886.29,-30517.02,-11005.695,-10930.095,-36608.58,-24868.665,-22188.375
1764511503.9780383,-6617.205,-39882.78,-30513.15,-11002.32,-10926.585,-36604.395,-24863.895,-22185.945
1764511503.9780383,-6619.365,-39885.345,-30514.995,-11003.85,-10929.33,-36606.465,-24866.73,-22190.04
1764511503.9790568,-6618.465,-39882.78,-30511.8,-11000.925,-10926.585,-36604.17,-24864.705,-22188.51
1764511503.9790568,-6613.605,-39875.985,-30505.32,-10994.715,-10920.015,-36598.005,-24859.125,-22184.055
1764511503.9790568,-6613.83,-39876.39,-30506.265,-10995.03,-10920.735,-36598.77,-24858.675,-22185.045
1764511503.9790568,-6617.745,-39880.89,-30510.045,-10999.17,-10924.29,-36603.045,-24862.545,-22189.23
1764511503.9790568,-6615.719999999999,-39878.505,-30506.625,-10997.505,-10921.59,-36599.94,-24860.34,-22187.97
1764511503.9790568,-6610.32,-39871.62,-30500.145,-10990.665,-10915.155,-36593.145,-24854.085,-22182.93
1764511503.9790568,-6607.98,-39868.065,-30497.895,-10987.695,-10912.095,-36590.175,-24851.655,-22183.065
1764511503.9790568,-6611.13,-39869.865,-30499.83,-10989.135,-10913.94,-36592.02,-24854.895,-22190.175
1764511504.027314,-6614.505,-39873.555,-30502.89,-10992.195,-10916.145,-36595.26,-24858.765,-22196.655
1764511504.027314,-6616.035,-39875.85,-30505.32,-10995.255,-10918.8,-36597.375,-24856.65,-22192.965
1764511504.027314,-6625.98,-39888.765,-30518.415,-11008.665,-10932.705,-36611.01,-24862.32,-22188.51
1764511504.027314,-6624.945,-39885.885,-30516.57,-11007.18,-10931.895,-36609.975,-24864.435,-22192.74
1764511504.027314,-6617.115,-39873.24,-30503.295,-10995.615,-10919.565,-36596.52,-24857.82,-22191.795
1764511504.027314,-6618.69,-39873.42,-30503.25,-10995.03,-10918.665,-36596.34,-24857.955,-22191.84
1764511504.0283237,-6624.179999999999,-39883.05,-30512.385,-11003.175,-10926.72,-36605.52,-24864.165,-22197.105
1764511504.0283237,-6619.77,-39875.67,-30504.825,-10997.55,-10920.375,-36597.78,-24856.56,-22191.12
1764511504.0283237,-6616.665,-39872.34,-30502.35,-10995.03,-10916.64,-36595.44,-24854.31,-22189.185
1764511504.0283237,-6617.88,-39873.15,-30502.53,-10994.4,-10915.83,-36596.79,-24859.305,-22192.74
1764511504.0283237,-6623.415,-39879.0,-30508.47,-11000.52,-10921.95,-36602.415,-24861.375,-22195.305
1764511504.0283237,-6621.705,-39873.285,-30503.07,-10996.56,-10917.945,-36596.88,-24857.595,-22190.04
1764511504.029313,-6620.804999999999,-39873.285,-30504.06,-10996.92,-10917.765,-36598.59,-24856.65,-22186.08
1764511504.029313,-6615.405,-39868.065,-30498.84,-10992.105,-10912.635,-36593.73,-24851.34,-22178.43
1764511504.029313,-6617.115,-39870.675,-30501.27,-10995.12,-10914.39,-36595.665,-24851.295,-22178.655
1764511504.029313,-6621.525,-39874.815,-30505.68,-10999.575,-10919.205,-36600.615,-24857.685,-22187.115
1764511504.0298216,-6620.13,-39871.755,-30502.935,-10996.245,-10916.01,-36598.455,-24857.64,-22184.595
1764511504.0298216,-6620.445,-39869.775,-30499.605,-10992.69,-10911.78,-36593.73,-24850.71,-22188.105
1764511504.0298216,-6625.71,-39877.425,-30508.065,-11002.185,-10921.455,-36602.685,-24857.82,-22191.615
1764511504.0298216,-6642.315,-39898.53,-30529.53,-11025.09,-10945.26,-36625.005,-24880.005,-22198.005
1764511504.0298216,-6640.065,-39897.27,-30529.44,-11023.56,-10943.01,-36623.295,-24874.92,-22194.18
1764511504.0308287,-6634.44,-39889.755,-30521.745,-11015.955,-10934.775,-36615.87,-24869.835,-22189.68
1764511504.0308287,-6628.365,-39883.275,-30515.445,-11010.555,-10928.52,-36609.705,-24864.165,-22183.02
1764511504.0308287,-6626.34,-39880.62,-30513.69,-11007.99,-10925.73,-36607.365,-24862.41,-22181.31
1764511504.0308287,-6624.27,-39877.02,-30510.63,-11004.75,-10922.76,-36604.395,-24859.215,-22177.665
1764511504.0318482,-6624.719999999999,-39875.76,-30508.515,-11004.075,-10922.445,-36603.09,-24859.755,-22175.415
1764511504.070966,-6628.86,-39881.025,-30514.23,-11008.755,-10927.8,-36608.895,-24863.715,-22178.295
1764511504.070966,-6629.13,-39879.18,-30512.115,-11007.405,-10925.955,-36606.42,-24861.78,-22175.775
1764511504.070966,-6626.295,-39876.57,-30510.27,-11005.335,-10923.12,-36604.305,-24857.28,-22170.555
1764511504.070966,-6632.73,-39883.815,-30517.515,-11013.03,-10930.59,-36610.74,-24863.49,-22176.54
1764511504.070966,-6632.28,-39879.54,-30512.925,-11008.305,-10926.27,-36606.33,-24864.165,-22176.81
1764511504.070966,-6627.014999999999,-39873.33,-30506.355,-11002.455,-10919.655,-36599.355,-24858.18,-22170.285
1764511504.070966,-6629.175,-39876.705,-30509.73,-11005.38,-10922.67,-36602.505,-24858.765,-22171.59
1764511504.070966,-6631.065,-39876.48,-30508.515,-11005.83,-10922.445,-36602.595,-24861.51,-22179.645
1764511504.070966,-6621.525,-39864.555,-30496.77,-10993.86,-10909.89,-36592.56,-24855.48,-22176.315
1764511504.070966,-6628.41,-39870.54,-30503.34,-11001.015,-10916.775,-36597.42,-24857.28,-22172.22
1764511504.0739968,-6641.099999999999,-39888.315,-30523.23,-11020.23,-10935.675,-36615.465,-24866.19,-22172.625
1764511504.0739968,-6634.62,-39880.485,-30515.22,-11012.175,-10927.305,-36608.265,-24862.59,-22172.58
1764511504.074999,-6630.84,-39873.825,-30508.38,-11005.47,-10920.69,-36602.19,-24857.91,-22171.23
1764511504.074999,-6632.054999999999,-39872.745,-30506.67,-11005.56,-10919.97,-36601.245,-24858.18,-22172.04
1764511504.074999,-6633.9,-39873.645,-30507.75,-11006.28,-10920.465,-36601.92,-24859.305,-22172.76
1764511504.074999,-6635.52,-39872.745,-30507.165,-11005.875,-10920.375,-36602.1,-24860.25,-22174.02
1764511504.0759976,-6635.969999999999,-39875.625,-30510.225,-11008.575,-10922.895,-36605.295,-24859.53,-22174.74
1764511504.0759976,-6635.429999999999,-39872.115,-30506.895,-11005.56,-10919.835,-36601.605,-24859.305,-22175.055
1764511504.0759976,-6635.16,-39869.865,-30504.87,-11002.815,-10917.765,-36599.445,-24859.53,-22176.54
1764511504.0769956,-6637.365,-39870.45,-30504.78,-11003.535,-10917.72,-36599.94,-24858.945,-22178.25
1764511504.0769956,-6635.79,-39865.68,-30500.505,-10998.585,-10913.445,-36594.765,-24853.68,-22174.92
1764511504.0769956,-6638.355,-39872.34,-30507.615,-11005.38,-10919.115,-36601.875,-24857.46,-22177.305
1764511504.0780032,-6642.27,-39876.435,-30511.53,-11009.385,-10923.84,-36606.24,-24861.69,-22181.04
1764511504.0780032,-6648.3,-39880.62,-30515.49,-11013.255,-10928.25,-36610.605,-24864.39,-22186.17
1764511504.1182446,-6645.15,-39874.32,-30508.92,-11007.09,-10921.545,-36604.71,-24858.99,-22182.705
1764511504.1182446,-6645.87,-39872.52,-30506.445,-11003.895,-10919.475,-36601.83,-24856.92,-22185.0
1764511504.1182446,-6651.27,-39878.055,-30512.925,-11010.06,-10925.325,-36607.815,-24861.645,-22189.41
1764511504.1182446,-6648.974999999999,-39873.15,-30508.965,-11007.09,-10921.545,-36603.495,-24857.955,-22185.81
1764511504.1182446,-6649.02,-39869.685,-30503.43,-11003.76,-10918.395,-36598.995,-24855.255,-22183.785
1764511504.1182446,-6651.54,-39872.205,-30505.815,-11005.74,-10920.6,-36601.92,-24855.3,-22185.63
1764511504.1182446,-6656.49,-39880.17,-30514.005,-11012.58,-10927.62,-36609.39,-24859.44,-22191.12
1764511504.1182446,-6652.304999999999,-39875.67,-30510.045,-11009.205,-10922.49,-36604.125,-24853.41,-22185.405
1764511504.1192389,-6652.889999999999,-39874.59,-30508.605,-11008.665,-10921.905,-36603.18,-24853.005,-22184.28
1764511504.1192389,-6658.83,-39877.83,-30510.72,-11010.24,-10924.65,-36608.04,-24860.07,-22190.67
1764511504.1192389,-6656.804999999999,-39876.615,-30510.765,-11010.375,-10923.93,-36606.69,-24855.255,-22186.08
1764511504.1192389,-6654.24,-39874.995,-30509.55,-11009.115,-10922.22,-36603.63,-24852.555,-22183.155
1764511504.1192389,-6651.675,-39869.01,-30502.89,-11003.265,-10915.65,-36598.14,-24851.88,-22182.975
1764511504.1192389,-6657.03,-39872.025,-30505.635,-11007.45,-10920.15,-36601.02,-24853.5,-22185.09
1764511504.1192389,-6655.32,-39871.89,-30505.365,-11006.415,-10919.25,-36601.065,-24850.755,-22182.705
1764511504.1192389,-6649.514999999999,-39865.05,-30498.435,-10999.62,-10912.14,-36594.135,-24846.345,-22176.18
1764511504.1192389,-6653.25,-39867.795,-30501.81,-11002.185,-10913.94,-36596.25,-24847.965,-22178.34
1764511504.1192389,-6649.02,-39863.295,-30496.77,-10997.145,-10908.9,-36590.895,-24840.765,-22170.42
1764511504.1192389,-6649.74,-39864.105,-30497.13,-10997.64,-10909.845,-36592.515,-24843.285,-22172.265
1764511504.1192389,-6656.175,-39870.99,-30504.915,-11005.245,-10917.18,-36600.03,-24849.63,-22177.575
1764511504.1192389,-6662.295,-39879.81,-30514.995,-11015.055,-10926.585,-36608.94,-24855.255,-22180.995
1764511504.1192389,-6662.969999999999,-39880.53,-30514.005,-11015.1,-10926.63,-36609.615,-24857.055,-22181.625
1764511504.1192389,-6661.935,-39879.63,-30512.34,-11013.84,-10926.0,-36608.04,-24856.155,-22179.24
1764511504.1213264,-6660.719999999999,-39877.92,-30511.17,-11012.67,-10924.245,-36606.105,-24854.715,-22176.27
1764511504.1213264,-6655.32,-39871.89,-30505.365,-11006.91,-10918.215,-36600.165,-24848.955,-22169.655
1764511504.1213264,-6654.825,-39870.765,-30504.465,-11006.01,-10917.09,-36598.23,-24847.695,-22166.73
1764511504.1667192,-6658.965,-39872.52,-30505.815,-11009.115,-10919.745,-36599.49,-24849.405,-22168.35
1764511504.1667192,-6652.17,-39866.94,-30500.55,-11003.67,-10913.04,-36594.855,-24843.555,-22161.915
1764511504.1667192,-6650.865,-39867.75,-30501.945,-11004.165,-10913.445,-36595.395,-24844.41,-22160.745
1764511504.1667192,-6657.929999999999,-39877.695,-30511.665,-11013.93,-10923.39,-36604.395,-24853.05,-22166.145
1764511504.1667192,-6659.73,-39879.72,-30513.285,-11015.505,-10925.19,-36606.915,-24854.67,-22167.27
1764511504.1667192,-6657.884999999999,-39876.93,-30510.72,-11011.95,-10922.445,-36604.665,-24853.68,-22166.91
1764511504.1667192,-6651.134999999999,-39871.485,-30505.815,-11007.45,-10917.765,-36599.805,-24848.37,-22159.89
1764511504.1667192,-6647.625,-39870.27,-30505.455,-11008.44,-10917.63,-36598.68,-24845.175,-22151.52
1764511504.167714,-6647.58,-39869.19,-30504.06,-11007.09,-10916.055,-36597.06,-24846.705,-22153.275
1764511504.167714,-6646.679999999999,-39867.795,-30501.99,-11005.02,-10913.4,-36595.215,-24848.955,-22155.57
1764511504.167714,-6650.415,-39873.78,-30508.47,-11012.04,-10919.97,-36601.785,-24853.14,-22159.89
1764511504.167714,-6646.724999999999,-39869.955,-30505.275,-11008.395,-10916.73,-36598.5,-24849.45,-22156.515
1764511504.167714,-6646.32,-39870.765,-30506.22,-11009.115,-10917.765,-36599.445,-24849.495,-22157.82
1764511504.167714,-6654.105,-39876.21,-30511.44,-11014.29,-10923.795,-36604.98,-24856.065,-22168.89
1764511504.167714,-6649.92,-39872.655,-30507.48,-11009.475,-10919.61,-36601.875,-24854.535,-22170.915
1764511504.167714,-6640.469999999999,-39865.59,-30500.73,-11002.32,-10912.005,-36595.44,-24845.805,-22161.87
1764511504.167714,-6644.25,-39873.24,-30509.37,-11010.105,-10920.015,-36602.82,-24843.915,-22150.17
1764511504.167714,-6653.565,-39886.02,-30522.555,-11023.425,-10933.92,-36615.69,-24855.3,-22157.28
1764511504.167714,-6653.25,-39883.275,-30519.45,-11020.005,-10930.725,-36613.845,-24860.07,-22165.335
1764511504.167714,-6650.19,-39880.44,-30517.965,-11019.465,-10930.005,-36610.515,-24854.895,-22162.815
1764511504.167714,-6644.655,-39874.365,-30512.25,-11012.985,-10923.435,-36605.655,-24855.165,-22159.89
1764511504.167714,-6640.74,-39869.64,-30506.13,-11007.63,-10917.54,-36600.93,-24852.195,-22155.12
1764511504.2124147,-6637.094999999999,-39865.905,-30501.09,-11003.67,-10913.22,-36596.43,-24846.12,-22152.69
1764511504.2124147,-6636.24,-39862.485,-30498.255,-11001.195,-10911.33,-36593.64,-24841.62,-22155.12
1764511504.2124147,-6632.82,-39860.145,-30495.87,-10998.855,-10908.9,-36591.435,-24839.325,-22152.105
1764511504.2124147,-6648.615,-39880.17,-30516.48,-11019.06,-10929.69,-36612.405,-24862.77,-22172.49
1764511504.2134292,-6664.05,-39899.475,-30536.865,-11039.94,-10949.85,-36631.485,-24877.935,-22184.325
1764511504.2134292,-6657.12,-39890.52,-30527.82,-11031.3,-10940.13,-36621.18,-24868.935,-22177.89
1764511504.2134292,-6659.73,-39894.12,-30531.015,-11034.72,-10943.91,-36624.645,-24871.05,-22180.995
1764511504.2134292,-6657.03,-39887.325,-30524.22,-11029.365,-10939.14,-36617.535,-24867.495,-22175.505
1764511504.2134292,-6660.0,-39892.545,-30529.755,-11034.45,-10943.73,-36623.34,-24871.77,-22178.565
1764511504.2134292,-6659.009999999999,-39891.465,-30528.09,-11032.92,-10942.56,-36622.215,-24870.825,-22177.53
1764511504.2134292,-6652.665,-39883.545,-30520.35,-11025.63,-10934.415,-36614.835,-24863.715,-22171.05
1764511504.2134292,-6652.215,-39881.97,-30518.595,-11024.73,-10932.93,-36613.89,-24863.94,-22170.645
1764511504.2134292,-6653.115,-39887.1,-30524.58,-11028.33,-10936.62,-36620.82,-24866.055,-22172.94
1764511504.2134292,-6658.245,-39893.31,-30530.115,-11033.865,-10942.965,-36627.12,-24871.185,-22177.17
1764511504.2134292,-6653.7,-39887.82,-30525.03,-11028.825,-10937.52,-36622.035,-24864.39,-22170.87
1764511504.2134292,-6647.445,-39879.9,-30516.48,-11020.905,-10929.105,-36614.115,-24857.505,-22165.785
1764511504.2134292,-6649.469999999999,-39881.43,-30517.92,-11022.12,-10930.5,-36614.925,-24860.565,-22171.455
1764511504.2134292,-6662.474999999999,-39897.09,-30534.12,-11038.905,-10947.555,-36629.775,-24873.75,-22186.44
1764511504.2149522,-6664.41,-39898.755,-30535.695,-11040.615,-10948.5,-36631.395,-24874.83,-22186.035
1764511504.2149522,-6657.12,-39889.98,-30527.28,-11032.11,-10939.59,-36622.845,-24865.335,-22174.245
1764511504.2149522,-6657.3,-39889.89,-30526.695,-11031.705,-10939.59,-36622.845,-24863.265,-22173.795
1764511504.2149522,-6663.285,-39896.505,-30532.5,-11038.32,-10945.62,-36628.515,-24869.205,-22183.74
1764511504.2149522,-6656.4,-39886.155,-30521.745,-11028.15,-10935.855,-36619.965,-24867.405,-22185.27
1764511504.2149522,-6648.48,-39876.255,-30512.43,-11018.43,-10925.955,-36610.29,-24858.27,-22175.145
1764511504.2593954,-6658.469999999999,-39891.51,-30528.18,-11034.495,-10941.66,-36623.07,-24862.905,-22168.485
1764511504.2599268,-6664.545,-39897.855,-30533.22,-11039.94,-10947.15,-36629.145,-24870.24,-22179.42
1764511504.2599268,-6661.44,-39892.995,-30528.54,-11035.26,-10942.74,-36624.87,-24867.135,-22178.43
1764511504.2599268,-6655.815,-39886.425,-30521.97,-11029.59,-10936.665,-36618.48,-24861.555,-22172.85
1764511504.2599268,-6654.509999999999,-39884.94,-30520.215,-11027.79,-10934.82,-36616.77,-24860.565,-22171.68
1764511504.2599268,-6654.465,-39883.5,-30518.955,-11026.575,-10933.47,-36615.6,-24859.98,-22171.635
1764511504.2599268,-6653.205,-39883.23,-30518.46,-11026.845,-10933.695,-36615.375,-24859.935,-22172.58
1764511504.2599268,-6656.49,-39888.18,-30523.995,-11031.93,-10939.275,-36620.955,-24865.29,-22178.79
1764511504.2599268,-6652.53,-39884.49,-30520.125,-11027.97,-10935.315,-36617.355,-24861.825,-22175.955
1764511504.2599268,-6652.349999999999,-39884.175,-30520.53,-11027.97,-10935.18,-36617.4,-24862.5,-22175.955
1764511504.2599268,-6656.219999999999,-39889.89,-30526.2,-11033.415,-10940.895,-36623.115,-24867.72,-22180.68
1764511504.2599268,-6655.634999999999,-39888.855,-30524.85,-11032.335,-10939.59,-36622.305,-24867.585,-22179.69
1764511504.2599268,-6651.27,-39884.625,-30520.215,-11028.465,-10935.36,-36618.12,-24862.995,-22175.82
1764511504.2599268,-6651.045,-39884.805,-30519.765,-11028.465,-10936.215,-36618.435,-24863.265,-22176.18
1764511504.2604508,-6651.45,-39883.95,-30519.495,-11027.43,-10934.955,-36617.265,-24862.995,-22176.405
1764511504.2604508,-6651.945,-39884.715,-30521.16,-11028.24,-10935.675,-36618.165,-24862.32,-22175.37
1764511504.2604508,-6652.889999999999,-39886.155,-30522.87,-11030.58,-10938.24,-36619.74,-24860.97,-22173.975
1764511504.2604508,-6652.8,-39885.03,-30521.115,-11029.095,-10936.62,-36618.615,-24864.255,-22177.215
1764511504.2604508,-6653.205,-39885.57,-30521.07,-11028.735,-10936.665,-36619.47,-24868.08,-22179.915
1764511504.2604508,-6655.275,-39887.73,-30522.375,-11029.95,-10938.87,-36621.54,-24869.655,-22179.285
1764511504.2604508,-6656.895,-39889.755,-30523.68,-11032.02,-10940.22,-36623.295,-24870.33,-22179.33
1764511504.2604508,-6655.365,-39888.765,-30522.78,-11031.525,-10939.095,-36622.17,-24869.025,-22177.62
1764511504.3037944,-6650.19,-39883.725,-30517.425,-11026.71,-10933.605,-36617.22,-24864.39,-22173.12
1764511504.3037944,-6651.224999999999,-39884.94,-30518.73,-11028.105,-10935.495,-36619.155,-24866.01,-22173.615
1764511504.3037944,-6651.81,-39885.165,-30519.27,-11028.87,-10935.855,-36619.74,-24865.74,-22172.94
1764511504.3037944,-6654.285,-39886.515,-30520.665,-11030.085,-10937.115,-36621.09,-24867.765,-22175.145
1764511504.3037944,-6652.844999999999,-39884.805,-30518.325,-11027.7,-10934.685,-36619.29,-24864.39,-22172.49
1764511504.3037944,-6658.469999999999,-39890.295,-30522.96,-11033.235,-10939.77,-36624.645,-24869.565,-22177.53
1764511504.3048284,-6655.5,-39885.84,-30518.19,-11029.32,-10934.91,-36619.785,-24865.47,-22172.715
1764511504.3048284,-6657.21,-39886.425,-30518.73,-11029.41,-10935.585,-36620.055,-24865.605,-22172.31
1764511504.3048284,-6661.8,-39890.79,-30522.69,-11033.145,-10939.365,-36624.78,-24868.44,-22175.595
1764511504.3048284,-6659.594999999999,-39886.785,-30519.045,-11029.815,-10936.035,-36622.035,-24864.525,-22172.58
1764511504.3053374,-6662.205,-39889.62,-30522.195,-11033.325,-10939.59,-36625.41,-24866.865,-22175.685
1764511504.3053374,-6658.74,-39884.085,-30516.615,-11027.79,-10934.325,-36619.695,-24863.13,-22170.15
1764511504.3053374,-6661.44,-39885.39,-30517.11,-11028.645,-10935.09,-36621.315,-24863.985,-22170.42
1764511504.3053374,-6660.54,-39881.97,-30513.015,-11024.46,-10931.67,-36616.5,-24860.115,-22169.295
1764511504.3053374,-6664.455,-39879.225,-30510.45,-11024.145,-10932.345,-36612.675,-24858.225,-22168.62
1764511504.3053374,-6670.08,-39887.865,-30520.08,-11032.47,-10939.185,-36622.395,-24864.345,-22174.245
1764511504.3053374,-6666.255,-39881.745,-30513.15,-11026.755,-10932.21,-36616.005,-24860.205,-22169.565
1764511504.3053374,-6668.145,-39881.745,-30513.24,-11026.53,-10932.48,-36615.465,-24859.845,-22169.385
1764511504.3053374,-6669.27,-39882.15,-30513.645,-11026.305,-10932.48,-36616.5,-24860.88,-22168.53
1764511504.3053374,-6673.724999999999,-39886.92,-30518.955,-11031.66,-10937.295,-36622.44,-24864.705,-22169.925
1764511504.3053374,-6675.344999999999,-39885.885,-30518.37,-11030.715,-10936.08,-36621.405,-24861.645,-22166.955
1764511504.3053374,-6681.915,-39892.005,-30523.95,-11036.43,-10942.515,-36627.165,-24863.805,-22170.015
1764511504.3053374,-6682.995,-39891.33,-30523.41,-11035.98,-10942.155,-36627.03,-24864.975,-22170.105
1764511504.3053374,-6679.665,-39884.04,-30514.815,-11027.34,-10933.74,-36619.515,-24861.33,-22165.965
1764511504.3539443,-6678.81,-39882.69,-30513.33,-11025.99,-10931.985,-36618.12,-24858.0,-22161.69
1764511504.3539443,-6687.179999999999,-39891.24,-30521.61,-11033.73,-10940.58,-36626.22,-24862.365,-22166.775
1764511504.3539443,-6683.94,-39887.415,-30518.64,-11030.67,-10937.295,-36622.035,-24856.515,-22163.04
1764511504.3539443,-6680.79,-39880.62,-30511.17,-11024.37,-10930.5,-36617.355,-24858.945,-22165.11
1764511504.3539443,-6677.955,-39876.435,-30505.995,-11018.745,-10924.695,-36612.045,-24854.94,-22162.905
1764511504.3539443,-6686.955,-39885.255,-30514.95,-11027.475,-10933.29,-36619.515,-24858.27,-22170.87
1764511504.3539443,-6689.429999999999,-39885.57,-30514.815,-11027.115,-10933.515,-36620.415,-24857.235,-22178.205
1764511504.3539443,-6672.915,-39867.795,-30497.715,-11010.24,-10916.865,-36602.595,-24838.92,-22160.97
1764511504.3539443,-6668.37,-39864.06,-30493.98,-11006.415,-10912.275,-36600.165,-24841.665,-22147.065
1764511504.3539443,-6686.91,-39888.27,-30518.46,-11030.13,-10937.655,-36624.645,-24860.61,-22157.73
1764511504.3539443,-6692.085,-39892.68,-30522.015,-11033.955,-10940.58,-36627.57,-24861.6,-22172.49
1764511504.3539443,-6689.88,-39886.11,-30514.86,-11028.105,-10935.54,-36622.8,-24860.835,-22175.955
1764511504.3539443,-6693.795,-39890.97,-30520.89,-11033.505,-10941.48,-36628.29,-24863.895,-22180.32
1764511504.3539443,-6699.915,-39899.115,-30530.16,-11042.595,-10950.705,-36636.885,-24869.43,-22185.405
1764511504.3539443,-6695.19,-39893.85,-30524.13,-11036.61,-10944.945,-36632.07,-24864.615,-22184.46
1764511504.3539443,-6697.17,-39894.3,-30524.49,-11037.645,-10945.035,-36632.745,-24865.02,-22186.935
1764511504.3539443,-6693.48,-39889.17,-30519.54,-11033.19,-10940.445,-36628.065,-24859.395,-22184.73
1764511504.3539443,-6693.75,-39889.845,-30521.43,-11033.865,-10941.39,-36628.83,-24859.98,-22187.34
1764511504.3539443,-6689.969999999999,-39884.715,-30516.39,-11029.905,-10936.17,-36624.06,-24855.93,-22184.055
1764511504.3539443,-6688.62,-39883.23,-30514.5,-11028.96,-10934.73,-36622.8,-24854.805,-22182.885
1764511504.3539443,-6689.925,-39884.805,-30516.435,-11030.4,-10936.575,-36625.32,-24855.075,-22185.585
1764511504.3539443,-6695.505,-39889.485,-30521.655,-11036.025,-10942.155,-36630.945,-24859.575,-22193.595
1764511504.3539443,-6695.55,-39888.81,-30521.52,-11035.755,-10940.94,-36630.36,-24858.855,-22194.18
1764511504.3539443,-6693.929999999999,-39885.795,-30518.64,-11032.74,-10938.465,-36627.57,-24856.425,-22192.65
1764511504.4022446,-6689.07,-39879.855,-30512.655,-11027.295,-10933.065,-36622.755,-24850.35,-22188.465
1764511504.4022446,-6688.755,-39879.18,-30511.755,-11025.945,-10932.525,-36621.585,-24851.43,-22190.67
1764511504.4022446,-6692.219999999999,-39883.14,-30515.67,-11029.545,-10935.9,-36624.87,-24853.365,-22194.09
1764511504.4022446,-6691.365,-39880.89,-30512.745,-11027.205,-10933.155,-36622.485,-24850.26,-22191.345
1764511504.4032507,-6693.344999999999,-39882.69,-30515.13,-11029.545,-10935.09,-36624.78,-24851.115,-22193.235
1764511504.4032507,-6698.655,-39889.665,-30522.465,-11037.015,-10942.695,-36630.63,-24854.31,-22196.97
1764511504.4032507,-6695.28,-39883.995,-30517.11,-11032.02,-10936.935,-36626.58,-24852.69,-22194.765
1764511504.4032507,-6696.495,-39883.23,-30515.985,-11031.12,-10935.945,-36627.165,-24856.47,-22197.195
1764511504.4032507,-6702.165,-39891.195,-30523.725,-11038.545,-10943.37,-36635.13,-24859.17,-22200.975
1764511504.4032507,-6703.335,-39892.23,-30524.715,-11039.13,-10944.765,-36635.49,-24858.0,-22201.02
1764511504.4032507,-6700.275,-39886.155,-30519.225,-11034.315,-10939.815,-36630.495,-24855.84,-22196.88
1764511504.4032507,-6693.075,-39876.39,-30509.46,-11024.91,-10930.545,-36621.99,-24850.71,-22190.58
1764511504.4032507,-6693.929999999999,-39878.775,-30511.755,-11027.205,-10931.4,-36622.665,-24849.63,-22189.455
1764511504.4032507,-6696.675,-39882.465,-30514.68,-11030.67,-10934.73,-36625.455,-24852.33,-22191.075
1764511504.4032507,-6700.905,-39885.57,-30518.37,-11034.0,-10938.195,-36630.09,-24856.02,-22194.09
1764511504.4032507,-6699.014999999999,-39878.01,-30510.09,-11027.295,-10931.985,-36623.115,-24852.645,-22187.88
1764511504.4032507,-6692.355,-39869.73,-30500.235,-11017.89,-10922.31,-36614.565,-24845.175,-22178.79
1764511504.4032507,-6694.425,-39873.78,-30503.7,-11020.545,-10923.39,-36616.86,-24846.885,-22180.095
1764511504.4032507,-6698.79,-39877.02,-30505.995,-11025.27,-10927.665,-36619.245,-24846.75,-22179.915
1764511504.4032507,-6703.155,-39883.635,-30512.52,-11030.355,-10933.74,-36625.635,-24852.375,-22183.785
1764511504.4032507,-6704.639999999999,-39883.365,-30512.745,-11029.59,-10933.605,-36624.915,-24854.175,-22183.065
1764511504.4032507,-6705.179999999999,-39884.805,-30515.13,-11030.94,-10934.28,-36626.76,-24855.345,-22182.255
1764511504.4032507,-6704.28,-39883.95,-30513.87,-11029.77,-10933.785,-36625.5,-24855.12,-22179.825
1764511504.4032507,-6703.965,-39883.635,-30513.15,-11029.68,-10933.695,-36625.365,-24856.155,-22177.35
1764511504.4479182,-6702.57,-39882.78,-30512.07,-11028.69,-10932.615,-36624.15,-24855.435,-22175.28
1764511504.4479182,-6697.935,-39877.065,-30506.67,-11023.02,-10926.63,-36618.255,-24849.765,-22167.675
1764511504.4479182,-6698.79,-39878.955,-30508.47,-11025.135,-10928.43,-36620.19,-24850.89,-22168.44
1764511504.4479182,-6703.74,-39885.12,-30515.04,-11030.805,-10934.64,-36626.175,-24856.875,-22172.4
1764511504.4479182,-6699.375,-39881.205,-30510.315,-11025.99,-10930.095,-36621.855,-24852.825,-22166.28
1764511504.4479182,-6698.565,-39880.17,-30508.875,-11025.315,-10928.97,-36621.36,-24852.465,-22165.2
1764511504.448912,-6696.9,-39878.775,-30507.975,-11023.65,-10927.98,-36620.325,-24852.825,-22163.85
1764511504.448912,-6696.315,-39878.73,-30508.785,-11024.64,-10928.79,-36620.19,-24853.995,-22163.31
1764511504.4494238,-6696.495,-39879.225,-30509.055,-11025.72,-10928.97,-36620.955,-24854.805,-22162.32
1764511504.4494238,-6695.865,-39880.035,-30509.595,-11026.98,-10929.915,-36621.45,-24855.435,-22162.005
1764511504.4494238,-6696.495,-39881.34,-30510.54,-11027.655,-10930.905,-36622.935,-24856.515,-22161.6
1764511504.4494238,-6699.15,-39884.67,-30514.545,-11031.39,-10934.1,-36626.85,-24859.26,-22162.59
1764511504.450436,-6696.134999999999,-39882.15,-30512.43,-11029.23,-10931.715,-36625.05,-24856.47,-22159.035
1764511504.450436,-6697.17,-39884.58,-30514.77,-11032.02,-10934.28,-36627.21,-24855.705,-22159.125
1764511504.450436,-6696.585,-39884.985,-30515.445,-11031.84,-10934.685,-36626.535,-24856.335,-22161.87
1764511504.4513743,-6695.505,-39882.645,-30512.385,-11029.365,-10932.615,-36625.815,-24860.34,-22163.715
1764511504.4513743,-6696.675,-39883.095,-30513.15,-11030.445,-10933.74,-36627.93,-24863.94,-22163.445
1764511504.4513743,-6702.03,-39889.935,-30520.755,-11037.015,-10940.67,-36633.78,-24866.955,-22166.775
1764511504.4513743,-6701.445,-39889.17,-30519.54,-11036.52,-10939.77,-36633.015,-24865.83,-22166.91
1764511504.4513743,-6700.59,-39887.955,-30517.83,-11035.845,-10938.915,-36631.71,-24865.065,-22167.54
1764511504.4513743,-6694.335,-39880.71,-30510.81,-11028.285,-10931.445,-36624.15,-24859.845,-22166.955
1764511504.4524367,-6687.179999999999,-39870.765,-30500.775,-11019.24,-10922.04,-36614.295,-24855.48,-22167.27
1764511504.4524367,-6687.315,-39871.62,-30501.765,-11020.32,-10921.995,-36615.96,-24852.51,-22163.895
1764511504.4524367,-6702.84,-39891.15,-30522.24,-11041.335,-10943.055,-36636.165,-24864.705,-22165.74
1764511504.4965203,-6708.645,-39896.91,-30528.0,-11047.365,-10949.49,-36642.24,-24871.095,-22174.74
1764511504.4965203,-6701.445,-39888.765,-30519.72,-11038.815,-10940.76,-36634.14,-24862.32,-22165.38
1764511504.4965203,-6703.065,-39888.99,-30520.17,-11039.715,-10941.84,-36634.41,-24858.99,-22164.03
1764511504.4965203,-6700.005,-39883.005,-30513.555,-11033.64,-10935.09,-36626.445,-24856.695,-22164.39
1764511504.4965203,-6693.165,-39876.255,-30506.265,-11024.865,-10925.325,-36617.58,-24853.635,-22164.255
1764511504.4965203,-6697.98,-39881.205,-30508.29,-11025.855,-10926.765,-36620.28,-24857.1,-22171.185
1764511504.4965203,-6712.92,-39893.175,-30519.405,-11037.69,-10939.815,-36633.42,-24866.595,-22181.085
1764511504.4965203,-6703.65,-39879.045,-30512.88,-11033.955,-10935.855,-36630.135,-24861.105,-22171.005
1764511504.4965203,-6701.49,-39878.55,-30511.485,-11032.47,-10934.73,-36628.74,-24857.64,-22169.79
1764511504.4965203,-6707.835,-39885.705,-30516.93,-11036.52,-10938.78,-36633.195,-24862.32,-22175.955
1764511504.4965203,-6706.304999999999,-39882.69,-30513.33,-11033.235,-10934.955,-36630.135,-24857.505,-22173.12
1764511504.4965203,-6710.759999999999,-39886.47,-30516.705,-11037.555,-10939.005,-36634.14,-24859.305,-22175.145
1764511504.4965203,-6707.79,-39881.88,-30512.52,-11033.37,-10934.64,-36629.37,-24855.12,-22172.04
1764511504.4965203,-6707.565,-39879.225,-30509.01,-11029.995,-10931.4,-36627.12,-24857.28,-22174.56
1764511504.4965203,-6705.27,-39875.805,-30505.275,-11026.305,-10928.745,-36624.105,-24853.5,-22169.925
1764511504.4965203,-6706.844999999999,-39875.94,-30505.05,-11026.44,-10928.385,-36623.205,-24849.72,-22168.26
1764511504.4965203,-6704.235,-39871.08,-30499.65,-11020.68,-10922.355,-36616.86,-24841.665,-22165.74
1764511504.4965203,-6700.679999999999,-39866.49,-30494.34,-11016.27,-10919.07,-36613.08,-24838.56,-22162.995
1764511504.4965203,-6718.05,-39888.225,-30516.255,-11038.14,-10941.795,-36634.815,-24859.665,-22175.775
1764511504.4965203,-6729.21,-39898.395,-30526.92,-11048.265,-10950.12,-36643.725,-24870.24,-22186.755
1764511504.4965203,-6727.365,-39892.905,-30521.205,-11043.315,-10945.125,-36638.145,-24865.83,-22184.91
1764511504.4965203,-6725.969999999999,-39892.05,-30520.305,-11041.335,-10944.135,-36638.37,-24862.68,-22183.245
1764511504.4965203,-6722.865,-39885.615,-30512.88,-11034.99,-10937.88,-36631.485,-24858.315,-22178.205
1764511504.4965203,-6724.8,-39888.09,-30515.4,-11037.33,-10939.68,-36632.925,-24859.215,-22179.42
1764511504.5433204,-6720.435,-39883.185,-30511.215,-11032.74,-10934.685,-36628.92,-24853.77,-22171.41
1764511504.5433204,-6713.009999999999,-39873.78,-30501.945,-11024.46,-10924.965,-36618.705,-24845.22,-22160.97
1764511504.5442228,-6715.889999999999,-39874.455,-30501.36,-11023.425,-10924.92,-36619.515,-24847.605,-22168.215
1764511504.5442228,-6722.955,-39881.25,-30507.84,-11029.95,-10932.705,-36627.48,-24854.22,-22176.99
1764511504.5442228,-6721.65,-39881.655,-30509.01,-11030.58,-10933.38,-36627.795,-24852.87,-22173.39
1764511504.5442228,-6724.395,-39884.175,-30511.215,-11032.245,-10934.73,-36629.1,-24854.355,-22177.08
1764511504.5442228,-6723.945,-39883.545,-30510.765,-11032.11,-10934.28,-36629.1,-24853.14,-22175.055
1764511504.5442228,-6723.54,-39882.96,-30509.865,-11031.03,-10933.785,-36628.2,-24851.52,-22174.425
1764511504.5442228,-6725.295,-39886.47,-30511.53,-11033.595,-10935.9,-36630.72,-24852.15,-22178.745
1764511504.5442228,-6726.24,-39889.44,-30515.805,-11037.915,-10939.725,-36633.555,-24851.79,-22178.475
1764511504.5442228,-6725.025,-39886.83,-30512.16,-11034.99,-10936.53,-36630.9,-24852.645,-22178.385
1764511504.5442228,-6724.935,-39881.655,-30505.95,-11029.905,-10931.67,-36624.645,-24851.565,-22177.44
1764511504.5442228,-6724.665,-39881.07,-30506.445,-11029.545,-10931.805,-36624.285,-24848.595,-22175.64
1764511504.5442228,-6718.094999999999,-39875.67,-30501.54,-11023.47,-10925.46,-36619.29,-24842.16,-22168.755
1764511504.5442228,-6720.03,-39877.155,-30502.44,-11024.19,-10926.675,-36620.73,-24842.025,-22169.115
1764511504.5442228,-6725.61,-39883.635,-30508.92,-11030.355,-10933.245,-36626.985,-24847.785,-22175.55
1764511504.5442228,-6725.16,-39883.005,-30507.57,-11029.185,-10932.93,-36626.895,-24846.93,-22174.65
1764511504.5442228,-6719.49,-39876.075,-30500.595,-11022.345,-10925.82,-36619.47,-24840.765,-22167.495
1764511504.5442228,-6718.545,-39875.13,-30500.775,-11022.525,-10925.19,-36618.84,-24840.45,-22166.775
1764511504.5442228,-6723.45,-39880.935,-30505.815,-11027.655,-10929.915,-36624.15,-24845.49,-22171.23
1764511504.5442228,-6723.855,-39881.925,-30506.535,-11028.375,-10930.68,-36625.455,-24845.94,-22170.78
1764511504.5442228,-6719.58,-39877.47,-30502.53,-11023.425,-10926.315,-36620.55,-24841.62,-22167.09
1764511504.5888128,-6719.58,-39878.235,-30503.385,-11023.74,-10926.9,-36621.495,-24841.755,-22166.595
1764511504.5888128,-6720.344999999999,-39878.415,-30503.205,-11024.325,-10927.305,-36622.305,-24841.98,-22165.29
1764511504.5888128,-6721.38,-39882.69,-30506.85,-11028.285,-10931.67,-36625.995,-24844.365,-22167.945
1764511504.5888128,-6723.9,-39885.705,-30510.63,-11031.84,-10934.82,-36629.145,-24847.515,-22171.23
1764511504.5888128,-6725.52,-39885.12,-30510.27,-11031.975,-10934.595,-36630.135,-24849.99,-22177.215
1764511504.5888128,-6719.355,-39877.875,-30501.765,-11024.37,-10927.08,-36622.665,-24844.365,-22173.84
1764511504.5888128,-6723.09,-39883.095,-30508.695,-11030.85,-10933.38,-36627.66,-24844.365,-22166.685
1764511504.5888128,-6727.724999999999,-39887.82,-30514.275,-11035.89,-10938.42,-36633.015,-24849.0,-22163.49
1764511504.5888128,-6727.59,-39886.38,-30512.295,-11033.505,-10936.305,-36631.305,-24849.09,-22168.125
1764511504.5893257,-6725.745,-39882.195,-30507.3,-11030.04,-10934.01,-36626.805,-24847.875,-22166.055
1764511504.5893257,-6734.115,-39892.41,-30517.56,-11040.615,-10944.495,-36636.03,-24856.695,-22172.355
1764511504.5893257,-6730.875,-39890.925,-30515.805,-11037.42,-10941.03,-36635.76,-24857.37,-22170.69
1764511504.5893257,-6726.24,-39886.065,-30511.44,-11033.1,-10935.63,-36630.585,-24851.34,-22164.525
1764511504.5893257,-6729.795,-39889.125,-30514.725,-11036.79,-10938.285,-36633.06,-24853.68,-22168.08
1764511504.5893257,-6733.349999999999,-39892.545,-30517.695,-11040.075,-10941.39,-36635.895,-24856.38,-22170.015
1764511504.5893257,-6731.55,-39887.28,-30513.375,-11036.025,-10937.07,-36631.98,-24853.905,-22166.955
1764511504.5893257,-6732.719999999999,-39887.73,-30513.69,-11036.88,-10938.825,-36635.04,-24857.055,-22169.34
1764511504.5893257,-6733.304999999999,-39890.025,-30515.49,-11038.725,-10939.68,-36636.12,-24856.245,-22168.8
1764511504.5893257,-6731.73,-39888.945,-30514.5,-11037.78,-10938.24,-36633.195,-24850.8,-22163.355
1764511504.589869,-6731.19,-39886.47,-30511.98,-11034.54,-10935.54,-36630.315,-24849.99,-22160.34
1764511504.638563,-6734.969999999999,-39887.37,-30511.665,-11033.865,-10935.675,-36631.755,-24855.48,-22165.155
1764511504.638563,-6735.014999999999,-39886.11,-30510.63,-11033.64,-10935.63,-36630.99,-24855.12,-22167.765
1764511504.638563,-6736.545,-39891.015,-30516.165,-11039.31,-10941.165,-36635.85,-24858.945,-22169.565
1764511504.638563,-6739.2,-39890.07,-30515.355,-11039.175,-10941.66,-36635.49,-24862.14,-22168.44
1764511504.638563,-6737.759999999999,-39886.605,-30510.99,-11035.305,-10938.6,-36631.17,-24857.055,-22163.445
1764511504.638563,-6735.735,-39888.18,-30513.105,-11035.305,-10938.915,-36632.16,-24856.56,-22163.265
1764511504.638563,-6740.415,-39890.025,-30514.275,-11038.095,-10942.02,-36633.87,-24860.655,-22166.055
1764511504.638563,-6741.764999999999,-39890.565,-30513.645,-11038.77,-10942.65,-36634.23,-24861.375,-22167.63
1764511504.638563,-6741.179999999999,-39889.575,-30513.015,-11037.78,-10941.165,-36632.7,-24860.565,-22166.415
1764511504.638563,-6738.255,-39888.09,-30511.305,-11035.845,-10938.645,-36631.17,-24857.55,-22162.995
1764511504.638563,-6742.08,-39893.805,-30517.425,-11040.93,-10943.64,-36636.93,-24861.33,-22165.875
1764511504.638563,-6739.02,-39890.115,-30513.555,-11036.295,-10938.78,-36633.915,-24858.09,-22163.715
1764511504.638563,-6731.505,-39880.35,-30503.475,-11025.315,-10928.88,-36624.465,-24851.25,-22157.91
1764511504.638563,-6736.545,-39887.46,-30510.9,-11033.415,-10936.53,-36631.08,-24857.01,-22163.715
1764511504.638563,-6735.24,-39887.415,-30510.54,-11034.495,-10937.07,-36631.485,-24854.895,-22162.275
1764511504.638563,-6739.335,-39892.05,-30513.645,-11038.095,-10940.985,-36636.255,-24856.92,-22165.245
1764511504.638563,-6740.594999999999,-39895.11,-30517.92,-11042.37,-10944.495,-36638.19,-24856.38,-22165.245
1764511504.638563,-6739.92,-39893.715,-30516.57,-11040.795,-10942.875,-36637.11,-24858.72,-22166.955
1764511504.638563,-6733.215,-39886.02,-30508.515,-11032.02,-10934.145,-36630.405,-24856.74,-22165.335
1764511504.638563,-6724.575,-39877.83,-30502.125,-11025.63,-10927.125,-36621.09,-24842.745,-22155.525
1764511504.638563,-6723.855,-39875.49,-30498.12,-11021.94,-10923.975,-36620.595,-24846.3,-22160.88
1764511504.638563,-6732.99,-39887.145,-30508.83,-11033.37,-10936.305,-36633.465,-24865.2,-22175.775
1764511504.638563,-6731.19,-39887.91,-30510.27,-11034.675,-10937.565,-36631.98,-24860.43,-22171.41
1764511504.639567,-6729.705,-39886.83,-30509.28,-11033.64,-10936.575,-36631.44,-24856.155,-22165.695
1764511504.639567,-6736.23,-39896.865,-30520.35,-11044.35,-10947.6,-36642.87,-24860.07,-22159.62
1764511504.639567,-6738.525,-39898.44,-30522.825,-11045.835,-10949.175,-36645.615,-24863.31,-22167.72
1764511504.6844854,-6731.28,-39887.91,-30512.295,-11035.665,-10938.555,-36635.22,-24856.245,-22163.58
1764511504.6844854,-6730.38,-39884.895,-30508.065,-11032.38,-10935.72,-36631.62,-24855.03,-22163.04
1764511504.6844854,-6730.965,-39886.11,-30508.605,-11032.74,-10935.945,-36632.61,-24854.04,-22164.57
1764511504.6844854,-6730.74,-39884.22,-30506.445,-11031.57,-10933.965,-36630.45,-24853.455,-22163.085
1764511504.6844854,-6731.639999999999,-39884.625,-30508.155,-11031.795,-10933.83,-36631.17,-24853.365,-22163.445
1764511504.6844854,-6733.349999999999,-39887.28,-30509.955,-11034.72,-10935.99,-36634.32,-24855.03,-22165.425
1764511504.6844854,-6729.84,-39881.79,-30504.915,-11029.365,-10930.14,-36629.505,-24850.845,-22160.385
1764511504.6844854,-6736.59,-39889.575,-30512.655,-11036.205,-10937.115,-36636.345,-24856.83,-22165.515
1764511504.6844854,-6739.29,-39893.175,-30516.03,-11039.715,-10941.21,-36639.675,-24858.405,-22167.315
1764511504.6844854,-6735.014999999999,-39887.28,-30510.0,-11033.91,-10936.215,-36635.265,-24856.515,-22165.83
1764511504.6844854,-6732.405,-39883.455,-30506.445,-11029.59,-10932.705,-36632.385,-24855.255,-22163.265
1764511504.684993,-6732.27,-39883.725,-30506.13,-11029.095,-10932.3,-36630.99,-24853.005,-22161.015
1764511504.684993,-6736.77,-39889.44,-30512.025,-11035.17,-10937.745,-36636.075,-24857.46,-22164.345
1764511504.684993,-6737.31,-39889.08,-30511.935,-11035.17,-10936.98,-36636.345,-24857.82,-22164.21
1764511504.684993,-6736.634999999999,-39888.585,-30510.99,-11034.45,-10936.08,-36635.58,-24856.695,-22163.085
1764511504.684993,-6731.009999999999,-39883.095,-30505.365,-11028.915,-10930.905,-36629.685,-24851.565,-22157.415
1764511504.684993,-6726.06,-39877.965,-30500.91,-11024.505,-10926.36,-36625.05,-24847.38,-22153.32
1764511504.684993,-6730.11,-39882.735,-30505.905,-11029.59,-10930.77,-36629.64,-24853.275,-22157.73
1764511504.684993,-6734.205,-39889.035,-30511.575,-11035.395,-10936.89,-36635.175,-24856.83,-22160.655
1764511504.684993,-6739.155,-39894.48,-30516.615,-11041.965,-10943.73,-36638.64,-24857.46,-22162.455
1764511504.684993,-6740.505,-39897.135,-30519.855,-11043.855,-10944.99,-36642.24,-24858.765,-22165.29
1764511504.6860034,-6736.77,-39889.71,-30511.44,-11035.62,-10937.43,-36635.13,-24857.1,-22163.4
1764511504.7271066,-6732.0,-39885.93,-30508.515,-11032.425,-10933.74,-36631.575,-24852.015,-22159.53
1764511504.7271066,-6731.099999999999,-39885.075,-30507.975,-11031.345,-10933.065,-36630.585,-24852.33,-22158.765
1764511504.7271066,-6732.315,-39885.84,-30509.37,-11032.74,-10934.055,-36631.845,-24852.915,-22159.17
1764511504.728119,-6734.925,-39890.07,-30513.24,-11036.565,-10938.015,-36635.22,-24856.47,-22161.825
1764511504.728119,-6732.09,-39889.755,-30512.115,-11035.35,-10937.52,-36634.14,-24854.58,-22158.18
1764511504.728119,-6739.65,-39895.29,-30516.975,-11040.885,-10944.135,-36639.72,-24859.44,-22162.32
1764511504.7286289,-6734.79,-39892.005,-30514.545,-11037.87,-10940.67,-36636.39,-24853.14,-22155.165
1764511504.7286289,-6724.53,-39876.84,-30499.83,-11024.865,-10927.98,-36622.215,-24843.87,-22143.555
1764511504.7286289,-6724.08,-39874.995,-30496.59,-11023.2,-10926.54,-36619.65,-24847.155,-22144.995
1764511504.7286289,-6729.48,-39884.13,-30506.085,-11031.75,-10934.64,-36628.02,-24851.61,-22151.52
1764511504.7311893,-6736.094999999999,-39892.59,-30515.355,-11039.355,-10941.84,-36636.3,-24858.27,-22161.15
1764511504.7311893,-6733.98,-39891.015,-30514.68,-11037.78,-10940.94,-36635.49,-24854.715,-22156.29
1764511504.7311893,-6732.719999999999,-39888.99,-30511.485,-11034.135,-10937.79,-36633.015,-24851.565,-22155.345
1764511504.7311893,-6735.87,-39890.925,-30513.915,-11036.385,-10939.41,-36634.995,-24853.005,-22157.775
1764511504.7311893,-6733.844999999999,-39891.06,-30515.355,-11037.42,-10940.58,-36635.715,-24851.565,-22154.535
1764511504.7311893,-6737.94,-39896.145,-30520.53,-11042.325,-10945.26,-36640.08,-24855.705,-22158.495
1764511504.7311893,-6738.48,-39896.1,-30519.765,-11041.965,-10944.09,-36638.37,-24854.895,-22157.505
1764511504.7311893,-6738.12,-39894.75,-30518.82,-11040.93,-10943.1,-36636.3,-24853.41,-22156.515
1764511504.7311893,-6736.77,-39892.77,-30516.3,-11038.905,-10940.445,-36634.77,-24852.645,-22153.905
1764511504.7311893,-6735.42,-39890.88,-30514.365,-11036.655,-10938.105,-36632.61,-24851.205,-22152.015
1764511504.7311893,-6734.969999999999,-39889.98,-30513.78,-11036.34,-10937.565,-36631.395,-24849.99,-22151.115
1764511504.7311893,-6734.79,-39889.71,-30511.845,-11035.305,-10936.98,-36630.405,-24849.99,-22154.13
1764511504.7311893,-6732.54,-39887.145,-30508.605,-11032.065,-10933.515,-36627.615,-24850.17,-22158.315
1764511504.7321882,-6729.03,-39881.025,-30503.295,-11026.62,-10927.98,-36620.1,-24842.655,-22154.355
1764511504.7749217,-6736.86,-39893.22,-30515.085,-11039.355,-10940.67,-36632.745,-24846.885,-22146.615
1764511504.7749217,-6742.8,-39900.96,-30523.095,-11047.77,-10950.3,-36643.545,-24857.19,-22150.44
1764511504.7749217,-6734.16,-39892.68,-30514.905,-11039.22,-10941.21,-36631.89,-24846.57,-22144.5
1764511504.7749217,-6731.28,-39891.735,-30514.095,-11038.545,-10940.22,-36627.975,-24842.565,-22143.195
1764511504.7754524,-6726.87,-39882.42,-30503.34,-11026.845,-10928.88,-36619.74,-24844.365,-22146.84
1764511504.7754524,-6732.54,-39888.945,-30509.325,-11032.92,-10935.27,-36626.22,-24849.945,-22152.645
1764511504.7754524,-6731.55,-39889.08,-30509.865,-11034.54,-10936.575,-36626.715,-24848.64,-22149.72
1764511504.7754524,-6727.679999999999,-39882.375,-30501.9,-11027.835,-10930.68,-36618.03,-24839.775,-22144.68
1764511504.7754524,-6726.645,-39880.395,-30499.965,-11025.99,-10928.61,-36616.77,-24839.595,-22144.095
1764511504.7754524,-6739.785,-39898.44,-30519.495,-11043.45,-10947.015,-36637.245,-24860.25,-22157.19
1764511504.7754524,-6742.44,-39902.13,-30522.87,-11046.6,-10950.03,-36639.72,-24860.115,-22159.935
1764511504.7754524,-6741.179999999999,-39900.06,-30520.665,-11044.755,-10947.42,-36637.155,-24858.09,-22159.485
1764511504.7754524,-6742.08,-39899.43,-30519.36,-11044.44,-10946.565,-36636.57,-24860.745,-22162.995
1764511504.7754524,-6746.219999999999,-39904.515,-30523.95,-11048.94,-10951.92,-36641.025,-24863.265,-22165.2
1764511504.7754524,-6745.455,-39902.58,-30522.195,-11046.735,-10950.03,-36639.27,-24863.04,-22165.38
1764511504.7754524,-6738.705,-39893.715,-30513.195,-11038.455,-10940.715,-36631.44,-24860.025,-22161.87
1764511504.7754524,-6738.165,-39892.41,-30512.43,-11038.23,-10939.905,-36630.855,-24858.675,-22161.87
1764511504.7754524,-6738.389999999999,-39891.915,-30512.745,-11037.33,-10940.265,-36631.53,-24857.775,-22161.87
1764511504.7754524,-6737.264999999999,-39891.195,-30512.07,-11036.565,-10939.005,-36631.89,-24857.64,-22160.52
1764511504.7754524,-6735.15,-39889.215,-30510.27,-11035.17,-10937.115,-36630.135,-24857.325,-22159.62
1764511504.7754524,-6733.53,-39886.515,-30507.705,-11032.695,-10934.505,-36628.29,-24856.29,-22158.45
1764511504.7764668,-6736.905,-39888.72,-30510.945,-11035.035,-10937.205,-36629.64,-24858.045,-22162.815
1764511504.7764668,-6738.929999999999,-39891.915,-30514.86,-11039.445,-10941.3,-36633.465,-24858.36,-22163.49
1764511504.7764668,-6741.36,-39894.615,-30517.515,-11043.36,-10944.27,-36637.29,-24861.465,-22164.885
1764511504.8191605,-6734.88,-39887.28,-30510.315,-11036.07,-10936.845,-36630.765,-24858.945,-22160.07
1764511504.819674,-6735.645,-39889.305,-30512.97,-11037.465,-10938.78,-36632.88,-24860.97,-22161.24
1764511504.819674,-6732.27,-39885.795,-30509.64,-11035.35,-10935.9,-36631.08,-24856.875,-22157.325
1764511504.819674,-6733.665,-39886.83,-30510.585,-11036.79,-10937.205,-36632.97,-24857.955,-22156.695
1764511504.819674,-6738.929999999999,-39893.085,-30516.93,-11043.0,-10943.28,-36639.045,-24863.04,-22160.205
1764511504.819674,-6736.95,-39889.395,-30513.555,-11040.165,-10939.77,-36636.21,-24859.755,-22155.48
1764511504.8201833,-6728.625,-39878.64,-30504.015,-11029.995,-10929.51,-36625.77,-24851.34,-22144.905
1764511504.8201833,-6730.11,-39879.855,-30504.51,-11030.76,-10930.59,-36626.805,-24852.735,-22146.39
1764511504.8201833,-6735.15,-39887.145,-30511.845,-11038.275,-10938.105,-36634.68,-24858.36,-22150.035
1764511504.8201833,-6733.304999999999,-39881.61,-30506.22,-11035.08,-10934.64,-36628.83,-24855.255,-22145.31
1764511504.8201833,-6736.679999999999,-39883.455,-30508.065,-11037.105,-10936.845,-36630.045,-24857.19,-22145.535
1764511504.8201833,-6733.889999999999,-39881.52,-30506.22,-11034.9,-10934.055,-36628.335,-24853.905,-22141.305
1764511504.8201833,-6736.32,-39886.065,-30510.63,-11038.59,-10937.7,-36633.105,-24856.155,-22143.42
1764511504.8201833,-6736.23,-39888.63,-30513.33,-11040.345,-10938.78,-36635.535,-24856.245,-22142.835
1764511504.8201833,-6733.395,-39883.185,-30507.795,-11035.845,-10934.01,-36629.64,-24852.555,-22135.95
1764511504.8201833,-6735.465,-39884.715,-30509.19,-11037.015,-10935.225,-36630.855,-24854.355,-22136.535
1764511504.8201833,-6730.02,-39880.08,-30504.915,-11032.515,-10929.555,-36626.985,-24849.63,-22131.54
1764511504.8207145,-6733.8,-39882.78,-30507.84,-11034.945,-10931.715,-36629.19,-24853.32,-22138.11
1764511504.821734,-6728.94,-39876.93,-30501.945,-11028.24,-10925.055,-36622.935,-24849.54,-22137.705
1764511504.821734,-6728.355,-39876.57,-30501.495,-11028.645,-10925.55,-36623.385,-24847.515,-22133.61
1764511504.821734,-6741.945,-39895.56,-30520.8,-11048.085,-10945.395,-36642.645,-24857.91,-22131.765
1764511504.821734,-6742.889999999999,-39895.38,-30520.44,-11048.67,-10946.43,-36643.14,-24859.98,-22134.285
1764511504.869581,-6744.014999999999,-39895.38,-30520.485,-11048.58,-10946.745,-36642.465,-24860.475,-22136.715
1764511504.869581,-6743.655,-39897.135,-30523.23,-11049.525,-10947.78,-36644.22,-24859.62,-22135.815
1764511504.869581,-6742.304999999999,-39896.1,-30521.34,-11048.04,-10946.34,-36642.24,-24857.01,-22133.115
1764511504.869581,-6734.565,-39884.445,-30509.505,-11036.79,-10934.325,-36630.945,-24849.315,-22124.52
1764511504.869581,-6725.205,-39870.45,-30495.51,-11023.335,-10920.87,-36618.975,-24845.445,-22121.595
1764511504.869581,-6732.719999999999,-39876.66,-30500.865,-11029.455,-10927.62,-36624.465,-24855.66,-22131.63
1764511504.869581,-6743.88,-39893.31,-30518.865,-11047.59,-10944.945,-36639.765,-24862.005,-22138.38
1764511504.869581,-6739.29,-39887.19,-30511.98,-11040.975,-10937.745,-36633.33,-24858.18,-22135.14
1764511504.869581,-6736.005,-39883.23,-30507.705,-11036.385,-10933.65,-36629.505,-24854.04,-22130.19
1764511504.869581,-6734.474999999999,-39882.105,-30506.04,-11035.62,-10931.805,-36628.605,-24852.33,-22127.175
1764511504.869581,-6737.49,-39885.57,-30508.965,-11038.77,-10935.09,-36632.25,-24855.75,-22131.945
1764511504.869581,-6743.34,-39892.77,-30516.435,-11044.62,-10942.38,-36639.18,-24861.465,-22139.325
1764511504.869581,-6745.77,-39895.515,-30518.64,-11047.5,-10945.62,-36641.385,-24863.085,-22142.43
1764511504.869581,-6744.33,-39891.555,-30513.105,-11043.585,-10941.525,-36637.605,-24860.205,-22141.71
1764511504.869581,-6739.38,-39888.72,-30511.485,-11040.03,-10938.465,-36633.6,-24853.545,-22138.02
1764511504.869581,-6734.745,-39883.68,-30507.21,-11035.26,-10933.515,-36628.74,-24852.015,-22133.745
1764511504.869581,-6731.73,-39881.52,-30505.05,-11033.415,-10930.41,-36627.12,-24848.28,-22126.14
1764511504.869581,-6738.66,-39889.665,-30513.645,-11041.155,-10937.745,-36634.095,-24852.69,-22133.61
1764511504.869581,-6740.82,-39890.835,-30515.355,-11043.405,-10939.68,-36636.03,-24854.265,-22142.52
1764511504.869581,-6738.344999999999,-39885.795,-30510.72,-11039.22,-10935.765,-36633.105,-24856.02,-22142.88
1764511504.869581,-6738.255,-39885.84,-30510.18,-11038.185,-10935.315,-36633.015,-24854.13,-22144.095
1764511504.8706808,-6743.115,-39891.465,-30516.165,-11043.495,-10940.895,-36638.235,-24858.585,-22149.405
1764511504.8706808,-6747.03,-39895.965,-30521.79,-11047.995,-10945.305,-36641.925,-24862.725,-22152.96
1764511504.8706808,-6746.264999999999,-39894.435,-30520.26,-11047.365,-10943.955,-36641.205,-24860.925,-22151.745
1764511504.913519,-6740.415,-39889.08,-30514.455,-11041.47,-10938.105,-36635.535,-24853.545,-22147.065
1764511504.913519,-6745.365,-39894.3,-30518.73,-11046.555,-10943.37,-36640.395,-24857.82,-22152.915
1764511504.913519,-6747.435,-39895.245,-30518.505,-11046.06,-10943.37,-36640.395,-24857.685,-22156.605
1764511504.913519,-6737.849999999999,-39882.33,-30505.635,-11033.145,-10930.23,-36627.84,-24844.815,-22152.195
1764511504.913519,-6728.895,-39872.655,-30496.545,-11023.92,-10920.69,-36617.985,-24834.51,-22145.94
1764511504.913519,-6744.69,-39892.545,-30517.02,-11045.295,-10943.055,-36639.99,-24854.85,-22149.45
1764511504.913519,-6757.155,-39906.495,-30531.96,-11060.595,-10957.725,-36653.535,-24864.795,-22158.045
1764511504.913519,-6750.315,-39898.215,-30523.14,-11051.82,-10948.095,-36644.67,-24857.82,-22156.695
1764511504.913519,-6751.755,-39899.475,-30524.58,-11052.945,-10949.445,-36646.155,-24859.89,-22159.8
1764511504.913519,-6750.27,-39897.99,-30523.095,-11051.595,-10947.915,-36644.895,-24858.36,-22157.865
1764511504.913519,-6746.445,-39894.345,-30518.82,-11048.04,-10944.225,-36641.115,-24853.275,-22153.32
1764511504.915052,-6751.304999999999,-39900.105,-30524.175,-11053.62,-10949.76,-36645.48,-24857.145,-22157.055
1764511504.915052,-6747.344999999999,-39894.93,-30519.27,-11047.365,-10944.135,-36640.89,-24856.56,-22154.76
1764511504.915052,-6751.08,-39901.095,-30526.11,-11054.34,-10951.155,-36646.92,-24858.405,-22156.38
1764511504.915052,-6746.31,-39895.38,-30519.945,-11049.21,-10945.485,-36641.79,-24854.715,-22150.71
1764511504.915052,-6742.935,-39888.0,-30511.98,-11041.92,-10938.87,-36636.165,-24853.455,-22148.55
1764511504.915052,-6742.62,-39885.885,-30508.02,-11039.355,-10936.53,-36633.24,-24851.295,-22147.785
1764511504.915052,-6747.3,-39893.715,-30516.075,-11047.185,-10944.045,-36640.125,-24854.04,-22149.09
1764511504.915052,-6753.014999999999,-39900.42,-30523.59,-11054.475,-10951.695,-36645.93,-24859.62,-22151.97
1764511504.915052,-6747.255,-39894.84,-30518.73,-11048.94,-10945.98,-36640.62,-24855.39,-22145.715
1764511504.915052,-6745.455,-39895.605,-30519.495,-11048.58,-10945.395,-36641.475,-24855.795,-22144.86
1764511504.915052,-6750.764999999999,-39902.175,-30525.75,-11054.16,-10951.38,-36647.685,-24862.14,-22151.25
1764511504.9614966,-6746.445,-39898.53,-30522.375,-11051.595,-10948.23,-36644.355,-24855.84,-22144.545
1764511504.9614966,-6742.844999999999,-39896.055,-30520.53,-11049.48,-10945.89,-36642.06,-24852.195,-22136.445
1764511504.9614966,-6745.905,-39898.53,-30522.69,-11051.325,-10947.24,-36644.265,-24858.225,-22141.035
1764511504.9614966,-6747.389999999999,-39901.23,-30525.03,-11054.07,-10949.85,-36647.01,-24859.305,-22142.115
1764511504.9614966,-6748.02,-39901.68,-30525.93,-11054.52,-10950.615,-36648.18,-24859.755,-22141.44
1764511504.9614966,-6747.12,-39901.455,-30525.435,-11053.755,-10950.03,-36647.235,-24858.855,-22140.135
1764511504.9614966,-6743.474999999999,-39896.73,-30520.98,-11049.255,-10945.755,-36642.915,-24854.535,-22134.69
1764511504.9614966,-6746.13,-39898.89,-30522.6,-11051.775,-10948.14,-36644.76,-24856.74,-22136.895
1764511504.9625175,-6742.665,-39896.19,-30520.08,-11048.985,-10944.09,-36641.565,-24853.77,-22132.62
1764511504.9625175,-6745.094999999999,-39900.42,-30524.31,-11052.765,-10948.185,-36646.29,-24858.045,-22135.23
1764511504.9625175,-6740.685,-39896.055,-30519.855,-11047.77,-10943.955,-36642.015,-24854.76,-22130.955
1764511504.9625175,-6741.719999999999,-39896.685,-30520.62,-11047.905,-10944.675,-36642.78,-24855.57,-22133.43
1764511504.9625175,-6748.425,-39903.705,-30527.595,-11055.015,-10951.29,-36648.18,-24858.63,-22140.045
1764511504.9625175,-6745.905,-39903.66,-30527.55,-11056.14,-10951.38,-36648.135,-24855.39,-22135.77
1764511504.9625175,-6746.31,-39905.55,-30530.07,-11058.84,-10953.72,-36650.205,-24857.415,-22136.535
1764511504.9625175,-6740.325,-39895.965,-30520.305,-11048.535,-10944.18,-36641.835,-24855.84,-22132.305
1764511504.9625175,-6743.745,-39900.69,-30524.31,-11052.72,-10948.545,-36646.245,-24860.43,-22137.93
1764511504.9625175,-6743.384999999999,-39900.915,-30526.155,-11054.205,-10949.895,-36648.18,-24862.635,-22141.08
1764511504.9625175,-6739.29,-39897.81,-30525.03,-11052.495,-10948.05,-36646.605,-24857.955,-22134.915
1764511504.9625175,-6739.92,-39897.495,-30524.715,-11053.035,-10948.545,-36646.65,-24858.765,-22136.265
1764511504.9625175,-6741.36,-39900.24,-30526.695,-11055.96,-10951.2,-36649.26,-24862.545,-22140.045
1764511504.9625175,-6740.685,-39901.095,-30527.145,-11056.59,-10952.235,-36650.745,-24864.39,-22140.675
1764511504.9625175,-6738.84,-39900.195,-30526.56,-11056.455,-10951.02,-36649.845,-24863.715,-22139.235
1764511504.9625175,-6736.815,-39897.765,-30524.355,-11055.015,-10949.04,-36647.865,-24862.815,-22137.12
1764511505.0068738,-6735.014999999999,-39894.345,-30522.105,-11051.82,-10946.34,-36645.21,-24861.105,-22134.87
1764511505.0068738,-6730.335,-39888.18,-30516.165,-11045.97,-10939.995,-36639.9,-24856.155,-22130.055
1764511505.0068738,-6730.74,-39888.99,-30517.065,-11047.185,-10940.895,-36642.195,-24857.235,-22130.37
1764511505.0068738,-6735.42,-39894.12,-30523.05,-11052.855,-10946.295,-36647.595,-24861.78,-22134.465
1764511505.0068738,-6732.27,-39891.6,-30521.295,-11050.83,-10944.315,-36645.75,-24858.63,-22131.405
1764511505.0073826,-6738.615,-39898.89,-30528.585,-11058.885,-10952.055,-36653.58,-24865.155,-22138.2
1764511505.0073826,-6737.4,-39897.99,-30527.865,-11058.66,-10951.335,-36652.545,-24865.065,-22138.245
1764511505.0073826,-6734.474999999999,-39893.715,-30523.77,-11054.025,-10947.195,-36647.46,-24860.43,-22134.6
1764511505.0073826,-6737.085,-39895.155,-30524.805,-11055.87,-10948.635,-36649.665,-24862.005,-22137.39
1764511505.0073826,-6733.755,-39890.655,-30520.935,-11051.775,-10944.09,-36645.255,-24858.135,-22134.06
1764511505.0073826,-6732.99,-39890.07,-30520.845,-11051.28,-10943.415,-36644.67,-24857.19,-22133.07
1764511505.0073826,-6733.844999999999,-39889.845,-30520.44,-11050.875,-10943.595,-36643.77,-24856.74,-22132.755
1764511505.0073826,-6733.349999999999,-39888.54,-30519.045,-11049.03,-10941.3,-36642.33,-24854.49,-22131.99
1764511505.0073826,-6737.849999999999,-39891.915,-30522.195,-11052.765,-10945.53,-36646.155,-24859.44,-22135.455
1764511505.0073826,-6740.505,-39894.615,-30524.175,-11055.87,-10948.59,-36649.35,-24861.78,-22135.995
1764511505.0073826,-6748.65,-39901.32,-30531.195,-11062.125,-10955.115,-36655.605,-24866.685,-22143.015
1764511505.0073826,-6747.615,-39897.09,-30527.415,-11058.345,-10951.425,-36652.41,-24863.22,-22141.35
1764511505.0073826,-6744.78,-39893.94,-30523.905,-11054.52,-10947.33,-36648.945,-24859.845,-22138.155
1764511505.0073826,-6740.955,-39888.99,-30519.045,-11049.84,-10942.875,-36643.59,-24854.175,-22132.755
1764511505.0078917,-6745.185,-39893.715,-30523.905,-11054.79,-10947.96,-36648.765,-24856.965,-22136.13
1764511505.0078917,-6745.05,-39894.615,-30524.76,-11056.77,-10948.995,-36648.99,-24854.76,-22136.175
1764511505.0078917,-6739.2,-39887.595,-30517.335,-11049.48,-10940.58,-36641.25,-24851.79,-22134.105
1764511505.0078917,-6742.215,-39889.035,-30518.325,-11050.65,-10941.57,-36643.59,-24856.83,-22138.92
1764511505.0078917,-6742.8,-39888.495,-30517.065,-11050.11,-10941.75,-36641.43,-24855.435,-22139.01
1764511505.056039,-6736.094999999999,-39883.545,-30511.44,-11043.675,-10935.09,-36636.03,-24851.07,-22138.83
1764511505.056039,-6733.8,-39881.655,-30509.775,-11041.875,-10932.48,-36634.05,-24850.62,-22140.405
1764511505.056039,-6737.04,-39887.91,-30515.805,-11048.265,-10938.6,-36639.495,-24849.855,-22132.17
1764511505.056039,-6745.905,-39899.34,-30528.09,-11061.0,-10951.515,-36652.815,-24859.08,-22133.745
1764511505.056039,-6741.0,-39890.745,-30519.945,-11051.64,-10942.74,-36645.48,-24857.73,-22134.375
1764511505.056039,-6745.815,-39897.045,-30526.65,-11059.065,-10949.895,-36650.52,-24860.745,-22137.3
1764511505.056039,-6743.34,-39896.73,-30527.235,-11060.145,-10950.57,-36648.765,-24856.38,-22133.88
1764511505.056039,-6729.255,-39877.47,-30505.815,-11038.005,-10928.52,-36630.675,-24849.765,-22128.93
1764511505.056039,-6724.62,-39874.5,-30502.44,-11034.135,-10925.415,-36627.93,-24847.29,-22122.765
1764511505.056039,-6721.83,-39873.78,-30501.765,-11033.505,-10925.235,-36626.445,-24844.725,-22117.5
1764511505.056039,-6722.145,-39875.715,-30503.025,-11034.63,-10926.765,-36627.885,-24845.175,-22119.615
1764511505.056039,-6730.74,-39883.14,-30510.495,-11041.65,-10934.235,-36635.67,-24853.5,-22134.78
1764511505.056039,-6734.16,-39890.745,-30519.315,-11050.56,-10942.965,-36644.58,-24860.07,-22139.865
1764511505.056039,-6730.29,-39888.135,-30516.615,-11048.58,-10940.445,-36640.98,-24855.75,-22135.59
1764511505.056039,-6735.735,-39895.515,-30524.445,-11056.5,-10948.86,-36649.215,-24861.96,-22142.34
1764511505.056039,-6730.92,-39891.195,-30520.53,-11052.36,-10945.17,-36645.795,-24859.71,-22136.895
1764511505.0570574,-6729.57,-39889.305,-30519.135,-11050.83,-10943.145,-36643.95,-24858.405,-22135.32
1764511505.0570574,-6730.83,-39890.88,-30519.99,-11052.045,-10944.495,-36644.94,-24859.44,-22136.355
1764511505.0570574,-6726.645,-39886.29,-30515.625,-11047.635,-10940.445,-36640.17,-24853.995,-22132.485
1764511505.0570574,-6728.355,-39890.52,-30521.16,-11052.675,-10944.855,-36644.22,-24855.615,-22135.455
1764511505.0570574,-6724.889999999999,-39886.92,-30517.47,-11048.94,-10941.705,-36642.015,-24857.19,-22134.555
1764511505.0570574,-6725.07,-39885.705,-30515.13,-11048.265,-10941.3,-36639.54,-24856.38,-22134.105
1764511505.1041298,-6710.715,-39872.295,-30501.945,-11033.505,-10926.405,-36625.59,-24837.93,-22120.965
1764511505.1041298,-6708.645,-39871.035,-30500.685,-11032.38,-10924.74,-36624.555,-24836.175,-22119.975
1764511505.1041298,-6721.29,-39887.28,-30517.47,-11049.21,-10942.155,-36642.33,-24855.525,-22131.225
1764511505.1041298,-6730.425,-39894.975,-30525.03,-11058.21,-10951.515,-36648.09,-24860.34,-22134.24
1764511505.1041298,-6721.83,-39887.055,-30516.75,-11049.3,-10942.335,-36639.135,-24850.35,-22126.32
1764511505.1041298,-6712.2,-39879.135,-30509.46,-11041.155,-10933.335,-36631.89,-24842.295,-22117.905
1764511505.1041298,-6714.09,-39881.295,-30511.395,-11042.73,-10934.955,-36634.77,-24846.84,-22123.935
1764511505.1041298,-6720.929999999999,-39890.295,-30519.315,-11050.785,-10944.045,-36642.33,-24851.97,-22127.76
1764511505.1041298,-6717.509999999999,-39888.09,-30517.47,-11049.165,-10942.56,-36639.315,-24847.605,-22121.955
1764511505.1041298,-6717.645,-39885.03,-30513.24,-11045.295,-10938.915,-36635.265,-24847.515,-22120.2
1764511505.1041298,-6721.74,-39891.915,-30520.08,-11051.505,-10945.08,-36641.97,-24851.25,-22122.495
1764511505.1041298,-6719.49,-39889.395,-30517.695,-11049.615,-10942.02,-36639.54,-24847.38,-22119.345
1764511505.1041298,-6719.715,-39887.19,-30515.355,-11046.87,-10939.14,-36636.75,-24849.855,-22124.385
1764511505.1041298,-6715.844999999999,-39878.415,-30504.555,-11037.87,-10930.005,-36628.47,-24849.09,-22121.325
1764511505.1051247,-6721.065,-39889.395,-30516.48,-11049.48,-10942.605,-36640.665,-24850.08,-22110.03
1764511505.1051247,-6724.259999999999,-39895.335,-30522.915,-11056.14,-10949.085,-36645.705,-24851.88,-22112.73
1764511505.1051247,-6714.99,-39882.78,-30510.945,-11043.72,-10935.36,-36633.555,-24845.895,-22109.04
1764511505.1051247,-6718.094999999999,-39887.37,-30515.58,-11048.49,-10939.815,-36637.83,-24851.07,-22110.57
1764511505.1051247,-6723.09,-39894.975,-30522.42,-11054.79,-10946.79,-36644.49,-24855.075,-22113.72
1764511505.1051247,-6724.844999999999,-39895.29,-30522.555,-11055.015,-10947.24,-36644.805,-24855.48,-22114.125
1764511505.1051247,-6726.06,-39896.595,-30522.6,-11055.51,-10947.915,-36644.985,-24854.355,-22112.235
1764511505.1051247,-6725.61,-39895.515,-30521.115,-11054.88,-10946.385,-36644.13,-24854.715,-22111.11
1764511505.1496654,-6721.425,-39888.315,-30513.78,-11047.905,-10939.095,-36636.795,-24851.835,-22109.085
1764511505.1496654,-6719.715,-39887.145,-30513.24,-11046.69,-10938.645,-36636.3,-24851.925,-22107.105
1764511505.1496654,-6724.755,-39893.805,-30520.215,-11053.53,-10945.485,-36642.375,-24856.38,-22110.435
1764511505.1496654,-6725.655,-39893.49,-30519.99,-11053.755,-10945.215,-36642.33,-24857.1,-22110.39
1764511505.1496654,-6723.495,-39888.855,-30514.95,-11049.39,-10941.615,-36637.155,-24854.58,-22107.375
1764511505.1496654,-6718.32,-39882.42,-30508.11,-11043.405,-10935.675,-36630.72,-24848.82,-22102.02
1764511505.1496654,-6717.645,-39883.14,-30509.19,-11044.395,-10937.07,-36632.61,-24848.19,-22103.055
1764511505.1496654,-6719.94,-39882.24,-30508.38,-11044.44,-10937.25,-36631.305,-24849.63,-22104.9
1764511505.1496654,-6720.344999999999,-39886.695,-30513.555,-11047.545,-10940.085,-36636.84,-24853.14,-22107.87
1764511505.1496654,-6716.79,-39881.835,-30508.695,-11042.145,-10934.28,-36632.43,-24849.315,-22104.18
1764511505.1496654,-6718.32,-39883.545,-30510.99,-11043.495,-10935.99,-36633.78,-24849.855,-22105.98
1764511505.1496654,-6718.5,-39885.345,-30513.24,-11046.24,-10938.33,-36635.355,-24850.17,-22106.7
1764511505.1496654,-6714.405,-39882.51,-30510.585,-11043.585,-10935.945,-36632.88,-24849.495,-22101.615
1764511505.1496654,-6713.955,-39881.52,-30509.415,-11042.64,-10934.955,-36632.295,-24850.62,-22103.145
1764511505.1496654,-6720.12,-39888.18,-30516.165,-11049.525,-10941.48,-36639.09,-24854.715,-22110.255
1764511505.1496654,-6721.83,-39890.79,-30518.19,-11052.18,-10944.315,-36641.925,-24855.345,-22111.38
1764511505.1496654,-6718.094999999999,-39887.73,-30516.39,-11050.83,-10942.38,-36639.18,-24852.105,-22108.095
1764511505.1496654,-6720.929999999999,-39892.05,-30521.025,-11055.555,-10946.745,-36642.465,-24855.795,-22112.37
1764511505.1496654,-6726.33,-39895.245,-30522.555,-11057.085,-10948.725,-36646.515,-24862.41,-22121.775
1764511505.1496654,-6717.42,-39887.865,-30516.21,-11050.335,-10941.345,-36638.775,-24850.755,-22113.18
1764511505.1496654,-6703.514999999999,-39874.365,-30503.025,-11036.34,-10927.53,-36625.455,-24836.13,-22099.005
1764511505.1496654,-6705.09,-39876.255,-30505.185,-11038.365,-10929.69,-36628.47,-24841.845,-22101.255
1764511505.1496654,-6728.49,-39901.14,-30530.97,-11064.285,-10955.745,-36653.355,-24867.315,-22129.29
1764511505.1496654,-6722.415,-39891.78,-30522.69,-11056.185,-10946.745,-36644.805,-24861.6,-22129.065
1764511505.1496654,-6713.099999999999,-39882.78,-30513.6,-11047.32,-10937.835,-36635.94,-24851.565,-22116.33
1764511505.1496654,-6726.15,-39899.16,-30529.395,-11063.655,-10953.9,-36650.43,-24858.81,-22117.23
1764511505.1972666,-6720.795,-39892.905,-30523.14,-11057.4,-10947.915,-36644.58,-24854.265,-22117.545
1764511505.1972666,-6718.32,-39888.765,-30518.865,-11052.72,-10943.55,-36641.16,-24853.815,-22118.49
1764511505.1972666,-6722.505,-39893.625,-30523.905,-11057.94,-10948.365,-36645.39,-24854.445,-22121.955
1764511505.1972666,-6717.87,-39885.93,-30517.11,-11050.56,-10941.165,-36638.415,-24849.18,-22118.355
1764511505.1972666,-6715.8,-39880.575,-30510.765,-11044.62,-10935.585,-36634.905,-24851.07,-22119.84
1764511505.1972666,-6717.645,-39881.52,-30511.62,-11045.52,-10936.215,-36634.77,-24849.495,-22118.805
1764511505.1972666,-6716.115,-39879.675,-30510.765,-11044.125,-10935.405,-36632.745,-24846.75,-22114.8
1764511505.198265,-6719.804999999999,-39881.565,-30512.16,-11046.42,-10937.88,-36633.96,-24849.45,-22117.455
1764511505.198265,-6716.474999999999,-39880.8,-30511.665,-11045.565,-10936.395,-36633.69,-24848.1,-22115.835
1764511505.198265,-6718.094999999999,-39883.365,-30513.69,-11047.545,-10938.06,-36635.76,-24849.54,-22116.15
1764511505.198265,-6710.264999999999,-39874.995,-30504.87,-11038.5,-10929.375,-36626.85,-24841.575,-22105.665
1764511505.198265,-6708.78,-39872.025,-30501.54,-11035.845,-10926.27,-36624.015,-24839.865,-22102.515
1764511505.198265,-6717.825,-39881.97,-30510.72,-11045.295,-10936.17,-36633.78,-24848.055,-22114.62
1764511505.198265,-6723.134999999999,-39886.515,-30514.905,-11051.505,-10942.29,-36638.415,-24853.815,-22121.055
1764511505.198265,-6716.969999999999,-39880.08,-30509.955,-11045.79,-10935.72,-36633.105,-24848.37,-22114.08
1764511505.198265,-6721.92,-39884.76,-30514.68,-11049.12,-10939.095,-36637.02,-24851.97,-22123.62
1764511505.198265,-6717.24,-39880.62,-30511.215,-11046.06,-10935.27,-36633.96,-24848.415,-22118.04
1764511505.198265,-6718.094999999999,-39884.22,-30514.275,-11049.345,-10939.635,-36637.605,-24851.43,-22117.59
1764511505.198265,-6722.145,-39890.07,-30519.81,-11054.655,-10944.945,-36642.105,-24854.265,-22119.615
1764511505.198265,-6720.75,-39888.72,-30518.37,-11053.44,-10943.505,-36640.755,-24853.05,-22118.265
1764511505.198265,-6720.21,-39889.44,-30518.415,-11054.295,-10943.865,-36642.105,-24852.96,-22117.59
1764511505.198265,-6725.205,-39895.56,-30525.12,-11060.325,-10949.985,-36648.045,-24858.945,-22122.54
1764511505.198265,-6721.2,-39889.665,-30519.27,-11054.295,-10943.865,-36642.465,-24855.795,-22118.13
1764511505.198265,-6718.59,-39885.93,-30515.22,-11051.46,-10940.445,-36639.27,-24853.725,-22114.665
1764511505.2435226,-6719.445,-39888.315,-30517.515,-11053.665,-10942.2,-36641.115,-24854.805,-22115.565
1764511505.2435226,-6724.17,-39894.75,-30523.635,-11059.92,-10947.915,-36646.83,-24859.755,-22120.785
1764511505.2435226,-6724.349999999999,-39895.02,-30524.13,-11060.19,-10948.005,-36647.595,-24860.61,-22120.92
1764511505.2435226,-6721.83,-39894.165,-30522.87,-11059.56,-10946.52,-36646.155,-24859.845,-22118.31
1764511505.2435226,-6716.79,-39891.06,-30519.585,-11056.545,-10943.73,-36643.005,-24855.795,-22113.315
1764511505.2435226,-6717.42,-39889.485,-30518.235,-11056.23,-10943.685,-36642.105,-24855.615,-22110.885
1764511505.2435226,-6716.835,-39888.315,-30517.515,-11056.275,-10943.415,-36641.295,-24852.69,-22107.735
1764511505.2435226,-6718.32,-39891.51,-30519.72,-11056.815,-10943.775,-36642.69,-24857.505,-22116.015
1764511505.2435226,-6719.759999999999,-39891.78,-30518.64,-11057.22,-10944.405,-36640.665,-24858.225,-22118.715
1764511505.2435226,-6716.7,-39891.105,-30519.045,-11057.445,-10944.54,-36642.465,-24855.615,-22114.665
1764511505.2435226,-6717.509999999999,-39893.04,-30520.665,-11058.615,-10945.62,-36644.4,-24856.875,-22113.99
1764511505.2435226,-6716.79,-39894.165,-30521.97,-11059.965,-10947.42,-36645.12,-24856.83,-22114.215
1764511505.2435226,-6714.27,-39890.385,-30518.37,-11056.095,-10944.09,-36642.105,-24853.095,-22110.39
1764511505.2435226,-6718.05,-39894.165,-30521.88,-11059.92,-10947.645,-36646.11,-24856.065,-22113.315
1764511505.2435226,-6713.325,-39888.27,-30514.905,-11052.945,-10940.715,-36639.585,-24854.535,-22109.445
1764511505.2435226,-6713.955,-39890.835,-30518.37,-11056.005,-10943.505,-36641.565,-24853.815,-22103.82
1764511505.2435226,-6711.705,-39888.72,-30517.47,-11054.88,-10942.695,-36639.99,-24850.215,-22100.445
1764511505.2435226,-6711.929999999999,-39887.91,-30515.715,-11053.98,-10941.48,-36639.9,-24853.005,-22104.27
1764511505.2435226,-6712.965,-39887.145,-30513.825,-11051.865,-10939.005,-36638.595,-24856.245,-22109.535
1764511505.2435226,-6708.78,-39882.42,-30508.515,-11045.925,-10933.02,-36632.565,-24852.285,-22109.67
1764511505.2435226,-6709.995,-39884.265,-30509.595,-11046.78,-10934.595,-36634.41,-24850.755,-22106.43
1764511505.2435226,-6717.465,-39894.255,-30521.475,-11059.02,-10947.42,-36645.165,-24854.445,-22098.915
1764511505.286896,-6720.075,-39897.99,-30526.605,-11063.655,-10952.595,-36650.07,-24861.15,-22105.395
1764511505.286896,-6712.335,-39888.27,-30516.885,-11052.99,-10942.605,-36640.755,-24855.975,-22100.715
1764511505.286896,-6706.304999999999,-39879.9,-30508.02,-11043.72,-10933.335,-36632.07,-24847.56,-22093.425
1764511505.286896,-6705.315,-39878.28,-30505.77,-11042.055,-10930.905,-36630.18,-24848.01,-22096.17
1764511505.286896,-6705.27,-39877.155,-30504.33,-11040.795,-10930.32,-36629.1,-24847.83,-22099.05
1764511505.286896,-6703.29,-39873.825,-30500.685,-11037.6,-10927.44,-36623.61,-24840.315,-22093.335
1764511505.286896,-6701.715,-39874.365,-30500.91,-11036.43,-10927.17,-36624.735,-24838.785,-22094.145
1764511505.286896,-6718.005,-39892.68,-30520.08,-11056.41,-10947.69,-36646.02,-24862.68,-22109.67
1764511505.2882564,-6726.375,-39901.275,-30529.71,-11066.175,-10956.375,-36653.535,-24867.36,-22113.36
1764511505.2882564,-6715.889999999999,-39888.765,-30516.885,-11052.855,-10941.84,-36640.17,-24855.165,-22103.82
1764511505.2882564,-6714.09,-39886.425,-30513.195,-11049.21,-10939.23,-36637.245,-24852.78,-22101.48
1764511505.2882564,-6715.755,-39886.92,-30513.78,-11050.38,-10939.905,-36637.965,-24852.915,-22101.795
1764511505.2882564,-6716.025,-39886.695,-30512.34,-11049.12,-10938.69,-36637.83,-24852.42,-22101.93
1764511505.2882564,-6714.945,-39884.715,-30510.18,-11047.005,-10937.025,-36636.345,-24851.25,-22102.155
1764511505.2882564,-6713.28,-39884.58,-30510.45,-11047.95,-10937.97,-36636.165,-24850.71,-22100.04
1764511505.2882564,-6721.605,-39893.22,-30519.315,-11056.77,-10945.98,-36644.355,-24861.015,-22108.59
1764511505.2882564,-6719.4,-39890.205,-30516.615,-11053.89,-10942.965,-36641.115,-24856.605,-22105.8
1764511505.2882564,-6718.005,-39888.0,-30514.14,-11050.965,-10940.31,-36639.135,-24854.04,-22103.73
1764511505.2882564,-6717.33,-39884.895,-30511.755,-11048.085,-10937.43,-36635.715,-24852.555,-22101.57
1764511505.2882564,-6717.509999999999,-39883.905,-30511.305,-11047.77,-10936.755,-36635.04,-24851.79,-22101.075
1764511505.2882564,-6718.95,-39884.94,-30512.43,-11048.805,-10938.105,-36636.84,-24852.195,-22102.605
1764511505.2882564,-6723.945,-39889.755,-30517.38,-11053.395,-10943.37,-36641.43,-24856.38,-22107.33
1764511505.2897654,-6722.955,-39887.865,-30515.715,-11052.27,-10941.885,-36639.63,-24854.355,-22107.015
1764511505.2897654,-6717.33,-39881.34,-30509.055,-11045.79,-10934.865,-36633.105,-24847.2,-22099.68
1764511505.3363574,-6716.295,-39879.72,-30507.615,-11045.34,-10934.055,-36632.205,-24844.32,-22097.565
1764511505.3363574,-6719.94,-39884.04,-30511.665,-11049.48,-10938.375,-36636.885,-24845.715,-22101.345
1764511505.3363574,-6726.87,-39892.14,-30519.45,-11057.85,-10945.755,-36643.545,-24849.54,-22107.33
1764511505.337565,-6728.04,-39893.22,-30520.755,-11059.47,-10946.79,-36643.32,-24850.08,-22108.23
1764511505.337565,-6719.219999999999,-39879.585,-30507.57,-11046.195,-10933.38,-36631.755,-24847.74,-22106.115
1764511505.337565,-6718.905,-39876.615,-30504.375,-11043.18,-10930.365,-36630.81,-24848.46,-22107.285
1764511505.337565,-6725.07,-39884.805,-30512.07,-11050.965,-10938.33,-36636.84,-24849.81,-22105.755
1764511505.337565,-6728.085,-39888.63,-30515.085,-11053.53,-10941.03,-36639.18,-24853.365,-22111.965
1764511505.337565,-6723.63,-39883.005,-30509.28,-11047.545,-10934.46,-36634.23,-24849.9,-22113.81
1764511505.337565,-6715.395,-39872.07,-30498.03,-11036.97,-10924.515,-36624.375,-24840.81,-22103.595
1764511505.337565,-6720.03,-39879.36,-30506.535,-11046.15,-10934.505,-36632.385,-24841.17,-22093.38
1764511505.337565,-6728.804999999999,-39890.88,-30518.64,-11058.03,-10946.07,-36643.545,-24850.125,-22105.485
1764511505.337565,-6721.83,-39885.165,-30512.565,-11050.605,-10938.15,-36637.65,-24844.5,-22101.21
1764511505.3390734,-6718.545,-39882.33,-30509.82,-11047.545,-10934.64,-36634.365,-24842.205,-22098.465
1764511505.3390734,-6713.82,-39878.415,-30505.185,-11044.305,-10929.87,-36629.73,-24836.94,-22094.865
1764511505.3396068,-6719.625,-39884.67,-30511.215,-11050.47,-10937.205,-36636.255,-24841.215,-22102.245
1764511505.3396068,-6725.25,-39891.825,-30519.18,-11057.76,-10945.125,-36643.77,-24849.09,-22110.57
1764511505.3396068,-6723.585,-39890.88,-30518.865,-11058.12,-10944.585,-36643.545,-24848.325,-22107.42
1764511505.3396068,-6722.955,-39888.585,-30516.03,-11055.285,-10941.705,-36639.765,-24846.66,-22109.67
1764511505.3396068,-6723.54,-39889.305,-30516.93,-11056.77,-10942.65,-36641.43,-24848.28,-22109.535
1764511505.3396068,-6723.495,-39890.385,-30517.56,-11058.345,-10943.73,-36642.465,-24848.37,-22106.115
1764511505.3406212,-6728.895,-39895.335,-30522.825,-11062.935,-10948.14,-36647.235,-24853.185,-22111.29
1764511505.3406212,-6728.804999999999,-39894.255,-30522.6,-11062.53,-10947.24,-36646.515,-24853.23,-22110.615
1764511505.3406212,-6725.79,-39890.835,-30518.55,-11058.795,-10943.46,-36642.42,-24850.17,-22106.43
1764511505.3801265,-6728.49,-39892.68,-30520.62,-11060.775,-10945.89,-36644.49,-24851.88,-22107.645
1764511505.3801265,-6725.88,-39886.47,-30514.77,-11055.465,-10941.255,-36639.0,-24847.695,-22104.27
1764511505.3801265,-6726.42,-39887.91,-30516.705,-11057.13,-10941.48,-36641.07,-24846.93,-22104.99
1764511505.3801265,-6722.46,-39884.085,-30512.07,-11052.855,-10936.08,-36636.48,-24841.575,-22100.49
1764511505.3801265,-6722.91,-39886.02,-30513.915,-11054.7,-10938.33,-36638.01,-24841.44,-22099.455
1764511505.3801265,-6719.715,-39881.025,-30509.595,-11049.57,-10933.47,-36634.095,-24839.235,-22096.485
1764511505.3801265,-6718.679999999999,-39880.395,-30508.83,-11049.165,-10933.2,-36633.24,-24839.595,-22095.945
1764511505.3801265,-6726.105,-39888.315,-30515.67,-11056.725,-10941.84,-36639.945,-24846.975,-22100.94
1764511505.381742,-6726.87,-39888.135,-30515.085,-11056.68,-10941.255,-36639.855,-24847.11,-22100.895
1764511505.3827608,-6723.855,-39886.47,-30513.33,-11054.385,-10939.095,-36637.695,-24843.69,-22096.125
1764511505.3827608,-6726.78,-39891.42,-30517.515,-11059.11,-10943.82,-36642.24,-24847.335,-22099.635
1764511505.3827608,-6727.545,-39891.375,-30517.38,-11060.1,-10944.045,-36643.14,-24849.36,-22100.265
1764511505.3827608,-6726.915,-39890.385,-30517.47,-11059.92,-10943.145,-36642.645,-24849.36,-22099.5
1764511505.3827608,-6724.8,-39887.685,-30514.32,-11057.94,-10939.725,-36639.54,-24846.93,-22097.52
1764511505.3827608,-6719.58,-39880.53,-30507.12,-11051.415,-10932.975,-36633.015,-24840.585,-22092.165
1764511505.3827608,-6718.005,-39877.83,-30503.97,-11048.265,-10929.915,-36629.19,-24838.245,-22088.52
1764511505.3827608,-6718.59,-39878.82,-30505.275,-11049.075,-10930.95,-36630.675,-24838.155,-22087.215
1764511505.3827608,-6721.92,-39881.295,-30508.38,-11052.18,-10933.965,-36634.095,-24840.54,-22088.43
1764511505.3827608,-6722.054999999999,-39881.565,-30507.75,-11051.19,-10933.425,-36633.6,-24839.055,-22086.09
1764511505.3827608,-6710.175,-39866.94,-30493.17,-11036.745,-10918.89,-36619.335,-24823.8,-22075.74
1764511505.3827608,-6706.62,-39863.295,-30489.165,-11033.145,-10914.705,-36615.06,-24817.275,-22075.515
1764511505.3827608,-6721.425,-39880.26,-30506.04,-11050.65,-10933.29,-36634.86,-24842.475,-22092.705
1764511505.3837605,-6742.575,-39907.35,-30534.57,-11078.595,-10961.505,-36660.96,-24868.575,-22113.63
1764511505.3837605,-6724.755,-39884.355,-30510.72,-11055.42,-10935.765,-36635.22,-24847.695,-22101.525
1764511505.433047,-6718.77,-39877.74,-30505.185,-11049.75,-10930.365,-36630.855,-24840.225,-22083.525
1764511505.433047,-6725.295,-39886.155,-30514.32,-11058.12,-10939.995,-36641.565,-24849.495,-22084.515
1764511505.433047,-6722.82,-39883.185,-30510.765,-11054.565,-10936.89,-36637.83,-24846.84,-22086.135
1764511505.433047,-6726.375,-39885.75,-30513.645,-11056.995,-10939.5,-36640.395,-24850.44,-22089.915
1764511505.433047,-6724.935,-39885.435,-30512.88,-11057.31,-10938.69,-36640.08,-24850.62,-22088.88
1764511505.433047,-6723.45,-39882.195,-30507.795,-11053.755,-10935.72,-36635.625,-24848.55,-22088.115
1764511505.433047,-6720.795,-39879.945,-30506.355,-11050.965,-10933.155,-36632.745,-24844.23,-22085.82
1764511505.433047,-6721.83,-39883.365,-30510.585,-11054.07,-10937.025,-36636.12,-24846.39,-22087.665
1764511505.4335706,-6717.915,-39878.64,-30505.86,-11048.67,-10931.49,-36631.665,-24843.645,-22084.605
1764511505.4335706,-6722.145,-39881.565,-30508.965,-11053.53,-10935.315,-36636.12,-24847.245,-22088.61
1764511505.4335706,-6720.705,-39880.485,-30507.75,-11052.945,-10934.505,-36635.445,-24845.94,-22087.89
1764511505.4335706,-6714.179999999999,-39872.97,-30500.19,-11045.115,-10927.215,-36627.39,-24839.595,-22081.545
1764511505.4335706,-6713.28,-39870.54,-30497.985,-11042.37,-10925.1,-36624.915,-24837.345,-22078.89
1764511505.4335706,-6719.895,-39876.39,-30503.025,-11048.13,-10931.715,-36629.955,-24843.87,-22084.83
1764511505.4335706,-6716.969999999999,-39875.04,-30502.395,-11047.095,-10930.59,-36629.28,-24841.98,-22082.895
1764511505.4335706,-6715.71,-39875.13,-30502.395,-11046.915,-10930.365,-36628.515,-24842.34,-22081.905
1764511505.4335706,-6719.445,-39882.15,-30509.505,-11052.495,-10935.99,-36635.94,-24847.02,-22089.105
1764511505.4335706,-6719.4,-39881.925,-30508.65,-11051.595,-10935.18,-36635.13,-24846.57,-22090.005
1764511505.4335706,-6719.355,-39881.52,-30508.245,-11051.82,-10935.045,-36634.905,-24845.805,-22090.095
1764511505.4335706,-6720.3,-39882.24,-30509.28,-11052.405,-10935.81,-36635.67,-24845.49,-22089.87
1764511505.4335706,-6719.58,-39881.16,-30508.785,-11051.46,-10935.45,-36634.815,-24844.455,-22088.385
1764511505.4335706,-6711.795,-39872.43,-30500.19,-11043.63,-10926.675,-36625.545,-24839.1,-22081.455
1764511505.4771073,-6707.925,-39868.965,-30495.69,-11039.4,-10922.13,-36621.405,-24837.03,-22080.78
1764511505.4771073,-6712.065,-39874.725,-30500.64,-11044.71,-10928.115,-36627.21,-24841.17,-22086.765
1764511505.4771073,-6709.094999999999,-39872.115,-30498.03,-11042.91,-10925.865,-36625.005,-24838.02,-22084.92
1764511505.4771073,-6712.965,-39877.65,-30503.61,-11048.94,-10931.175,-36630.045,-24841.845,-22088.565
1764511505.4771073,-6709.679999999999,-39875.94,-30501.765,-11046.645,-10928.88,-36628.38,-24838.83,-22086.63
1764511505.4771073,-6709.679999999999,-39876.975,-30502.89,-11047.725,-10930.59,-36629.37,-24839.28,-22088.61
1764511505.4782915,-6705.405,-39872.205,-30498.435,-11043.09,-10925.91,-36624.645,-24834.285,-22084.065
1764511505.4782915,-6706.215,-39873.465,-30499.38,-11044.17,-10926.315,-36626.04,-24835.68,-22085.19
1764511505.4782915,-6710.49,-39879.315,-30505.815,-11049.75,-10932.93,-36631.98,-24841.26,-22091.04
1764511505.4782915,-6706.665,-39874.995,-30501.72,-11045.61,-10928.7,-36627.615,-24837.075,-22087.395
1764511505.4782915,-6707.565,-39875.985,-30502.53,-11046.51,-10929.87,-36629.1,-24837.255,-22088.07
1764511505.4782915,-6713.955,-39884.04,-30509.865,-11053.935,-10938.24,-36637.515,-24844.815,-22095.225
1764511505.4782915,-6712.02,-39884.445,-30510.81,-11055.15,-10938.6,-36637.65,-24843.195,-22093.38
1764511505.4782915,-6714.54,-39886.605,-30514.23,-11058.12,-10941.75,-36639.81,-24846.795,-22096.215
1764511505.4782915,-6711.12,-39880.98,-30509.055,-11052.72,-10935.765,-36634.995,-24844.23,-22094.145
1764511505.4782915,-6715.665,-39887.235,-30515.355,-11059.83,-10942.29,-36641.88,-24847.83,-22096.8
1764511505.4782915,-6714.764999999999,-39886.74,-30514.185,-11058.615,-10941.345,-36641.115,-24848.64,-22096.62
1764511505.4782915,-6709.679999999999,-39880.305,-30508.29,-11052.765,-10934.955,-36633.69,-24842.205,-22090.635
1764511505.4782915,-6702.165,-39872.385,-30500.415,-11045.25,-10926.54,-36625.68,-24836.58,-22087.08
1764511505.4782915,-6702.389999999999,-39873.555,-30500.505,-11046.24,-10927.44,-36628.425,-24839.64,-22088.565
1764511505.4782915,-6703.875,-39876.345,-30502.845,-11047.86,-10929.33,-36629.235,-24840.405,-22085.82
1764511505.4782915,-6709.905,-39883.14,-30510.09,-11055.555,-10936.665,-36635.4,-24843.555,-22088.34
1764511505.4782915,-6704.19,-39876.03,-30503.88,-11049.705,-10930.59,-36629.595,-24838.11,-22083.12
1764511505.4782915,-6706.215,-39872.97,-30500.955,-11047.23,-10928.34,-36625.95,-24837.39,-22085.235
1764511505.5223355,-6707.565,-39877.155,-30504.735,-11050.47,-10932.795,-36631.17,-24839.775,-22087.17
1764511505.5223355,-6716.16,-39886.74,-30512.745,-11058.975,-10941.66,-36640.44,-24849.27,-22100.85
1764511505.5223355,-6721.514999999999,-39893.085,-30519.945,-11066.805,-10948.365,-36646.47,-24851.7,-22102.695
1764511505.5223355,-6720.344999999999,-39892.41,-30519.045,-11065.905,-10947.555,-36645.255,-24851.16,-22098.78
1764511505.5223355,-6721.38,-39892.995,-30518.505,-11065.095,-10947.33,-36645.3,-24852.06,-22099.365
1764511505.5223355,-6716.25,-39887.01,-30512.7,-11058.57,-10941.795,-36639.72,-24847.245,-22092.03
1764511505.5223355,-6713.009999999999,-39883.41,-30509.325,-11055.015,-10938.015,-36635.67,-24843.105,-22086.855
1764511505.5223355,-6716.474999999999,-39887.64,-30513.195,-11059.335,-10941.165,-36638.1,-24845.175,-22092.03
1764511505.524076,-6718.679999999999,-39887.37,-30511.89,-11058.48,-10940.4,-36638.37,-24849.54,-22101.255
1764511505.524076,-6712.605,-39879.405,-30503.52,-11050.83,-10932.525,-36629.685,-24843.96,-22099.5
1764511505.524076,-6716.655,-39884.67,-30509.46,-11056.23,-10938.375,-36634.14,-24842.34,-22098.015
1764511505.524076,-6724.395,-39896.055,-30522.105,-11069.325,-10951.695,-36646.56,-24850.26,-22093.245
1764511505.524076,-6721.74,-39892.815,-30519.315,-11066.67,-10948.995,-36645.12,-24851.115,-22091.265
1764511505.524076,-6701.13,-39870.54,-30495.555,-11043.495,-10925.37,-36622.62,-24830.775,-22074.84
1764511505.524076,-6699.33,-39869.865,-30494.34,-11041.785,-10923.795,-36621.45,-24830.64,-22076.28
1764511505.524076,-6708.915,-39881.025,-30505.455,-11053.98,-10937.025,-36633.285,-24848.28,-22085.145
1764511505.524076,-6718.724999999999,-39892.905,-30517.56,-11066.895,-10949.94,-36643.59,-24854.715,-22090.905
1764511505.524076,-6719.804999999999,-39894.93,-30519.315,-11067.57,-10951.155,-36646.02,-24856.2,-22094.505
1764511505.524076,-6717.87,-39894.21,-30518.685,-11065.995,-10949.445,-36646.11,-24855.525,-22092.705
1764511505.524076,-6716.16,-39893.04,-30518.28,-11065.635,-10948.32,-36645.48,-24854.625,-22090.365
1764511505.524076,-6714.99,-39891.105,-30516.345,-11064.825,-10946.925,-36643.455,-24854.175,-22089.24
1764511505.5250876,-6715.304999999999,-39889.44,-30513.69,-11064.375,-10946.115,-36640.845,-24852.465,-22087.755
1764511505.5250876,-6711.75,-39889.665,-30514.905,-11064.24,-10944.99,-36642.645,-24850.98,-22085.505
1764511505.5250876,-6714.63,-39896.28,-30521.655,-11070.0,-10951.02,-36648.63,-24855.48,-22088.52
1764511505.5722864,-6713.955,-39894.57,-30519.495,-11067.93,-10949.58,-36645.705,-24853.41,-22086.72
1764511505.5722864,-6709.275,-39887.145,-30511.8,-11060.91,-10943.235,-36637.65,-24847.965,-22081.32
1764511505.5722864,-6709.139999999999,-39888.45,-30514.23,-11062.755,-10944.315,-36639.945,-24847.47,-22081.23
1764511505.5722864,-6711.84,-39890.79,-30516.345,-11064.24,-10946.655,-36642.42,-24848.37,-22083.93
1764511505.5722864,-6711.389999999999,-39890.16,-30515.355,-11063.655,-10945.575,-36641.115,-24845.895,-22081.815
1764511505.5722864,-6713.73,-39892.86,-30518.28,-11066.895,-10947.96,-36642.465,-24843.015,-22080.555
1764511505.5722864,-6716.16,-39892.23,-30516.885,-11065.14,-10946.07,-36642.645,-24850.215,-22088.385
1764511505.5722864,-6717.645,-39892.905,-30517.11,-11065.365,-10946.7,-36643.815,-24851.565,-22090.86
1764511505.5722864,-6714.99,-39890.025,-30514.095,-11062.305,-10944.72,-36641.34,-24849.0,-22088.43
1764511505.5722864,-6711.21,-39886.02,-30510.135,-11058.255,-10940.58,-36636.615,-24844.905,-22084.605
1764511505.5722864,-6715.755,-39892.815,-30515.985,-11064.645,-10946.07,-36641.43,-24845.805,-22087.575
1764511505.5722864,-6721.065,-39899.205,-30522.195,-11070.855,-10952.19,-36646.965,-24849.45,-22092.57
1764511505.5722864,-6716.969999999999,-39894.12,-30516.48,-11065.005,-10946.205,-36641.7,-24845.49,-22088.565
1764511505.5722864,-6718.275,-39895.245,-30517.92,-11066.805,-10948.32,-36643.23,-24846.975,-22090.275
1764511505.5722864,-6720.165,-39897.36,-30520.395,-11069.91,-10951.605,-36645.705,-24850.08,-22094.37
1764511505.5722864,-6717.105,-39894.57,-30515.94,-11064.915,-10947.015,-36641.61,-24847.92,-22094.235
1764511505.5722864,-6714.27,-39889.98,-30509.82,-11059.29,-10942.695,-36634.635,-24843.015,-22091.715
1764511505.5722864,-6717.915,-39897.405,-30517.155,-11066.04,-10950.21,-36642.015,-24848.685,-22096.755
1764511505.5722864,-6719.13,-39900.06,-30519.81,-11068.29,-10952.37,-36644.715,-24851.34,-22098.915
1764511505.5722864,-6718.86,-39899.745,-30520.395,-11067.795,-10951.65,-36645.345,-24851.925,-22099.185
1764511505.5722864,-6717.33,-39897.405,-30518.37,-11065.68,-10949.76,-36643.905,-24851.79,-22098.195
1764511505.5722864,-6714.855,-39895.02,-30515.715,-11062.845,-10946.835,-36640.98,-24849.945,-22097.295
1764511505.6162448,-6710.219999999999,-39889.98,-30510.855,-11058.03,-10942.29,-36635.895,-24846.3,-22093.335
1764511505.6162448,-6716.429999999999,-39895.605,-30515.4,-11063.88,-10948.77,-36640.755,-24852.42,-22100.13
1764511505.6162448,-6715.62,-39897.045,-30516.705,-11064.06,-10949.49,-36641.88,-24852.015,-22099.365
1764511505.6162448,-6711.389999999999,-39891.825,-30512.16,-11059.38,-10945.08,-36637.92,-24849.675,-22098.015
1764511505.6162448,-6711.165,-39891.645,-30511.89,-11058.885,-10944.63,-36638.1,-24853.59,-22105.755
1764511505.6162448,-6708.24,-39886.875,-30506.85,-11055.69,-10940.58,-36632.745,-24851.205,-22104.945
1764511505.6162448,-6713.505,-39897.27,-30518.1,-11066.22,-10951.155,-36643.86,-24853.95,-22097.205
1764511505.6162448,-6718.32,-39904.83,-30526.29,-11073.555,-10958.76,-36652.545,-24860.745,-22102.605
1764511505.6162448,-6713.82,-39897.045,-30518.73,-11066.625,-10951.29,-36645.93,-24858.135,-22103.505
1764511505.6162448,-6709.77,-39889.89,-30510.27,-11059.695,-10945.125,-36638.325,-24854.625,-22098.87
1764511505.6180313,-6703.785,-39881.52,-30502.44,-11052.315,-10938.285,-36630.765,-24848.46,-22092.12
1764511505.6180313,-6703.514999999999,-39886.875,-30508.155,-11056.365,-10942.02,-36636.525,-24851.385,-22092.975
1764511505.6180313,-6702.66,-39889.215,-30510.63,-11058.03,-10943.55,-36639.27,-24852.15,-22093.92
1764511505.6180313,-6704.505,-39892.41,-30514.14,-11061.675,-10946.835,-36642.87,-24854.895,-22096.98
1764511505.6180313,-6699.33,-39887.595,-30509.28,-11057.265,-10941.885,-36638.325,-24851.115,-22090.095
1764511505.6180313,-6697.485,-39884.58,-30505.77,-11053.89,-10938.465,-36635.04,-24847.83,-22086.18
1764511505.6180313,-6697.98,-39886.83,-30508.29,-11056.05,-10940.805,-36637.65,-24849.18,-22086.405
1764511505.6180313,-6696.315,-39888.18,-30510.09,-11058.975,-10943.415,-36638.955,-24849.63,-22083.12
1764511505.6180313,-6703.02,-39898.08,-30520.62,-11070.09,-10953.63,-36648.405,-24859.44,-22087.755
1764511505.6180313,-6694.605,-39887.595,-30509.505,-11058.705,-10942.38,-36638.73,-24854.445,-22081.59
1764511505.6662023,-6690.465,-39882.96,-30504.87,-11053.395,-10937.655,-36633.015,-24847.2,-22075.155
1764511505.6662023,-6694.605,-39886.785,-30508.56,-11056.77,-10942.155,-36636.885,-24851.34,-22077.855
1764511505.6672184,-6703.65,-39902.67,-30525.12,-11074.32,-10958.265,-36651.69,-24855.75,-22080.87
1764511505.6672184,-6703.83,-39903.705,-30526.605,-11075.805,-10959.255,-36651.69,-24857.64,-22080.465
1764511505.6672184,-6695.19,-39887.955,-30508.965,-11059.92,-10944.405,-36636.165,-24852.465,-22073.13
1764511505.6672184,-6697.17,-39887.685,-30507.795,-11060.19,-10944.9,-36635.985,-24854.04,-22073.04
1764511505.6672184,-6694.605,-39890.655,-30512.475,-11063.295,-10946.295,-36639.225,-24849.855,-22067.82
1764511505.6672184,-6691.094999999999,-39886.38,-30508.695,-11059.065,-10942.515,-36636.21,-24850.62,-22066.155
1764511505.6672184,-6687.945,-39882.465,-30504.33,-11054.88,-10939.005,-36632.925,-24849.27,-22064.355
1764511505.6672184,-6692.58,-39890.61,-30512.475,-11062.125,-10945.98,-36640.89,-24852.69,-22067.955
1764511505.6672184,-6688.98,-39888.63,-30509.82,-11059.245,-10942.65,-36637.83,-24846.66,-22062.69
1764511505.6672184,-6683.67,-39884.67,-30504.915,-11053.575,-10937.07,-36632.88,-24838.47,-22058.055
1764511505.6672184,-6680.07,-39880.26,-30501.675,-11050.2,-10933.335,-36628.83,-24837.12,-22055.895
1764511505.6672184,-6699.375,-39900.555,-30522.195,-11071.35,-10955.295,-36650.34,-24863.265,-22076.73
1764511505.6672184,-6703.514999999999,-39905.64,-30527.145,-11076.3,-10959.93,-36654.075,-24862.365,-22075.02
1764511505.6672184,-6697.844999999999,-39895.695,-30516.075,-11065.725,-10949.22,-36644.085,-24855.705,-22072.185
1764511505.6672184,-6699.87,-39895.695,-30515.49,-11065.725,-10949.31,-36643.815,-24854.94,-22075.245
1764511505.6672184,-6701.759999999999,-39896.505,-30516.57,-11066.4,-10949.985,-36644.67,-24856.605,-22079.79
1764511505.6672184,-6695.865,-39888.9,-30508.92,-11058.39,-10941.795,-36637.335,-24852.375,-22080.15
1764511505.6672184,-6688.349999999999,-39879.45,-30498.435,-11047.905,-10931.265,-36626.715,-24843.33,-22068.0
1764511505.6672184,-6697.71,-39891.555,-30511.845,-11061.045,-10945.08,-36639.225,-24848.505,-22061.16
1764511505.6672184,-6702.03,-39894.345,-30514.32,-11063.205,-10947.78,-36642.24,-24853.68,-22068.045
1764511505.6672184,-6699.96,-39890.745,-30509.64,-11060.235,-10944.09,-36638.91,-24853.185,-22069.71
1764511505.6672184,-6702.84,-39894.21,-30514.005,-11063.25,-10947.6,-36642.24,-24857.55,-22074.3
1764511505.6672184,-6697.98,-39889.17,-30508.875,-11058.165,-10941.84,-36637.38,-24852.735,-22071.555
1764511505.6672184,-6697.889999999999,-39889.53,-30508.515,-11057.715,-10941.84,-36637.875,-24852.69,-22073.175
1764511505.6672184,-6701.49,-39892.23,-30511.08,-11060.235,-10945.485,-36641.07,-24854.985,-22077.855
1764511505.668232,-6701.625,-39890.97,-30509.595,-11059.02,-10945.035,-36639.945,-24854.13,-22078.98
1764511505.7094903,-6700.815,-39889.305,-30507.615,-11057.22,-10942.515,-36637.875,-24853.23,-22078.26
1764511505.7094903,-6696.045,-39882.645,-30501.135,-11050.245,-10935.765,-36630.54,-24847.56,-22072.455
1764511505.7100136,-6696.719999999999,-39883.68,-30501.9,-11050.2,-10936.395,-36630.72,-24848.55,-22075.29
1764511505.7100136,-6702.165,-39887.865,-30505.455,-11054.97,-10941.12,-36634.815,-24854.445,-22081.905
1764511505.7100136,-6699.105,-39885.84,-30503.025,-11052.405,-10938.825,-36633.42,-24851.115,-22079.43
1764511505.7100136,-6700.905,-39889.44,-30507.3,-11056.05,-10942.605,-36637.29,-24853.995,-22084.38
1764511505.7100136,-6697.53,-39886.515,-30504.69,-11053.755,-10939.59,-36635.265,-24850.98,-22083.93
1764511505.7100136,-6696.045,-39883.815,-30502.17,-11051.01,-10937.295,-36632.925,-24849.855,-22083.795
1764511505.7100136,-6697.575,-39886.02,-30503.43,-11052.135,-10940.13,-36634.455,-24851.79,-22087.305
1764511505.7100136,-6702.525,-39891.15,-30508.605,-11057.76,-10945.89,-36639.54,-24856.74,-22094.01
1764511505.7110295,-6701.175,-39889.53,-30506.805,-11056.635,-10943.865,-36638.235,-24854.67,-22093.38
1764511505.7110295,-6695.639999999999,-39881.115,-30498.03,-11049.03,-10936.53,-36629.82,-24847.92,-22087.575
1764511505.7110295,-6694.514999999999,-39881.295,-30498.615,-11048.535,-10936.485,-36630.045,-24846.615,-22087.53
1764511505.7110295,-6700.139999999999,-39888.135,-30504.33,-11055.24,-10942.56,-36636.12,-24852.015,-22093.29
1764511505.7110295,-6697.844999999999,-39888.765,-30504.645,-11055.42,-10943.415,-36635.94,-24848.415,-22089.87
1764511505.7110295,-6695.55,-39887.505,-30503.07,-11053.395,-10941.57,-36634.5,-24848.595,-22090.23
1764511505.7120433,-6694.83,-39887.055,-30502.395,-11052.0,-10940.13,-36633.645,-24849.405,-22091.67
1764511505.7120433,-6695.28,-39887.73,-30502.44,-11052.63,-10941.57,-36634.23,-24849.27,-22091.58
1764511505.7120433,-6695.55,-39888.315,-30504.195,-11053.89,-10942.38,-36635.625,-24849.0,-22091.265
1764511505.7120433,-6695.73,-39889.665,-30505.185,-11054.7,-10943.37,-36636.435,-24849.09,-22091.04
1764511505.7120433,-6699.105,-39895.38,-30510.27,-11058.57,-10949.04,-36641.07,-24852.915,-22093.74
1764511505.7120433,-6693.84,-39890.115,-30505.59,-11053.305,-10943.775,-36635.805,-24848.775,-22087.395
1764511505.7579236,-6693.57,-39891.15,-30506.715,-11053.845,-10944.585,-36636.93,-24847.83,-22086.0
1764511505.7579236,-6698.88,-39896.37,-30510.945,-11058.165,-10949.175,-36641.43,-24850.71,-22089.555
1764511505.7579236,-6695.82,-39892.68,-30506.985,-11055.285,-10945.26,-36635.805,-24846.345,-22083.48
1764511505.7579236,-6698.205,-39888.81,-30501.72,-11052.675,-10942.155,-36632.16,-24850.665,-22083.975
1764511505.7579236,-6695.73,-39886.29,-30499.38,-11050.155,-10940.985,-36630.72,-24847.155,-22078.35
1764511505.7579236,-6696.045,-39893.985,-30507.48,-11055.645,-10946.745,-36638.415,-24849.63,-22079.79
1764511505.7579236,-6691.634999999999,-39888.045,-30500.865,-11048.85,-10939.41,-36630.135,-24846.345,-22075.605
1764511505.7579236,-6691.094999999999,-39888.855,-30502.215,-11049.885,-10940.445,-36630.45,-24844.815,-22072.365
1764511505.7579236,-6691.365,-39888.63,-30500.775,-11049.435,-10940.895,-36630.18,-24845.49,-22071.24
1764511505.7579236,-6690.105,-39887.73,-30499.245,-11048.22,-10939.545,-36628.38,-24842.52,-22066.29
1764511505.7579236,-6687.27,-39884.13,-30494.61,-11044.89,-10936.44,-36624.69,-24842.97,-22062.06
1764511505.7579236,-6691.139999999999,-39891.87,-30501.405,-11051.865,-10943.145,-36632.655,-24852.33,-22069.53
1764511505.7579236,-6688.44,-39890.25,-30500.82,-11050.065,-10941.21,-36631.395,-24851.88,-22067.595
1764511505.7579236,-6685.83,-39887.955,-30499.785,-11048.805,-10939.68,-36628.83,-24845.805,-22055.535
1764511505.7579236,-6689.115,-39893.31,-30504.69,-11053.62,-10944.72,-36634.23,-24850.8,-22059.945
1764511505.7579236,-6692.849999999999,-39898.53,-30510.315,-11059.695,-10950.21,-36639.765,-24857.415,-22068.585
1764511505.7594364,-6689.655,-39894.84,-30507.255,-11056.14,-10946.79,-36637.155,-24857.64,-22069.755
1764511505.7594364,-6681.915,-39885.075,-30497.175,-11045.97,-10936.17,-36627.03,-24852.33,-22065.48
1764511505.7594364,-6681.105,-39882.78,-30494.835,-11043.315,-10934.685,-36624.33,-24845.67,-22054.59
1764511505.7594364,-6679.98,-39879.9,-30491.145,-11040.66,-10932.435,-36620.73,-24838.83,-22046.265
1764511505.7594364,-6681.42,-39886.56,-30499.605,-11048.31,-10939.905,-36629.19,-24843.87,-22051.395
1764511505.7594364,-6687.855,-39896.415,-30510.765,-11058.84,-10950.345,-36639.72,-24862.77,-22061.475
1764511505.7594364,-6691.95,-39898.665,-30512.565,-11061.0,-10951.83,-36641.07,-24861.645,-22063.905
1764511505.7594364,-6689.88,-39895.02,-30508.785,-11058.21,-10948.095,-36638.145,-24860.43,-22064.625
1764511505.8025408,-6688.08,-39892.905,-30506.265,-11056.095,-10946.205,-36635.85,-24858.855,-22063.815
1764511505.8025408,-6687.719999999999,-39892.815,-30506.49,-11056.32,-10947.15,-36635.85,-24855.93,-22062.825
1764511505.8025408,-6685.245,-39890.295,-30503.565,-11053.71,-10944.765,-36633.06,-24853.815,-22062.6
1764511505.8025408,-6680.295,-39883.905,-30497.49,-11047.005,-10937.97,-36627.705,-24853.185,-22061.385
1764511505.8025408,-6676.83,-39880.845,-30494.655,-11044.665,-10934.37,-36625.815,-24849.495,-22057.56
1764511505.8025408,-6678.405,-39884.445,-30498.21,-11048.58,-10938.105,-36629.19,-24851.88,-22060.845
1764511505.8025408,-6674.535,-39883.77,-30497.535,-11047.905,-10937.565,-36628.29,-24849.27,-22059.585
1764511505.8025408,-6677.37,-39888.0,-30501.63,-11051.64,-10941.39,-36632.52,-24853.77,-22063.41
1764511505.8025408,-6674.49,-39886.38,-30500.415,-11050.155,-10940.04,-36631.08,-24851.385,-22058.955
1764511505.8025408,-6670.889999999999,-39883.455,-30496.68,-11047.095,-10936.71,-36627.615,-24846.255,-22054.815
1764511505.807304,-6680.52,-39896.01,-30510.045,-11060.775,-10949.625,-36639.675,-24853.95,-22068.135
1764511505.807304,-6678.99,-39892.995,-30507.84,-11058.075,-10947.24,-36638.415,-24858.63,-22070.52
1764511505.807304,-6675.57,-39887.595,-30501.27,-11051.37,-10940.265,-36632.52,-24857.01,-22070.295
1764511505.807304,-6676.29,-39889.98,-30503.79,-11055.015,-10943.415,-36633.78,-24854.805,-22072.59
1764511505.807304,-6672.105,-39885.12,-30499.11,-11049.84,-10939.68,-36632.385,-24858.495,-22072.365
1764511505.807304,-6666.974999999999,-39878.415,-30492.945,-11043.36,-10933.02,-36625.545,-24851.7,-22065.84
1764511505.807304,-6669.54,-39882.555,-30498.165,-11047.77,-10937.34,-36628.785,-24850.8,-22067.235
1764511505.807304,-6672.554999999999,-39884.535,-30501.135,-11050.245,-10939.95,-36631.395,-24853.59,-22070.52
1764511505.8083131,-6675.389999999999,-39887.82,-30504.87,-11053.8,-10942.92,-36634.995,-24856.605,-22074.03
1764511505.8083131,-6670.889999999999,-39882.42,-30499.29,-11048.4,-10937.115,-36629.82,-24851.52,-22068.9
1764511505.8083131,-6668.82,-39880.215,-30496.14,-11045.61,-10934.145,-36627.705,-24848.325,-22068.945
1764511505.8083131,-6668.955,-39878.28,-30494.52,-11043.315,-10931.715,-36625.185,-24847.29,-22070.43
1764511505.8083131,-6673.995,-39883.86,-30500.64,-11048.085,-10937.565,-36631.62,-24852.015,-22074.21
1764511505.8083131,-6674.13,-39883.455,-30500.82,-11049.03,-10938.33,-36631.8,-24849.63,-22065.795
1764511505.851649,-6675.165,-39885.39,-30502.305,-11050.695,-10939.77,-36632.88,-24849.945,-22067.82
1764511505.851649,-6676.514999999999,-39886.38,-30502.62,-11051.955,-10940.355,-36633.465,-24850.62,-22070.07
1764511505.851649,-6672.825,-39880.26,-30496.095,-11045.52,-10933.515,-36626.49,-24845.58,-22067.19
1764511505.851649,-6677.19,-39883.14,-30498.255,-11047.59,-10935.855,-36627.705,-24846.435,-22072.185
1764511505.851649,-6676.065,-39881.97,-30497.13,-11045.925,-10934.19,-36626.49,-24845.805,-22074.255
1764511505.851649,-6675.12,-39881.205,-30496.185,-11044.125,-10932.435,-36624.87,-24844.905,-22072.725
1764511505.851649,-6681.645,-39890.88,-30504.915,-11053.53,-10942.02,-36634.5,-24851.16,-22068.765
1764511505.851649,-6687.36,-39896.73,-30511.125,-11060.685,-10949.715,-36641.25,-24857.865,-22073.67
1764511505.851649,-6685.29,-39888.495,-30502.665,-11054.16,-10943.19,-36630.72,-24851.34,-22072.32
1764511505.851649,-6679.035,-39884.94,-30499.83,-11049.075,-10938.195,-36627.12,-24844.77,-22066.695
1764511505.8526623,-6676.875,-39884.22,-30498.84,-11048.13,-10936.44,-36625.905,-24845.31,-22065.93
1764511505.8526623,-6678.315,-39885.66,-30499.74,-11049.57,-10938.555,-36627.48,-24847.74,-22068.18
1764511505.8526623,-6673.634999999999,-39884.355,-30498.165,-11047.005,-10935.9,-36625.995,-24844.905,-22065.885
1764511505.8526623,-6672.645,-39884.715,-30498.21,-11047.14,-10935.81,-36625.95,-24844.14,-22066.515
1764511505.8526623,-6675.3,-39890.97,-30503.745,-11052.09,-10942.11,-36631.305,-24848.415,-22070.295
1764511505.8526623,-6674.895,-39892.635,-30504.69,-11052.945,-10943.145,-36631.44,-24849.495,-22070.52
1764511505.8526623,-6673.815,-39892.455,-30505.455,-11053.035,-10943.55,-36631.305,-24850.62,-22070.34
1764511505.8526623,-6668.19,-39886.74,-30499.335,-11047.23,-10936.935,-36625.14,-24846.57,-22065.165
1764511505.8526623,-6666.57,-39887.055,-30498.795,-11047.68,-10936.755,-36624.78,-24847.965,-22065.885
1764511505.8526623,-6668.73,-39891.51,-30503.43,-11052.765,-10941.525,-36629.1,-24852.645,-22071.105
1764511505.8526623,-6667.56,-39891.24,-30503.205,-11051.55,-10941.12,-36629.055,-24853.23,-22071.105
1764511505.8526623,-6662.655,-39885.885,-30498.48,-11045.745,-10936.62,-36624.105,-24849.54,-22066.965
1764511505.8538344,-6657.884999999999,-39883.14,-30495.33,-11042.73,-10933.38,-36621.09,-24846.255,-22063.365
1764511505.8538344,-6662.52,-39888.315,-30500.73,-11048.445,-10938.195,-36625.635,-24850.89,-22067.55
1764511505.8972418,-6660.99,-39888.63,-30501.495,-11048.895,-10938.78,-36625.77,-24849.72,-22066.83
1764511505.8972418,-6654.915,-39882.6,-30494.655,-11042.955,-10933.38,-36620.55,-24845.355,-22061.565
1764511505.8972418,-6655.679999999999,-39884.265,-30496.365,-11043.585,-10935.765,-36623.205,-24847.47,-22062.69
1764511505.8972418,-6654.915,-39885.885,-30497.31,-11045.205,-10937.205,-36623.205,-24848.955,-22065.21
1764511505.8972418,-6647.895,-39878.28,-30489.705,-11036.835,-10928.79,-36615.105,-24845.085,-22064.67
1764511505.8972418,-6643.53,-39874.905,-30486.015,-11032.83,-10925.64,-36611.55,-24840.63,-22061.745
1764511505.8972418,-6636.014999999999,-39870.09,-30481.695,-11027.97,-10920.87,-36606.645,-24832.62,-22053.465
1764511505.8972418,-6642.63,-39879.765,-30490.83,-11037.33,-10930.95,-36617.535,-24845.85,-22059.99
1764511505.8972418,-6657.57,-39898.98,-30510.45,-11056.365,-10950.795,-36636.03,-24859.62,-22070.115
1764511505.8972418,-6653.474999999999,-39894.075,-30505.455,-11050.74,-10945.71,-36630.9,-24853.995,-22067.145
1764511505.8972418,-6649.29,-39887.595,-30499.74,-11045.205,-10939.365,-36626.445,-24855.93,-22067.865
1764511505.8972418,-6650.639999999999,-39889.935,-30502.305,-11048.76,-10941.615,-36628.74,-24859.26,-22070.52
1764511505.8972418,-6648.48,-39887.145,-30498.84,-11044.98,-10938.195,-36626.58,-24860.565,-22070.79
1764511505.8972418,-6641.37,-39879.99,-30491.145,-11037.015,-10930.68,-36617.895,-24850.53,-22062.69
1764511505.8972418,-6637.995,-39877.47,-30489.39,-11035.305,-10927.845,-36615.555,-24846.525,-22060.755
1764511505.8972418,-6639.075,-39878.145,-30490.47,-11036.97,-10929.465,-36617.49,-24847.2,-22062.465
1764511505.8972418,-6644.07,-39883.545,-30494.97,-11041.695,-10934.505,-36622.305,-24852.42,-22073.265
1764511505.8972418,-6639.929999999999,-39878.1,-30489.75,-11036.115,-10929.465,-36618.21,-24850.935,-22075.065
1764511505.898251,-6636.78,-39875.22,-30487.185,-11033.235,-10926.72,-36615.33,-24844.455,-22063.365
1764511505.898251,-6649.695,-39892.95,-30506.175,-11051.595,-10945.08,-36633.195,-24853.185,-22058.235
1764511505.898251,-6648.66,-39891.78,-30504.825,-11050.47,-10944.315,-36631.755,-24853.77,-22061.565
1764511505.898251,-6642.0,-39881.205,-30493.755,-11039.895,-10933.83,-36621.72,-24846.345,-22058.19
1764511505.9485269,-6638.49,-39876.795,-30488.805,-11035.44,-10928.745,-36617.94,-24843.24,-22053.87
1764511505.9485269,-6638.895,-39877.695,-30489.93,-11036.565,-10929.87,-36618.12,-24844.275,-22050.9
1764511505.9485269,-6642.54,-39882.915,-30495.42,-11041.29,-10935.405,-36622.305,-24846.03,-22050.225
1764511505.9485269,-6639.48,-39877.74,-30489.885,-11035.98,-10929.33,-36617.265,-24842.025,-22047.48
1764511505.9485269,-6643.935,-39882.87,-30493.665,-11040.255,-10934.37,-36623.655,-24850.485,-22056.39
1764511505.9485269,-6645.105,-39884.76,-30496.095,-11043.18,-10936.8,-36625.59,-24849.99,-22052.745
1764511505.9485269,-6650.639999999999,-39893.04,-30504.24,-11051.73,-10944.495,-36630.495,-24852.33,-22054.14
1764511505.9485269,-6652.215,-39891.6,-30501.99,-11049.165,-10942.695,-36627.93,-24855.255,-22056.705
1764511505.9485269,-6643.44,-39880.395,-30490.605,-11037.465,-10931.58,-36617.715,-24846.84,-22046.04
1764511505.9485269,-6641.865,-39879.0,-30489.75,-11036.115,-10930.23,-36617.13,-24845.805,-22041.36
1764511505.9485269,-6638.445,-39874.725,-30484.215,-11030.715,-10924.74,-36611.955,-24841.71,-22036.14
1764511505.9485269,-6645.465,-39881.835,-30491.19,-11037.645,-10931.85,-36618.165,-24847.605,-22045.23
1764511505.9485269,-6647.31,-39884.13,-30494.115,-11041.02,-10934.64,-36620.64,-24850.395,-22043.34
1764511505.9485269,-6645.69,-39875.895,-30485.025,-11033.73,-10928.34,-36612.81,-24848.28,-22041.855
1764511505.9485269,-6651.719999999999,-39881.475,-30490.38,-11040.255,-10935.225,-36618.57,-24853.14,-22048.92
1764511505.9485269,-6652.889999999999,-39887.415,-30497.535,-11045.79,-10940.67,-36624.375,-24856.02,-22048.38
1764511505.9485269,-6644.25,-39878.37,-30488.67,-11036.52,-10931.13,-36615.15,-24848.73,-22039.695
1764511505.9485269,-6644.34,-39880.215,-30489.57,-11037.015,-10931.4,-36615.915,-24849.81,-22040.055
1764511505.9485269,-6647.49,-39887.235,-30496.32,-11043.045,-10937.43,-36622.17,-24855.48,-22044.42
1764511505.9485269,-6644.79,-39884.535,-30493.98,-11040.615,-10935.09,-36619.74,-24854.76,-22043.25
1764511505.9485269,-6639.075,-39879.18,-30488.715,-11035.395,-10930.23,-36615.06,-24850.62,-22037.31
1764511505.9485269,-6637.815,-39879.18,-30488.985,-11035.35,-10930.815,-36614.07,-24851.52,-22035.915
1764511505.9495156,-6638.264999999999,-39881.25,-30491.415,-11037.42,-10932.795,-36616.005,-24853.725,-22038.66
1764511505.9495156,-6640.02,-39883.005,-30493.395,-11039.985,-10935.045,-36617.805,-24856.38,-22041.855
1764511505.9940782,-6635.925,-39879.99,-30489.93,-11036.97,-10931.445,-36614.34,-24854.58,-22040.415
1764511505.9940782,-6636.915,-39882.195,-30490.335,-11038.05,-10933.11,-36615.42,-24856.515,-22042.53
1764511505.9940782,-6631.065,-39877.29,-30485.88,-11033.28,-10927.8,-36610.605,-24852.78,-22038.885
1764511505.9940782,-6633.045,-39879.945,-30489.48,-11036.565,-10931.355,-36614.025,-24855.435,-22043.07
1764511505.9940782,-6636.465,-39885.435,-30494.745,-11041.425,-10936.53,-36618.795,-24858.9,-22048.695
1764511505.9940782,-6634.395,-39883.635,-30492.81,-11039.85,-10934.64,-36616.815,-24855.93,-22047.795
1764511505.9940782,-6637.679999999999,-39888.45,-30497.085,-11044.44,-10939.905,-36622.215,-24859.35,-22053.465
1764511505.9940782,-6637.365,-39887.865,-30497.04,-11043.54,-10939.59,-36622.17,-24859.395,-22054.815
1764511505.9940782,-6637.365,-39888.45,-30498.48,-11043.9,-10940.13,-36622.575,-24859.98,-22056.12
1764511505.9940782,-6635.16,-39885.93,-30495.645,-11041.875,-10937.79,-36619.965,-24858.495,-22055.355
1764511505.9950788,-6631.514999999999,-39883.815,-30492.81,-11039.13,-10935.72,-36617.895,-24855.75,-22054.005
1764511505.9950788,-6634.215,-39887.505,-30496.995,-11042.64,-10939.365,-36621.945,-24858.27,-22057.83
1764511505.9950788,-6632.865,-39886.02,-30494.25,-11040.705,-10937.43,-36620.46,-24855.84,-22055.715
1764511505.9950788,-6636.825,-39890.25,-30498.48,-11044.755,-10941.39,-36623.79,-24856.29,-22058.325
1764511505.9950788,-6640.02,-39894.975,-30503.34,-11048.94,-10946.025,-36627.255,-24859.305,-22064.265
1764511505.9950788,-6635.384999999999,-39888.63,-30495.42,-11041.245,-10938.375,-36622.17,-24861.87,-22066.92
1764511505.9950788,-6636.42,-39890.7,-30497.895,-11044.62,-10940.175,-36624.24,-24860.475,-22066.965
1764511505.9950788,-6638.895,-39893.805,-30501.36,-11048.22,-10943.37,-36625.5,-24856.92,-22065.39
1764511505.9950788,-6643.98,-39899.295,-30508.29,-11054.52,-10949.895,-36629.73,-24857.865,-22071.87
1764511505.9950788,-6634.485,-39886.29,-30494.655,-11040.885,-10936.8,-36616.95,-24853.77,-22071.87
1764511505.9950788,-6626.34,-39875.895,-30483.45,-11030.985,-10926.27,-36608.04,-24851.115,-22068.585
1764511505.9950788,-6629.849999999999,-39881.79,-30490.065,-11037.555,-10932.93,-36613.845,-24849.225,-22056.795
1764511505.9950788,-6635.474999999999,-39891.195,-30501.405,-11048.175,-10943.055,-36623.475,-24852.42,-22059.09
1764511505.9950788,-6635.429999999999,-39887.82,-30496.995,-11043.405,-10938.24,-36620.73,-24856.065,-22065.885
1764511506.0406077,-6633.27,-39885.93,-30494.565,-11041.74,-10936.53,-36618.57,-24856.065,-22065.615
1764511506.0406077,-6642.405,-39896.955,-30504.51,-11052.495,-10947.51,-36628.605,-24863.445,-22072.32
1764511506.0406077,-6643.215,-39896.865,-30505.23,-11052.225,-10948.23,-36628.47,-24862.365,-22072.68
1764511506.0406077,-6636.915,-39889.08,-30498.165,-11043.81,-10940.49,-36620.415,-24856.83,-22065.84
1764511506.0406077,-6633.764999999999,-39887.145,-30495.33,-11041.335,-10937.61,-36618.075,-24855.12,-22062.96
1764511506.0406077,-6626.295,-39877.56,-30485.115,-11031.66,-10927.845,-36608.58,-24846.165,-22057.515
1764511506.0406077,-6618.915,-39868.245,-30474.585,-11021.085,-10917.27,-36598.275,-24835.365,-22051.17
1764511506.0406077,-6626.835,-39878.505,-30485.565,-11032.605,-10928.52,-36609.705,-24847.515,-22057.56
1764511506.0406077,-6641.415,-39896.055,-30503.295,-11050.605,-10946.79,-36627.84,-24867.045,-22072.59
1764511506.0406077,-6644.61,-39900.195,-30507.66,-11055.06,-10951.605,-36630.0,-24865.47,-22071.915
1764511506.0406077,-6643.44,-39898.755,-30506.715,-11054.205,-10950.48,-36629.37,-24863.4,-22069.845
1764511506.0406077,-6643.17,-39896.55,-30503.88,-11051.145,-10948.23,-36628.65,-24865.245,-22072.005
1764511506.0406077,-6642.315,-39895.065,-30502.395,-11049.03,-10946.205,-36626.625,-24863.94,-22069.215
1764511506.0406077,-6641.594999999999,-39895.695,-30503.295,-11049.705,-10946.52,-36625.635,-24862.95,-22067.37
1764511506.0406077,-6639.12,-39893.895,-30500.82,-11047.68,-10944.36,-36623.745,-24860.565,-22065.615
1764511506.0406077,-6637.77,-39888.945,-30495.015,-11043.405,-10940.445,-36618.795,-24858.18,-22061.16
1764511506.0416152,-6641.73,-39892.41,-30497.535,-11047.815,-10945.17,-36622.665,-24860.52,-22062.015
1764511506.0416152,-6634.395,-39889.89,-30496.005,-11044.485,-10941.12,-36621.045,-24854.22,-22056.255
1764511506.0416152,-6631.74,-39889.53,-30494.88,-11042.28,-10939.86,-36621.765,-24858.09,-22057.92
1764511506.0416152,-6639.12,-39898.845,-30504.915,-11051.82,-10949.49,-36631.035,-24865.155,-22064.265
1764511506.0416152,-6636.105,-39894.39,-30501.54,-11049.57,-10946.565,-36626.49,-24863.04,-22061.07
1764511506.0416152,-6637.59,-39895.875,-30502.575,-11051.505,-10948.455,-36628.605,-24865.155,-22063.005
1764511506.0869408,-6634.98,-39894.84,-30501.135,-11049.66,-10947.105,-36628.155,-24863.085,-22059.72
1764511506.0869408,-6637.679999999999,-39898.35,-30504.78,-11052.9,-10950.345,-36631.485,-24866.415,-22061.745
1764511506.0869408,-6635.205,-39896.82,-30504.375,-11051.775,-10949.265,-36630.54,-24865.38,-22060.17
1764511506.0869408,-6635.969999999999,-39897.63,-30505.995,-11053.62,-10950.525,-36632.07,-24867.945,-22062.375
1764511506.0869408,-6631.695,-39892.14,-30500.64,-11048.58,-10945.125,-36626.49,-24863.13,-22057.38
1764511506.0869408,-6632.28,-39894.075,-30503.25,-11050.875,-10947.015,-36628.605,-24866.1,-22058.28
1764511506.0869408,-6627.014999999999,-39889.935,-30499.02,-11046.87,-10942.38,-36624.555,-24862.77,-22053.24
1764511506.0869408,-6628.5,-39891.15,-30500.055,-11047.59,-10944.27,-36625.725,-24862.905,-22054.32
1764511506.0869408,-6629.355,-39891.69,-30501.36,-11049.21,-10945.08,-36627.39,-24863.49,-22054.815
1764511506.0869408,-6630.66,-39893.445,-30501.72,-11050.245,-10945.935,-36627.705,-24865.605,-22055.67
1764511506.0879166,-6633.495,-39896.1,-30504.78,-11053.17,-10948.725,-36631.53,-24868.62,-22058.37
1764511506.0879166,-6628.86,-39890.07,-30499.065,-11047.635,-10942.875,-36626.4,-24863.355,-22053.465
1764511506.0879166,-6628.23,-39889.845,-30498.165,-11046.24,-10942.515,-36625.86,-24863.625,-22055.535
1764511506.0879166,-6629.94,-39889.35,-30498.435,-11045.745,-10941.84,-36626.445,-24867.045,-22061.475
1764511506.0879166,-6626.969999999999,-39886.155,-30496.32,-11043.675,-10938.915,-36623.52,-24861.915,-22057.83
1764511506.0879166,-6628.545,-39890.205,-30499.965,-11047.005,-10942.74,-36626.355,-24862.59,-22047.84
1764511506.0879166,-6631.695,-39893.805,-30503.205,-11050.65,-10947.24,-36629.82,-24865.515,-22049.46
1764511506.0879166,-6632.685,-39894.3,-30503.97,-11051.505,-10948.275,-36630.36,-24864.84,-22053.015
1764511506.0879166,-6633.0,-39894.03,-30504.555,-11051.19,-10948.545,-36630.27,-24865.155,-22053.375
1764511506.0879166,-6636.195,-39896.415,-30506.805,-11054.07,-10950.84,-36631.575,-24866.145,-22054.41
1764511506.0879166,-6634.844999999999,-39894.165,-30504.69,-11052.63,-10948.005,-36629.055,-24865.515,-22054.005
1764511506.0879166,-6629.58,-39887.055,-30498.93,-11045.925,-10941.795,-36623.115,-24861.6,-22049.64
1764511506.0879166,-6630.929999999999,-39888.585,-30500.46,-11047.14,-10943.82,-36625.32,-24864.795,-22051.62
1764511506.0879166,-6626.745,-39882.87,-30493.35,-11041.11,-10937.61,-36619.83,-24861.555,-22048.83
1764511506.1336732,-6627.24,-39883.23,-30493.305,-11040.975,-10937.43,-36619.38,-24859.755,-22048.065
1764511506.134653,-6627.645,-39883.23,-30493.395,-11041.2,-10936.845,-36618.57,-24858.315,-22046.895
1764511506.134653,-6624.63,-39880.62,-30491.28,-11038.455,-10934.145,-36615.285,-24854.625,-22043.655
1764511506.134653,-6625.62,-39881.52,-30491.775,-11038.68,-10934.28,-36616.68,-24855.795,-22043.79
1764511506.134653,-6627.78,-39884.22,-30494.295,-11042.01,-10938.015,-36618.57,-24856.155,-22044.15
1764511506.134653,-6630.48,-39883.005,-30491.685,-11039.445,-10935.54,-36617.445,-24858.81,-22054.185
1764511506.134653,-6635.295,-39887.055,-30495.78,-11043.18,-10940.22,-36622.44,-24863.49,-22060.215
1764511506.134653,-6634.665,-39888.945,-30498.39,-11046.87,-10943.325,-36624.42,-24862.905,-22052.745
1764511506.134653,-6637.545,-39892.725,-30502.215,-11049.57,-10946.79,-36628.38,-24866.415,-22055.715
1764511506.134653,-6643.8,-39899.7,-30509.82,-11056.95,-10954.755,-36635.67,-24871.41,-22060.8
1764511506.134653,-6640.785,-39894.57,-30504.69,-11051.865,-10949.13,-36630.495,-24866.91,-22057.47
1764511506.134653,-6630.929999999999,-39880.755,-30489.84,-11036.88,-10934.19,-36615.87,-24854.265,-22047.75
1764511506.134653,-6627.96,-39876.075,-30485.025,-11032.74,-10930.365,-36612.045,-24850.35,-22045.725
