Timestamp,Channel1,Channel2,Channel3,Channel4,Channel5,Channel6,Channel7,Channel8
1764511425.531458,33925.185,40693.905,26225.145,33891.885,-16324.065,-28560.285,9370.845,19804.185
1764511425.531458,33924.78,40694.085,26225.055,33890.355,-16326.36,-28562.67,9369.18,19802.835
1764511425.531458,33926.76,40697.19,26227.755,33892.74,-16324.515,-28561.68,9370.35,19804.23
1764511425.531458,33932.07,40703.58,26233.695,33899.085,-16319.97,-28556.865,9373.365,19809.225
1764511425.531458,33931.755,40703.265,26233.83,33898.455,-16320.105,-28558.17,9371.475,19807.83
1764511425.531458,33930.0,40701.06,26232.93,33896.295,-16321.995,-28560.33,9370.08,19805.715
1764511425.531458,33933.465,40704.885,26236.845,33899.625,-16318.395,-28556.595,9372.42,19808.91
1764511425.531458,33931.08,40701.96,26234.82,33897.375,-16320.78,-28558.44,9370.665,19805.895
1764511425.531458,33931.89,40702.635,26236.44,33898.23,-16319.43,-28557.27,9370.305,19807.425
1764511425.531458,33928.02,40699.08,26231.85,33894.9,-16322.94,-28560.915,9367.875,19803.69
1764511425.531458,33929.055,40699.35,26232.39,33895.755,-16322.355,-28560.42,9368.01,19804.095
1764511425.531458,33930.945,40701.78,26234.505,33897.869999999995,-16320.42,-28558.035,9369.225,19806.39
1764511425.531458,33928.83,40700.655,26233.245,33897.195,-16321.635,-28559.025,9368.505,19804.455
1764511425.531458,33931.305,40703.625,26236.44,33900.165,-16318.755,-28555.74,9370.395,19807.56
1764511425.531458,33929.145,40700.97,26234.01,33897.51,-16321.545,-28559.07,9368.685,19805.13
1764511425.531458,33932.79,40704.885,26237.97,33901.605,-16318.215,-28555.245,9371.07,19808.01
1764511425.531458,33933.24,40705.47,26238.645,33902.685,-16317.63,-28553.355,9371.565,19809.09
1764511425.531458,33932.52,40705.02,26238.33,33902.505,-16318.26,-28554.12,9370.53,19809.09
1764511425.531458,33931.98,40704.525,26237.835,33902.28,-16318.44,-28554.705,9369.855,19808.775
1764511425.5679598,33930.63,40703.445,26236.575,33901.56,-16319.25,-28555.785,9369.405,19807.605
1764511425.5684934,33926.715,40699.035,26232.12,33896.43,-16323.165,-28560.24,9366.705,19803.6
1764511425.5684934,33927.615,40699.71,26232.66,33897.735,-16322.04,-28559.925,9366.525,19804.23
1764511425.5684934,33932.07,40704.255,26237.025,33901.965,-16316.28,-28554.48,9370.035,19809.72
1764511425.5684934,33932.835,40705.11,26237.655,33902.145,-16316.19,-28554.39,9370.035,19810.125
1764511425.5684934,33931.08,40702.815,26235.855,33900.48,-16318.485,-28556.73,9367.785,19807.83
1764511425.5684934,33928.244999999995,40700.025,26232.57,33898.14,-16321.68,-28559.61,9365.265,19805.13
1764511425.5684934,33932.7,40703.355,26237.25,33902.369999999995,-16317.945,-28555.875,9368.1,19809.135
1764511425.5684934,33932.25,40703.265,26236.98,33902.46,-16318.305,-28555.605,9368.055,19808.73
1764511425.5684934,33930.09,40701.24,26234.235,33899.85,-16320.33,-28557.99,9366.93,19806.66
1764511425.5684934,33932.52,40703.535,26236.62,33901.92,-16317.405,-28555.92,9368.145,19809.405
1764511425.5684934,33932.744999999995,40704.3,26236.665,33901.74,-16316.685,-28555.2,9369.135,19809.99
1764511425.5684934,33930.135,40702.23,26234.01,33899.265,-16319.745,-28558.8,9367.38,19807.02
1764511425.5684934,33932.61,40704.57,26237.25,33901.29,-16317.045,-28556.145,9368.505,19809.765
1764511425.5684934,33932.88,40705.695,26238.06,33902.325,-16316.415,-28555.11,9369.36,19810.62
1764511425.5684934,33930.135,40702.905,26235.63,33899.715,-16319.205,-28558.125,9367.11,19807.83
1764511425.5684934,33933.6,40706.775,26238.645,33901.92,-16316.505,-28554.84,9368.595,19810.89
1764511425.5684934,33935.535,40708.53,26239.95,33903.585,-16315.245,-28553.04,9370.53,19812.825
1764511425.5684934,33934.86,40707.855,26239.14,33902.775,-16316.055,-28554.165,9370.08,19811.745
1764511425.5684934,33930.405,40703.58,26235.63,33898.815,-16319.07,-28556.415,9367.695,19808.145
1764511425.5684934,33930.45,40703.625,26235.18,33898.32,-16319.295,-28556.73,9367.92,19807.965
1764511425.5684934,33931.8,40704.66,26236.62,33898.41,-16319.295,-28556.505,9368.955,19809.0
1764511425.5684934,33931.26,40704.48,26237.16,33897.96,-16319.745,-28557.045,9369.315,19809.405
1764511425.5684934,33935.895,40709.88,26241.075,33902.28,-16314.93,-28552.5,9372.285,19814.535
1764511425.569501,33935.22,40710.105,26241.21,33901.11,-16315.065,-28552.545,9372.285,19814.445
1764511425.570503,33929.685,40705.11,26236.485,33895.89,-16319.475,-28557.45,9369.225,19809.72
1764511425.6185637,33929.91,40704.57,26236.26,33896.97,-16319.16,-28557.72,9368.91,19809.81
1764511425.6185637,33932.88,40707.405,26239.59,33899.76,-16316.415,-28554.345,9370.26,19812.375
1764511425.6185637,33931.845,40706.865,26239.095,33898.86,-16317.675,-28554.795,9369.675,19811.34
1764511425.6185637,33928.2,40703.22,26235.09,33895.71,-16321.455,-28558.305,9367.335,19808.055
1764511425.6185637,33930.27,40705.785,26236.98,33898.365,-16318.98,-28556.415,9368.775,19810.395
1764511425.6185637,33927.705,40702.725,26233.605,33895.575,-16321.23,-28559.16,9366.705,19808.145
1764511425.6185637,33926.805,40701.735,26232.3,33895.26,-16322.445,-28559.43,9365.67,19807.29
1764511425.6185637,33928.56,40703.76,26234.595,33897.51,-16320.87,-28557.225,9367.11,19809.495
1764511425.6185637,33931.755,40706.91,26237.205,33900.435,-16317.72,-28554.48,9369.135,19812.105
1764511425.6185637,33927.93,40702.95,26232.93,33896.79,-16321.95,-28558.665,9366.795,19807.605
1764511425.6185637,33926.355,40701.735,26231.67,33895.845,-16322.58,-28560.06,9365.76,19806.66
1764511425.6185637,33925.185,40700.97,26231.085,33895.575,-16322.355,-28560.465,9365.085,19806.435
1764511425.6185637,33927.345,40702.995,26232.75,33897.78,-16320.78,-28559.205,9366.075,19808.055
1764511425.6185637,33924.465,40700.43,26230.095,33894.945,-16323.615,-28561.995,9364.455,19806.165
1764511425.6185637,33923.52,40699.53,26229.015,33893.685,-16324.47,-28562.94,9364.05,19805.22
1764511425.6195595,33924.869999999995,40701.06,26229.96,33895.08,-16322.94,-28561.68,9364.41,19806.435
1764511425.6195595,33927.795,40704.66,26233.425,33897.465,-16320.645,-28558.665,9365.805,19809.81
1764511425.6195595,33927.075,40703.4,26232.795,33896.7,-16321.545,-28559.25,9366.075,19809.135
1764511425.6195595,33929.91,40705.695,26235.27,33899.985,-16318.485,-28557.18,9367.965,19811.52
1764511425.6195595,33926.805,40702.995,26232.795,33896.835,-16321.05,-28559.97,9365.4,19808.865
1764511425.6195595,33928.965,40704.03,26234.055,33898.635,-16320.24,-28558.665,9365.985,19810.575
1764511425.6195595,33927.165,40702.32,26232.57,33897.06,-16322.355,-28560.78,9366.03,19808.685
1764511425.6630566,33925.725,40701.105,26232.165,33896.16,-16323.165,-28561.5,9364.455,19808.19
1764511425.6630566,33928.11,40702.005,26233.605,33897.645,-16321.545,-28559.565,9365.355,19810.035
1764511425.6630566,33931.305,40705.695,26236.17,33900.84,-16318.08,-28555.785,9368.055,19812.78
1764511425.6630566,33929.595,40704.165,26234.235,33899.535,-16319.655,-28557.72,9366.66,19810.755
1764511425.6630566,33930.945,40705.92,26236.665,33901.695,-16317.855,-28555.155,9367.155,19812.96
1764511425.6630566,33928.38,40703.625,26234.82,33899.76,-16318.395,-28555.515,9366.66,19811.07
1764511425.6630566,33933.69,40708.755,26240.13,33904.53,-16313.625,-28550.475,9370.485,19816.155
1764511425.6630566,33932.655,40708.035,26238.96,33902.73,-16314.57,-28550.25,9369.27,19816.335
1764511425.6630566,33929.775,40704.795,26235.09,33899.535,-16319.115,-28554.795,9366.795,19813.41
1764511425.6630566,33929.505,40704.975,26235.27,33898.905,-16318.89,-28555.29,9366.165,19813.77
1764511425.6630566,33932.655,40708.08,26238.735,33901.695,-16315.02,-28551.735,9368.01,19817.325
1764511425.6630566,33931.71,40707.09,26237.205,33901.244999999995,-16315.605,-28551.69,9368.01,19816.47
1764511425.6630566,33929.505,40704.345,26234.055,33899.13,-16318.8,-28554.435,9366.12,19813.77
1764511425.6630566,33934.14,40708.98,26238.105,33903.18,-16314.57,-28550.34,9368.37,19817.91
1764511425.6630566,33935.625,40710.15,26239.41,33904.485,-16312.77,-28548.945,9369.54,19819.17
1764511425.6630566,33936.93,40711.77,26241.12,33906.735,-16311.78,-28547.415,9371.16,19821.375
1764511425.6630566,33936.975,40712.4,26241.48,33908.085,-16311.51,-28547.055,9371.97,19821.465
1764511425.6630566,33934.095,40708.485,26237.61,33904.035,-16314.84,-28550.07,9369.72,19817.64
1764511425.6630566,33933.869999999995,40708.305,26237.385,33904.035,-16315.38,-28550.25,9369.045,19817.145
1764511425.6630566,33937.11,40711.635,26240.76,33907.455,-16312.14,-28546.785,9370.125,19820.43
1764511425.6630566,33934.455,40709.205,26238.285,33905.61,-16314.48,-28548.405,9368.46,19818.27
1764511425.6640563,33936.435,40711.68,26240.355,33908.31,-16311.78,-28546.74,9369.045,19820.07
1764511425.6640563,33936.525,40711.455,26239.86,33909.21,-16312.77,-28546.83,9369.135,19820.43
1764511425.6640563,33936.57,40710.96,26239.32,33908.895,-16312.545,-28547.19,9369.405,19820.52
1764511425.7129772,33936.57,40711.005,26238.15,33909.48,-16312.455,-28547.73,9369.09,19819.845
1764511425.7129772,33937.02,40710.735,26238.555,33911.01,-16312.005,-28546.92,9369.9,19821.105
1764511425.7129772,33935.895,40708.845,26237.745,33910.29,-16312.77,-28548.45,9368.955,19819.53
1764511425.7129772,33932.385,40704.93,26234.37,33907.68,-16316.64,-28552.725,9365.49,19815.66
1764511425.7129772,33935.985,40708.17,26238.105,33911.595,-16313.22,-28548.765,9367.11,19819.035
1764511425.7129772,33937.335,40709.475,26239.23,33912.72,-16311.465,-28547.37,9367.785,19820.745
1764511425.7129772,33933.869999999995,40706.055,26235.495,33909.75,-16314.795,-28551.015,9365.445,19817.865
1764511425.7129772,33932.655,40704.48,26234.595,33909.66,-16315.155,-28552.455,9364.86,19816.83
1764511425.7129772,33933.555,40705.02,26235.36,33910.92,-16314.84,-28551.69,9365.13,19818.135
1764511425.7129772,33936.21,40708.17,26237.43,33913.485,-16312.725,-28549.125,9365.895,19820.43
1764511425.7129772,33934.05,40706.235,26234.685,33911.595,-16314.435,-28550.565,9364.905,19818.63
1764511425.7129772,33937.83,40710.105,26238.555,33915.285,-16310.475,-28546.245,9367.47,19822.5
1764511425.7129772,33938.82,40711.005,26239.635,33916.41,-16308.63,-28545.57,9368.28,19823.625
1764511425.7129772,33936.795,40708.485,26237.385,33914.385,-16311.375,-28547.865,9366.66,19821.87
1764511425.7129772,33933.51,40704.885,26233.56,33911.235,-16314.3,-28550.88,9364.23,19818.855
1764511425.7129772,33936.03,40706.91,26235.36,33913.08,-16312.815,-28549.53,9364.32,19820.07
1764511425.7129772,33933.96,40705.155,26234.055,33911.73,-16315.155,-28551.105,9363.33,19818.09
1764511425.7129772,33935.22,40707.0,26236.53,33913.575,-16312.95,-28549.17,9364.095,19820.205
1764511425.713951,33934.77,40706.82,26235.36,33913.08,-16314.12,-28549.44,9363.285,19819.395
1764511425.713951,33930.945,40702.455,26231.445,33909.93,-16317.18,-28553.535,9360.81,19815.435
1764511425.713951,33930.18,40701.825,26231.265,33909.345,-16317.72,-28553.4,9360.495,19814.355
1764511425.713951,33932.565,40704.03,26233.425,33911.28,-16316.01,-28551.06,9362.25,19816.335
1764511425.713951,33936.975,40708.17,26237.61,33915.645,-16311.285,-28547.055,9365.67,19821.195
1764511425.713951,33932.565,40704.435,26233.02,33911.145,-16315.515,-28551.015,9362.43,19816.92
1764511425.756087,33932.34,40703.895,26232.255,33910.515,-16314.975,-28551.465,9361.845,19816.695
1764511425.756087,33935.58,40706.055,26235.0,33912.72,-16311.96,-28548.18,9364.095,19819.485
1764511425.756626,33932.16,40703.13,26231.76,33910.695,-16315.155,-28550.475,9362.025,19816.335
1764511425.756626,33932.43,40704.03,26232.57,33912.045,-16314.93,-28550.205,9362.34,19816.29
1764511425.756626,33932.07,40704.345,26232.435,33912.585,-16313.58,-28550.115,9362.385,19816.56
1764511425.756626,33934.095,40706.73,26234.91,33914.88,-16311.195,-28548.045,9363.645,19818.765
1764511425.756626,33934.095,40706.415,26235.135,33914.16,-16311.465,-28548.45,9363.87,19818.855
1764511425.756626,33930.675,40703.265,26232.21,33909.885,-16314.165,-28550.07,9362.295,19815.75
1764511425.756626,33932.565,40704.705,26234.1,33912.045,-16312.635,-28548.315,9363.645,19818.54
1764511425.756626,33932.385,40704.21,26233.155,33911.369999999995,-16312.77,-28549.17,9363.24,19818.36
1764511425.756626,33930.405,40702.185,26231.625,33910.335,-16314.885,-28550.79,9361.62,19816.38
1764511425.756626,33929.73,40700.7,26230.77,33909.885,-16316.505,-28552.77,9360.36,19815.03
1764511425.756626,33931.26,40702.14,26231.445,33911.1,-16315.605,-28552.095,9361.44,19816.605
1764511425.756626,33932.295,40702.185,26231.445,33911.73,-16314.975,-28552.095,9361.71,19816.695
1764511425.756626,33930.81,40700.79,26230.23,33910.605,-16316.865,-28553.49,9360.945,19814.67
1764511425.756626,33932.565,40702.365,26231.985,33912.494999999995,-16314.885,-28551.195,9362.52,19817.145
1764511425.756626,33936.525,40705.83,26235.765,33916.68,-16311.06,-28547.955,9365.355,19821.375
1764511425.756626,33935.535,40705.335,26235.135,33915.78,-16312.14,-28548.315,9365.49,19820.7
1764511425.756626,33937.47,40708.125,26237.295,33918.03,-16309.98,-28545.345,9367.245,19822.95
1764511425.756626,33935.445,40705.425,26234.865,33915.735,-16312.05,-28548.405,9364.77,19820.97
1764511425.756626,33934.095,40704.66,26232.84,33914.97,-16313.085,-28550.115,9363.825,19820.16
1764511425.756626,33933.285,40703.445,26231.805,33913.89,-16313.58,-28551.105,9363.285,19819.08
1764511425.757645,33933.195,40703.13,26231.445,33912.855,-16314.12,-28551.645,9363.51,19819.395
1764511425.757645,33931.305,40701.96,26229.465,33911.73,-16315.65,-28553.085,9362.88,19818.18
1764511425.8071194,33928.65,40699.44,26227.17,33909.525,-16318.98,-28555.47,9361.395,19816.02
1764511425.8071194,33932.25,40703.445,26231.49,33913.35,-16314.525,-28551.42,9363.78,19820.43
1764511425.8071194,33933.195,40704.66,26232.525,33914.025,-16313.49,-28550.565,9364.86,19821.195
1764511425.8071194,33932.025,40704.21,26231.85,33912.9,-16314.39,-28551.555,9363.645,19820.7
1764511425.8071194,33931.53,40703.85,26230.86,33911.955,-16315.425,-28552.23,9362.835,19819.26
1764511425.8071194,33929.91,40702.68,26229.555,33910.38,-16316.82,-28554.03,9360.945,19817.685
1764511425.807632,33928.065,40700.52,26227.35,33908.22,-16318.35,-28556.055,9360.09,19816.695
1764511425.807632,33925.41,40698.675,26225.01,33905.835,-16320.285,-28558.17,9359.955,19815.3
1764511425.807632,33926.715,40700.475,26225.19,33906.915,-16319.88,-28557.27,9361.485,19816.38
1764511425.807632,33928.92,40702.365,26226.945,33908.985,-16316.64,-28554.615,9362.61,19819.44
1764511425.807632,33926.58,40699.035,26223.975,33906.78,-16318.98,-28556.64,9359.73,19817.055
1764511425.807632,33925.68,40698.405,26223.255,33905.25,-16320.15,-28557.99,9359.325,19815.75
1764511425.807632,33923.79,40696.92,26222.13,33902.82,-16322.265,-28560.825,9357.93,19813.5
1764511425.807632,33926.535,40700.295,26225.235,33905.475,-16319.52,-28557.81,9359.46,19816.11
1764511425.807632,33928.02,40701.465,26226.675,33906.78,-16317.945,-28556.865,9360.81,19817.1
1764511425.807632,33924.825,40697.73,26223.48,33903.81,-16321.05,-28559.745,9357.66,19814.265
1764511425.807632,33922.17,40695.48,26220.96,33900.975,-16324.605,-28562.67,9355.23,19811.97
1764511425.807632,33920.505,40693.77,26219.07,33899.13,-16326.585,-28563.975,9354.51,19810.26
1764511425.807632,33921.494999999995,40695.57,26221.005,33901.065,-16324.38,-28562.265,9354.645,19812.375
1764511425.807632,33921.81,40696.065,26221.5,33901.335,-16323.66,-28562.355,9354.78,19812.51
1764511425.807632,33920.01,40693.32,26219.025,33898.635,-16325.505,-28564.92,9353.34,19809.9
1764511425.807632,33924.69,40697.1,26222.895,33902.595,-16321.635,-28560.375,9356.985,19814.76
1764511425.8521829,33925.905,40698.63,26224.65,33903.36,-16320.735,-28558.89,9358.065,19816.785
1764511425.8521829,33926.76,40699.53,26225.37,33903.675,-16319.745,-28558.395,9358.29,19817.595
1764511425.8521829,33925.32,40698.225,26223.795,33902.46,-16321.32,-28560.42,9357.525,19816.245
1764511425.8521829,33920.19,40692.87,26218.8,33897.825,-16326.855,-28565.28,9353.745,19811.565
1764511425.8521829,33918.66,40691.52,26216.73,33896.43,-16327.845,-28566.495,9351.585,19810.305
1764511425.8521829,33918.165,40691.205,26215.65,33895.665,-16328.295,-28566.36,9351.495,19810.575
1764511425.8521829,33917.13,40690.62,26214.84,33894.54,-16329.915,-28567.53,9350.82,19809.135
1764511425.8521829,33917.31,40690.17,26214.39,33894.765,-16330.5,-28567.755,9350.325,19808.595
1764511425.8521829,33917.76,40689.54,26214.345,33894.315,-16330.41,-28568.43,9349.425,19808.46
1764511425.8521829,33918.3,40691.25,26215.785,33895.215,-16328.835,-28567.665,9350.91,19809.495
1764511425.8521829,33920.415,40694.355,26218.395,33898.68,-16326.27,-28564.335,9352.98,19812.42
1764511425.8521829,33919.155,40694.49,26218.575,33897.33,-16326.45,-28564.245,9354.105,19812.285
1764511425.8521829,33921.36,40696.335,26220.51,33897.96,-16324.11,-28562.22,9354.645,19814.04
1764511425.8521829,33916.994999999995,40691.295,26215.695,33892.92,-16328.115,-28565.775,9351.0,19809.18
1764511425.8521829,33919.244999999995,40694.49,26218.08,33895.755,-16326.18,-28564.065,9352.755,19811.7
1764511425.8521829,33919.605,40694.805,26218.62,33896.475,-16325.865,-28564.29,9352.89,19811.97
1764511425.8521829,33920.369999999995,40695.435,26219.7,33897.285,-16326.09,-28564.515,9353.79,19812.555
1764511425.8521829,33920.91,40695.66,26220.645,33897.51,-16325.73,-28564.47,9353.97,19813.77
1764511425.8521829,33918.885,40693.185,26217.855,33894.81,-16327.935,-28566.675,9352.53,19811.205
1764511425.8521829,33917.985,40692.96,26217.27,33894.494999999995,-16328.655,-28566.855,9351.585,19810.17
1764511425.8521829,33913.98,40689.135,26213.625,33890.265,-16332.03,-28570.59,9348.525,19806.03
1764511425.8521829,33917.175,40692.78,26216.82,33892.83,-16328.7,-28567.395,9351.18,19809.315
1764511425.8521829,33916.41,40691.745,26216.37,33892.695,-16329.105,-28568.07,9350.235,19809.045
1764511425.8521829,33911.91,40686.12,26211.465,33888.24,-16334.415,-28572.795,9346.095,19804.23
1764511425.89606,33909.885,40684.68,26209.035,33886.485,-16336.305,-28575.27,9344.565,19802.115
1764511425.89606,33913.17,40688.01,26211.915,33889.32,-16333.2,-28572.3,9347.085,19804.86
1764511425.89606,33910.785,40686.48,26210.475,33887.25,-16334.37,-28573.965,9346.32,19802.745
1764511425.89606,33914.43,40689.855,26213.895,33889.815,-16330.995,-28570.455,9349.2,19806.48
1764511425.89606,33913.17,40688.64,26212.86,33888.869999999995,-16332.795,-28571.67,9349.515,19805.535
1764511425.89606,33915.735,40691.52,26215.425,33891.66,-16330.995,-28569.69,9351.315,19808.415
1764511425.89606,33913.845,40689.405,26213.895,33889.77,-16333.38,-28571.85,9349.38,19806.435
1764511425.89606,33915.6,40691.61,26216.82,33890.535,-16331.265,-28570.14,9351.945,19808.415
1764511425.89606,33919.11,40695.795,26220.33,33894.18,-16327.53,-28565.595,9354.735,19813.455
1764511425.89606,33916.05,40692.825,26217.855,33891.119999999995,-16331.22,-28568.88,9352.935,19810.44
1764511425.89606,33918.255,40694.535,26219.835,33892.74,-16329.51,-28566.99,9354.915,19812.015
1764511425.89606,33922.485,40699.71,26223.93,33896.07,-16324.695,-28562.67,9358.605,19816.785
1764511425.89606,33920.055,40697.055,26221.545,33892.605,-16326.855,-28565.415,9357.66,19815.57
1764511425.89606,33920.415,40697.865,26221.545,33892.695,-16326.765,-28564.965,9357.705,19815.84
1764511425.89606,33923.205,40700.835,26224.47,33896.16,-16323.525,-28561.725,9358.875,19818.405
1764511425.89606,33922.485,40700.385,26224.605,33895.755,-16323.3,-28562.22,9358.875,19817.82
1764511425.89606,33918.795,40696.38,26220.285,33891.975,-16327.215,-28566.18,9355.68,19813.545
1764511425.89606,33923.475,40700.34,26224.02,33896.115,-16323.615,-28561.905,9358.47,19817.73
1764511425.89606,33924.24,40701.33,26224.785,33897.15,-16322.67,-28560.87,9359.46,19818.855
1764511425.89606,33921.045,40699.305,26221.995,33894.585,-16325.595,-28563.3,9356.49,19815.795
1764511425.89606,33918.21,40696.155,26218.935,33891.705,-16328.655,-28566.495,9354.735,19812.87
1764511425.899794,33919.2,40697.01,26220.33,33892.695,-16327.53,-28565.955,9355.545,19813.77
1764511425.899794,33922.619999999995,40700.07,26223.705,33896.25,-16324.83,-28563.255,9357.03,19816.29
1764511425.899794,33922.53,40700.115,26223.255,33896.295,-16324.83,-28563.39,9356.985,19816.155
1764511425.9425151,33922.575,40700.925,26223.975,33896.205,-16324.605,-28562.805,9357.93,19816.695
1764511425.9431503,33919.785,40697.865,26221.23,33893.595,-16327.215,-28565.415,9356.58,19814.355
1764511425.9441707,33920.145,40697.73,26221.32,33893.369999999995,-16327.215,-28565.325,9356.715,19814.22
1764511425.9441707,33922.395,40700.52,26223.48,33894.99,-16324.515,-28562.445,9358.785,19817.28
1764511425.9441707,33926.805,40705.29,26228.205,33898.86,-16320.69,-28557.36,9361.935,19822.455
1764511425.9441707,33925.635,40704.12,26227.395,33897.285,-16321.995,-28558.44,9361.62,19821.51
1764511425.9441707,33922.935,40701.96,26225.235,33894.494999999995,-16323.075,-28561.32,9360.81,19819.035
1764511425.9441707,33925.905,40705.605,26229.285,33897.33,-16319.52,-28557.495,9364.545,19822.995
1764511425.9441707,33924.015,40704.03,26227.71,33894.99,-16322.265,-28558.71,9363.78,19821.555
1764511425.9441707,33922.26,40702.86,26225.595,33893.145,-16323.795,-28560.465,9362.655,19819.98
1764511425.9441707,33922.665,40702.905,26225.55,33892.56,-16323.615,-28560.69,9362.7,19819.98
1764511425.9441707,33924.33,40704.93,26226.72,33893.91,-16322.265,-28559.43,9362.97,19821.555
1764511425.9451635,33922.845,40703.94,26225.595,33893.145,-16322.715,-28560.825,9362.385,19820.295
1764511425.9451635,33921.72,40702.635,26224.2,33890.895,-16324.425,-28562.22,9363.105,19818.405
1764511425.9451635,33923.07,40704.525,26227.17,33892.244999999995,-16323.345,-28560.69,9363.555,19819.665
1764511425.9451635,33919.695,40701.915,26224.425,33888.735,-16326.27,-28564.11,9361.26,19816.29
1764511425.9451635,33920.73,40703.355,26225.46,33888.825,-16324.92,-28563.435,9362.25,19816.92
1764511425.9451635,33922.305,40704.975,26227.98,33890.535,-16322.22,-28560.24,9363.285,19819.395
1764511425.9451635,33923.34,40705.56,26227.62,33890.13,-16323.615,-28561.095,9364.005,19820.43
1764511425.9451635,33919.244999999995,40701.33,26224.425,33886.575,-16327.215,-28564.065,9362.295,19816.515
1764511425.9451635,33920.1,40702.5,26225.955,33888.285,-16325.595,-28563.57,9362.97,19817.595
1764511425.9451635,33916.185,40698.855,26221.905,33883.875,-16329.285,-28568.79,9360.54,19813.59
1764511425.9451635,33913.98,40697.775,26220.51,33882.435,-16331.445,-28570.275,9359.325,19811.97
1764511425.9466035,33915.96,40700.07,26222.58,33884.19,-16329.015,-28567.71,9359.91,19813.545
1764511425.9939878,33914.52,40698.63,26221.185,33881.895,-16330.635,-28569.69,9359.235,19812.06
1764511425.9939878,33910.244999999995,40695.03,26217.405,33877.619999999995,-16335.18,-28573.74,9356.22,19807.74
1764511425.9949846,33913.395,40697.82,26220.78,33881.085,-16332.3,-28570.815,9358.29,19811.16
1764511425.9949846,33913.485,40698.36,26220.735,33880.905,-16331.67,-28571.13,9358.92,19812.105
1764511425.9949846,33911.775,40697.64,26218.575,33879.06,-16332.615,-28572.57,9358.29,19811.205
1764511425.9949846,33908.85,40694.13,26215.11,33875.505,-16335.72,-28575.765,9355.905,19807.695
1764511425.9949846,33908.535,40694.355,26215.92,33875.595,-16335.99,-28575.72,9356.31,19807.29
1764511425.9949846,33909.93,40695.66,26217.18,33876.945,-16334.595,-28574.595,9357.795,19808.505
1764511425.9949846,33912.63,40697.595,26219.43,33879.015,-16332.345,-28572.03,9359.37,19811.745
1764511425.9949846,33909.795,40694.625,26216.37,33876.494999999995,-16335.585,-28574.685,9357.66,19809.495
1764511425.9949846,33909.57,40695.255,26216.82,33876.36,-16335.765,-28575.045,9357.03,19808.91
1764511425.9949846,33906.33,40691.835,26213.76,33872.04,-16339.14,-28578.285,9354.51,19805.67
1764511425.9949846,33911.73,40697.505,26219.79,33876.27,-16333.695,-28573.605,9359.19,19812.105
1764511425.9949846,33911.91,40698.675,26220.195,33877.035,-16333.65,-28572.525,9359.73,19813.32
1764511425.9949846,33909.21,40696.29,26218.215,33874.244999999995,-16336.53,-28575.09,9358.335,19810.575
1764511425.9949846,33909.435,40697.235,26218.845,33874.02,-16335.855,-28574.37,9358.245,19811.385
1764511425.9949846,33906.285,40694.22,26215.605,33870.375,-16339.005,-28578.105,9355.905,19808.685
1764511425.9949846,33906.105,40693.86,26215.515,33869.34,-16338.555,-28579.005,9356.355,19808.46
1764511425.9949846,33906.915,40695.12,26216.91,33869.97,-16337.115,-28577.07,9357.255,19809.225
1764511425.9949846,33908.085,40697.19,26218.98,33872.22,-16334.91,-28574.91,9357.795,19810.98
1764511425.9949846,33907.41,40696.56,26217.855,33871.635,-16335.63,-28576.44,9357.525,19810.755
1764511425.9949846,33904.575,40694.085,26215.29,33869.07,-16338.105,-28579.41,9354.96,19808.1
1764511426.03953,33902.595,40692.15,26213.355,33866.055,-16340.085,-28581.84,9353.295,19806.075
1764511426.03953,33904.8,40694.58,26215.695,33868.035,-16338.105,-28579.95,9354.42,19808.82
1764511426.03953,33901.38,40691.7,26213.715,33865.605,-16340.535,-28582.965,9352.71,19805.85
1764511426.03953,33902.055,40692.78,26214.93,33866.415,-16338.915,-28581.21,9352.35,19807.245
1764511426.03953,33901.785,40692.465,26214.21,33865.56,-16339.365,-28581.48,9352.575,19806.48
1764511426.03953,33899.85,40690.62,26212.095,33864.345,-16341.705,-28583.415,9352.395,19804.77
1764511426.03953,33902.91,40693.545,26214.885,33866.82,-16338.51,-28580.76,9353.205,19807.875
1764511426.03953,33902.955,40692.825,26214.885,33867.135,-16338.33,-28580.985,9352.935,19807.785
1764511426.03953,33898.185,40688.55,26210.115,33864.03,-16342.56,-28585.125,9349.515,19803.645
1764511426.03953,33892.38,40683.42,26204.535,33858.81,-16347.735,-28590.705,9345.195,19798.56
1764511426.03953,33892.695,40684.005,26205.12,33858.72,-16347.645,-28589.85,9345.645,19799.37
1764511426.03953,33897.06,40687.785,26208.495,33861.42,-16343.955,-28586.34,9348.3,19803.15
1764511426.03953,33897.6,40687.605,26209.08,33861.735,-16344.27,-28585.395,9348.795,19803.33
1764511426.03953,33896.97,40687.605,26209.08,33861.78,-16344.72,-28586.295,9348.93,19803.42
1764511426.03953,33896.52,40687.425,26209.575,33862.005,-16345.35,-28587.15,9348.57,19804.14
1764511426.03953,33896.205,40687.65,26209.53,33862.59,-16345.665,-28587.555,9347.895,19803.735
1764511426.03953,33895.26,40686.12,26208.72,33862.41,-16346.205,-28587.6,9346.545,19803.24
1764511426.03953,33894.0,40684.32,26206.65,33862.005,-16347.33,-28589.265,9345.33,19801.935
1764511426.03953,33896.295,40685.805,26208.135,33864.119999999995,-16345.98,-28587.555,9346.77,19803.78
1764511426.03953,33893.64,40683.06,26205.66,33861.42,-16347.87,-28589.895,9344.88,19801.845
1764511426.03953,33897.42,40685.76,26208.18,33863.76,-16344.945,-28587.33,9345.555,19805.04
1764511426.03953,33892.29,40679.46,26203.23,33859.26,-16348.635,-28590.885,9341.235,19799.685
1764511426.03953,33892.83,40679.865,26203.86,33860.88,-16346.97,-28589.445,9341.46,19801.26
1764511426.03953,33890.985,40677.93,26202.06,33860.43,-16348.86,-28592.28,9340.245,19799.505
1764511426.083533,33894.855,40681.08,26205.48,33863.76,-16345.98,-28589.445,9341.55,19803.285
1764511426.083533,33892.605,40679.28,26202.915,33861.825,-16348.41,-28592.19,9339.705,19801.62
1764511426.083533,33893.055,40680.18,26203.41,33861.42,-16348.455,-28591.74,9339.93,19802.52
1764511426.083533,33898.635,40685.715,26209.17,33866.82,-16342.515,-28586.16,9344.79,19808.73
1764511426.083533,33898.23,40685.715,26209.08,33867.494999999995,-16342.29,-28586.34,9344.295,19809.45
1764511426.083533,33897.195,40684.32,26207.685,33866.145,-16343.415,-28587.33,9342.855,19808.145
1764511426.083533,33898.365,40685.76,26208.72,33866.955,-16342.11,-28585.755,9345.15,19809.765
1764511426.083533,33894.27,40682.205,26205.39,33863.58,-16345.8,-28588.68,9342.855,19806.345
1764511426.084546,33893.28,40681.44,26204.445,33862.95,-16346.565,-28589.31,9341.73,19805.49
1764511426.084546,33896.16,40683.33,26206.875,33864.615,-16344.54,-28587.555,9343.395,19807.29
1764511426.084546,33899.985,40686.795,26210.385,33867.945,-16341.075,-28584.45,9344.61,19810.89
1764511426.084546,33898.994999999995,40686.075,26210.07,33868.395,-16339.59,-28582.605,9344.385,19811.07
1764511426.084546,33900.075,40687.74,26210.34,33868.755,-16339.815,-28583.055,9345.33,19811.115
1764511426.084546,33901.38,40688.73,26211.15,33869.205,-16339.095,-28582.695,9346.005,19811.835
1764511426.084546,33900.75,40687.83,26210.385,33868.395,-16339.59,-28583.055,9345.555,19811.205
1764511426.084546,33896.025,40683.735,26206.11,33864.165,-16344.585,-28587.51,9342.855,19807.02
1764511426.084546,33896.115,40683.78,26206.47,33863.49,-16344.585,-28587.645,9343.305,19807.245
1764511426.084546,33898.68,40686.39,26209.125,33866.145,-16342.38,-28584.765,9344.745,19809.9
1764511426.084546,33898.095,40685.805,26208.27,33865.2,-16342.695,-28585.53,9344.88,19809.72
1764511426.084546,33902.955,40690.98,26213.22,33869.88,-16337.565,-28580.265,9348.705,19814.85
1764511426.084546,33903.405,40691.835,26213.805,33870.915,-16337.115,-28579.815,9349.065,19815.48
1764511426.084546,33903.405,40692.285,26213.67,33870.195,-16337.88,-28580.445,9348.795,19814.76
1764511426.084546,33903.63,40691.385,26212.68,33869.52,-16337.655,-28581.48,9348.075,19814.715
1764511426.084546,33904.53,40692.285,26213.13,33869.925,-16336.71,-28580.49,9348.84,19815.93
1764511426.1300771,33907.185,40694.355,26216.055,33872.22,-16333.695,-28578.195,9351.585,19818.18
1764511426.1300771,33905.385,40692.87,26215.11,33871.05,-16334.595,-28579.185,9350.28,19816.56
1764511426.1300771,33904.935,40692.645,26214.615,33870.105,-16335.63,-28579.14,9350.055,19816.245
1764511426.1300771,33902.28,40690.53,26212.095,33867.855,-16338.105,-28581.795,9347.985,19813.995
1764511426.1300771,33897.78,40686.435,26208.405,33864.03,-16342.695,-28585.845,9344.61,19809.855
1764511426.1300771,33894.855,40684.14,26205.975,33861.375,-16344.675,-28588.545,9342.945,19807.47
1764511426.1300771,33895.26,40685.265,26206.2,33861.96,-16344.36,-28587.78,9344.25,19808.685
1764511426.1300771,33898.68,40688.37,26209.44,33864.57,-16341.255,-28584.72,9346.635,19812.195
1764511426.1300771,33894.945,40684.815,26204.895,33860.295,-16344.99,-28588.41,9344.115,19808.19
1764511426.1300771,33895.619999999995,40684.635,26203.995,33860.61,-16344.945,-28588.455,9344.07,19808.055
1764511426.1300771,33898.005,40686.795,26206.29,33863.535,-16342.92,-28587.015,9345.42,19810.08
1764511426.1300771,33893.145,40682.565,26203.275,33860.25,-16346.655,-28591.11,9342.18,19805.175
1764511426.1300771,33892.605,40682.61,26203.185,33860.7,-16346.34,-28590.93,9341.37,19805.805
1764511426.1300771,33889.005,40679.28,26199.36,33857.01,-16349.805,-28594.98,9339.255,19802.475
1764511426.1300771,33889.23,40679.055,26199.81,33857.1,-16349.58,-28594.62,9339.66,19802.835
1764511426.1300771,33888.78,40679.1,26199.81,33856.605,-16350.12,-28594.035,9339.57,19802.61
1764511426.1300771,33889.905,40680.585,26200.71,33856.83,-16349.13,-28592.73,9340.605,19803.915
1764511426.1300771,33892.83,40683.195,26203.545,33859.53,-16346.34,-28589.805,9342.135,19807.38
1764511426.1300771,33891.21,40681.26,26201.655,33857.28,-16347.465,-28591.2,9341.145,19805.58
1764511426.1300771,33894.18,40684.32,26204.445,33859.755,-16344.225,-28588.365,9342.81,19809.0
1764511426.1778045,33894.9,40684.41,26205.12,33859.98,-16343.73,-28588.095,9343.665,19809.855
1764511426.1778045,33894.0,40683.825,26204.445,33858.855,-16344.99,-28588.86,9343.62,19809.0
1764511426.1778045,33892.02,40681.755,26203.185,33856.56,-16347.105,-28590.615,9342.945,19806.885
1764511426.1778045,33894.18,40684.32,26205.885,33859.17,-16344.99,-28588.095,9345.015,19808.775
1764511426.1778045,33890.805,40681.395,26202.15,33855.93,-16347.915,-28591.785,9343.485,19805.535
1764511426.1778045,33888.78,40680.315,26201.97,33853.455,-16347.375,-28591.965,9343.35,19804.77
1764511426.1778045,33887.88,40679.73,26201.295,33853.005,-16347.24,-28592.145,9342.945,19804.905
1764511426.1778045,33890.355,40681.35,26202.825,33854.895,-16346.25,-28590.84,9343.71,19806.885
1764511426.1778045,33888.06,40679.415,26200.755,33851.97,-16349.715,-28594.935,9341.955,19804.59
1764511426.1778045,33888.96,40680.135,26201.52,33852.105,-16349.985,-28594.575,9343.305,19805.355
1764511426.1778045,33891.795,40683.06,26204.76,33854.445,-16347.015,-28591.38,9345.105,19807.56
1764511426.1794617,33888.735,40679.865,26202.105,33850.53,-16349.895,-28594.395,9342.585,19804.41
1764511426.1794617,33890.085,40681.485,26203.05,33851.61,-16348.905,-28593.495,9343.125,19806.12
1764511426.1794617,33890.67,40682.295,26203.545,33851.835,-16348.5,-28592.865,9344.07,19807.605
1764511426.1794617,33889.05,40681.53,26202.42,33850.575,-16350.03,-28594.62,9343.44,19805.805
1764511426.1794617,33885.36,40677.93,26198.1,33846.3,-16353.945,-28598.445,9340.65,19801.395
1764511426.1794617,33884.505,40676.805,26197.155,33845.22,-16354.62,-28599.3,9339.885,19800.585
1764511426.1794617,33883.335,40676.58,26197.245,33844.59,-16355.025,-28600.02,9339.165,19800.18
1764511426.1794617,33882.345,40675.23,26196.66,33843.105,-16355.835,-28601.19,9337.995,19799.325
1764511426.1794617,33886.08,40679.055,26200.08,33845.67,-16352.28,-28598.04,9340.335,19802.79
1764511426.1794617,33885.63,40679.64,26200.305,33846.345,-16352.82,-28597.725,9340.245,19802.79
1764511426.1794617,33884.685,40678.83,26198.865,33845.715,-16353.855,-28598.13,9339.615,19802.16
1764511426.1794617,33883.605,40678.605,26198.505,33844.994999999995,-16354.17,-28598.805,9339.885,19801.62
1764511426.1794617,33884.01,40678.875,26198.82,33844.635,-16353.99,-28599.3,9340.245,19802.34
1764511426.1794617,33884.685,40678.92,26199.18,33844.994999999995,-16353.495,-28598.535,9339.975,19803.195
1764511426.1794617,33885.45,40679.145,26199.945,33845.625,-16353.585,-28598.58,9340.74,19803.645
1764511426.2265034,33882.21,40676.31,26196.12,33842.295,-16356.735,-28601.55,9338.985,19799.91
1764511426.2265034,33882.165,40675.905,26196.12,33842.835,-16356.42,-28601.595,9338.67,19799.73
1764511426.2265034,33885.36,40678.65,26199.045,33845.67,-16353.405,-28598.04,9340.515,19803.105
1764511426.2265034,33886.619999999995,40679.91,26200.215,33846.57,-16351.965,-28597.005,9341.325,19804.23
1764511426.2265034,33885.81,40679.595,26199.405,33845.94,-16352.775,-28597.815,9340.38,19803.24
1764511426.2265034,33884.685,40677.705,26197.47,33844.77,-16353.54,-28598.67,9338.58,19801.755
1764511426.227041,33884.415,40676.805,26196.66,33844.545,-16354.305,-28600.065,9338.04,19801.17
1764511426.227041,33880.86,40673.25,26192.655,33841.485,-16358.445,-28604.205,9335.295,19797.84
1764511426.227041,33883.605,40675.14,26194.905,33843.869999999995,-16356.42,-28601.64,9336.51,19800.585
1764511426.227041,33884.145,40674.555,26195.535,33843.869999999995,-16356.15,-28600.965,9337.455,19800.27
1764511426.227041,33882.075,40672.755,26193.96,33840.9,-16358.085,-28602.855,9336.285,19798.65
1764511426.227041,33885.405,40677.12,26197.785,33844.05,-16354.17,-28599.48,9338.4,19803.06
1764511426.227041,33884.955,40676.805,26198.055,33844.86,-16354.35,-28599.48,9337.815,19803.375
1764511426.227041,33884.91,40676.895,26197.605,33844.725,-16354.755,-28600.38,9338.22,19803.015
1764511426.227041,33884.505,40676.265,26197.155,33843.78,-16354.665,-28601.145,9338.445,19803.105
1764511426.227041,33880.365,40671.99,26192.925,33839.325,-16357.995,-28604.745,9335.16,19799.19
1764511426.227041,33881.355,40673.025,26193.42,33839.865,-16357.59,-28603.395,9336.24,19800.0
1764511426.227041,33884.685,40676.085,26196.93,33843.33,-16354.8,-28599.84,9337.32,19803.375
1764511426.227594,33882.84,40674.33,26194.905,33841.845,-16356.555,-28601.955,9335.295,19801.71
1764511426.227594,33880.05,40672.17,26192.745,33840.135,-16358.445,-28604.88,9334.53,19798.965
1764511426.227594,33881.895,40673.745,26194.725,33841.575,-16357.095,-28602.135,9335.34,19801.26
1764511426.227594,33880.635,40673.16,26194.23,33840.405,-16358.13,-28603.44,9334.98,19799.775
1764511426.2715244,33884.055,40676.355,26197.83,33843.645,-16355.61,-28601.145,9336.33,19802.835
1764511426.2715244,33883.785,40676.535,26197.92,33843.51,-16355.25,-28601.595,9336.78,19803.195
1764511426.2715244,33885.27,40677.93,26199.135,33844.994999999995,-16353.27,-28600.155,9337.32,19804.68
1764511426.2715244,33881.31,40674.87,26195.58,33842.205,-16356.24,-28603.575,9334.035,19800.945
1764511426.2715244,33883.065,40677.345,26198.145,33844.41,-16353.945,-28601.91,9334.845,19802.97
1764511426.2715244,33882.03,40676.13,26197.65,33842.925,-16354.125,-28602.585,9334.71,19802.43
1764511426.2715244,33885.225,40679.055,26200.44,33845.715,-16351.38,-28599.615,9336.555,19805.67
1764511426.2715244,33885.81,40679.64,26201.565,33846.885,-16350.255,-28598.085,9337.635,19806.255
1764511426.2715244,33883.56,40677.21,26199.945,33845.625,-16351.92,-28599.48,9335.97,19804.275
1764511426.2715244,33879.06,40672.845,26196.3,33842.43,-16355.565,-28603.35,9332.82,19799.64
1764511426.2715244,33877.619999999995,40670.73,26195.535,33841.845,-16356.465,-28603.98,9332.01,19798.47
1764511426.2715244,33881.265,40674.33,26199.045,33846.03,-16350.84,-28597.14,9336.15,19803.33
1764511426.2715244,33882.705,40675.095,26198.955,33847.155,-16349.895,-28595.43,9338.175,19805.49
1764511426.2725527,33882.705,40674.285,26197.38,33845.445,-16350.75,-28595.52,9338.355,19805.805
1764511426.2725527,33880.545,40671.405,26194.86,33843.24,-16352.865,-28597.365,9337.5,19803.87
1764511426.2725527,33877.305,40668.075,26191.35,33840.63,-16355.07,-28599.48,9336.24,19801.395
1764511426.2725527,33877.755,40668.66,26192.925,33841.619999999995,-16354.08,-28597.815,9336.96,19802.385
1764511426.2725527,33874.605,40665.465,26190.225,33838.965,-16356.78,-28600.425,9335.43,19799.46
1764511426.2725527,33873.705,40664.205,26188.695,33838.38,-16358.22,-28601.1,9334.71,19799.235
1764511426.2725527,33876.135,40665.87,26189.64,33839.415,-16356.915,-28599.48,9335.7,19801.17
1764511426.2725527,33874.11,40662.495,26184.87,33834.915,-16360.785,-28603.53,9334.17,19798.92
1764511426.2725527,33877.305,40665.465,26185.95,33835.725,-16358.58,-28600.92,9336.735,19803.42
1764511426.2725527,33877.035,40664.43,26182.53,33833.07,-16360.92,-28602.405,9336.285,19803.915
1764511426.2725527,33875.73,40662.9,26179.74,33830.595,-16364.115,-28605.51,9334.485,19803.285
1764511426.3200228,33873.075,40661.235,26177.58,33828.3,-16367.85,-28609.245,9333.045,19800.855
1764511426.3200228,33874.92,40663.89,26180.685,33829.83,-16367.445,-28609.29,9332.955,19801.665
1764511426.3210287,33875.91,40665.78,26182.755,33830.955,-16366.77,-28609.695,9332.73,19801.17
1764511426.3210287,33877.935,40668.075,26186.31,33834.465,-16364.34,-28607.67,9333.0,19802.25
1764511426.3210287,33881.715,40673.25,26191.53,33839.01,-16359.93,-28602.81,9334.845,19806.21
1764511426.3210287,33882.525,40674.195,26192.925,33839.505,-16358.355,-28602.675,9335.07,19807.47
1764511426.3210287,33882.119999999995,40673.205,26193.33,33839.235,-16358.895,-28603.53,9334.935,19807.155
1764511426.3220253,33882.165,40673.745,26193.735,33839.91,-16358.58,-28602.945,9335.745,19807.605
1764511426.3220253,33880.86,40673.52,26193.195,33839.28,-16359.48,-28604.43,9335.61,19806.75
1764511426.3220253,33878.16,40671.045,26190.63,33836.805,-16361.82,-28607.13,9333.81,19804.455
1764511426.3220253,33881.67,40674.78,26194.725,33840.135,-16358.805,-28603.395,9336.69,19807.965
1764511426.3220253,33879.869999999995,40672.305,26192.7,33837.75,-16360.785,-28605.78,9335.52,19805.67
1764511426.3220253,33879.78,40673.295,26192.7,33837.975,-16359.93,-28605.87,9335.385,19805.31
1764511426.3220253,33882.57,40676.76,26195.895,33840.72,-16356.375,-28602.27,9337.005,19808.28
1764511426.3220253,33882.119999999995,40675.77,26195.265,33840.045,-16357.005,-28602.18,9336.51,19807.785
1764511426.3220253,33882.525,40675.41,26194.77,33839.595,-16357.545,-28602.585,9335.835,19807.74
1764511426.3220253,33880.23,40672.62,26192.655,33837.57,-16359.615,-28605.015,9334.26,19805.805
1764511426.3220253,33883.47,40676.4,26196.93,33841.305,-16356.105,-28601.46,9336.735,19809.045
1764511426.3220253,33883.785,40676.535,26196.705,33841.485,-16355.475,-28600.74,9337.23,19809.405
1764511426.3220253,33880.05,40671.855,26191.98,33837.435,-16359.93,-28604.88,9334.17,19805.67
1764511426.3220253,33881.04,40672.305,26193.105,33839.01,-16359.075,-28603.755,9334.485,19806.615
1764511426.3230257,33884.505,40676.175,26196.885,33842.925,-16355.34,-28599.975,9337.095,19810.755
1764511426.3230257,33882.255,40673.385,26193.51,33840.99,-16357.635,-28602.72,9335.43,19807.92
1764511426.3230257,33881.58,40672.62,26193.06,33841.305,-16358.085,-28603.755,9334.62,19807.155
1764511426.368302,33884.505,40675.86,26196.165,33844.545,-16356.105,-28601.505,9336.33,19809.405
1764511426.368302,33883.155,40674.555,26194.815,33842.88,-16357.905,-28602.81,9336.465,19808.145
1764511426.368302,33882.57,40673.475,26194.455,33842.385,-16358.04,-28602.99,9335.655,19808.37
1764511426.368302,33883.65,40675.545,26195.625,33843.555,-16356.69,-28601.55,9336.105,19809.945
1764511426.368302,33885.675,40677.66,26197.02,33844.365,-16355.07,-28599.885,9336.78,19811.745
1764511426.368302,33882.075,40674.375,26193.33,33840.63,-16358.58,-28603.17,9334.71,19808.055
1764511426.368302,33881.625,40673.565,26192.97,33839.865,-16359.57,-28603.71,9333.855,19807.335
1764511426.368302,33882.03,40674.33,26194.41,33840.315,-16358.985,-28603.53,9334.395,19808.415
1764511426.368302,33882.119999999995,40674.24,26195.22,33840.63,-16359.255,-28603.98,9335.025,19808.55
1764511426.368302,33882.795,40675.32,26196.615,33841.35,-16357.86,-28602.945,9336.33,19809.99
1764511426.368302,33884.01,40677.435,26198.595,33842.07,-16355.88,-28601.64,9336.96,19811.97
1764511426.368302,33882.705,40676.265,26197.83,33840.945,-16355.925,-28600.74,9336.33,19810.845
1764511426.368302,33882.435,40675.77,26197.605,33840.18,-16357.455,-28602.09,9335.97,19810.125
1764511426.368302,33882.345,40675.86,26196.885,33839.82,-16357.455,-28602.72,9336.69,19809.63
1764511426.368302,33886.485,40680.315,26201.115,33844.455,-16353.585,-28598.13,9339.75,19814.76
1764511426.368302,33886.17,40681.035,26201.88,33844.86,-16353.18,-28597.545,9339.84,19815.66
1764511426.368302,33885.36,40680.405,26201.115,33844.23,-16353.72,-28598.445,9339.345,19814.805
1764511426.368302,33884.235,40678.605,26199.63,33842.925,-16355.115,-28600.02,9338.085,19813.68
1764511426.368302,33881.4,40676.445,26196.03,33840.225,-16357.59,-28602.99,9336.42,19810.845
1764511426.368302,33884.64,40680.135,26199.18,33842.97,-16354.305,-28599.705,9338.535,19813.905
1764511426.368302,33880.77,40675.545,26195.445,33839.685,-16358.445,-28603.53,9336.195,19809.855
1764511426.368302,33880.23,40674.96,26194.32,33839.369999999995,-16359.255,-28604.88,9335.88,19809.45
1764511426.368302,33880.275,40674.87,26193.15,33838.965,-16359.885,-28605.465,9335.52,19809.72
1764511426.368302,33884.055,40679.28,26197.335,33843.285,-16355.07,-28601.055,9338.22,19814.535
1764511426.415381,33884.46,40679.145,26198.19,33843.78,-16354.62,-28600.29,9338.58,19815.255
1764511426.416435,33881.22,40675.14,26194.41,33839.595,-16358.22,-28604.07,9335.745,19811.115
1764511426.416435,33880.455,40674.06,26193.105,33839.055,-16358.805,-28605.15,9335.295,19809.855
1764511426.4174538,33882.48,40676.805,26195.445,33841.26,-16356.78,-28603.215,9337.185,19812.6
1764511426.4174538,33883.875,40678.335,26197.02,33842.52,-16355.52,-28602.045,9338.58,19814.175
1764511426.4174538,33886.98,40681.215,26199.81,33845.31,-16352.73,-28598.715,9340.335,19817.46
1764511426.4174538,33885.315,40679.415,26197.605,33843.33,-16354.395,-28600.02,9339.12,19815.975
1764511426.4174538,33887.295,40681.575,26199.945,33845.535,-16352.055,-28597.32,9340.92,19818.405
1764511426.4184473,33884.64,40678.83,26195.94,33843.195,-16354.44,-28600.515,9339.12,19815.705
1764511426.4184473,33887.835,40681.26,26199.18,33845.895,-16351.74,-28597.32,9341.37,19818.18
1764511426.4184473,33892.2,40685.31,26203.905,33850.71,-16348.365,-28592.64,9344.295,19822.905
1764511426.4184473,33892.11,40684.95,26203.86,33850.035,-16348.59,-28593.18,9343.305,19822.32
1764511426.4184473,33889.994999999995,40683.285,26202.105,33848.28,-16351.38,-28595.79,9341.415,19819.395
1764511426.4184473,33891.525,40684.32,26203.455,33849.945,-16349.445,-28594.305,9341.955,19821.015
1764511426.4184473,33887.025,40678.92,26198.865,33846.075,-16352.595,-28597.05,9339.39,19817.055
1764511426.4184473,33887.205,40678.515,26198.505,33845.895,-16353.72,-28598.625,9338.715,19816.56
1764511426.4184473,33888.69,40679.595,26199.585,33846.66,-16352.235,-28597.905,9339.435,19817.865
1764511426.4184473,33890.85,40681.845,26202.33,33849.63,-16350.255,-28595.52,9340.29,19820.52
1764511426.4184473,33889.725,40680.18,26200.35,33848.55,-16351.155,-28596.15,9339.39,19820.07
1764511426.4184473,33895.26,40685.76,26205.705,33853.68,-16344.99,-28590.255,9342.855,19825.47
1764511426.4184473,33896.655,40686.39,26206.65,33854.76,-16344.18,-28588.545,9342.99,19825.785
1764511426.4184473,33895.08,40684.545,26204.445,33853.725,-16346.52,-28589.805,9341.73,19823.715
1764511426.4184473,33891.21,40680.81,26200.935,33850.395,-16349.4,-28593.18,9340.11,19820.61
1764511426.4199548,33892.02,40681.62,26201.97,33851.88,-16348.365,-28592.64,9340.425,19822.185
1764511426.4603713,33895.035,40684.005,26203.905,33854.895,-16346.115,-28589.94,9341.775,19824.795
1764511426.4603713,33892.47,40681.71,26201.295,33851.565,-16348.23,-28592.325,9340.335,19822.5
1764511426.4603713,33891.975,40681.935,26201.205,33851.61,-16347.465,-28592.19,9340.335,19823.13
1764511426.4603713,33895.935,40685.805,26205.03,33856.02,-16344.045,-28588.59,9342.18,19827.315
1764511426.461372,33894.27,40683.78,26203.005,33854.31,-16346.115,-28590.435,9339.48,19824.66
1764511426.461372,33891.885,40681.035,26200.395,33852.645,-16348.14,-28593.045,9337.86,19822.095
1764511426.461372,33893.685,40682.295,26202.105,33854.445,-16346.43,-28590.48,9339.435,19824.075
1764511426.461372,33890.355,40678.38,26198.73,33850.845,-16349.22,-28594.125,9336.735,19820.88
1764511426.461372,33890.13,40677.75,26198.055,33850.98,-16349.085,-28593.99,9335.97,19820.97
1764511426.4624836,33893.369999999995,40681.935,26201.745,33854.85,-16345.35,-28589.625,9338.04,19824.795
1764511426.4624836,33892.29,40681.395,26201.25,33853.815,-16345.98,-28590.03,9337.23,19823.895
1764511426.4624836,33889.23,40677.975,26198.28,33849.855,-16348.95,-28593.09,9335.16,19820.835
1764511426.4624836,33888.869999999995,40677.75,26198.28,33848.775,-16349.49,-28594.395,9334.305,19820.655
1764511426.4624836,33889.905,40679.235,26199.495,33848.505,-16348.455,-28593.99,9334.575,19821.6
1764511426.4624836,33890.625,40679.865,26201.115,33849.585,-16347.555,-28592.1,9334.755,19822.095
1764511426.463482,33894.585,40684.455,26204.805,33854.175,-16343.28,-28586.16,9337.995,19826.37
1764511426.463482,33895.305,40685.13,26204.895,33854.76,-16342.38,-28585.395,9339.705,19826.505
1764511426.463482,33893.595,40683.51,26203.455,33852.735,-16343.955,-28587.69,9337.095,19825.695
1764511426.463482,33888.869999999995,40679.1,26199.045,33849.765,-16348.005,-28591.38,9334.71,19822.185
1764511426.463482,33889.635,40679.82,26199.27,33850.755,-16348.095,-28592.28,9335.475,19822.68
1764511426.463482,33890.49,40681.53,26200.395,33851.88,-16346.745,-28591.695,9334.98,19823.445
1764511426.464479,33893.46,40685.175,26203.455,33854.895,-16343.055,-28588.68,9336.78,19825.965
1764511426.5095725,33889.14,40680.675,26199.855,33850.395,-16347.555,-28592.73,9333.99,19821.96
1764511426.5095725,33889.365,40681.485,26200.8,33850.395,-16347.42,-28592.19,9333.495,19822.455
1764511426.5095725,33892.02,40684.185,26203.59,33853.185,-16344.27,-28589.76,9335.43,19825.2
1764511426.5095725,33891.615,40684.5,26204.085,33853.005,-16343.865,-28589.715,9336.78,19825.56
1764511426.5095725,33895.619999999995,40688.37,26207.235,33857.1,-16340.94,-28586.385,9339.12,19828.98
1764511426.5095725,33895.755,40688.235,26207.46,33857.01,-16341.03,-28586.79,9338.76,19830.195
1764511426.5095725,33894.494999999995,40686.075,26206.47,33856.11,-16341.795,-28588.365,9338.04,19829.25
1764511426.5095725,33892.605,40684.23,26204.265,33854.355,-16343.955,-28590.48,9336.375,19827.225
1764511426.5095725,33894.405,40686.165,26205.48,33856.155,-16342.245,-28589.445,9336.78,19828.935
1764511426.5095725,33891.66,40683.78,26203.32,33854.715,-16344.72,-28591.92,9335.295,19826.505
1764511426.5105712,33891.3,40683.195,26203.86,33854.94,-16344.585,-28591.65,9335.745,19826.145
1764511426.5105712,33892.2,40683.465,26204.175,33856.785,-16342.965,-28590.165,9336.33,19826.91
1764511426.5105712,33894.18,40684.455,26205.66,33858.0,-16341.75,-28588.275,9336.96,19827.81
1764511426.5105712,33898.905,40689.36,26210.52,33862.32,-16337.205,-28583.55,9340.425,19833.075
1764511426.5105712,33897.195,40688.28,26209.08,33861.105,-16338.33,-28584.945,9339.705,19831.86
1764511426.5105712,33893.19,40684.365,26205.885,33857.235,-16342.02,-28588.275,9336.645,19827.63
1764511426.5105712,33895.395,40685.31,26207.595,33858.855,-16339.23,-28585.665,9337.23,19828.935
1764511426.5105712,33896.565,40687.065,26209.035,33860.61,-16339.095,-28585.53,9339.075,19829.565
1764511426.5105712,33893.82,40684.32,26205.525,33857.73,-16341.795,-28588.365,9337.32,19826.955
1764511426.5105712,33892.74,40683.285,26204.355,33856.92,-16342.2,-28588.455,9336.33,19826.64
1764511426.5105712,33892.335,40682.88,26204.895,33856.875,-16341.57,-28587.285,9336.555,19828.035
1764511426.5105712,33894.27,40684.95,26206.605,33859.08,-16338.69,-28585.35,9338.265,19830.6
1764511426.5105712,33891.66,40681.35,26202.33,33856.56,-16341.435,-28589.085,9336.285,19826.1
1764511426.5105712,33896.475,40686.12,26206.605,33861.195,-16338.105,-28585.845,9339.3,19830.195
1764511426.5554106,33896.565,40686.66,26207.505,33860.61,-16338.33,-28586.115,9339.48,19830.78
1764511426.5554106,33892.65,40683.105,26204.355,33855.93,-16343.235,-28590.345,9336.465,19826.82
1764511426.5554106,33894.81,40685.67,26206.83,33858.27,-16340.805,-28587.105,9338.355,19829.88
1764511426.5554106,33894.36,40684.905,26206.245,33858.45,-16340.76,-28587.105,9337.815,19829.655
1764511426.5554106,33892.92,40683.735,26204.31,33857.235,-16342.785,-28589.22,9336.69,19828.305
1764511426.5554106,33889.77,40680.405,26201.835,33853.23,-16346.565,-28592.505,9335.61,19825.29
1764511426.5554106,33889.455,40680.945,26202.195,33852.555,-16346.07,-28592.055,9335.745,19825.02
1764511426.5554106,33895.305,40685.895,26206.785,33856.695,-16341.93,-28587.87,9338.58,19829.475
1764511426.5554106,33893.19,40684.32,26204.58,33855.03,-16343.37,-28589.67,9337.635,19827.675
1764511426.5554106,33889.545,40680.585,26201.16,33851.61,-16346.07,-28592.415,9336.015,19823.85
1764511426.5554106,33892.38,40683.15,26203.185,33853.95,-16344.09,-28589.895,9337.365,19826.64
1764511426.5554106,33890.715,40681.485,26201.565,33852.06,-16346.115,-28591.605,9334.62,19825.245
1764511426.5554106,33889.905,40680.585,26201.34,33852.105,-16347.015,-28592.55,9334.08,19824.93
1764511426.5554106,33886.755,40677.12,26198.82,33849.765,-16349.49,-28595.835,9332.235,19822.185
1764511426.5554106,33888.555,40679.145,26199.72,33851.744999999995,-16348.005,-28594.17,9333.81,19823.76
1764511426.5563917,33886.125,40676.805,26197.38,33848.55,-16350.525,-28596.69,9332.37,19821.78
1764511426.5563917,33888.645,40679.01,26199.27,33850.035,-16348.41,-28595.25,9333.45,19823.895
1764511426.5563917,33888.465,40678.245,26199.18,33850.35,-16348.725,-28595.205,9333.045,19823.805
1764511426.5563917,33884.82,40673.745,26194.77,33846.3,-16352.955,-28599.165,9329.985,19819.89
1764511426.5563917,33886.71,40674.915,26195.76,33847.38,-16351.155,-28597.455,9331.335,19821.825
1764511426.5563917,33888.96,40676.4,26198.145,33849.945,-16346.745,-28593.315,9332.775,19824.75
1764511426.5563917,33887.43,40675.005,26195.805,33848.325,-16350.255,-28596.78,9330.75,19822.455
1764511426.5563917,33890.535,40678.155,26198.46,33851.744999999995,-16347.915,-28594.26,9332.91,19825.695
1764511426.5563917,33888.78,40675.815,26196.255,33849.99,-16348.86,-28595.115,9332.28,19824.255
1764511426.6013522,33890.67,40676.76,26196.57,33850.845,-16349.265,-28595.205,9332.1,19824.75
1764511426.6013522,33891.795,40677.885,26197.335,33852.555,-16348.32,-28593.675,9332.775,19826.37
1764511426.6013522,33895.305,40680.99,26200.125,33856.29,-16345.395,-28590.12,9334.845,19829.61
1764511426.6013522,33895.98,40681.62,26201.07,33857.19,-16343.955,-28588.77,9335.475,19831.41
1764511426.6013522,33895.98,40681.17,26201.295,33857.28,-16343.37,-28588.23,9335.43,19831.5
1764511426.6013522,33897.375,40682.205,26202.51,33859.17,-16342.515,-28586.79,9336.555,19832.85
1764511426.6023262,33897.735,40681.845,26202.42,33859.98,-16342.29,-28586.34,9336.645,19832.94
1764511426.6023262,33897.42,40681.53,26201.835,33859.619999999995,-16342.695,-28586.52,9336.285,19832.805
1764511426.6023262,33896.655,40680.81,26200.62,33859.035,-16342.65,-28586.655,9335.79,19832.67
1764511426.6023262,33894.135,40678.605,26198.685,33857.685,-16343.865,-28587.78,9334.26,19831.005
1764511426.6023262,33895.935,40680.63,26199.9,33860.7,-16341.75,-28585.62,9335.43,19832.49
1764511426.6023262,33894.405,40678.29,26198.055,33859.125,-16343.82,-28587.42,9334.035,19830.96
1764511426.6023262,33894.855,40677.66,26197.74,33860.25,-16343.775,-28587.645,9332.955,19831.14
1764511426.6023262,33894.45,40676.58,26197.11,33860.295,-16344.855,-28588.545,9332.145,19830.375
1764511426.6023262,33893.955,40676.085,26196.57,33860.07,-16344.99,-28588.545,9331.83,19830.555
1764511426.6023262,33891.84,40674.015,26194.455,33858.675,-16346.52,-28589.67,9330.93,19828.89
1764511426.6023262,33894.45,40676.265,26196.435,33861.195,-16343.55,-28586.88,9331.605,19832.13
1764511426.6023262,33894.0,40675.68,26195.4,33861.195,-16343.73,-28587.195,9330.795,19832.76
1764511426.6023262,33894.81,40676.805,26195.58,33862.05,-16343.55,-28586.79,9331.335,19832.895
1764511426.6023262,33892.785,40675.59,26194.41,33860.97,-16344.72,-28587.555,9330.48,19830.6
1764511426.6023262,33888.869999999995,40671.495,26191.215,33857.369999999995,-16348.185,-28591.515,9327.51,19826.505
1764511426.6023262,33890.895,40673.52,26193.465,33859.395,-16345.44,-28589.535,9327.555,19829.52
1764511426.6467066,33888.869999999995,40671.135,26190.18,33857.369999999995,-16348.095,-28591.245,9325.575,19827.27
1764511426.6467066,33892.335,40674.6,26192.52,33860.16,-16344.495,-28588.05,9327.465,19829.925
1764511426.6467066,33892.605,40675.095,26193.825,33860.88,-16344.315,-28586.97,9327.735,19830.735
1764511426.6467066,33891.57,40675.005,26193.87,33860.97,-16345.08,-28586.565,9328.455,19830.735
1764511426.6467066,33894.81,40678.335,26196.885,33863.715,-16342.695,-28583.37,9330.435,19833.525
1764511426.6467066,33889.365,40672.935,26190.72,33858.765,-16348.365,-28588.95,9325.44,19827.945
1764511426.6467066,33888.6,40671.27,26189.28,33857.595,-16349.67,-28590.3,9325.08,19826.82
1764511426.6467066,33890.985,40674.285,26192.205,33859.53,-16347.51,-28588.095,9327.555,19830.195
1764511426.6472208,33893.235,40676.58,26194.905,33862.095,-16344.315,-28585.755,9329.22,19833.57
1764511426.6472208,33890.58,40673.97,26191.62,33860.115,-16346.565,-28587.735,9327.78,19830.78
1764511426.6472208,33892.695,40676.085,26192.88,33862.095,-16345.17,-28585.935,9329.4,19832.985
1764511426.6472208,33894.585,40677.48,26194.95,33863.13,-16344.09,-28585.125,9331.2,19834.515
1764511426.6472208,33890.895,40675.05,26192.205,33859.8,-16347.42,-28588.815,9329.13,19832.04
1764511426.6482372,33892.47,40676.085,26193.69,33860.744999999995,-16346.565,-28587.33,9330.66,19833.705
1764511426.6482372,33895.845,40678.47,26197.155,33862.545,-16343.73,-28584.225,9333.0,19836.315
1764511426.6482372,33891.435,40674.465,26193.06,33858.405,-16347.375,-28588.995,9330.345,19832.22
1764511426.6482372,33892.11,40675.005,26193.195,33857.235,-16347.24,-28588.68,9330.795,19833.21
1764511426.6482372,33897.105,40679.595,26197.515,33861.51,-16342.29,-28584.81,9334.71,19838.205
1764511426.6482372,33896.61,40678.965,26196.84,33860.115,-16343.775,-28586.7,9334.305,19836.99
1764511426.6482372,33891.93,40675.005,26192.835,33855.615,-16348.5,-28590.705,9331.38,19832.31
1764511426.6482372,33892.695,40676.85,26194.32,33856.74,-16346.79,-28589.265,9331.785,19833.435
1764511426.6482372,33892.065,40675.995,26194.095,33855.435,-16347.24,-28589.67,9331.605,19832.94
1764511426.6974697,33889.635,40673.295,26191.71,33851.97,-16349.76,-28592.73,9330.66,19830.195
1764511426.6974697,33892.11,40675.995,26194.23,33854.67,-16347.06,-28590.885,9332.055,19832.22
1764511426.6974697,33889.905,40674.06,26191.53,33852.42,-16350.03,-28593.36,9329.58,19829.61
1764511426.6974697,33889.23,40672.305,26190.81,33850.305,-16350.795,-28594.17,9329.535,19828.395
1764511426.6974697,33885.81,40669.155,26188.245,33846.705,-16351.695,-28594.98,9328.23,19825.83
1764511426.6974697,33883.02,40667.715,26185.545,33844.23,-16355.16,-28598.49,9326.745,19823.58
1764511426.6974697,33888.195,40672.89,26189.37,33848.64,-16352.91,-28596.015,9329.895,19827.585
1764511426.6974697,33889.14,40673.475,26191.125,33849.045,-16352.64,-28596.15,9331.02,19828.17
1764511426.6974697,33886.755,40670.64,26188.2,33845.76,-16355.52,-28599.03,9329.625,19825.2
1764511426.6974697,33889.994999999995,40673.745,26190.585,33848.28,-16352.82,-28596.015,9331.875,19827.855
1764511426.6974697,33888.869999999995,40673.295,26190.135,33846.975,-16354.035,-28597.23,9331.155,19827.81
1764511426.6974697,33886.755,40671.63,26187.48,33845.085,-16356.69,-28599.75,9329.22,19825.155
1764511426.6974697,33889.635,40674.465,26190.63,33847.74,-16353.54,-28596.195,9331.875,19828.35
1764511426.6974697,33886.575,40671.315,26187.66,33844.815,-16355.97,-28598.85,9329.67,19825.11
1764511426.6974697,33888.375,40673.25,26188.92,33847.29,-16354.305,-28597.095,9329.895,19826.955
1764511426.6974697,33888.195,40673.115,26188.425,33846.84,-16353.855,-28597.05,9329.76,19826.91
1764511426.6974697,33884.685,40669.38,26184.96,33843.915,-16357.005,-28600.605,9326.295,19823.625
1764511426.6974697,33887.16,40671.405,26186.535,33846.705,-16354.575,-28598.175,9327.015,19825.605
1764511426.6974697,33884.865,40668.885,26184.555,33845.895,-16356.645,-28599.66,9325.485,19823.4
1764511426.6974697,33885.18,40669.155,26184.42,33847.11,-16356.195,-28598.625,9324.9,19822.905
1764511426.6974697,33886.98,40670.73,26185.41,33848.595,-16353.945,-28596.87,9324.585,19824.93
1764511426.6974697,33886.215,40669.155,26185.185,33847.83,-16354.89,-28597.23,9324.18,19824.615
1764511426.6974697,33887.52,40670.73,26186.22,33850.395,-16352.91,-28594.62,9324.855,19826.145
1764511426.6974697,33883.875,40666.905,26181.99,33848.01,-16356.105,-28598.22,9322.11,19822.095
1764511426.6974697,33883.155,40666.5,26181.495,33847.92,-16356.645,-28599.165,9321.255,19821.87
1764511426.6974697,33883.605,40667.265,26181.36,33849.45,-16355.52,-28597.86,9320.805,19822.995
1764511426.7418072,33885.585,40668.48,26183.07,33850.89,-16354.17,-28596.015,9321.12,19824.075
1764511426.7418072,33881.895,40664.745,26179.425,33847.785,-16357.68,-28598.445,9318.915,19820.835
1764511426.7428172,33881.265,40665.42,26179.11,33848.28,-16357.77,-28598.58,9319.455,19821.645
1764511426.7428172,33882.075,40665.915,26180.19,33847.965,-16356.69,-28597.77,9319.5,19822.005
1764511426.7428172,33880.185,40664.16,26178.885,33846.66,-16358.085,-28599.48,9318.105,19820.745
1764511426.7428172,33880.185,40664.43,26179.065,33846.48,-16357.95,-28599.255,9317.835,19820.61
1764511426.7428172,33882.525,40667.085,26181.405,33848.82,-16355.475,-28597.545,9319.275,19822.77
1764511426.7438166,33881.31,40665.375,26179.56,33847.2,-16356.645,-28598.4,9318.42,19821.645
1764511426.7438166,33878.205,40661.865,26176.77,33843.42,-16359.345,-28599.93,9316.08,19818.81
1764511426.7438166,33876.494999999995,40661.325,26175.645,33840.945,-16361.145,-28601.82,9315.855,19817.37
1764511426.7438166,33879.555,40665.105,26178.525,33842.475,-16358.175,-28599.12,9318.15,19819.935
1764511426.7438166,33877.53,40663.53,26177.76,33840.36,-16359.705,-28600.56,9317.115,19818.18
1764511426.74481,33875.055,40660.83,26174.655,33837.66,-16363.26,-28604.745,9315.495,19815.21
1764511426.74481,33878.97,40665.42,26179.02,33840.45,-16360.965,-28602.09,9318.285,19819.26
1764511426.74481,33878.115,40665.51,26179.605,33839.145,-16361.64,-28603.215,9318.69,19819.035
1764511426.74481,33878.565,40666.77,26180.1,33838.2,-16360.875,-28603.305,9320.535,19819.395
1764511426.74481,33876.405,40664.97,26178.12,33834.735,-16362.54,-28605.375,9319.545,19817.28
1764511426.74481,33871.86,40661.1,26173.98,33830.369999999995,-16367.04,-28610.145,9316.71,19812.96
1764511426.74481,33874.785,40663.845,26177.58,33833.25,-16364.34,-28607.355,9319.725,19815.93
1764511426.74481,33876.72,40665.87,26179.155,33833.43,-16363.395,-28606.41,9321.48,19817.235
1764511426.74481,33876.045,40665.375,26179.47,33832.485,-16363.755,-28606.77,9321.255,19817.055
1764511426.74481,33874.244999999995,40662.72,26177.445,33829.695,-16365.69,-28609.695,9320.67,19815.12
1764511426.7864397,33874.605,40663.125,26178.705,33831.27,-16365.015,-28608.615,9321.3,19815.795
1764511426.7864397,33876.585,40664.52,26179.785,33833.835,-16363.215,-28606.59,9321.525,19818.045
1764511426.7864397,33872.715,40660.92,26175.33,33831.36,-16366.455,-28610.1,9319.095,19815.12
1764511426.7864397,33875.73,40662.99,26177.4,33834.285,-16364.34,-28607.04,9320.67,19817.28
1764511426.7864397,33880.185,40666.41,26181.135,33839.46,-16359.39,-28602.495,9322.83,19821.105
1764511426.7864397,33879.015,40664.385,26180.46,33839.46,-16360.38,-28601.865,9321.885,19820.835
1764511426.7864397,33877.08,40662.135,26177.175,33837.93,-16362.945,-28604.97,9320.22,19818.765
1764511426.7864397,33877.395,40661.91,26176.68,33839.055,-16362.63,-28604.205,9319.815,19819.305
1764511426.7864397,33875.64,40659.84,26175.465,33838.244999999995,-16362.045,-28603.665,9318.69,19818.18
1764511426.7864397,33877.305,40661.46,26176.005,33839.73,-16362.315,-28603.485,9318.06,19819.08
1764511426.7864397,33879.96,40664.25,26179.155,33843.96,-16359.345,-28600.38,9319.545,19823.085
1764511426.7864397,33879.42,40662.81,26177.85,33843.51,-16359.93,-28601.055,9318.33,19822.23
1764511426.7879632,33877.305,40659.795,26174.205,33841.665,-16362.315,-28603.305,9317.205,19820.07
1764511426.7879632,33881.85,40664.07,26178.435,33846.525,-16357.545,-28597.905,9319.815,19824.84
1764511426.7879632,33883.38,40665.06,26179.56,33848.91,-16356.15,-28596.555,9320.31,19825.965
1764511426.7879632,33882.615,40664.025,26179.38,33848.415,-16356.735,-28597.59,9319.455,19825.38
1764511426.7879632,33879.24,40661.28,26177.04,33845.805,-16360.245,-28600.92,9316.89,19822.365
1764511426.7879632,33881.445,40663.755,26179.155,33848.73,-16358.67,-28598.625,9317.43,19824.705
1764511426.7879632,33877.935,40661.145,26176.05,33846.119999999995,-16361.1,-28601.55,9315.54,19821.33
1764511426.7879632,33876.945,40660.875,26176.05,33844.994999999995,-16360.29,-28599.84,9315.63,19820.97
1764511426.7879632,33879.96,40664.52,26179.335,33848.55,-16357.32,-28597.725,9317.79,19824.885
1764511426.7879632,33878.25,40662.63,26177.715,33847.38,-16359.39,-28599.255,9316.755,19823.67
1764511426.8343952,33873.93,40658.535,26173.755,33843.465,-16363.485,-28603.44,9313.785,19818.81
1764511426.8343952,33877.305,40662.36,26177.22,33846.84,-16360.155,-28600.02,9316.395,19823.085
1764511426.8343952,33878.835,40663.935,26178.93,33847.92,-16358.31,-28598.355,9318.285,19825.11
1764511426.8343952,33877.35,40662.18,26177.715,33845.805,-16360.605,-28600.29,9317.07,19822.995
1764511426.8343952,33878.655,40663.755,26178.705,33847.47,-16359.255,-28598.805,9317.655,19824.21
1764511426.8343952,33877.845,40662.72,26176.86,33845.76,-16360.605,-28600.47,9317.025,19822.635
1764511426.8343952,33879.15,40663.71,26178.57,33846.885,-16359.84,-28599.345,9317.52,19823.355
1764511426.8343952,33875.685,40660.38,26175.105,33843.869999999995,-16363.17,-28602.54,9315.27,19819.485
1764511426.8343952,33876.045,40660.56,26175.195,33843.915,-16363.125,-28603.305,9315.855,19819.8
1764511426.8343952,33877.71,40661.91,26176.815,33844.86,-16362.315,-28602.405,9316.71,19821.15
1764511426.8343952,33879.78,40664.07,26179.83,33847.335,-16360.605,-28600.605,9318.33,19823.895
1764511426.8343952,33880.41,40665.465,26181.135,33848.505,-16359.705,-28599.345,9320.13,19824.975
1764511426.8343952,33879.285,40664.115,26179.74,33847.335,-16360.965,-28601.1,9319.635,19824.615
1764511426.8343952,33875.64,40659.795,26176.05,33843.375,-16364.34,-28605.24,9317.205,19821.465
1764511426.8343952,33874.695,40658.85,26175.06,33841.665,-16365.78,-28606.005,9316.845,19820.115
1764511426.8343952,33874.695,40657.905,26174.61,33840.54,-16365.78,-28606.365,9316.845,19819.035
1764511426.8343952,33873.795,40656.87,26173.71,33839.369999999995,-16366.5,-28607.58,9316.17,19818.0
1764511426.8343952,33875.505,40659.255,26175.015,33840.27,-16365.915,-28607.445,9316.395,19819.71
1764511426.8343952,33878.97,40662.495,26179.11,33843.6,-16362.63,-28603.53,9318.735,19822.995
1764511426.8343952,33877.98,40662.045,26177.76,33843.78,-16362.72,-28604.79,9318.15,19823.58
1764511426.8343952,33873.705,40657.185,26172.765,33839.415,-16367.22,-28609.29,9314.595,19818.945
1764511426.8343952,33877.305,40660.11,26175.69,33842.565,-16364.16,-28606.275,9316.035,19821.735
1764511426.8343952,33877.305,40660.02,26175.645,33843.06,-16364.25,-28606.005,9315.495,19821.735
1764511426.8343952,33872.445,40655.115,26170.785,33839.46,-16367.625,-28609.695,9312.21,19817.55
1764511426.8343952,33873.57,40656.105,26171.91,33840.99,-16366.005,-28608.795,9312.345,19818.495
1764511426.8343952,33876.63,40659.435,26174.565,33844.41,-16362.18,-28605.33,9314.19,19822.365
1764511426.8806548,33873.705,40656.285,26171.235,33841.575,-16364.88,-28608.075,9312.165,19819.575
1764511426.8806548,33872.13,40654.26,26168.985,33840.225,-16366.455,-28609.29,9310.005,19817.73
1764511426.8806548,33874.02,40656.015,26172.18,33843.78,-16364.025,-28606.32,9312.03,19820.835
1764511426.881166,33876.99,40659.885,26175.42,33847.605,-16360.695,-28603.17,9313.875,19824.12
1764511426.881166,33876.765,40659.615,26174.43,33847.605,-16361.1,-28603.935,9313.155,19823.76
1764511426.881166,33880.545,40663.215,26177.805,33851.295,-16357.815,-28600.695,9315.36,19827.63
1764511426.881166,33881.04,40663.485,26178.48,33852.105,-16357.545,-28599.75,9315.45,19827.855
1764511426.881166,33878.52,40660.56,26175.78,33849.945,-16359.93,-28601.73,9313.02,19825.155
1764511426.881166,33876.135,40657.68,26172.495,33847.065,-16363.08,-28604.115,9310.95,19822.23
1764511426.881166,33875.685,40657.365,26172.36,33847.02,-16363.035,-28603.53,9310.095,19821.06
1764511426.881166,33879.78,40661.55,26176.185,33851.115,-16359.255,-28599.165,9312.21,19824.93
1764511426.881166,33881.31,40662.36,26178.165,33853.005,-16357.77,-28597.59,9314.01,19827.54
1764511426.881166,33881.355,40662.54,26179.11,33853.905,-16357.59,-28596.645,9315.18,19828.26
1764511426.881166,33880.185,40661.055,26177.535,33852.825,-16358.895,-28598.175,9313.92,19827.045
1764511426.881166,33878.565,40658.895,26176.005,33851.655,-16360.11,-28599.39,9312.48,19825.65
1764511426.881166,33878.52,40658.535,26175.105,33850.26,-16361.055,-28599.57,9312.885,19824.525
1764511426.881166,33881.76,40662.09,26177.895,33853.185,-16357.545,-28596.375,9314.955,19828.035
1764511426.881166,33878.115,40658.715,26174.79,33850.71,-16361.235,-28600.29,9312.93,19825.02
1764511426.8821833,33879.33,40659.435,26175.78,33851.295,-16360.29,-28599.39,9313.74,19825.47
1764511426.8821833,33882.57,40662.27,26178.885,33854.535,-16356.915,-28596.015,9315.585,19828.215
1764511426.8821833,33880.68,40660.785,26177.715,33853.41,-16358.445,-28597.275,9315.045,19827.045
1764511426.8821833,33876.945,40657.23,26173.575,33849.09,-16361.955,-28600.515,9313.155,19823.31
1764511426.9298043,33876.405,40657.05,26173.71,33849.135,-16361.73,-28601.055,9313.11,19823.265
1764511426.9298043,33879.375,40659.21,26176.365,33851.52,-16358.985,-28598.355,9314.955,19826.145
1764511426.9298043,33876.81,40657.185,26174.43,33849.225,-16361.1,-28600.29,9313.65,19823.67
1764511426.9298043,33876.855,40658.22,26175.15,33849.63,-16360.335,-28599.57,9314.19,19825.02
1764511426.9298043,33880.32,40661.19,26177.67,33853.185,-16357.725,-28596.735,9316.305,19828.44
1764511426.9298043,33879.42,40660.11,26175.87,33852.42,-16359.03,-28598.22,9315.36,19827.225
1764511426.9298043,33878.655,40658.85,26174.34,33850.665,-16360.605,-28599.57,9314.955,19825.47
1764511426.9308248,33876.54,40656.735,26173.08,33848.145,-16362.225,-28601.055,9314.46,19823.67
1764511426.9308248,33879.69,40660.65,26176.95,33851.025,-16358.355,-28597.59,9316.62,19827.63
1764511426.9308248,33879.69,40660.605,26177.13,33850.665,-16358.49,-28597.905,9316.035,19827.63
1764511426.9308248,33879.51,40660.83,26177.445,33850.125,-16358.445,-28598.715,9316.485,19828.035
1764511426.9308248,33878.115,40660.02,26176.185,33847.785,-16360.155,-28600.785,9315.225,19826.37
1764511426.9308248,33875.055,40657.23,26173.08,33844.77,-16363.17,-28603.935,9313.605,19823.22
1764511426.9308248,33877.755,40659.57,26175.555,33846.885,-16361.235,-28601.64,9315.675,19825.29
1764511426.9308248,33875.55,40657.86,26173.26,33845.175,-16363.395,-28603.62,9313.74,19822.905
1764511426.9308248,33873.705,40655.835,26171.19,33843.15,-16364.97,-28606.005,9312.075,19820.835
1764511426.9308248,33872.04,40654.53,26170.02,33840.855,-16366.275,-28607.04,9311.355,19819.575
1764511426.9308248,33871.23,40654.305,26169.435,33839.46,-16367.13,-28608.435,9311.265,19819.125
1764511426.9308248,33871.41,40654.44,26169.885,33838.47,-16367.13,-28609.065,9312.03,19819.17
1764511426.9308248,33871.994999999995,40654.8,26169.03,33837.975,-16366.86,-28608.66,9312.165,19819.35
1764511426.9308248,33875.28,40659.12,26172.72,33841.17,-16363.845,-28605.195,9314.28,19822.59
1764511426.9308248,33875.775,40659.885,26173.395,33841.215,-16363.53,-28604.565,9314.73,19823.67
1764511426.9308248,33875.369999999995,40659.525,26173.305,33840.18,-16363.62,-28605.24,9314.595,19823.58
1764511426.9308248,33874.92,40658.625,26173.44,33839.055,-16363.305,-28605.6,9314.415,19823.175
1764511426.9748178,33873.21,40656.87,26171.685,33837.03,-16364.79,-28607.58,9312.84,19820.925
1764511426.9748178,33867.494999999995,40651.92,26166.33,33831.36,-16370.415,-28612.395,9309.285,19814.805
1764511426.9748178,33868.395,40652.55,26167.41,33833.43,-16369.605,-28612.26,9310.005,19815.21
1764511426.9748178,33868.98,40652.775,26167.41,33834.555,-16369.29,-28611.675,9309.555,19815.66
1764511426.9748178,33872.355,40656.42,26170.92,33837.3,-16365.33,-28608.075,9311.265,19819.53
1764511426.9748178,33873.705,40658.445,26173.62,33838.875,-16363.215,-28606.275,9313.02,19821.375
1764511426.9767478,33872.715,40656.87,26172.0,33837.93,-16364.79,-28607.535,9312.165,19819.755
1764511426.9767478,33869.565,40653.18,26168.13,33834.42,-16368.255,-28611.27,9309.915,19816.56
1764511426.9767478,33870.33,40653.765,26168.49,33834.51,-16367.625,-28611.27,9310.365,19817.37
1764511426.9767478,33875.369999999995,40659.255,26174.07,33839.505,-16362.27,-28605.645,9314.1,19822.905
1764511426.9767478,33875.415,40658.76,26173.485,33840.0,-16362.0,-28605.285,9314.235,19822.635
1764511426.9767478,33869.835,40653.36,26167.32,33834.105,-16367.49,-28610.865,9310.275,19816.92
1764511426.9767478,33870.645,40653.99,26168.445,33835.23,-16366.32,-28610.37,9311.49,19817.505
1764511426.9767478,33872.49,40655.295,26171.01,33837.435,-16362.72,-28606.95,9312.21,19819.71
1764511426.9773448,33871.815,40654.485,26169.66,33836.355,-16363.935,-28606.815,9311.805,19818.945
1764511426.9773448,33874.47,40657.635,26172.81,33838.92,-16361.01,-28603.53,9313.92,19822.185
1764511426.9773448,33871.86,40655.07,26171.145,33836.76,-16362.18,-28604.52,9313.11,19819.845
1764511426.9773448,33872.76,40655.655,26170.785,33838.38,-16362.495,-28605.015,9313.515,19820.475
1764511426.9773448,33871.635,40654.845,26169.57,33837.705,-16363.305,-28605.69,9312.12,19819.98
1764511426.9773448,33874.425,40657.545,26171.73,33839.505,-16362.0,-28604.61,9312.705,19821.78
1764511426.9773448,33878.7,40661.73,26175.735,33844.23,-16358.58,-28600.695,9315.09,19825.11
1764511426.9773448,33877.17,40660.2,26174.97,33843.375,-16360.29,-28601.505,9313.785,19823.895
1764511427.022026,33875.91,40658.31,26173.71,33842.07,-16362.495,-28603.53,9312.48,19822.14
1764511427.022026,33874.83,40656.69,26171.595,33840.315,-16363.89,-28604.745,9310.995,19820.43
1764511427.022026,33878.43,40660.11,26175.105,33843.96,-16360.155,-28600.965,9313.02,19824.435
1764511427.022026,33877.53,40659.795,26174.655,33843.915,-16360.245,-28601.865,9312.93,19824.21
1764511427.022026,33875.01,40657.095,26171.685,33840.855,-16362.855,-28604.52,9311.895,19821.51
1764511427.022026,33878.385,40660.515,26174.43,33843.555,-16359.705,-28600.74,9314.37,19825.29
1764511427.022026,33879.78,40661.91,26175.06,33844.635,-16358.805,-28600.02,9314.685,19826.595
1764511427.022026,33879.42,40660.92,26174.835,33844.95,-16358.985,-28599.93,9314.505,19826.145
1764511427.022026,33876.765,40658.67,26172.63,33842.295,-16360.425,-28602.99,9313.11,19824.12
1764511427.022026,33872.535,40654.71,26168.985,33838.695,-16364.07,-28607.985,9309.69,19820.52
1764511427.023024,33876.99,40658.535,26173.35,33842.205,-16360.605,-28603.98,9312.345,19824.12
1764511427.023024,33877.845,40660.155,26174.88,33843.195,-16358.985,-28602.45,9313.11,19825.29
1764511427.024542,33877.755,40659.795,26174.385,33843.285,-16359.03,-28602.765,9313.065,19825.29
1764511427.024542,33877.215,40658.67,26173.53,33842.835,-16359.39,-28602.63,9312.84,19824.93
1764511427.024542,33877.035,40658.22,26174.16,33842.88,-16359.255,-28602.315,9312.57,19824.75
1764511427.024542,33876.81,40657.905,26173.935,33843.285,-16359.795,-28602.72,9312.57,19824.795
1764511427.024542,33876.135,40656.78,26172.99,33842.25,-16361.1,-28603.575,9311.805,19824.21
1764511427.024542,33874.74,40655.385,26171.46,33840.945,-16362.495,-28604.43,9311.76,19823.265
1764511427.024542,33877.17,40657.455,26173.755,33842.744999999995,-16359.705,-28602.765,9313.425,19825.29
1764511427.0260513,33873.03,40653.405,26170.155,33839.235,-16364.025,-28607.04,9309.87,19821.285
1764511427.0260513,33875.369999999995,40655.295,26171.82,33841.485,-16361.775,-28604.295,9311.355,19823.805
1764511427.0260513,33873.39,40653.855,26169.84,33839.775,-16363.845,-28606.455,9310.14,19822.005
1764511427.0260513,33873.119999999995,40653.27,26168.94,33840.0,-16364.115,-28606.59,9309.6,19821.735
1764511427.0260513,33873.03,40652.82,26168.76,33840.36,-16364.52,-28606.545,9309.42,19822.23
1764511427.0692472,33873.975,40653.675,26169.3,33841.08,-16364.205,-28605.465,9310.23,19823.625
1764511427.0692472,33875.505,40654.98,26170.02,33842.07,-16362.54,-28604.295,9310.59,19825.335
1764511427.0692472,33874.065,40652.37,26168.13,33840.54,-16364.565,-28606.23,9309.555,19823.445
1764511427.0692472,33875.82,40654.26,26170.605,33842.97,-16362.495,-28603.98,9311.355,19825.74
1764511427.0692472,33881.49,40659.795,26175.24,33847.56,-16357.68,-28598.265,9315.045,19830.42
1764511427.0692472,33879.78,40657.905,26173.26,33845.13,-16359.435,-28599.795,9313.11,19828.98
1764511427.0692472,33878.16,40656.69,26172.27,33844.185,-16360.695,-28601.55,9312.12,19827.945
1764511427.0692472,33876.855,40655.565,26172.0,33843.96,-16361.955,-28602.09,9310.68,19826.19
1764511427.0692472,33874.2,40652.46,26168.985,33840.855,-16364.745,-28604.925,9308.52,19822.995
1764511427.0692472,33876.135,40654.53,26170.695,33841.935,-16363.125,-28603.17,9309.51,19825.74
1764511427.0692472,33875.28,40654.395,26169.48,33840.135,-16364.43,-28604.205,9309.105,19824.57
1764511427.0692472,33877.485,40657.23,26171.73,33841.71,-16362.27,-28602.09,9310.095,19827.405
1764511427.0692472,33876.315,40657.14,26172.495,33840.99,-16362.315,-28602.945,9309.465,19826.73
1764511427.0697906,33873.93,40655.16,26170.695,33839.01,-16364.745,-28605.195,9308.205,19824.345
1764511427.0697906,33877.215,40658.31,26173.575,33841.17,-16361.505,-28602.63,9310.05,19827.225
1764511427.0697906,33874.155,40655.655,26170.605,33837.795,-16364.115,-28606.095,9308.295,19823.31
1764511427.0697906,33874.38,40656.825,26171.955,33838.92,-16363.845,-28605.195,9308.925,19823.265
1764511427.0697906,33875.46,40657.905,26174.205,33839.865,-16360.83,-28601.82,9309.825,19825.11
1764511427.0697906,33872.67,40655.295,26171.82,33837.435,-16363.44,-28605.015,9308.61,19822.23
1764511427.0697906,33876.945,40658.76,26175.825,33840.63,-16360.245,-28601.46,9311.355,19825.605
1764511427.0697906,33875.685,40657.455,26174.835,33839.955,-16360.74,-28601.955,9310.77,19824.435
1764511427.0697906,33870.195,40653.81,26171.145,33835.41,-16364.295,-28606.14,9307.935,19819.485
1764511427.0697906,33869.385,40653.405,26171.28,33834.825,-16364.34,-28606.725,9307.215,19818.675
1764511427.0697906,33869.925,40654.755,26172.36,33836.49,-16362.72,-28605.15,9308.61,19819.89
1764511427.117659,33874.83,40659.03,26176.095,33840.945,-16358.175,-28600.515,9313.335,19824.84
1764511427.1186771,33875.415,40659.345,26176.095,33840.72,-16356.69,-28598.4,9314.145,19826.235
1764511427.1186771,33873.3,40657.635,26173.935,33838.425,-16359.03,-28599.435,9313.29,19824.48
1764511427.1186771,33869.295,40652.82,26169.39,33834.78,-16362.945,-28603.035,9311.04,19820.88
1764511427.1186771,33870.96,40654.26,26171.37,33836.265,-16359.84,-28600.965,9312.12,19822.905
1764511427.1186771,33870.42,40653.0,26169.57,33835.05,-16360.11,-28600.92,9311.895,19822.23
1764511427.1186771,33867.315,40650.03,26166.465,33832.17,-16363.215,-28603.485,9311.22,19819.71
1764511427.1186771,33869.61,40652.01,26168.355,33834.24,-16360.695,-28600.965,9312.93,19822.23
1764511427.1186771,33870.42,40652.46,26168.085,33834.195,-16359.84,-28600.02,9313.47,19823.4
1764511427.1196704,33871.23,40652.235,26167.005,33832.935,-16359.84,-28599.705,9314.46,19824.3
1764511427.1196704,33871.185,40651.245,26165.16,33830.82,-16361.91,-28600.425,9314.01,19825.2
1764511427.1196704,33869.205,40648.905,26161.38,33827.355,-16366.23,-28603.215,9313.02,19824.03
1764511427.1196704,33869.475,40648.05,26159.985,33825.869999999995,-16367.49,-28604.655,9312.975,19824.12
1764511427.1196704,33871.455,40650.03,26161.155,33826.275,-16367.22,-28604.79,9312.93,19826.055
1764511427.1196704,33873.345,40652.82,26163.855,33828.435,-16366.905,-28604.295,9313.335,19827.225
1764511427.1196704,33870.869999999995,40651.56,26162.775,33826.994999999995,-16369.605,-28607.985,9310.995,19823.895
1764511427.1196704,33872.4,40653.27,26165.61,33828.075,-16368.75,-28607.22,9310.635,19824.66
1764511427.1196704,33873.345,40654.845,26167.005,33830.46,-16366.995,-28606.23,9310.68,19825.695
1764511427.1196704,33876.494999999995,40657.725,26169.795,33833.744999999995,-16363.935,-28603.17,9312.57,19827.945
1764511427.1207702,33876.494999999995,40657.545,26170.245,33833.16,-16364.115,-28603.035,9313.155,19827.495
1764511427.1207702,33880.41,40662.135,26174.43,33837.57,-16359.705,-28599.075,9315.585,19831.5
1764511427.1207702,33877.35,40660.245,26172.45,33835.635,-16362.0,-28601.505,9313.02,19828.935
1764511427.1207702,33879.51,40662.675,26175.42,33839.145,-16359.435,-28598.715,9314.91,19831.275
1764511427.1207702,33877.98,40660.47,26173.755,33837.705,-16361.865,-28600.605,9314.1,19829.79
1764511427.163468,33877.71,40659.345,26172.9,33837.03,-16362.18,-28601.775,9312.615,19829.655
1764511427.163468,33880.455,40662.135,26176.77,33840.045,-16359.165,-28598.085,9314.46,19832.4
1764511427.163468,33878.79,40661.235,26175.465,33838.875,-16360.38,-28599.255,9314.055,19831.41
1764511427.164481,33882.21,40665.555,26179.245,33842.25,-16356.465,-28595.475,9316.485,19835.145
1764511427.164481,33881.94,40665.015,26179.2,33842.205,-16356.915,-28594.935,9316.755,19835.1
1764511427.164481,33879.825,40662.765,26176.68,33839.91,-16358.805,-28597.095,9315.945,19833.12
1764511427.164481,33881.985,40664.115,26178.75,33841.71,-16356.645,-28595.295,9316.845,19835.82
1764511427.164481,33880.545,40662.99,26177.085,33840.855,-16358.67,-28596.195,9315.27,19834.605
1764511427.164481,33879.105,40662.405,26175.645,33840.135,-16359.48,-28597.59,9314.685,19832.76
1764511427.164481,33875.505,40658.22,26172.9,33836.76,-16361.775,-28599.885,9312.48,19828.98
1764511427.164481,33876.765,40659.885,26174.16,33838.695,-16360.605,-28599.525,9312.885,19830.915
1764511427.164481,33877.98,40660.875,26174.43,33839.685,-16359.705,-28599.075,9314.145,19832.4
1764511427.164481,33875.505,40658.355,26171.955,33836.31,-16362.225,-28601.28,9312.48,19829.835
1764511427.164481,33878.385,40661.73,26175.015,33838.47,-16359.435,-28597.815,9313.785,19832.715
1764511427.164481,33876.9,40659.885,26173.26,33836.805,-16361.415,-28599.57,9313.245,19831.41
1764511427.164481,33877.305,40660.2,26173.71,33837.119999999995,-16360.695,-28599.075,9313.605,19832.13
1764511427.164481,33882.345,40664.88,26178.48,33841.71,-16356.465,-28594.935,9317.295,19836.045
1764511427.164481,33881.805,40664.07,26177.715,33840.494999999995,-16357.32,-28595.88,9316.62,19835.415
1764511427.2100377,33877.08,40659.84,26173.395,33835.905,-16361.775,-28600.2,9313.47,19831.005
1764511427.2100377,33876.405,40659.795,26173.26,33835.77,-16361.91,-28600.695,9312.975,19830.015
1764511427.210404,33878.07,40661.595,26174.745,33836.265,-16360.335,-28599.525,9314.28,19832.22
1764511427.210404,33878.16,40662.045,26175.465,33836.715,-16359.12,-28598.4,9314.685,19833.75
1764511427.210404,33880.994999999995,40665.33,26178.93,33839.595,-16356.42,-28595.655,9316.395,19836.315
1764511427.210404,33880.005,40664.835,26178.48,33838.47,-16357.23,-28596.825,9316.035,19835.685
1764511427.210404,33874.56,40659.435,26174.205,33834.06,-16360.695,-28600.785,9312.705,19831.05
1764511427.210404,33875.82,40660.92,26174.79,33833.97,-16360.155,-28599.975,9313.65,19831.32
1764511427.210404,33880.32,40665.69,26178.705,33838.47,-16356.195,-28596.465,9316.755,19835.595
1764511427.210404,33879.195,40663.8,26177.175,33837.03,-16358.22,-28598.58,9315.495,19834.83
1764511427.2114043,33875.73,40660.11,26173.26,33833.52,-16362.0,-28601.64,9313.83,19830.78
1764511427.2114043,33878.655,40663.035,26176.455,33836.535,-16359.57,-28599.12,9315.36,19833.435
1764511427.2114043,33879.015,40663.035,26176.275,33836.895,-16359.48,-28599.12,9315.495,19833.795
1764511427.2114043,33875.775,40658.895,26172.63,33833.88,-16361.865,-28602.0,9313.11,19830.06
1764511427.2114043,33875.865,40658.76,26172.45,33833.7,-16362.45,-28601.55,9312.84,19830.555
1764511427.2114043,33878.655,40661.775,26175.285,33836.58,-16359.39,-28599.12,9315.27,19833.615
1764511427.2124083,33875.955,40659.66,26172.54,33834.195,-16361.775,-28602.27,9314.28,19831.455
1764511427.2124083,33876.405,40660.245,26173.215,33834.24,-16360.875,-28601.685,9314.145,19831.41
1764511427.2124083,33880.725,40664.97,26177.805,33838.83,-16356.42,-28596.78,9317.475,19836.225
1764511427.2124083,33878.97,40663.755,26176.77,33838.244999999995,-16357.995,-28597.77,9316.485,19835.64
1764511427.2124083,33877.08,40660.605,26173.62,33835.5,-16360.29,-28600.74,9314.91,19833.075
1764511427.2124083,33879.96,40663.53,26176.77,33837.795,-16356.735,-28597.59,9317.16,19836.72
1764511427.2124083,33877.755,40661.235,26174.61,33835.455,-16358.94,-28599.48,9316.17,19833.84
1764511427.2124083,33880.095,40663.485,26176.14,33837.075,-16356.33,-28596.51,9317.25,19835.55
1764511427.2124083,33880.86,40664.16,26176.095,33837.795,-16356.195,-28595.745,9316.26,19836.36
1764511427.2124083,33881.085,40663.665,26176.815,33838.29,-16356.195,-28595.7,9316.44,19836.72
1764511427.2582498,33880.41,40663.305,26177.175,33838.56,-16355.97,-28595.925,9316.35,19837.035
1764511427.2582498,33880.095,40663.35,26177.535,33839.01,-16355.88,-28595.34,9315.945,19836.99
1764511427.2582498,33879.195,40662.63,26176.905,33839.1,-16355.97,-28595.88,9314.82,19836.315
1764511427.2582498,33877.35,40660.695,26174.52,33837.57,-16357.32,-28598.13,9312.435,19834.11
1764511427.2582498,33875.46,40658.715,26172.36,33835.185,-16358.805,-28599.885,9311.58,19832.085
1764511427.2582498,33876.9,40658.805,26172.855,33836.895,-16358.22,-28598.58,9311.4,19832.715
1764511427.2582498,33873.705,40656.33,26169.345,33834.465,-16361.505,-28601.73,9309.33,19829.745
1764511427.2582498,33873.885,40655.88,26169.03,33833.744999999995,-16361.775,-28601.865,9309.195,19829.61
1764511427.2582498,33875.46,40657.41,26170.335,33835.185,-16360.47,-28600.83,9309.555,19830.87
1764511427.2582498,33879.555,40662.135,26174.745,33839.685,-16356.285,-28596.24,9312.435,19835.46
1764511427.2582498,33881.67,40663.395,26176.365,33841.53,-16354.935,-28594.98,9313.83,19836.945
1764511427.2592533,33881.715,40662.855,26176.005,33841.575,-16354.845,-28595.115,9313.92,19837.26
1764511427.2592533,33880.905,40662.36,26175.645,33841.17,-16355.745,-28595.565,9313.38,19836.495
1764511427.2592533,33879.195,40660.65,26173.485,33839.595,-16357.59,-28597.275,9311.76,19834.605
1764511427.2592533,33875.28,40656.285,26169.66,33836.13,-16360.65,-28599.84,9309.465,19830.78
1764511427.2592533,33876.135,40657.095,26171.19,33836.895,-16359.165,-28598.49,9310.005,19831.545
1764511427.2592533,33880.455,40661.235,26175.735,33840.72,-16355.88,-28593.99,9313.605,19836.405
1764511427.2592533,33879.375,40659.255,26174.34,33839.1,-16357.365,-28595.79,9312.615,19834.56
1764511427.2592533,33879.33,40659.57,26174.61,33838.56,-16358.265,-28595.745,9311.76,19834.875
1764511427.2592533,33882.345,40662.855,26177.85,33842.25,-16354.53,-28592.505,9313.38,19838.385
1764511427.2592533,33880.095,40660.785,26175.285,33841.08,-16356.24,-28594.62,9311.85,19836.585
1764511427.2592533,33880.095,40660.83,26174.745,33841.935,-16356.645,-28594.395,9311.76,19837.035
1764511427.2592533,33881.76,40663.035,26176.41,33844.32,-16354.395,-28591.92,9312.84,19839.06
1764511427.2592533,33878.744999999995,40660.47,26173.305,33841.98,-16356.6,-28594.215,9310.905,19836.54
1764511427.302852,33881.265,40662.585,26175.78,33844.14,-16354.215,-28591.515,9312.21,19839.78
1764511427.3038652,33881.985,40663.125,26176.995,33844.725,-16353.045,-28590.12,9312.66,19840.455
1764511427.3038652,33881.4,40662.315,26176.59,33844.455,-16353.54,-28590.39,9312.03,19839.6
1764511427.3038652,33878.295,40658.94,26173.08,33842.16,-16356.735,-28593.54,9309.96,19836.27
1764511427.304869,33880.41,40660.875,26174.88,33844.185,-16354.845,-28591.29,9310.815,19837.62
1764511427.304869,33881.04,40661.28,26175.555,33844.905,-16353.27,-28590.48,9311.22,19838.835
1764511427.304869,33879.645,40660.245,26174.61,33843.96,-16353.27,-28590.57,9311.31,19838.07
1764511427.304869,33877.08,40657.545,26173.26,33841.53,-16355.25,-28591.92,9310.14,19835.145
1764511427.304869,33880.32,40660.065,26175.465,33844.005,-16353.99,-28590.705,9311.625,19837.935
1764511427.304869,33876.63,40656.915,26172.405,33841.17,-16356.015,-28592.685,9309.42,19834.92
1764511427.304869,33878.385,40658.895,26173.8,33842.205,-16355.97,-28592.415,9309.87,19836.045
1764511427.3063796,33882.795,40663.89,26177.67,33845.76,-16351.515,-28588.23,9312.615,19840.59
1764511427.3063796,33881.31,40662.405,26175.96,33843.645,-16352.505,-28589.85,9312.615,19839.195
1764511427.3063796,33882.795,40664.025,26177.4,33845.085,-16350.165,-28587.87,9314.145,19841.22
1764511427.3063796,33880.95,40660.605,26174.385,33842.88,-16353.72,-28591.29,9312.21,19838.745
1764511427.3063796,33883.38,40663.035,26177.58,33844.95,-16351.335,-28589.22,9313.695,19841.31
1764511427.3063796,33879.06,40659.795,26174.295,33842.115,-16354.215,-28592.505,9311.535,19837.62
1764511427.3063796,33881.895,40662.945,26177.355,33845.355,-16350.975,-28589.58,9313.02,19840.545
1764511427.307396,33881.895,40662.945,26177.49,33845.355,-16351.065,-28589.49,9312.39,19840.68
1764511427.307396,33877.305,40657.725,26172.765,33841.08,-16355.295,-28593.405,9308.205,19835.595
1764511427.307396,33877.755,40658.22,26173.53,33841.619999999995,-16354.62,-28592.415,9307.98,19836.36
1764511427.307396,33877.71,40657.725,26173.395,33842.52,-16354.62,-28593.045,9308.07,19836.27
1764511427.307396,33882.57,40661.1,26177.535,33847.335,-16350.57,-28588.68,9311.355,19840.545
1764511427.308401,33883.02,40661.595,26177.67,33848.595,-16350.705,-28587.87,9311.94,19840.77
1764511427.34997,33879.78,40658.535,26175.015,33846.525,-16354.08,-28591.155,9310.14,19837.935
1764511427.34997,33882.119999999995,40660.38,26177.13,33848.46,-16352.235,-28588.995,9311.175,19840.32
1764511427.34997,33880.68,40658.58,26175.42,33847.155,-16352.46,-28590.165,9309.69,19838.205
1764511427.3503544,33884.73,40662.855,26179.695,33851.655,-16347.24,-28584.99,9313.335,19843.11
1764511427.3503544,33886.8,40664.925,26180.91,33854.13,-16345.8,-28582.515,9315.27,19845.27
1764511427.3503544,33885.405,40663.26,26179.785,33852.735,-16346.97,-28583.955,9313.965,19844.19
1764511427.3503544,33885.135,40663.17,26180.235,33852.51,-16347.465,-28583.19,9313.785,19844.235
1764511427.3503544,33883.155,40661.64,26178.255,33851.61,-16349.175,-28585.26,9311.805,19842.255
1764511427.3503544,33880.005,40657.77,26175.24,33848.91,-16351.92,-28588.68,9309.645,19838.88
1764511427.3503544,33881.67,40658.85,26176.365,33850.485,-16350.615,-28587.015,9310.95,19840.32
1764511427.3503544,33884.73,40662.63,26179.56,33853.32,-16347.24,-28583.55,9312.84,19842.75
1764511427.3503544,33884.325,40662.99,26179.245,33853.905,-16347.285,-28582.92,9312.48,19842.705
1764511427.3503544,33882.84,40661.91,26177.805,33853.86,-16348.32,-28583.73,9311.67,19841.22
1764511427.3503544,33881.22,40659.12,26176.545,33852.96,-16350.12,-28584.81,9310.905,19839.33
1764511427.3503544,33884.595,40661.91,26179.38,33856.38,-16347.015,-28581.435,9312.84,19842.435
1764511427.3503544,33883.785,40661.145,26178.615,33855.885,-16347.465,-28582.245,9312.705,19842.21
1764511427.3503544,33881.805,40659.12,26176.545,33853.635,-16349.355,-28583.82,9312.075,19839.555
1764511427.3503544,33882.165,40659.705,26177.175,33854.58,-16348.68,-28583.145,9312.03,19840.32
1764511427.3503544,33878.835,40656.645,26173.53,33852.06,-16351.155,-28586.745,9309.06,19837.305
1764511427.3509686,33880.41,40657.5,26174.385,33853.725,-16349.76,-28585.215,9308.97,19838.385
1764511427.3509686,33877.755,40654.53,26171.685,33851.385,-16352.865,-28587.51,9307.665,19835.595
1764511427.3509686,33878.07,40654.8,26172.495,33852.33,-16352.595,-28587.465,9308.295,19836.135
1764511427.3509686,33878.52,40655.475,26173.53,33852.825,-16351.605,-28585.62,9308.97,19837.125
1764511427.3509686,33880.905,40657.77,26175.33,33855.21,-16348.815,-28582.695,9310.32,19839.69
1764511427.394385,33885.045,40661.415,26178.66,33859.755,-16344.36,-28579.545,9311.985,19843.83
1764511427.395927,33885.405,40660.695,26178.39,33860.16,-16344.495,-28580.085,9311.76,19844.865
1764511427.395927,33884.1,40658.535,26176.5,33858.63,-16345.89,-28580.715,9310.545,19843.83
1764511427.395927,33881.085,40655.43,26173.17,33855.075,-16349.175,-28583.46,9308.385,19840.86
1764511427.395927,33883.965,40657.68,26175.915,33858.225,-16346.745,-28581.39,9309.285,19843.02
1764511427.395927,33884.055,40657.77,26175.375,33858.63,-16346.88,-28580.67,9309.15,19843.02
1764511427.395927,33883.875,40657.095,26175.06,33859.485,-16346.52,-28580.67,9309.285,19842.795
1764511427.395927,33884.01,40656.15,26173.98,33858.9,-16347.195,-28582.065,9308.205,19842.615
1764511427.395927,33879.51,40650.525,26168.31,33854.58,-16352.19,-28587.6,9304.11,19837.98
1764511427.395927,33880.95,40651.74,26169.795,33856.605,-16350.57,-28585.98,9304.785,19839.195
1764511427.395927,33883.65,40654.71,26173.26,33860.115,-16345.89,-28580.76,9307.35,19842.84
1764511427.395927,33878.52,40650.03,26168.535,33855.93,-16349.67,-28583.73,9304.155,19838.655
1764511427.395927,33881.535,40653.18,26170.02,33858.494999999995,-16347.78,-28581.975,9304.56,19841.355
1764511427.395927,33880.994999999995,40651.92,26167.995,33857.82,-16349.58,-28584.405,9303.345,19839.555
1764511427.395927,33881.49,40651.65,26168.49,33858.135,-16349.58,-28584.405,9303.795,19839.555
1764511427.395927,33882.975,40653.585,26170.47,33859.8,-16347.42,-28582.155,9306.0,19841.535
1764511427.395927,33885.81,40656.42,26172.135,33862.095,-16345.665,-28581.03,9307.08,19843.515
1764511427.3964543,33887.7,40658.13,26173.755,33862.905,-16344.405,-28578.645,9308.385,19844.82
1764511427.3964543,33889.23,40658.895,26173.53,33863.265,-16343.37,-28577.745,9308.88,19846.53
1764511427.3964543,33891.705,40661.28,26175.195,33866.28,-16340.22,-28574.595,9309.915,19849.545
1764511427.3964543,33890.985,40660.875,26174.7,33866.46,-16340.625,-28574.55,9309.51,19849.23
1764511427.3964543,33888.735,40657.95,26172.81,33864.119999999995,-16343.595,-28577.655,9307.035,19846.89
1764511427.3964543,33892.335,40661.46,26177.04,33867.99,-16340.49,-28574.37,9308.61,19850.445
1764511427.3964543,33892.785,40663.215,26177.805,33868.619999999995,-16339.23,-28573.605,9309.645,19851.3
1764511427.4443536,33890.4,40660.605,26175.195,33866.369999999995,-16341.795,-28576.485,9308.34,19849.14
1764511427.4443536,33893.46,40662.045,26176.995,33868.53,-16339.995,-28573.83,9309.06,19852.11
1764511427.4443536,33892.695,40662.18,26176.635,33868.619999999995,-16340.76,-28574.055,9308.655,19851.57
1764511427.4443536,33893.1,40662.81,26176.635,33869.7,-16339.995,-28573.65,9309.285,19852.02
1764511427.4443536,33893.775,40662.765,26176.725,33870.645,-16338.735,-28572.525,9309.96,19852.605
1764511427.4443536,33894.54,40662.765,26177.22,33870.96,-16338.825,-28571.94,9310.185,19852.65
1764511427.4443536,33894.09,40661.73,26176.68,33871.41,-16339.725,-28572.525,9309.465,19852.65
1764511427.4453566,33893.01,40660.335,26174.835,33870.645,-16341.435,-28573.2,9307.845,19851.255
1764511427.4453566,33891.975,40658.22,26173.035,33869.295,-16342.83,-28574.28,9307.035,19849.725
1764511427.4453566,33888.6,40655.16,26169.525,33866.28,-16345.53,-28577.43,9305.055,19847.205
1764511427.4453566,33888.735,40655.34,26169.705,33866.64,-16345.305,-28577.34,9305.145,19847.745
1764511427.4453566,33890.31,40656.555,26171.685,33868.485,-16343.37,-28574.775,9306.495,19850.4
1764511427.4453566,33891.075,40657.59,26172.18,33869.34,-16342.29,-28573.65,9307.08,19851.255
1764511427.4453566,33892.92,40659.705,26173.845,33871.41,-16340.085,-28572.165,9308.43,19853.01
1764511427.4453566,33890.22,40657.5,26170.695,33868.305,-16343.19,-28574.55,9306.99,19850.355
1764511427.4453566,33894.9,40661.82,26175.06,33872.67,-16339.41,-28570.545,9309.69,19853.775
1764511427.4453566,33895.44,40662.27,26175.915,33873.255,-16338.51,-28570.23,9310.455,19854.27
1764511427.4453566,33892.11,40658.22,26173.17,33869.565,-16341.39,-28573.965,9307.935,19850.895
1764511427.4453566,33894.18,40660.425,26175.15,33871.365,-16338.6,-28572.3,9310.05,19853.64
1764511427.4453566,33895.26,40661.325,26175.195,33871.994999999995,-16338.24,-28572.165,9311.4,19853.91
1764511427.4453566,33899.985,40665.105,26179.02,33876.225,-16334.415,-28567.53,9314.46,19858.23
1764511427.4453566,33901.02,40666.32,26180.1,33877.035,-16333.47,-28566.405,9315.405,19859.67
1764511427.4902823,33900.705,40665.285,26179.47,33877.35,-16333.74,-28566.405,9314.82,19859.22
1764511427.4902823,33901.155,40665.42,26179.83,33878.475,-16333.245,-28566.405,9315.405,19859.31
1764511427.4902823,33900.255,40664.835,26179.02,33878.16,-16334.19,-28567.305,9314.91,19857.96
1764511427.4902823,33900.795,40664.835,26178.705,33878.61,-16334.37,-28566.27,9315.09,19858.815
1764511427.4910326,33899.085,40663.305,26176.185,33877.17,-16335.495,-28567.89,9313.785,19857.285
1764511427.4910326,33893.055,40656.465,26169.66,33871.23,-16342.2,-28574.505,9307.845,19850.895
1764511427.4910326,33891.525,40654.71,26168.535,33870.06,-16343.595,-28575.945,9306.63,19849.86
1764511427.4910326,33893.28,40657.05,26169.705,33871.635,-16341.705,-28574.415,9308.16,19851.48
1764511427.4910326,33897.06,40661.235,26173.575,33874.65,-16338.465,-28570.455,9310.5,19855.26
1764511427.4910326,33898.05,40662.405,26174.61,33875.685,-16337.43,-28569.465,9311.445,19856.97
1764511427.4910326,33898.095,40662.72,26175.06,33876.09,-16337.295,-28568.97,9311.805,19857.375
1764511427.4910326,33896.97,40660.515,26172.945,33874.65,-16339.095,-28570.275,9311.22,19855.935
1764511427.4910326,33891.615,40655.835,26167.635,33869.16,-16343.415,-28575.315,9307.845,19851.21
1764511427.4910326,33892.244999999995,40658.085,26169.21,33869.835,-16341.66,-28573.605,9308.97,19852.29
1764511427.4910326,33893.64,40659.66,26172.0,33871.68,-16337.79,-28569.78,9310.32,19854.405
1764511427.4910326,33893.055,40658.67,26171.235,33871.095,-16339.455,-28572.03,9310.005,19853.46
1764511427.4910326,33892.02,40657.77,26169.66,33869.385,-16341.57,-28574.19,9309.195,19851.48
1764511427.4910326,33895.35,40661.235,26172.405,33870.96,-16338.555,-28571.175,9310.635,19854.585
1764511427.4910326,33896.61,40663.08,26173.755,33871.41,-16337.295,-28570.365,9311.985,19856.07
1764511427.4910326,33895.575,40661.685,26172.135,33870.645,-16338.105,-28571.67,9311.085,19854.09
1764511427.4910326,33898.32,40664.385,26175.33,33873.165,-16334.55,-28568.655,9312.435,19857.195
1764511427.4910326,33899.04,40664.475,26175.87,33873.885,-16334.145,-28567.98,9313.335,19857.645
1764511427.535337,33895.035,40660.92,26171.775,33870.869999999995,-16338.42,-28571.58,9311.355,19853.73
1764511427.535337,33897.195,40663.575,26173.665,33873.345,-16335.99,-28569.69,9313.515,19856.745
1764511427.535337,33901.74,40667.13,26177.445,33877.26,-16332.66,-28565.685,9316.8,19860.705
1764511427.535337,33897.195,40663.485,26173.53,33873.57,-16336.935,-28569.105,9313.47,19856.025
1764511427.535337,33895.619999999995,40661.73,26173.08,33872.85,-16338.105,-28570.365,9312.435,19854.315
1764511427.5363696,33896.385,40661.865,26173.305,33872.67,-16337.52,-28570.185,9312.795,19854.855
1764511427.5363696,33897.195,40663.17,26174.07,33873.255,-16336.485,-28569.015,9313.245,19855.8
1764511427.5363696,33898.68,40665.195,26175.645,33874.2,-16334.73,-28567.44,9314.235,19858.095
1764511427.5363696,33899.535,40666.86,26177.085,33874.74,-16333.875,-28566.495,9314.73,19859.67
1764511427.5363696,33895.08,40662.585,26172.18,33870.42,-16338.06,-28570.905,9311.13,19855.395
1764511427.5363696,33894.18,40661.505,26171.01,33870.285,-16337.745,-28571.58,9309.6,19853.91
1764511427.5363696,33892.605,40660.74,26169.84,33868.035,-16338.915,-28572.345,9309.06,19852.38
1764511427.5368774,33895.53,40663.71,26173.08,33870.78,-16335.135,-28568.295,9312.255,19856.745
1764511427.5368774,33894.855,40663.35,26172.27,33869.115,-16336.62,-28570.59,9310.995,19855.17
1764511427.5368774,33892.335,40660.785,26169.885,33866.505,-16339.365,-28573.335,9309.285,19852.605
1764511427.5368774,33895.575,40663.935,26173.26,33870.015,-16336.26,-28569.555,9311.49,19855.845
1764511427.5368774,33893.505,40662.405,26171.46,33867.855,-16338.015,-28571.04,9311.445,19854.045
1764511427.5368774,33893.325,40662.405,26171.505,33868.125,-16337.745,-28571.085,9311.085,19854.18
1764511427.5368774,33895.215,40664.43,26173.44,33869.835,-16336.845,-28568.88,9312.21,19856.88
1764511427.5368774,33900.795,40670.055,26178.66,33874.875,-16332.03,-28563.525,9315.765,19861.605
1764511427.5368774,33900.03,40669.83,26177.31,33873.66,-16333.2,-28564.785,9314.955,19860.615
1764511427.5368774,33896.52,40666.365,26173.98,33870.06,-16336.485,-28567.98,9312.885,19857.42
1764511427.5368774,33897.96,40667.49,26175.735,33871.86,-16334.505,-28567.125,9313.38,19858.725
1764511427.5368774,33894.36,40663.8,26172.18,33868.17,-16337.25,-28570.635,9310.32,19854.765
1764511427.5813613,33889.815,40658.895,26167.77,33864.345,-16341.48,-28575.09,9307.305,19849.995
1764511427.5813613,33890.805,40660.02,26168.535,33865.56,-16341.345,-28574.37,9308.295,19850.895
1764511427.5813613,33891.435,40661.505,26169.795,33865.605,-16340.445,-28573.695,9309.24,19851.93
1764511427.5813613,33892.02,40662.45,26171.28,33866.145,-16340.22,-28572.525,9310.05,19853.28
1764511427.5813613,33896.565,40666.455,26175.555,33870.78,-16335.81,-28568.115,9313.2,19857.24
1764511427.5813613,33897.6,40666.905,26176.23,33871.815,-16335.225,-28567.8,9314.325,19857.33
1764511427.5813613,33896.925,40666.86,26176.365,33870.869999999995,-16336.26,-28568.79,9314.01,19857.33
1764511427.5813613,33897.195,40666.905,26176.365,33871.275,-16336.665,-28568.655,9314.46,19857.465
1764511427.5813613,33896.744999999995,40666.32,26175.555,33869.88,-16337.07,-28569.465,9314.685,19856.475
1764511427.5813613,33892.11,40661.91,26170.92,33865.065,-16340.715,-28573.47,9310.905,19852.335
1764511427.5813613,33891.795,40661.28,26171.37,33864.795,-16340.76,-28573.92,9310.545,19852.47
1764511427.5813613,33893.64,40663.035,26173.17,33866.91,-16339.095,-28571.625,9311.67,19855.08
1764511427.5813613,33897.78,40666.95,26176.95,33870.869999999995,-16335.72,-28567.17,9314.055,19858.41
1764511427.5813613,33899.76,40668.21,26177.895,33872.04,-16334.46,-28565.595,9315.495,19859.535
1764511427.5813613,33897.869999999995,40666.23,26175.87,33870.735,-16335.945,-28567.395,9314.325,19857.915
1764511427.5813613,33894.405,40662.855,26171.685,33866.91,-16339.635,-28571.22,9311.67,19854.135
1764511427.5813613,33894.494999999995,40662.585,26171.82,33867.63,-16339.23,-28571.355,9311.31,19854.54
1764511427.582382,33897.015,40664.88,26174.745,33870.735,-16336.845,-28569.105,9313.92,19856.88
1764511427.582382,33901.92,40669.965,26180.01,33875.01,-16331.67,-28564.38,9317.835,19861.695
1764511427.582382,33899.895,40668.66,26178.12,33873.435,-16332.84,-28565.28,9316.17,19859.895
1764511427.582382,33893.595,40661.73,26172.405,33868.35,-16336.665,-28568.835,9312.075,19854.765
1764511427.582382,33893.415,40661.055,26172.405,33867.63,-16338.195,-28569.645,9311.985,19854.54
1764511427.582382,33894.63,40662.36,26174.07,33867.81,-16337.16,-28568.52,9313.47,19855.08
1764511427.582382,33897.33,40665.33,26175.555,33870.6,-16334.775,-28566.63,9314.235,19857.6
1764511427.630155,33896.43,40663.755,26173.71,33869.385,-16336.485,-28568.61,9312.03,19856.835
1764511427.6305,33894.18,40661.595,26172.0,33867.945,-16338.51,-28571.265,9310.545,19853.73
1764511427.6305,33889.635,40657.68,26167.32,33864.48,-16342.83,-28575.405,9307.53,19849.5
1764511427.6305,33893.415,40661.505,26170.47,33867.09,-16339.545,-28571.805,9309.645,19853.46
1764511427.6305,33895.755,40663.845,26172.135,33868.935,-16337.97,-28569.78,9311.58,19855.8
1764511427.631167,33895.17,40663.62,26171.505,33868.215,-16338.6,-28570.005,9311.67,19855.215
1764511427.631167,33894.99,40663.395,26171.37,33866.775,-16339.095,-28570.005,9311.67,19854.495
1764511427.631167,33892.965,40662.09,26169.885,33864.705,-16340.355,-28571.49,9311.085,19852.83
1764511427.631167,33895.665,40664.7,26172.675,33867.765,-16338.105,-28568.97,9313.74,19856.16
1764511427.631167,33899.67,40668.75,26176.635,33872.22,-16333.74,-28564.875,9316.53,19860.165
1764511427.631167,33898.095,40667.49,26175.735,33871.005,-16334.955,-28565.91,9315.63,19859.13
1764511427.632171,33893.595,40662.945,26171.37,33866.595,-16339.095,-28570.77,9312.435,19854.63
1764511427.632171,33894.855,40664.205,26171.685,33867.36,-16338.195,-28569.78,9312.75,19855.935
1764511427.632171,33894.72,40664.61,26171.37,33867.27,-16338.15,-28569.33,9312.615,19855.17
1764511427.632171,33894.81,40664.475,26171.055,33867.045,-16338.555,-28569.825,9313.02,19855.53
1764511427.632171,33892.785,40662.72,26169.255,33866.19,-16339.815,-28572.075,9311.31,19853.64
1764511427.632171,33892.335,40662.675,26169.885,33865.83,-16340.085,-28572.39,9311.535,19853.145
1764511427.632171,33891.03,40661.595,26169.345,33864.48,-16341.12,-28573.155,9310.77,19852.47
1764511427.632171,33890.085,40660.83,26168.4,33863.355,-16341.93,-28573.785,9310.77,19851.885
1764511427.632171,33894.225,40665.42,26173.08,33867.045,-16338.105,-28570.14,9313.245,19855.035
1764511427.632171,33893.595,40664.07,26171.505,33865.83,-16339.59,-28570.59,9313.47,19854.18
1764511427.632171,33894.045,40664.295,26172.0,33866.865,-16338.825,-28570.545,9313.695,19855.125
1764511427.632171,33896.61,40666.455,26174.7,33869.744999999995,-16335.945,-28569.105,9314.82,19857.51
1764511427.632171,33896.16,40665.69,26173.755,33868.26,-16336.845,-28570.86,9314.64,19856.745
1764511427.678721,33897.285,40667.67,26175.42,33869.655,-16335.945,-28569.15,9315.9,19858.59
1764511427.678721,33893.145,40663.035,26170.38,33866.055,-16340.805,-28573.605,9312.075,19854.54
1764511427.678721,33895.98,40665.375,26172.81,33868.17,-16337.925,-28571.76,9313.65,19857.33
1764511427.678721,33897.06,40665.78,26174.025,33868.71,-16336.845,-28570.095,9313.785,19858.005
1764511427.678721,33895.17,40664.295,26171.91,33867.675,-16338.285,-28570.77,9311.76,19856.385
1764511427.678721,33891.84,40660.65,26167.77,33863.715,-16341.39,-28575.045,9309.33,19853.55
1764511427.678721,33893.01,40662.45,26169.21,33864.48,-16340.58,-28573.74,9309.915,19854.495
1764511427.678721,33896.7,40666.23,26173.17,33868.305,-16336.89,-28570.365,9311.985,19857.915
1764511427.678721,33894.81,40663.89,26171.055,33866.595,-16338.645,-28572.165,9310.95,19856.205
1764511427.678721,33896.61,40665.51,26172.585,33868.305,-16336.935,-28570.86,9313.245,19858.14
1764511427.678721,33900.66,40670.145,26176.32,33872.445,-16332.84,-28566.45,9315.495,19862.46
1764511427.678721,33901.11,40671.09,26177.355,33873.165,-16331.67,-28564.92,9315.9,19863.495
1764511427.678721,33900.165,40669.56,26176.635,33872.58,-16332.525,-28565.64,9316.08,19862.46
1764511427.678721,33896.79,40665.825,26173.08,33869.79,-16335.54,-28569.33,9313.92,19858.68
1764511427.678721,33898.41,40667.76,26174.61,33871.185,-16333.875,-28568.25,9313.515,19860.615
1764511427.678721,33897.645,40666.635,26173.71,33870.42,-16334.37,-28569.375,9312.705,19859.445
1764511427.678721,33893.01,40661.955,26169.345,33865.335,-16338.465,-28573.515,9309.555,19854.765
1764511427.678721,33891.93,40660.11,26167.545,33864.119999999995,-16339.995,-28574.37,9308.205,19852.785
1764511427.678721,33893.01,40660.245,26167.86,33864.975,-16339.59,-28573.2,9308.835,19853.46
1764511427.678721,33896.7,40664.52,26171.28,33867.494999999995,-16335.945,-28570.05,9311.76,19857.015
1764511427.678721,33901.244999999995,40668.93,26175.645,33871.77,-16331.94,-28564.875,9314.955,19861.155
1764511427.678721,33896.925,40664.925,26172.135,33868.395,-16335.54,-28569.105,9312.075,19857.375
1764511427.724447,33893.28,40661.055,26168.85,33865.244999999995,-16336.755,-28570.14,9309.51,19855.08
1764511427.724447,33893.955,40661.01,26168.67,33865.695,-16336.665,-28569.33,9308.925,19855.35
1764511427.724447,33897.33,40663.845,26171.28,33870.285,-16333.56,-28566.09,9309.69,19858.275
1764511427.724447,33898.95,40665.24,26171.595,33871.275,-16334.1,-28566.855,9309.33,19858.59
1764511427.724447,33896.16,40661.82,26169.075,33869.205,-16337.295,-28569.24,9307.485,19855.575
1764511427.724447,33898.05,40662.315,26170.11,33871.41,-16335.405,-28568.07,9308.88,19857.735
1764511427.724447,33895.619999999995,40659.345,26167.41,33868.89,-16337.61,-28570.77,9306.9,19855.215
1764511427.724447,33896.205,40660.245,26168.22,33869.565,-16337.115,-28570.185,9307.035,19856.205
1764511427.724447,33898.635,40663.035,26170.875,33873.03,-16334.73,-28566.9,9308.88,19858.23
1764511427.724447,33894.9,40659.84,26166.78,33869.16,-16338.87,-28569.645,9305.595,19854.63
1764511427.724447,33898.32,40662.81,26169.57,33872.355,-16335.945,-28566.315,9307.53,19858.23
1764511427.724447,33897.555,40662.945,26169.795,33872.265,-16335.72,-28565.595,9308.385,19859.265
1764511427.724447,33897.51,40663.485,26169.66,33872.355,-16335.315,-28564.695,9309.285,19859.175
1764511427.724447,33896.07,40660.245,26167.635,33869.744999999995,-16337.655,-28567.215,9308.205,19856.655
1764511427.724447,33896.385,40660.47,26167.635,33869.295,-16337.565,-28567.26,9308.61,19856.925
1764511427.724447,33895.845,40660.47,26167.095,33868.8,-16338.555,-28567.44,9308.205,19856.385
1764511427.724447,33896.475,40661.19,26167.68,33868.755,-16338.15,-28567.26,9308.925,19856.07
1764511427.724447,33898.005,40662.81,26169.345,33870.24,-16336.305,-28565.955,9310.23,19857.555
1764511427.724447,33898.635,40664.295,26170.2,33871.635,-16334.595,-28564.065,9310.005,19858.41
1764511427.724447,33894.63,40660.335,26166.06,33867.494999999995,-16339.14,-28568.07,9307.26,19854.27
1764511427.724447,33897.555,40663.53,26169.435,33870.105,-16335.9,-28564.965,9309.24,19856.97
1764511427.724447,33899.175,40665.51,26171.145,33871.41,-16334.595,-28563.48,9310.86,19858.545
1764511427.724447,33899.31,40665.285,26170.83,33871.23,-16335.045,-28563.84,9311.67,19858.455
1764511427.724447,33896.43,40662.18,26167.68,33868.17,-16337.655,-28566.72,9310.23,19855.71
1764511427.7709432,33897.06,40662.72,26168.85,33868.98,-16337.61,-28566.945,9310.545,19856.52
1764511427.7709432,33900.3,40665.96,26171.955,33872.31,-16334.28,-28563.12,9312.21,19859.58
1764511427.7709432,33899.58,40665.015,26171.055,33871.994999999995,-16334.595,-28563.48,9311.175,19858.995
1764511427.7709432,33897.915,40663.44,26170.2,33871.32,-16336.215,-28564.83,9309.87,19857.96
1764511427.7709432,33897.869999999995,40663.17,26169.885,33871.455,-16336.17,-28564.425,9310.5,19858.455
1764511427.7709432,33896.115,40661.235,26167.77,33869.835,-16337.34,-28565.64,9309.195,19856.07
1764511427.7709432,33893.775,40658.805,26164.98,33867.0,-16340.13,-28568.79,9307.305,19852.92
1764511427.7709432,33896.34,40661.64,26166.96,33869.07,-16336.98,-28565.82,9309.555,19855.845
1764511427.7709432,33895.665,40660.83,26165.835,33868.395,-16337.565,-28566.72,9310.185,19854.99
1764511427.7719417,33893.685,40659.255,26163.855,33865.695,-16338.87,-28569.24,9309.96,19853.685
1764511427.7719417,33895.395,40661.955,26166.285,33866.1,-16337.205,-28567.62,9310.995,19855.485
1764511427.7719417,33891.795,40659.435,26163.81,33862.23,-16341.345,-28570.77,9308.97,19852.605
1764511427.7719417,33891.435,40660.02,26164.26,33861.96,-16340.805,-28570.68,9309.33,19852.605
1764511427.7719417,33893.01,40661.91,26166.465,33863.985,-16338.6,-28568.295,9310.725,19854.54
1764511427.7719417,33897.375,40665.735,26170.38,33868.755,-16335.135,-28565.055,9313.92,19858.41
1764511427.7719417,33896.25,40664.88,26168.895,33867.27,-16336.8,-28565.865,9312.48,19857.015
1764511427.7719417,33893.73,40662.945,26166.285,33865.02,-16339.05,-28567.845,9310.455,19855.395
1764511427.7719417,33890.58,40660.245,26163.405,33862.32,-16342.155,-28570.815,9309.285,19852.56
1764511427.7719417,33891.885,40660.92,26164.215,33863.355,-16341.21,-28569.825,9310.095,19853.325
1764511427.7719417,33895.71,40664.205,26167.68,33867.494999999995,-16336.755,-28565.73,9312.21,19857.69
1764511427.7719417,33895.26,40663.395,26166.285,33865.965,-16337.88,-28566.855,9311.265,19856.43
1764511427.7719417,33898.5,40667.085,26169.435,33868.53,-16334.865,-28563.345,9313.38,19859.625
1764511427.8165922,33899.22,40667.49,26170.155,33868.8,-16335.045,-28563.255,9314.055,19859.76
1764511427.8165922,33896.385,40664.34,26167.05,33865.92,-16337.79,-28565.64,9311.76,19857.33
1764511427.8165922,33896.835,40665.195,26168.58,33867.81,-16336.35,-28564.38,9311.805,19858.68
1764511427.8171067,33895.035,40664.07,26167.545,33867.585,-16336.845,-28565.55,9310.275,19857.69
1764511427.8171067,33894.81,40663.35,26165.925,33866.685,-16337.43,-28566.495,9310.005,19856.88
1764511427.8171067,33893.55,40661.82,26164.665,33864.93,-16337.745,-28567.26,9308.565,19855.485
1764511427.8171067,33889.86,40659.12,26162.595,33862.05,-16338.555,-28568.655,9306.99,19852.695
1764511427.8171067,33884.46,40654.395,26156.835,33856.875,-16343.28,-28574.28,9304.02,19848.015
1764511427.8171067,33885.585,40655.655,26157.105,33857.73,-16344.99,-28575.675,9303.66,19848.105
1764511427.8176167,33885.585,40655.385,26158.635,33858.27,-16344.495,-28574.73,9303.75,19848.6
1764511427.8176167,33883.785,40653.135,26157.6,33856.56,-16344.81,-28575.09,9301.95,19847.385
1764511427.818637,33886.26,40655.835,26158.455,33858.585,-16343.325,-28574.595,9302.445,19848.87
1764511427.818637,33884.82,40655.385,26156.835,33857.28,-16345.08,-28575.09,9301.905,19847.295
1764511427.818637,33882.435,40653.63,26155.125,33855.119999999995,-16347.24,-28577.43,9300.015,19845.585
1764511427.8196476,33880.86,40651.875,26153.955,33853.32,-16348.905,-28579.635,9298.71,19844.01
1764511427.8196476,33880.095,40652.145,26153.055,33852.735,-16349.265,-28580.265,9297.72,19843.47
1764511427.8196476,33882.93,40655.295,26155.755,33855.885,-16346.205,-28577.205,9299.07,19846.845
1764511427.8196476,33883.605,40655.52,26156.025,33856.47,-16345.575,-28575.99,9299.88,19846.98
1764511427.820654,33880.994999999995,40653.09,26153.28,33854.58,-16348.095,-28578.69,9297.765,19845.0
1764511427.821404,33883.785,40656.42,26155.935,33857.055,-16346.295,-28575.045,9299.655,19848.15
1764511427.821404,33885.9,40657.545,26157.15,33858.494999999995,-16345.17,-28573.83,9300.96,19848.915
1764511427.821404,33887.385,40658.67,26158.77,33859.53,-16343.505,-28572.255,9302.22,19851.12
1764511427.821404,33888.15,40661.145,26160.57,33861.195,-16341.705,-28570.545,9303.39,19852.785
1764511427.821404,33886.305,40658.85,26158.41,33860.16,-16343.91,-28572.75,9301.545,19850.67
1764511427.8622415,33883.155,40655.385,26155.53,33856.65,-16347.42,-28575.945,9299.07,19847.97
1764511427.8622415,33883.695,40656.33,26156.025,33857.64,-16346.34,-28575.09,9298.935,19849.005
1764511427.8622415,33883.155,40656.15,26155.26,33857.595,-16346.835,-28575.765,9298.17,19848.555
1764511427.8622415,33880.905,40653.405,26152.785,33854.265,-16349.49,-28579.005,9296.55,19844.775
1764511427.8622415,33882.345,40654.935,26154.99,33855.705,-16347.42,-28577.295,9298.17,19846.485
1764511427.8622415,33881.76,40654.395,26153.73,33855.255,-16348.23,-28577.61,9297.225,19846.125
1764511427.8622415,33881.58,40654.26,26152.92,33854.13,-16348.68,-28577.655,9296.505,19846.08
1764511427.8622415,33884.73,40657.185,26155.755,33855.975,-16345.755,-28575.225,9298.845,19848.51
1764511427.8622415,33888.6,40661.235,26160.48,33859.44,-16341.345,-28572.03,9301.095,19852.56
1764511427.8622415,33887.34,40660.965,26160.48,33859.08,-16341.885,-28572.345,9300.87,19852.2
1764511427.8622415,33886.35,40660.29,26159.31,33858.45,-16342.695,-28571.805,9300.735,19851.66
1764511427.8622415,33885.18,40658.31,26157.195,33856.785,-16345.35,-28573.47,9298.845,19850.175
1764511427.8622415,33882.66,40655.565,26154.54,33854.13,-16347.78,-28576.08,9295.785,19847.205
1764511427.8632605,33878.16,40651.29,26150.22,33850.575,-16351.515,-28580.355,9292.545,19842.66
1764511427.8632605,33877.395,40649.895,26150.04,33850.485,-16352.055,-28580.67,9292.815,19842.12
1764511427.8632605,33880.185,40651.875,26153.145,33853.86,-16348.905,-28577.79,9293.895,19844.505
1764511427.8632605,33878.925,40650.57,26151.795,33853.365,-16350.255,-28578.645,9292.41,19843.065
1764511427.8632605,33879.825,40652.1,26152.785,33854.895,-16349.4,-28577.43,9293.535,19843.74
1764511427.864273,33885.72,40657.995,26158.59,33860.43,-16344.0,-28572.57,9297.18,19848.915
1764511427.864273,33884.055,40656.735,26157.465,33858.225,-16345.665,-28573.92,9295.965,19847.295
1764511427.864273,33880.68,40653.045,26154.675,33854.94,-16349.265,-28577.655,9294.165,19843.875
1764511427.864273,33880.41,40652.775,26154.585,33854.85,-16348.815,-28578.24,9293.985,19843.2
1764511427.865272,33878.88,40652.235,26153.865,33854.31,-16348.815,-28578.825,9292.68,19842.66
1764511427.865272,33880.815,40654.53,26156.115,33856.74,-16346.745,-28575.855,9294.21,19845.495
1764511427.9096034,33879.735,40653.63,26155.53,33856.47,-16346.16,-28575.945,9294.12,19844.145
1764511427.9096034,33875.595,40649.535,26152.245,33853.005,-16349.445,-28579.14,9291.24,19839.96
1764511427.9096034,33873.795,40647.96,26151.03,33852.195,-16351.245,-28580.13,9290.385,19838.7
1764511427.9096034,33876.99,40649.805,26153.1,33854.94,-16347.33,-28576.08,9293.04,19842.075
1764511427.9096034,33875.91,40648.14,26151.075,33853.68,-16347.555,-28576.08,9293.085,19841.67
1764511427.9096034,33870.33,40643.19,26145.495,33849.0,-16352.28,-28579.815,9289.98,19837.35
1764511427.910113,33872.58,40645.26,26146.395,33850.35,-16349.67,-28576.62,9291.78,19839.555
1764511427.910113,33872.31,40644.72,26146.08,33850.215,-16349.445,-28576.035,9292.41,19839.735
1764511427.910113,33870.015,40641.12,26143.29,33847.56,-16352.37,-28578.915,9290.745,19836.405
1764511427.910113,33867.81,40638.285,26141.04,33846.119999999995,-16354.395,-28581.615,9288.765,19834.47
1764511427.910113,33865.605,40636.755,26139.735,33844.41,-16354.395,-28580.13,9288.135,19834.02
1764511427.910113,33868.17,40639.32,26140.995,33845.4,-16353.405,-28577.655,9289.98,19836.945
1764511427.910113,33869.205,40639.86,26139.285,33844.005,-16355.34,-28580.175,9290.88,19837.44
1764511427.910113,33864.885,40634.91,26132.58,33837.75,-16361.64,-28585.755,9288.225,19833.705
1764511427.910113,33865.965,40635.585,26132.13,33836.49,-16362.09,-28585.89,9288.36,19835.28
1764511427.910113,33861.6,40631.31,26126.685,33831.0,-16368.255,-28592.145,9283.86,19830.6
1764511427.910113,33865.244999999995,40635.765,26131.14,33834.285,-16366.23,-28589.625,9285.57,19834.155
1764511427.910113,33866.055,40637.835,26133.525,33834.96,-16364.565,-28589.355,9285.795,19834.605
1764511427.910113,33864.119999999995,40637.655,26134.02,33833.835,-16365.555,-28591.47,9284.94,19832.67
1764511427.910113,33865.74,40640.085,26136.63,33835.095,-16364.565,-28591.155,9285.75,19833.885
1764511427.910113,33867.63,40643.01,26139.51,33837.66,-16362.36,-28589.085,9286.335,19835.505
1764511427.910113,33864.66,40639.68,26136.09,33835.5,-16365.375,-28592.595,9284.31,19832.085
1764511427.910113,33863.085,40637.565,26134.92,33833.97,-16367.175,-28594.17,9282.735,19830.015
1764511427.910113,33862.365,40637.16,26134.155,33833.835,-16367.13,-28594.62,9282.465,19829.07
1764511427.9529004,33864.435,40639.41,26136.63,33836.265,-16364.565,-28592.505,9283.455,19830.96
1764511427.9529004,33863.175,40638.465,26135.685,33835.86,-16365.735,-28593.27,9282.375,19830.195
1764511427.9539242,33863.985,40639.185,26136.495,33836.175,-16365.33,-28592.865,9283.32,19831.23
1764511427.9539242,33861.42,40636.845,26134.56,33833.16,-16367.445,-28595.25,9281.61,19828.755
1764511427.9539242,33863.805,40639.185,26137.395,33835.23,-16364.925,-28592.595,9282.735,19830.735
1764511427.9539242,33860.61,40636.215,26134.11,33832.485,-16367.355,-28595.25,9280.26,19827.495
1764511427.9539242,33859.305,40634.91,26133.435,33831.045,-16369.02,-28596.465,9279.27,19826.28
1764511427.9539242,33859.26,40634.46,26133.345,33830.865,-16369.515,-28596.42,9278.145,19825.74
1764511427.9539242,33861.195,40636.8,26134.56,33833.07,-16367.895,-28594.305,9279.135,19827.09
1764511427.9539242,33859.53,40635.18,26132.76,33831.72,-16368.705,-28595.79,9277.65,19826.01
1764511427.9539242,33860.295,40635.315,26133.075,33832.08,-16367.535,-28596.105,9278.01,19826.415
1764511427.9539242,33858.45,40633.65,26130.645,33830.145,-16369.245,-28597.86,9276.12,19824.66
1764511427.9539242,33855.48,40632.21,26128.755,33827.85,-16372.08,-28599.885,9274.725,19823.085
1764511427.9539242,33859.035,40634.955,26131.995,33830.595,-16369.155,-28596.6,9276.75,19825.965
1764511427.9539242,33855.39,40631.355,26127.945,33827.31,-16372.62,-28600.02,9274.32,19822.185
1764511427.9539242,33854.85,40630.77,26127.63,33826.275,-16372.98,-28600.245,9273.6,19821.87
1764511427.9539242,33855.93,40631.985,26128.935,33826.77,-16371.495,-28599.39,9273.735,19823.31
1764511427.9539242,33861.33,40637.61,26134.92,33831.585,-16366.545,-28594.845,9278.145,19827.855
1764511427.95493,33861.78,40637.43,26134.65,33832.35,-16366.455,-28593.81,9279.045,19828.395
1764511427.95493,33858.54,40635.045,26131.365,33830.055,-16369.065,-28596.645,9277.38,19825.785
1764511427.95493,33863.67,40640.76,26136.585,33833.61,-16363.98,-28592.145,9281.385,19831.14
1764511427.95493,33859.485,40637.565,26133.12,33829.92,-16367.355,-28595.34,9278.595,19827.72
1764511428.0045676,33861.78,40640.13,26135.145,33832.935,-16365.33,-28592.82,9279.765,19829.43
1764511428.0045676,33862.005,40639.59,26135.595,33833.16,-16363.935,-28592.415,9279.405,19829.52
1764511428.0045676,33862.14,40639.23,26135.46,33833.295,-16363.755,-28592.505,9278.82,19829.61
1764511428.0045676,33861.51,40638.96,26135.145,33831.945,-16364.655,-28593.18,9278.82,19827.99
1764511428.0045676,33860.655,40638.78,26134.605,33830.82,-16365.42,-28593.72,9278.01,19827.54
1764511428.0045676,33860.25,40638.105,26133.93,33830.235,-16365.645,-28593.765,9278.37,19826.82
1764511428.005575,33858.99,40636.98,26132.805,33829.965,-16365.735,-28594.89,9277.47,19825.695
1764511428.005575,33858.585,40636.71,26131.95,33828.885,-16366.095,-28594.845,9277.38,19826.01
1764511428.005575,33857.685,40635.675,26131.14,33828.165,-16367.22,-28595.745,9276.345,19824.84
