Timestamp,Channel1,Channel2,Channel3,Channel4,Channel5,Channel6,Channel7,Channel8
1764511659.964003,-7294.679999999999,-40384.665,-30601.665,-11715.885,-11706.03,-36526.995,-25227.9,-22028.895
1764511659.964003,-7299.585,-40389.975,-30606.075,-11720.88,-11710.575,-36532.44,-25232.715,-22033.845
1764511659.964003,-7305.389999999999,-40396.005,-30611.97,-11727.54,-11716.83,-36538.245,-25237.665,-22040.01
1764511659.964003,-7306.065,-40396.005,-30612.105,-11727.99,-11717.37,-36538.335,-25237.08,-22039.47
1764511659.964003,-7300.62,-40389.12,-30604.23,-11720.385,-11708.775,-36530.46,-25229.565,-22032.72
1764511659.964003,-7300.755,-40388.985,-30604.14,-11720.97,-11709.855,-36531.045,-25229.565,-22034.205
1764511659.964003,-7303.724999999999,-40392.72,-30608.145,-11724.795,-11713.59,-36534.825,-25232.58,-22037.13
1764511659.964003,-7309.304999999999,-40398.39,-30613.95,-11731.545,-11719.395,-36539.82,-25236.18,-22041.63
1764511659.964003,-7306.245,-40394.34,-30609.945,-11727.72,-11714.76,-36535.59,-25232.985,-22039.695
1764511659.964003,-7302.33,-40389.975,-30604.77,-11721.69,-11709.225,-36531.045,-25232.76,-22039.605
1764511659.964003,-7303.769999999999,-40394.115,-30608.145,-11724.39,-11713.455,-36534.24,-25234.065,-22040.955
1764511659.964003,-7310.07,-40399.29,-30613.32,-11729.565,-11718.855,-36539.19,-25239.15,-22045.68
1764511659.964003,-7309.215,-40397.58,-30611.475,-11728.125,-11717.28,-36537.93,-25238.295,-22045.635
1764511659.964003,-7305.3,-40393.395,-30607.335,-11723.13,-11712.645,-36533.97,-25234.695,-22042.395
1764511659.964003,-7308.315,-40395.78,-30610.395,-11726.37,-11715.705,-36536.49,-25238.07,-22044.915
1764511659.964003,-7308.134999999999,-40395.915,-30609.54,-11726.37,-11714.4,-36535.77,-25238.655,-22045.41
1764511659.964003,-7305.84,-40393.8,-30606.795,-11724.345,-11712.6,-36534.105,-25236.9,-22043.88
1764511659.964003,-7300.44,-40388.715,-30602.115,-11719.305,-11707.74,-36529.92,-25232.58,-22040.145
1764511659.964003,-7300.98,-40389.57,-30602.79,-11720.34,-11709.18,-36531.405,-25234.065,-22042.26
1764511659.9655414,-7304.13,-40393.305,-30606.48,-11723.58,-11712.195,-36534.6,-25237.53,-22045.095
1764511659.9655414,-7300.035,-40390.155,-30602.25,-11719.755,-11708.28,-36530.685,-25232.94,-22041.045
1764511659.9655414,-7305.48,-40396.185,-30608.64,-11726.055,-11714.04,-36536.265,-25239.375,-22045.77
1764511660.0072591,-7306.92,-40397.22,-30610.485,-11727.27,-11715.795,-36538.02,-25240.545,-22046.175
1764511660.0072591,-7303.679999999999,-40394.43,-30607.65,-11724.3,-11713.005,-36535.905,-25237.575,-22042.665
1764511660.0072591,-7305.66,-40398.075,-30611.295,-11727.045,-11716.74,-36539.865,-25241.535,-22046.445
1764511660.0072591,-7304.58,-40395.87,-30608.91,-11725.74,-11714.94,-36536.4,-25241.13,-22045.815
1764511660.0072591,-7301.969999999999,-40394.79,-30607.92,-11725.065,-11713.95,-36534.96,-25240.14,-22044.6
1764511660.0072591,-7300.8,-40393.665,-30605.76,-11724.435,-11713.095,-36532.845,-25239.78,-22042.305
1764511660.0072591,-7297.514999999999,-40393.485,-30605.58,-11722.68,-11710.89,-36532.62,-25237.62,-22038.48
1764511660.0072591,-7298.73,-40396.995,-30609.36,-11725.695,-11714.4,-36536.76,-25240.41,-22039.965
1764511660.0072591,-7294.995,-40394.79,-30606.615,-11723.175,-11711.205,-36534.375,-25238.025,-22036.23
1764511660.0072591,-7298.099999999999,-40397.76,-30609.495,-11726.595,-11713.995,-36537.795,-25240.725,-22038.66
1764511660.0072591,-7293.42,-40392.72,-30604.86,-11721.825,-11709.18,-36532.755,-25235.82,-22033.755
1764511660.0072591,-7291.62,-40392.675,-30604.14,-11721.24,-11708.595,-36531.855,-25236.045,-22032.405
1764511660.0072591,-7295.4,-40398.165,-30609.135,-11726.505,-11714.22,-36537.615,-25240.86,-22035.33
1764511660.0072591,-7294.184999999999,-40397.355,-30608.82,-11726.055,-11713.365,-36536.715,-25240.59,-22033.53
1764511660.0072591,-7290.045,-40392.45,-30604.68,-11721.33,-11708.28,-36532.17,-25236.495,-22028.31
1764511660.0072591,-7288.83,-40390.425,-30602.61,-11718.855,-11706.48,-36529.83,-25235.055,-22026.015
1764511660.0072591,-7290.269999999999,-40392.855,-30604.86,-11721.105,-11708.955,-36532.305,-25236.72,-22026.645
1764511660.0072591,-7294.41,-40397.94,-30609.495,-11726.1,-11713.32,-36536.985,-25240.635,-22029.93
1764511660.0072591,-7292.474999999999,-40397.58,-30608.82,-11725.47,-11712.465,-36536.175,-25239.105,-22027.365
1764511660.0072591,-7295.085,-40400.64,-30612.195,-11728.71,-11715.435,-36539.28,-25241.445,-22029.615
1764511660.0082903,-7299.045,-40404.645,-30616.695,-11733.075,-11719.98,-36542.97,-25245.9,-22032.495
1764511660.0082903,-7296.344999999999,-40400.145,-30612.78,-11729.61,-11715.795,-36539.28,-25243.29,-22026.42
1764511660.0082903,-7293.735,-40396.23,-30608.865,-11725.38,-11712.195,-36535.59,-25240.005,-22021.065
1764511660.0082903,-7291.44,-40394.34,-30606.075,-11722.455,-11710.08,-36533.79,-25237.35,-22019.265
1764511660.0082903,-7301.295,-40405.68,-30617.01,-11734.155,-11720.925,-36543.915,-25244.415,-22032.0
1764511660.0092974,-7299.315,-40403.07,-30614.49,-11731.905,-11718.72,-36541.935,-25245.315,-22030.695
1764511660.0533109,-7297.785,-40399.155,-30610.125,-11726.91,-11714.355,-36538.515,-25244.145,-22032.495
1764511660.0533109,-7303.094999999999,-40403.745,-30615.165,-11731.68,-11720.07,-36543.375,-25248.465,-22038.885
1764511660.0533109,-7297.245,-40397.895,-30610.305,-11727.18,-11713.905,-36537.885,-25243.965,-22031.55
1764511660.0533109,-7299.0,-40400.01,-30611.97,-11729.07,-11715.03,-36539.685,-25245.855,-22032.99
1764511660.0533109,-7292.384999999999,-40392.45,-30604.41,-11721.78,-11707.2,-36532.485,-25239.42,-22026.555
1764511660.0533109,-7289.955,-40389.39,-30601.395,-11718.18,-11704.005,-36529.74,-25236.45,-22024.665
1764511660.0533109,-7295.04,-40396.005,-30608.82,-11725.38,-11711.295,-36536.805,-25242.975,-22030.875
1764511660.0533109,-7297.065,-40398.165,-30611.16,-11727.36,-11713.995,-36539.64,-25244.955,-22032.72
1764511660.0533109,-7295.445,-40396.455,-30609.09,-11725.155,-11712.195,-36537.435,-25243.02,-22031.28
1764511660.0533109,-7290.719999999999,-40391.235,-30604.005,-11719.98,-11707.2,-36532.89,-25238.205,-22027.545
1764511660.0533109,-7290.809999999999,-40392.135,-30604.86,-11720.79,-11707.965,-36534.735,-25239.915,-22028.805
1764511660.0533109,-7292.7,-40393.71,-30606.93,-11722.995,-11710.395,-36536.445,-25242.75,-22030.965
1764511660.0533109,-7289.82,-40391.64,-30604.995,-11720.205,-11708.055,-36534.51,-25239.33,-22028.355
1764511660.0533109,-7295.94,-40397.49,-30610.62,-11725.875,-11713.905,-36540.855,-25243.875,-22034.565
1764511660.0533109,-7297.74,-40398.255,-30611.52,-11727.54,-11715.345,-36541.98,-25244.37,-22036.32
1764511660.0533109,-7296.929999999999,-40396.23,-30609.315,-11725.695,-11712.69,-36539.91,-25242.12,-22035.105
1764511660.0533109,-7292.474999999999,-40391.82,-30604.455,-11721.195,-11707.695,-36535.725,-25237.89,-22030.785
1764511660.0533109,-7295.94,-40394.7,-30607.875,-11725.605,-11711.205,-36539.415,-25240.635,-22034.88
1764511660.0533109,-7297.11,-40395.195,-30609.36,-11726.865,-11712.33,-36540.405,-25240.95,-22036.455
1764511660.0533109,-7294.905,-40391.01,-30605.13,-11723.76,-11707.965,-36535.365,-25236.81,-22033.665
1764511660.0543303,-7299.719999999999,-40396.365,-30610.53,-11728.755,-11713.32,-36540.585,-25240.635,-22037.805
1764511660.0543303,-7299.675,-40394.88,-30609.045,-11726.55,-11711.475,-36539.1,-25238.97,-22036.905
1764511660.0543303,-7297.2,-40390.245,-30603.96,-11721.375,-11706.57,-36534.33,-25235.28,-22035.285
1764511660.0543303,-7303.32,-40396.545,-30608.73,-11726.46,-11712.51,-36539.505,-25240.68,-22042.08
1764511660.0987408,-7304.219999999999,-40394.88,-30606.975,-11724.255,-11711.16,-36538.11,-25238.88,-22041.45
1764511660.0987408,-7299.9,-40389.75,-30602.43,-11719.755,-11706.795,-36532.755,-25234.965,-22037.175
1764511660.0987408,-7301.79,-40392.0,-30604.815,-11722.05,-11709.09,-36535.095,-25235.64,-22037.67
1764511660.0987408,-7306.245,-40396.005,-30608.415,-11725.155,-11712.69,-36537.885,-25238.43,-22041.765
1764511660.0987408,-7304.849999999999,-40393.485,-30606.03,-11722.275,-11709.675,-36535.635,-25235.82,-22040.595
1764511660.0987408,-7310.16,-40398.93,-30610.845,-11727.45,-11715.255,-36541.305,-25239.285,-22045.815
1764511660.0987408,-7312.995,-40399.155,-30611.25,-11728.035,-11715.435,-36541.44,-25240.14,-22046.355
1764511660.0987408,-7312.41,-40397.58,-30609.945,-11726.73,-11714.04,-36540.135,-25238.97,-22045.725
1764511660.0987408,-7308.269999999999,-40394.655,-30606.345,-11723.4,-11709.765,-36535.68,-25235.64,-22041.855
1764511660.0987408,-7312.59,-40400.055,-30610.395,-11727.99,-11713.77,-36539.955,-25240.86,-22046.445
1764511660.0987408,-7311.465,-40397.94,-30607.83,-11724.93,-11711.205,-36537.48,-25239.06,-22045.23
1764511660.0987408,-7309.755,-40395.87,-30605.715,-11722.77,-11708.955,-36535.545,-25237.98,-22043.565
1764511660.0987408,-7306.92,-40392.54,-30602.52,-11719.395,-11705.445,-36531.765,-25234.695,-22040.325
1764511660.0987408,-7311.509999999999,-40398.705,-30607.74,-11724.48,-11711.43,-36537.12,-25238.43,-22044.42
1764511660.0987408,-7312.365,-40398.885,-30608.415,-11724.21,-11711.43,-36538.29,-25238.34,-22044.87
1764511660.1003125,-7307.73,-40392.72,-30602.88,-11718.27,-11704.635,-36532.215,-25233.795,-22039.29
1764511660.1003125,-7306.965,-40392.81,-30602.52,-11718.09,-11705.13,-36530.91,-25234.065,-22038.75
1764511660.1003125,-7306.695,-40392.63,-30602.34,-11718.09,-11705.355,-36530.82,-25234.11,-22038.615
1764511660.1003125,-7307.594999999999,-40393.125,-30602.52,-11718.18,-11705.04,-36530.73,-25234.02,-22038.3
1764511660.1003125,-7311.285,-40394.925,-30604.14,-11721.195,-11707.515,-36532.44,-25237.215,-22041.18
1764511660.1003125,-7306.83,-40391.82,-30600.99,-11717.64,-11704.095,-36529.335,-25233.48,-22036.905
1764511660.1003125,-7306.155,-40393.8,-30602.925,-11718.63,-11705.355,-36531.045,-25235.19,-22036.905
1764511660.1013377,-7310.34,-40398.435,-30608.505,-11723.175,-11709.855,-36536.175,-25240.32,-22039.74
1764511660.1013377,-7308.405,-40396.725,-30607.47,-11721.42,-11709.225,-36535.14,-25241.04,-22038.345
1764511660.1502986,-7302.014999999999,-40390.965,-30601.71,-11716.155,-11703.375,-36528.84,-25236.27,-22031.64
1764511660.1502986,-7303.094999999999,-40393.8,-30603.555,-11717.82,-11705.49,-36531.855,-25238.295,-22032.675
1764511660.1502986,-7300.349999999999,-40392.09,-30602.25,-11716.065,-11703.555,-36531.045,-25237.44,-22029.435
1764511660.1502986,-7300.485,-40396.23,-30605.895,-11719.53,-11707.155,-36533.205,-25239.105,-22030.29
1764511660.1502986,-7292.835,-40387.77,-30598.155,-11711.655,-11699.505,-36525.78,-25234.29,-22024.08
1764511660.1512945,-7289.91,-40385.115,-30595.365,-11709.36,-11697.03,-36523.395,-25235.955,-22023.855
1764511660.1512945,-7288.695,-40387.05,-30597.57,-11710.755,-11698.92,-36524.97,-25236.27,-22023.855
1764511660.1512945,-7291.485,-40392.63,-30603.78,-11716.02,-11705.22,-36531.09,-25242.84,-22028.445
1764511660.1512945,-7289.594999999999,-40392.495,-30603.465,-11715.39,-11704.86,-36531.18,-25243.74,-22026.555
1764511660.1512945,-7286.219999999999,-40390.29,-30600.72,-11712.915,-11702.16,-36528.57,-25242.255,-22023.54
1764511660.1512945,-7281.719999999999,-40387.86,-30598.155,-11710.845,-11699.865,-36525.915,-25240.14,-22020.39
1764511660.1512945,-7273.485,-40380.57,-30590.64,-11704.095,-11692.125,-36518.445,-25234.695,-22013.19
1764511660.1512945,-7270.83,-40379.22,-30589.965,-11702.7,-11691.09,-36517.32,-25234.065,-22011.48
1764511660.1512945,-7268.894999999999,-40378.545,-30589.47,-11702.205,-11690.64,-36516.825,-25233.93,-22010.715
1764511660.1512945,-7268.264999999999,-40380.93,-30591.54,-11704.77,-11692.485,-36519.345,-25235.415,-22010.4
1764511660.1512945,-7272.0,-40386.15,-30596.625,-11709.99,-11697.525,-36523.845,-25240.095,-22013.37
1764511660.1512945,-7268.94,-40381.245,-30590.775,-11706.075,-11694.195,-36517.815,-25236.27,-22009.14
1764511660.1512945,-7266.42,-40384.035,-30594.06,-11707.65,-11696.355,-36520.695,-25236.18,-22008.825
1764511660.1512945,-7268.264999999999,-40385.61,-30594.555,-11709.18,-11698.29,-36521.1,-25237.35,-22008.645
1764511660.1512945,-7271.415,-40393.98,-30602.25,-11715.84,-11705.175,-36529.56,-25243.74,-22012.695
1764511660.1512945,-7271.235,-40395.375,-30604.32,-11717.235,-11706.66,-36531.405,-25244.055,-22012.965
1764511660.1512945,-7268.759999999999,-40392.81,-30602.25,-11714.805,-11703.78,-36529.11,-25241.805,-22011.39
1764511660.1954534,-7265.79,-40390.11,-30599.865,-11713.095,-11701.305,-36526.365,-25240.77,-22009.545
1764511660.1954534,-7259.894999999999,-40384.125,-30593.745,-11707.965,-11695.05,-36520.02,-25235.55,-22003.02
1764511660.1964726,-7259.175,-40384.305,-30595.14,-11708.19,-11695.41,-36519.885,-25235.145,-22002.165
1764511660.1964726,-7260.795,-40388.31,-30599.28,-11711.295,-11699.64,-36523.98,-25239.015,-22004.37
1764511660.1964726,-7264.394999999999,-40393.665,-30603.915,-11715.66,-11705.22,-36529.515,-25242.795,-22007.385
1764511660.1964726,-7259.94,-40390.56,-30600.54,-11712.645,-11701.62,-36525.96,-25239.105,-22003.74
1764511660.1964726,-7260.974999999999,-40392.9,-30602.745,-11715.705,-11703.915,-36527.715,-25241.175,-22005.81
1764511660.1964726,-7256.969999999999,-40389.255,-30598.335,-11712.06,-11700.27,-36523.665,-25237.845,-22001.445
1764511660.1964726,-7256.745,-40389.39,-30598.83,-11712.555,-11700.945,-36523.665,-25237.755,-22001.22
1764511660.1964726,-7261.875,-40391.505,-30600.315,-11715.525,-11704.32,-36524.745,-25240.905,-22004.55
1764511660.1964726,-7259.04,-40390.2,-30599.145,-11713.725,-11702.88,-36524.52,-25238.205,-22001.895
1764511660.1964726,-7258.545,-40391.055,-30600.135,-11713.455,-11703.51,-36526.005,-25237.62,-22001.535
1764511660.1964726,-7260.344999999999,-40389.57,-30597.705,-11712.78,-11703.69,-36523.755,-25238.475,-22001.805
1764511660.1964726,-7267.32,-40398.705,-30607.02,-11721.69,-11712.42,-36532.755,-25244.865,-22008.96
1764511660.1964726,-7266.24,-40401.27,-30610.53,-11723.805,-11713.365,-36536.175,-25246.62,-22010.67
1764511660.1964726,-7261.695,-40393.62,-30602.43,-11716.74,-11706.885,-36528.57,-25244.01,-22006.395
1764511660.1964726,-7261.514999999999,-40396.23,-30605.04,-11718.0,-11707.965,-36531.63,-25244.145,-22006.62
1764511660.1964726,-7262.684999999999,-40398.255,-30606.255,-11718.72,-11709.045,-36532.755,-25245.495,-22008.33
1764511660.1979823,-7254.945,-40388.85,-30597.615,-11709.405,-11700.27,-36523.98,-25238.025,-22000.77
1764511660.1979823,-7251.525,-40384.62,-30593.745,-11704.815,-11696.49,-36520.155,-25234.245,-21996.405
1764511660.1979823,-7250.894999999999,-40383.81,-30592.755,-11703.78,-11695.23,-36519.345,-25234.155,-21996.315
1764511660.1979823,-7258.769999999999,-40392.135,-30600.315,-11711.655,-11702.925,-36527.355,-25241.715,-22008.69
1764511660.1979823,-7257.465,-40390.83,-30599.325,-11711.61,-11703.24,-36527.04,-25240.365,-22008.105
1764511660.1979823,-7260.165,-40393.44,-30601.53,-11713.5,-11705.22,-36528.255,-25242.93,-22011.39
1764511660.2432675,-7267.995,-40401.18,-30608.82,-11720.745,-11711.43,-36535.635,-25249.23,-22021.92
1764511660.2442636,-7263.585,-40395.33,-30603.555,-11716.515,-11706.255,-36531.405,-25244.145,-22016.07
1764511660.2442636,-7263.45,-40395.105,-30603.645,-11716.695,-11706.615,-36530.595,-25240.5,-22013.91
1764511660.2442636,-7263.945,-40391.73,-30599.415,-11713.185,-11703.645,-36526.185,-25241.49,-22016.34
1764511660.2442636,-7263.36,-40391.82,-30600.27,-11712.105,-11702.655,-36527.49,-25241.58,-22017.42
1764511660.2442636,-7265.205,-40394.655,-30603.375,-11713.905,-11704.545,-36529.785,-25242.075,-22018.545
1764511660.2442636,-7268.13,-40396.59,-30605.13,-11715.975,-11706.39,-36531.63,-25243.605,-22020.48
1764511660.2442636,-7271.099999999999,-40399.065,-30607.515,-11718.405,-11708.595,-36534.69,-25246.53,-22023.315
1764511660.2458048,-7269.03,-40397.085,-30604.275,-11715.795,-11706.57,-36531.54,-25244.1,-22021.065
1764511660.2458048,-7273.665,-40402.395,-30609.945,-11721.42,-11712.33,-36537.12,-25249.455,-22026.105
1764511660.2458048,-7275.509999999999,-40405.5,-30612.42,-11723.49,-11714.805,-36539.55,-25251.435,-22027.815
1764511660.2458048,-7275.554999999999,-40405.32,-30611.655,-11723.265,-11714.175,-36538.74,-25251.435,-22027.725
1764511660.2458048,-7275.87,-40405.14,-30611.25,-11723.04,-11713.545,-36538.155,-25251.165,-22027.995
1764511660.2458048,-7276.23,-40406.355,-30612.195,-11724.165,-11714.895,-36539.73,-25251.795,-22028.58
1764511660.2458048,-7274.835,-40404.915,-30611.025,-11722.32,-11712.915,-36537.795,-25250.04,-22027.77
1764511660.2458048,-7269.389999999999,-40398.03,-30603.735,-11715.795,-11706.39,-36531.045,-25244.37,-22022.19
1764511660.2458048,-7267.769999999999,-40397.535,-30602.61,-11715.21,-11705.895,-36530.595,-25243.065,-22020.84
1764511660.2458048,-7268.67,-40396.59,-30602.205,-11714.31,-11704.995,-36528.795,-25242.795,-22020.48
1764511660.2458048,-7270.065,-40396.545,-30601.98,-11714.04,-11704.68,-36529.29,-25241.805,-22020.705
1764511660.2458048,-7273.98,-40400.955,-30606.03,-11717.955,-11709.09,-36533.52,-25245.54,-22025.07
1764511660.2458048,-7277.535,-40404.51,-30610.17,-11721.69,-11713.005,-36537.48,-25249.005,-22028.535
1764511660.2458048,-7273.889999999999,-40400.64,-30605.085,-11717.505,-11708.595,-36533.43,-25244.37,-22024.98
1764511660.2912304,-7276.5,-40403.7,-30607.83,-11720.52,-11712.195,-36536.22,-25246.53,-22026.645
1764511660.2923589,-7274.34,-40400.955,-30605.94,-11717.955,-11709.675,-36534.06,-25244.505,-22024.755
1764511660.2923589,-7278.795,-40407.255,-30612.105,-11723.76,-11714.805,-36539.73,-25249.77,-22030.515
1764511660.2923589,-7281.045,-40410.09,-30614.895,-11726.505,-11717.955,-36541.755,-25252.83,-22032.405
1764511660.2923589,-7280.505,-40409.055,-30614.13,-11726.28,-11717.325,-36540.855,-25253.595,-22030.56
1764511660.2923589,-7279.425,-40408.29,-30612.96,-11724.975,-11715.93,-36539.955,-25253.235,-22028.67
1764511660.2923589,-7274.25,-40403.07,-30607.02,-11719.26,-11709.855,-36534.825,-25248.555,-22024.17
1764511660.2923589,-7274.79,-40403.43,-30606.975,-11720.25,-11709.945,-36535.23,-25249.635,-22024.755
1764511660.2923589,-7275.42,-40404.465,-30608.595,-11721.915,-11711.655,-36536.355,-25251.57,-22024.215
1764511660.2923589,-7279.425,-40409.235,-30613.365,-11726.1,-11715.93,-36540.54,-25255.53,-22027.68
1764511660.2923589,-7278.705,-40408.695,-30613.005,-11724.795,-11714.895,-36540.675,-25255.215,-22026.78
1764511660.2923589,-7274.07,-40403.115,-30607.83,-11719.44,-11709.9,-36535.41,-25250.85,-22022.01
1764511660.2923589,-7272.855,-40402.44,-30606.12,-11718.0,-11708.91,-36533.97,-25249.23,-22020.345
1764511660.2923589,-7273.575,-40402.755,-30606.795,-11719.08,-11709.9,-36534.78,-25250.535,-22019.895
1764511660.2923589,-7276.679999999999,-40406.805,-30610.89,-11723.67,-11714.67,-36539.685,-25255.845,-22023.765
1764511660.2923589,-7276.005,-40403.115,-30606.48,-11720.07,-11711.565,-36535.725,-25255.035,-22021.875
1764511660.2923589,-7272.855,-40397.445,-30600.315,-11715.39,-11707.92,-36529.065,-25250.355,-22016.52
1764511660.2923589,-7278.12,-40407.3,-30611.52,-11725.605,-11717.595,-36539.055,-25255.62,-22019.805
1764511660.2923589,-7272.269999999999,-40399.065,-30602.07,-11716.065,-11707.695,-36530.37,-25251.075,-22014.99
1764511660.2923589,-7272.855,-40402.26,-30605.04,-11717.955,-11709.72,-36534.24,-25254.855,-22018.23
1764511660.2923589,-7269.615,-40401.675,-30604.995,-11717.37,-11708.865,-36533.52,-25252.965,-22014.72
1764511660.2923589,-7266.735,-40399.02,-30602.52,-11714.355,-11706.39,-36532.44,-25252.83,-22012.56
1764511660.2923589,-7266.014999999999,-40398.75,-30602.52,-11714.175,-11706.03,-36531.63,-25252.83,-22011.435
1764511660.2923589,-7266.78,-40400.955,-30604.635,-11716.92,-11708.01,-36533.7,-25254.765,-22011.705
1764511660.336264,-7270.155,-40405.905,-30609.81,-11722.455,-11712.645,-36538.56,-25259.49,-22015.53
1764511660.336264,-7268.4,-40404.825,-30608.325,-11720.835,-11711.295,-36536.58,-25258.545,-22014.135
1764511660.336264,-7263.36,-40400.235,-30603.645,-11716.2,-11706.975,-36532.08,-25254.675,-22009.095
1764511660.336264,-7268.58,-40407.255,-30610.845,-11723.085,-11714.31,-36538.65,-25260.975,-22015.395
1764511660.336264,-7269.075,-40408.83,-30612.015,-11724.615,-11715.435,-36540.225,-25262.55,-22016.475
1764511660.336264,-7267.724999999999,-40408.29,-30611.07,-11723.805,-11714.94,-36539.91,-25262.46,-22015.62
1764511660.336264,-7265.519999999999,-40406.355,-30609.765,-11721.78,-11714.265,-36538.38,-25260.39,-22013.82
1764511660.336264,-7259.894999999999,-40400.55,-30603.915,-11715.93,-11707.515,-36531.945,-25255.845,-22009.14
1764511660.336264,-7258.005,-40400.28,-30603.33,-11715.93,-11706.39,-36532.08,-25254.99,-22008.24
1764511660.336264,-7258.184999999999,-40398.75,-30601.44,-11714.76,-11705.67,-36531.18,-25254.27,-22006.98
1764511660.336264,-7258.724999999999,-40398.48,-30600.585,-11714.49,-11706.21,-36531.27,-25253.775,-22006.44
1764511660.336264,-7257.375,-40400.28,-30601.935,-11715.795,-11707.245,-36532.89,-25253.955,-22006.62
1764511660.336264,-7257.69,-40401.54,-30602.88,-11716.38,-11707.56,-36533.205,-25254.27,-22006.98
1764511660.336264,-7257.599999999999,-40400.64,-30601.845,-11715.345,-11706.525,-36532.575,-25254.585,-22006.98
1764511660.336264,-7257.509999999999,-40399.875,-30601.44,-11714.445,-11706.48,-36531.855,-25254.36,-22006.71
1764511660.336264,-7257.195,-40399.83,-30601.935,-11714.13,-11706.39,-36531.405,-25254.045,-22007.88
1764511660.336264,-7258.455,-40400.055,-30602.205,-11713.905,-11706.48,-36531.495,-25254.405,-22008.42
1764511660.3378077,-7259.13,-40399.965,-30601.53,-11712.825,-11705.445,-36530.595,-25254.09,-22008.915
1764511660.3378077,-7260.255,-40399.965,-30602.16,-11712.87,-11706.165,-36530.64,-25253.91,-22009.005
1764511660.3378077,-7265.565,-40405.32,-30607.785,-11718.54,-11711.835,-36536.355,-25258.77,-22014.225
1764511660.3378077,-7267.41,-40407.615,-30609.9,-11720.52,-11713.95,-36538.29,-25261.065,-22017.87
1764511660.3378077,-7265.745,-40405.365,-30607.65,-11718.54,-11711.115,-36535.86,-25258.41,-22016.79
1764511660.3378077,-7260.255,-40398.795,-30601.35,-11711.925,-11704.68,-36529.245,-25252.155,-22010.265
1764511660.3378077,-7258.59,-40396.41,-30598.155,-11707.875,-11701.305,-36526.455,-25249.995,-22006.89
1764511660.3823647,-7261.965,-40398.165,-30599.865,-11709.135,-11702.655,-36527.535,-25251.84,-22009.275
1764511660.3823647,-7265.25,-40398.795,-30599.91,-11709.405,-11702.835,-36527.355,-25251.57,-22015.44
1764511660.3843863,-7273.394999999999,-40406.715,-30607.245,-11717.37,-11711.205,-36535.455,-25258.365,-22022.64
1764511660.3843863,-7270.605,-40402.17,-30602.43,-11712.465,-11705.76,-36531.09,-25253.91,-22018.5
1764511660.3843863,-7276.995,-40407.795,-30607.335,-11716.92,-11710.215,-36535.23,-25254.72,-22026.915
1764511660.3843863,-7278.615,-40409.64,-30609.63,-11719.215,-11712.915,-36536.85,-25256.16,-22027.995
1764511660.3843863,-7280.505,-40410.405,-30610.305,-11719.8,-11713.68,-36537.795,-25260.345,-22031.37
1764511660.3843863,-7281.45,-40409.595,-30608.82,-11718.405,-11712.285,-36536.67,-25258.365,-22030.335
1764511660.3843863,-7278.434999999999,-40405.68,-30604.41,-11713.815,-11707.56,-36532.62,-25253.775,-22027.14
1764511660.3843863,-7283.474999999999,-40409.505,-30607.785,-11717.595,-11711.205,-36535.59,-25257.42,-22033.53
1764511660.3843863,-7280.594999999999,-40404.24,-30602.745,-11713.005,-11706.165,-36530.1,-25252.785,-22029.075
1764511660.3843863,-7281.719999999999,-40404.465,-30602.25,-11712.87,-11706.165,-36529.695,-25251.93,-22029.57
1764511660.3843863,-7285.545,-40407.705,-30605.625,-11715.345,-11709.54,-36532.845,-25254.72,-22034.25
1764511660.3843863,-7282.215,-40402.845,-30601.395,-11710.215,-11705.13,-36527.85,-25251.435,-22031.865
1764511660.3869088,-7283.835,-40403.7,-30601.665,-11710.26,-11705.58,-36528.435,-25251.255,-22031.37
1764511660.3869088,-7287.705,-40408.65,-30606.345,-11714.76,-11710.035,-36532.755,-25254.495,-22034.025
1764511660.3869088,-7282.08,-40405.095,-30602.205,-11710.485,-11705.94,-36529.155,-25250.58,-22031.19
1764511660.3869088,-7283.655,-40407.3,-30603.51,-11712.105,-11708.64,-36530.865,-25252.92,-22032.495
1764511660.3869088,-7281.945,-40406.22,-30602.34,-11711.115,-11707.47,-36529.65,-25251.75,-22031.955
1764511660.3869088,-7288.38,-40411.395,-30607.245,-11716.155,-11712.87,-36534.015,-25256.655,-22036.68
1764511660.3869088,-7288.065,-40409.55,-30605.265,-11713.32,-11711.025,-36531.99,-25255.395,-22034.07
1764511660.3869088,-7280.235,-40403.475,-30600.0,-11706.39,-11704.455,-36526.275,-25250.805,-22027.635
1764511660.3869088,-7278.525,-40401.225,-30597.03,-11704.545,-11702.025,-36523.395,-25250.265,-22026.015
1764511660.3869088,-7284.059999999999,-40406.13,-30601.08,-11708.865,-11707.065,-36527.355,-25254.81,-22029.39
1764511660.4303071,-7283.429999999999,-40406.49,-30601.395,-11708.37,-11707.065,-36527.805,-25254.945,-22028.085
1764511660.4303071,-7277.445,-40401.36,-30596.04,-11703.645,-11701.89,-36522.675,-25250.76,-22023.045
1764511660.4303071,-7279.65,-40406.715,-30601.44,-11708.505,-11707.02,-36528.12,-25255.44,-22024.665
1764511660.4303071,-7278.12,-40407.525,-30602.79,-11709.18,-11707.02,-36529.74,-25256.97,-22023.27
1764511660.4303071,-7272.855,-40404.555,-30599.415,-11705.715,-11703.33,-36526.815,-25253.73,-22018.455
1764511660.4303071,-7272.764999999999,-40406.04,-30600.225,-11707.02,-11704.635,-36527.895,-25254.855,-22017.915
1764511660.4303071,-7274.969999999999,-40409.37,-30604.365,-11710.755,-11707.605,-36531.09,-25258.545,-22019.535
1764511660.4303071,-7273.304999999999,-40408.605,-30603.51,-11709.63,-11706.48,-36529.605,-25259.31,-22019.22
1764511660.4303071,-7269.615,-40406.175,-30600.72,-11707.155,-11704.545,-36527.22,-25258.635,-22016.115
1764511660.4303071,-7264.844999999999,-40403.115,-30597.3,-11703.87,-11701.215,-36523.485,-25255.755,-22010.265
1764511660.4303071,-7267.455,-40407.93,-30602.79,-11709.315,-11706.57,-36528.84,-25260.57,-22013.64
1764511660.4303071,-7265.7,-40406.895,-30601.485,-11707.605,-11704.815,-36527.49,-25259.31,-22012.2
1764511660.4303071,-7259.715,-40401.63,-30595.905,-11701.62,-11699.01,-36521.865,-25254.18,-22006.125
1764511660.4303071,-7256.79,-40400.865,-30594.465,-11700.045,-11697.885,-36520.785,-25254.405,-22003.335
1764511660.4303071,-7255.71,-40401.54,-30596.265,-11700.765,-11698.47,-36521.28,-25255.53,-22002.3
1764511660.4303071,-7258.769999999999,-40406.58,-30601.935,-11706.57,-11704.59,-36526.68,-25260.795,-22006.125
1764511660.4303071,-7255.665,-40404.33,-30599.055,-11704.185,-11701.62,-36524.34,-25258.5,-22002.39
1764511660.4303071,-7256.34,-40405.725,-30599.82,-11705.265,-11702.565,-36524.79,-25261.11,-22003.56
1764511660.4303071,-7249.769999999999,-40399.245,-30594.33,-11699.415,-11696.22,-36518.805,-25256.835,-21997.62
1764511660.4303071,-7247.384999999999,-40397.22,-30592.44,-11698.2,-11694.06,-36517.14,-25256.07,-21995.55
1764511660.4303071,-7246.349999999999,-40398.03,-30593.07,-11698.47,-11694.87,-36518.085,-25256.745,-21995.73
1764511660.4303071,-7246.035,-40398.615,-30593.88,-11699.235,-11695.41,-36518.85,-25258.05,-21996.045
1764511660.4313216,-7247.88,-40402.17,-30597.435,-11701.89,-11698.785,-36521.82,-25259.58,-21998.07
1764511660.4313216,-7250.49,-40403.475,-30598.29,-11703.87,-11700.585,-36522.675,-25261.74,-22000.545
1764511660.4789834,-7245.45,-40401.81,-30596.805,-11701.8,-11698.515,-36522.045,-25259.76,-21997.44
1764511660.4789834,-7248.465,-40406.805,-30601.665,-11705.895,-11703.42,-36526.77,-25263.81,-22001.76
1764511660.4789834,-7245.269999999999,-40403.655,-30598.245,-11702.88,-11700.27,-36523.125,-25259.805,-21998.34
1764511660.4789834,-7244.19,-40402.665,-30596.58,-11702.07,-11699.19,-36522.225,-25259.265,-21996.99
1764511660.4789834,-7243.92,-40401.9,-30596.04,-11701.35,-11699.325,-36522.495,-25259.67,-21997.35
1764511660.4789834,-7243.155,-40400.1,-30594.6,-11699.82,-11697.84,-36520.515,-25259.4,-21996.675
1764511660.4789834,-7242.615,-40399.515,-30594.105,-11698.605,-11696.895,-36520.065,-25259.31,-21996.63
1764511660.4789834,-7245.315,-40404.105,-30597.66,-11702.34,-11700.675,-36524.475,-25263.405,-22000.095
1764511660.4789834,-7242.57,-40401.405,-30595.41,-11699.73,-11698.245,-36522.09,-25262.595,-21997.485
1764511660.4789834,-7243.2,-40402.62,-30597.57,-11701.62,-11700.045,-36523.305,-25264.53,-21999.06
1764511660.4789834,-7239.42,-40399.29,-30593.97,-11698.02,-11696.895,-36519.885,-25260.93,-21995.415
1764511660.4789834,-7241.175,-40400.865,-30595.005,-11699.01,-11698.2,-36521.415,-25263.315,-21996.63
1764511660.4789834,-7245.134999999999,-40405.5,-30599.1,-11703.645,-11702.655,-36526.05,-25267.365,-22000.815
1764511660.4789834,-7241.13,-40401.315,-30594.825,-11698.65,-11698.65,-36521.73,-25263.945,-21998.16
1764511660.4789834,-7243.019999999999,-40402.89,-30596.49,-11700.27,-11700.63,-36523.395,-25266.375,-22000.545
1764511660.4789834,-7241.264999999999,-40400.73,-30594.015,-11698.02,-11697.795,-36520.83,-25264.08,-21999.15
1764511660.4789834,-7245.045,-40405.95,-30599.325,-11703.15,-11703.69,-36526.14,-25266.015,-22002.255
1764511660.4789834,-7240.679999999999,-40400.595,-30593.385,-11697.705,-11697.75,-36520.245,-25262.28,-21998.52
1764511660.5240333,-7241.849999999999,-40400.505,-30591.54,-11696.04,-11695.545,-36519.48,-25264.935,-22000.815
1764511660.5240333,-7239.78,-40398.66,-30590.145,-11695.32,-11693.88,-36518.13,-25261.74,-21997.98
1764511660.5240333,-7240.59,-40400.91,-30591.855,-11696.49,-11696.265,-36519.3,-25262.28,-21998.7
1764511660.5240333,-7242.615,-40402.89,-30594.105,-11697.705,-11697.615,-36520.425,-25263.945,-22000.365
1764511660.5240333,-7244.054999999999,-40404.465,-30595.905,-11698.695,-11699.415,-36521.955,-25264.89,-22002.39
1764511660.5240333,-7248.15,-40405.995,-30596.04,-11700.045,-11702.7,-36521.505,-25268.265,-22006.755
1764511660.5240333,-7244.82,-40404.24,-30593.43,-11697.57,-11700.225,-36519.525,-25265.43,-22004.145
1764511660.5240333,-7248.33,-40407.39,-30597.03,-11701.62,-11703.6,-36523.215,-25268.67,-22008.33
1764511660.5240333,-7247.429999999999,-40407.12,-30597.75,-11700.99,-11702.97,-36522.945,-25268.535,-22009.815
1764511660.5240333,-7243.245,-40401.54,-30591.54,-11695.545,-11697.03,-36517.905,-25263.945,-22005.135
1764511660.5240333,-7246.665,-40404.645,-30594.6,-11699.145,-11700.045,-36521.46,-25266.015,-22008.465
1764511660.5255694,-7246.08,-40405.14,-30594.645,-11699.325,-11700.27,-36521.73,-25266.06,-22009.14
1764511660.5255694,-7242.615,-40403.07,-30593.115,-11696.67,-11697.66,-36518.67,-25263.9,-22005.63
1764511660.5255694,-7242.929999999999,-40404.24,-30593.745,-11696.535,-11697.885,-36518.04,-25265.79,-22006.62
1764511660.5255694,-7243.785,-40404.78,-30593.7,-11696.67,-11698.02,-36518.805,-25265.52,-22007.385
1764511660.5255694,-7245.63,-40405.95,-30595.005,-11697.12,-11700.045,-36520.29,-25267.59,-22009.005
1764511660.5255694,-7250.58,-40411.755,-30601.125,-11702.43,-11706.075,-36526.635,-25273.89,-22014.81
1764511660.5255694,-7250.715,-40411.8,-30600.45,-11702.205,-11706.255,-36526.545,-25274.07,-22014.27
1764511660.5255694,-7244.955,-40407.57,-30595.905,-11697.255,-11700.99,-36521.64,-25270.47,-22008.87
1764511660.5255694,-7243.245,-40407.57,-30595.68,-11697.03,-11700.585,-36521.28,-25270.47,-22008.195
1764511660.5255694,-7242.705,-40408.335,-30596.94,-11698.11,-11702.655,-36523.395,-25271.775,-22008.42
1764511660.5255694,-7243.74,-40410.495,-30598.92,-11700.63,-11705.265,-36525.24,-25274.16,-22010.31
1764511660.5255694,-7239.644999999999,-40408.155,-30597.39,-11698.155,-11702.79,-36522.315,-25271.37,-22007.34
1764511660.5255694,-7238.745,-40407.48,-30597.39,-11697.57,-11702.25,-36522.09,-25271.19,-22006.8
1764511660.5255694,-7235.594999999999,-40404.78,-30594.42,-11694.42,-11699.505,-36519.48,-25269.255,-22004.415
1764511660.5255694,-7234.155,-40404.105,-30594.15,-11694.105,-11698.29,-36518.805,-25269.885,-22003.92
1764511660.5696385,-7237.304999999999,-40405.815,-30595.545,-11696.265,-11701.575,-36520.335,-25272.405,-22006.17
1764511660.5706494,-7232.759999999999,-40401.99,-30591.81,-11692.665,-11697.975,-36516.69,-25268.31,-22002.165
1764511660.5706494,-7231.59,-40405.23,-30595.095,-11694.285,-11699.1,-36519.615,-25269.84,-22002.48
1764511660.5706494,-7233.929999999999,-40408.785,-30598.74,-11697.435,-11703.24,-36522.675,-25273.17,-22005.27
1764511660.5706494,-7228.394999999999,-40403.79,-30593.34,-11692.395,-11698.74,-36517.995,-25268.175,-21999.69
1764511660.5706494,-7221.554999999999,-40396.995,-30586.23,-11685.285,-11691.765,-36511.38,-25262.37,-21990.465
1764511660.571653,-7221.105,-40398.705,-30587.4,-11685.96,-11692.575,-36512.145,-25263.135,-21989.115
1764511660.571653,-7229.25,-40407.03,-30594.555,-11693.475,-11700.315,-36519.435,-25270.2,-21997.35
1764511660.571653,-7235.19,-40412.925,-30600.45,-11698.92,-11705.715,-36524.97,-25276.05,-22004.73
1764511660.571653,-7229.474999999999,-40406.265,-30594.69,-11692.98,-11700.27,-36518.67,-25271.64,-21995.775
1764511660.571653,-7232.13,-40407.975,-30595.185,-11693.565,-11700.72,-36518.805,-25271.73,-21999.825
1764511660.5726492,-7234.695,-40412.565,-30598.965,-11698.02,-11705.04,-36522.765,-25274.745,-22003.875
1764511660.5726492,-7233.21,-40413.06,-30599.46,-11698.065,-11705.355,-36523.44,-25275.285,-22000.86
1764511660.5726492,-7231.769999999999,-40412.07,-30598.2,-11697.795,-11704.905,-36522.315,-25273.89,-21997.35
1764511660.5726492,-7224.795,-40404.735,-30590.775,-11690.19,-11696.94,-36514.125,-25267.77,-21989.565
1764511660.57365,-7220.61,-40399.425,-30584.97,-11683.755,-11690.685,-36508.23,-25266.24,-21986.91
1764511660.57365,-7221.42,-40402.575,-30588.615,-11686.005,-11694.015,-36511.245,-25268.895,-21986.865
1764511660.57365,-7221.69,-40405.905,-30591.765,-11688.66,-11697.615,-36514.215,-25271.595,-21986.955
1764511660.57365,-7224.57,-40410.99,-30596.4,-11694.105,-11703.33,-36519.03,-25275.78,-21990.555
1764511660.57365,-7225.29,-40411.755,-30597.255,-11693.655,-11703.735,-36519.165,-25278.345,-21990.78
1764511660.57365,-7222.86,-40410.99,-30596.805,-11692.125,-11702.295,-36517.995,-25279.155,-21988.935
1764511660.57365,-7217.865,-40406.265,-30591.9,-11687.355,-11698.155,-36513.09,-25274.61,-21984.12
1764511660.5746517,-7219.125,-40410.36,-30596.085,-11692.08,-11702.745,-36517.32,-25279.155,-21987.135
1764511660.5746517,-7216.019999999999,-40408.47,-30594.51,-11689.83,-11701.08,-36515.205,-25277.355,-21984.525
1764511660.6158454,-7217.775,-40412.745,-30599.055,-11693.7,-11704.815,-36518.94,-25281.765,-21988.665
1764511660.6158454,-7215.66,-40411.08,-30597.345,-11691.315,-11702.88,-36515.655,-25280.37,-21986.955
1764511660.6163592,-7210.844999999999,-40407.165,-30593.16,-11686.95,-11698.65,-36511.065,-25276.455,-21982.86
1764511660.6163592,-7214.04,-40411.62,-30597.795,-11691.405,-11703.375,-36516.24,-25280.505,-21987.225
1764511660.6163592,-7210.035,-40408.245,-30593.52,-11688.21,-11699.775,-36512.595,-25276.59,-21982.905
1764511660.6163592,-7211.61,-40411.08,-30597.03,-11690.91,-11702.745,-36515.88,-25279.02,-21985.785
1764511660.6163592,-7211.16,-40410.09,-30595.95,-11689.92,-11702.115,-36514.62,-25278.795,-21985.47
1764511660.6163592,-7209.585,-40409.37,-30594.06,-11689.74,-11701.395,-36512.145,-25277.49,-21984.705
1764511660.6163592,-7205.13,-40408.245,-30593.07,-11688.345,-11699.37,-36511.695,-25275.645,-21981.51
1764511660.6163592,-7206.705,-40410.81,-30595.95,-11692.08,-11702.475,-36514.665,-25278.705,-21984.525
1764511660.6163592,-7204.59,-40408.605,-30592.71,-11689.965,-11700.54,-36511.38,-25277.355,-21982.995
1764511660.6163592,-7206.255,-40414.5,-30598.695,-11694.33,-11705.625,-36517.41,-25281.63,-21985.65
1764511660.6163592,-7202.16,-40412.925,-30597.3,-11692.125,-11704.275,-36514.755,-25279.47,-21982.59
1764511660.6163592,-7202.295,-40413.51,-30596.94,-11692.305,-11703.96,-36513.45,-25279.65,-21982.77
1764511660.6163592,-7200.945,-40411.17,-30594.24,-11689.47,-11700.855,-36510.93,-25278.795,-21982.14
1764511660.6168692,-7199.685,-40410.855,-30593.655,-11688.885,-11700.63,-36510.75,-25278.345,-21982.005
1764511660.6168692,-7200.27,-40412.88,-30595.05,-11690.37,-11702.475,-36511.74,-25279.245,-21982.995
1764511660.6168692,-7204.365,-40416.3,-30598.47,-11692.98,-11706.03,-36515.025,-25283.16,-21987.09
1764511660.6168692,-7202.429999999999,-40414.59,-30596.49,-11690.73,-11703.87,-36512.865,-25282.485,-21985.47
1764511660.6168692,-7197.03,-40407.435,-30589.695,-11683.62,-11697.165,-36505.665,-25276.86,-21979.62
1764511660.6188853,-7196.58,-40407.48,-30589.245,-11683.35,-11697.345,-36504.99,-25276.5,-21979.665
1764511660.6188853,-7196.04,-40407.03,-30588.795,-11682.72,-11696.67,-36505.17,-25276.5,-21979.485
1764511660.6188853,-7196.895,-40410.315,-30592.08,-11686.455,-11700.405,-36508.23,-25278.48,-21981.105
1764511660.6188853,-7202.79,-40417.605,-30600.045,-11693.7,-11708.1,-36514.17,-25283.43,-21986.64
1764511660.6634862,-7200.45,-40413.825,-30595.905,-11688.48,-11703.195,-36510.615,-25284.195,-21987.09
1764511660.6634862,-7195.815,-40409.145,-30590.145,-11682.72,-11697.975,-36505.08,-25280.145,-21982.545
1764511660.6634862,-7197.165,-40412.025,-30593.16,-11684.745,-11700.9,-36507.915,-25281.675,-21983.04
1764511660.6634862,-7200.36,-40417.11,-30598.65,-11689.065,-11705.805,-36512.235,-25286.265,-21987.99
1764511660.664529,-7195.815,-40410.855,-30592.305,-11683.17,-11699.82,-36506.565,-25282.17,-21983.49
1764511660.664529,-7192.665,-40406.805,-30587.895,-11679.48,-11695.725,-36501.75,-25278.03,-21980.565
1764511660.664529,-7192.08,-40406.04,-30587.715,-11679.165,-11695.32,-36499.905,-25277.13,-21981.105
1764511660.664529,-7194.69,-40412.115,-30593.655,-11684.16,-11700.09,-36505.62,-25281.36,-21985.47
1764511660.664529,-7192.844999999999,-40410.72,-30592.305,-11682.405,-11697.615,-36503.595,-25279.38,-21982.995
1764511660.664529,-7195.005,-40413.78,-30595.68,-11684.88,-11700.675,-36506.475,-25281.72,-21986.055
1764511660.664529,-7199.955,-40418.505,-30600.72,-11689.695,-11705.76,-36511.38,-25286.13,-21992.13
1764511660.664529,-7199.594999999999,-40417.065,-30599.325,-11688.705,-11704.41,-36510.48,-25284.825,-21991.77
1764511660.665526,-7195.005,-40411.08,-30592.89,-11682.135,-11697.75,-36503.73,-25280.145,-21987.18
1764511660.665526,-7193.429999999999,-40409.19,-30591.72,-11681.1,-11695.455,-36501.705,-25279.155,-21985.92
1764511660.665526,-7193.52,-40410.18,-30592.665,-11682.72,-11696.4,-36502.92,-25279.47,-21987.045
1764511660.665526,-7195.41,-40410.54,-30593.43,-11683.98,-11697.255,-36503.955,-25280.01,-21989.25
1764511660.666036,-7200.54,-40414.905,-30598.38,-11688.075,-11701.665,-36508.455,-25285.14,-21994.2
1764511660.666036,-7196.94,-40409.685,-30592.62,-11682.315,-11696.805,-36503.64,-25281.81,-21990.735
1764511660.666544,-7198.425,-40413.105,-30596.175,-11684.655,-11699.775,-36507.105,-25283.88,-21992.895
1764511660.666544,-7205.445,-40421.7,-30604.41,-11693.565,-11708.28,-36516.15,-25292.34,-22000.95
1764511660.666544,-7204.59,-40420.395,-30602.25,-11691.9,-11706.75,-36514.17,-25291.26,-22000.77
1764511660.666544,-7198.02,-40411.575,-30593.475,-11682.855,-11698.155,-36505.665,-25282.755,-21994.605
1764511660.6670742,-7196.535,-40409.82,-30591.63,-11681.145,-11696.04,-36503.82,-25281.225,-21994.515
1764511660.6670742,-7200.945,-40413.465,-30595.32,-11684.7,-11699.55,-36507.33,-25285.095,-21998.88
1764511660.7065542,-7201.485,-40413.42,-30595.635,-11684.79,-11699.415,-36507.15,-25285.905,-21998.88
1764511660.7065542,-7197.165,-40408.605,-30590.91,-11680.065,-11695.005,-36502.335,-25282.125,-21994.695
1764511660.7065542,-7197.344999999999,-40408.605,-30591.18,-11681.01,-11696.175,-36502.515,-25282.485,-21996.18
1764511660.7065542,-7199.73,-40410.495,-30592.98,-11683.575,-11698.29,-36504.585,-25284.915,-22000.41
1764511660.7065542,-7193.969999999999,-40403.88,-30586.68,-11677.14,-11691.54,-36497.88,-25279.29,-21994.875
1764511660.7065542,-7194.509999999999,-40405.95,-30588.075,-11678.805,-11692.8,-36499.545,-25281.405,-21996.945
1764511660.7065542,-7198.65,-40411.215,-30593.745,-11684.25,-11698.065,-36504.9,-25286.085,-22001.49
1764511660.7065542,-7199.145,-40410.36,-30593.115,-11683.845,-11697.66,-36504.18,-25286.4,-22000.995
1764511660.7065542,-7196.715,-40401.945,-30583.98,-11677.14,-11690.82,-36495.36,-25281.63,-21996.135
1764511660.7065542,-7199.145,-40408.29,-30590.775,-11682.63,-11695.77,-36501.57,-25285.14,-21998.97
1764511660.7065542,-7198.74,-40409.055,-30591.315,-11682.99,-11696.13,-36502.29,-25286.22,-21997.98
1764511660.7065542,-7194.105,-40401.765,-30583.845,-11676.33,-11689.38,-36495.585,-25281.09,-21992.22
1764511660.7065542,-7191.855,-40401.855,-30584.07,-11675.925,-11688.885,-36496.485,-25280.64,-21990.33
1764511660.7080965,-7189.965,-40399.92,-30582.27,-11673.225,-11686.455,-36494.46,-25279.47,-21987.495
1764511660.7091284,-7189.875,-40401.945,-30583.17,-11674.665,-11686.995,-36495.945,-25281.315,-21987.045
1764511660.7101276,-7195.455,-40408.335,-30589.425,-11680.38,-11693.385,-36502.155,-25287.795,-21991.725
1764511660.7101276,-7196.264999999999,-40408.875,-30589.965,-11681.145,-11694.015,-36502.83,-25289.19,-21991.68
1764511660.7101276,-7194.375,-40407.48,-30587.625,-11679.84,-11692.62,-36500.895,-25287.345,-21988.62
1764511660.7101276,-7189.695,-40402.845,-30582.81,-11675.34,-11688.165,-36496.755,-25283.025,-21982.365
1764511660.7101276,-7190.054999999999,-40402.44,-30582.945,-11674.98,-11688.345,-36496.26,-25283.115,-21981.555
1764511660.7101276,-7195.005,-40408.02,-30588.795,-11680.38,-11693.835,-36502.335,-25287.705,-21985.92
1764511660.7101276,-7193.835,-40406.49,-30586.77,-11678.985,-11691.765,-36500.355,-25287.3,-21985.29
1764511660.7554998,-7189.695,-40401.9,-30581.595,-11673.81,-11687.175,-36495.765,-25282.98,-21980.475
1764511660.7554998,-7189.469999999999,-40402.845,-30583.305,-11675.565,-11689.245,-36496.89,-25283.205,-21979.44
1764511660.7554998,-7187.804999999999,-40400.595,-30580.47,-11671.92,-11685.915,-36494.145,-25283.79,-21979.8
1764511660.7554998,-7189.38,-40404.06,-30583.08,-11674.89,-11688.48,-36496.755,-25285.365,-21982.23
1764511660.7554998,-7190.415,-40405.68,-30584.97,-11676.195,-11690.28,-36498.555,-25285.905,-21981.465
1764511660.7565222,-7191.315,-40405.14,-30585.645,-11676.465,-11691.18,-36499.68,-25287.57,-21981.96
1764511660.7565222,-7195.185,-40410.36,-30589.785,-11680.83,-11695.905,-36504.225,-25292.115,-21985.965
1764511660.7565222,-7194.42,-40407.705,-30586.455,-11677.23,-11692.44,-36500.355,-25289.595,-21982.995
1764511660.7570322,-7198.514999999999,-40409.19,-30586.68,-11680.02,-11695.32,-36500.985,-25293.195,-21985.155
1764511660.7570322,-7195.679999999999,-40407.525,-30584.79,-11678.04,-11693.385,-36499.185,-25290.72,-21981.285
1764511660.7570322,-7193.7,-40406.67,-30584.25,-11675.97,-11691.765,-36498.24,-25289.1,-21978.54
1764511660.7570322,-7195.905,-40408.515,-30586.545,-11677.995,-11692.8,-36500.94,-25291.44,-21982.05
1764511660.7570322,-7200.585,-40411.305,-30589.605,-11680.515,-11695.005,-36503.82,-25294.365,-21990.51
1764511660.7570322,-7202.16,-40413.51,-30591.99,-11682.945,-11697.75,-36506.97,-25296.435,-21990.645
1764511660.7570322,-7203.78,-40413.465,-30591.855,-11682.72,-11696.895,-36505.89,-25296.93,-21991.59
1764511660.7570322,-7207.605,-40416.39,-30595.095,-11685.915,-11699.955,-36508.59,-25301.16,-21995.055
1764511660.7570322,-7204.185,-40412.475,-30591.225,-11681.19,-11696.58,-36504.72,-25297.83,-21990.6
1764511660.7570322,-7207.38,-40414.68,-30593.52,-11683.26,-11698.605,-36506.835,-25299.315,-21993.075
1764511660.7570322,-7205.759999999999,-40410.81,-30589.065,-11679.525,-11694.915,-36503.055,-25295.895,-21990.015
1764511660.7570322,-7209.495,-40413.69,-30591.585,-11682.63,-11697.48,-36505.395,-25299.18,-21993.57
1764511660.7570322,-7210.844999999999,-40413.78,-30591.36,-11682.405,-11696.49,-36505.215,-25299.72,-21994.155
1764511660.7570322,-7205.4,-40406.58,-30583.845,-11674.98,-11688.39,-36497.79,-25293.465,-21988.98
1764511660.758552,-7204.32,-40404.96,-30582.675,-11673.135,-11687.895,-36496.665,-25292.385,-21988.935
1764511660.758552,-7206.255,-40405.275,-30582.225,-11673.585,-11688.39,-36496.845,-25293.33,-21989.745
1764511660.758552,-7212.285,-40413.015,-30590.19,-11680.83,-11696.22,-36504.72,-25299.0,-21996.855
1764511660.758552,-7215.075,-40415.67,-30592.305,-11683.395,-11698.74,-36507.87,-25300.71,-21999.87
1764511660.8068132,-7214.759999999999,-40415.085,-30592.035,-11682.81,-11698.065,-36506.88,-25300.44,-21999.33
1764511660.8068132,-7209.45,-40408.38,-30585.915,-11676.33,-11691.315,-36500.445,-25295.4,-21994.515
1764511660.8068132,-7210.17,-40409.505,-30587.04,-11677.23,-11691.63,-36501.39,-25296.255,-21995.145
1764511660.8068132,-7215.75,-40415.13,-30591.99,-11682.09,-11696.265,-36506.43,-25301.025,-22000.05
1764511660.8068132,-7215.84,-40414.995,-30592.215,-11682.72,-11697.345,-36506.97,-25301.295,-22000.815
1764511660.8068132,-7210.349999999999,-40407.03,-30584.115,-11675.475,-11689.965,-36499.68,-25294.59,-21995.55
1764511660.8068132,-7209.45,-40405.365,-30582.27,-11674.215,-11688.39,-36498.555,-25292.88,-21993.795
1764511660.8068132,-7212.554999999999,-40406.985,-30583.71,-11675.655,-11690.595,-36499.545,-25294.815,-21996.315
1764511660.8068132,-7217.775,-40415.175,-30591.54,-11683.125,-11697.57,-36508.05,-25300.62,-22002.75
1764511660.8068132,-7217.28,-40412.07,-30587.625,-11680.335,-11694.78,-36504.99,-25299.495,-22001.805
1764511660.8068132,-7213.679999999999,-40406.22,-30580.83,-11674.575,-11689.74,-36497.925,-25294.095,-21996.99
1764511660.8078153,-7216.065,-40411.98,-30586.905,-11678.895,-11694.015,-36504.27,-25297.425,-22000.995
1764511660.8078153,-7212.69,-40407.255,-30583.08,-11674.395,-11690.235,-36500.13,-25294.95,-21997.17
1764511660.8078153,-7216.425,-40412.655,-30587.895,-11679.345,-11695.59,-36504.855,-25299.63,-22000.995
1764511660.8078153,-7214.715,-40410.72,-30585.69,-11678.22,-11693.43,-36503.73,-25297.92,-21999.87
1764511660.8078153,-7215.434999999999,-40412.655,-30588.12,-11680.155,-11695.365,-36506.07,-25299.765,-22000.995
1764511660.8078153,-7210.125,-40409.055,-30585.105,-11675.565,-11690.28,-36503.01,-25295.895,-21995.73
1764511660.8078153,-7213.724999999999,-40412.295,-30587.76,-11678.985,-11693.745,-36505.845,-25300.395,-21999.375
1764511660.8078153,-7210.755,-40410.27,-30585.735,-11676.555,-11691.54,-36504.675,-25297.515,-21996.495
1764511660.8078153,-7213.184999999999,-40413.645,-30588.795,-11679.885,-11694.33,-36507.87,-25300.215,-21998.61
1764511660.8078153,-7212.87,-40412.61,-30588.165,-11679.075,-11693.43,-36506.565,-25299.72,-21997.755
1764511660.8078153,-7209.0,-40407.075,-30582.81,-11673.855,-11687.85,-36501.345,-25295.04,-21992.715
1764511660.8530009,-7212.24,-40411.35,-30587.4,-11678.58,-11692.575,-36506.88,-25299.09,-21995.37
1764511660.8530009,-7214.13,-40412.565,-30587.49,-11680.155,-11694.555,-36507.465,-25300.53,-21996.495
1764511660.8530009,-7211.519999999999,-40410.315,-30585.15,-11678.04,-11691.63,-36505.62,-25298.82,-21993.12
1764511660.8530009,-7213.59,-40412.43,-30587.31,-11679.66,-11693.61,-36507.6,-25300.575,-21994.38
1764511660.8530009,-7209.809999999999,-40407.345,-30582.36,-11674.665,-11688.435,-36502.695,-25294.905,-21989.205
1764511660.8530009,-7212.105,-40407.705,-30582.45,-11676.24,-11689.29,-36502.2,-25296.165,-21989.79
1764511660.8530009,-7214.804999999999,-40412.115,-30587.04,-11680.245,-11692.53,-36505.98,-25298.91,-21992.085
1764511660.8530009,-7211.835,-40406.265,-30581.145,-11674.44,-11688.03,-36500.4,-25295.22,-21987.54
1764511660.8530009,-7215.48,-40411.89,-30587.085,-11679.975,-11694.105,-36507.06,-25299.675,-21990.78
1764511660.8530009,-7212.915,-40409.55,-30584.61,-11677.545,-11691.315,-36504.63,-25295.715,-21987.135
1764511660.8530009,-7213.86,-40410.675,-30585.015,-11678.04,-11691.54,-36505.08,-25295.805,-21988.17
1764511660.8530009,-7215.344999999999,-40411.44,-30584.745,-11677.365,-11691.27,-36504.81,-25300.44,-21991.5
1764511660.8530009,-7212.78,-40407.795,-30581.955,-11674.035,-11688.885,-36502.02,-25297.74,-21987.675
1764511660.8530009,-7212.014999999999,-40405.995,-30579.255,-11672.91,-11688.39,-36499.23,-25297.02,-21987.36
1764511660.8540063,-7211.384999999999,-40406.355,-30579.165,-11672.955,-11687.355,-36499.635,-25297.245,-21985.83
1764511660.8540063,-7211.07,-40408.695,-30582.09,-11674.395,-11688.03,-36501.345,-25298.685,-21986.28
1764511660.8540063,-7209.99,-40407.21,-30581.1,-11673.495,-11687.445,-36500.49,-25297.92,-21985.065
1764511660.8540063,-7210.665,-40408.695,-30582.72,-11675.52,-11688.66,-36501.795,-25299.945,-21986.055
1764511660.8540063,-7214.625,-40415.67,-30589.29,-11682.45,-11695.77,-36508.32,-25305.255,-21991.32
1764511660.8540063,-7215.66,-40417.29,-30591.09,-11684.745,-11697.885,-36510.12,-25306.695,-21992.715
1764511660.8540063,-7211.205,-40413.69,-30586.905,-11680.965,-11694.195,-36505.8,-25302.78,-21990.825
1764511660.8540063,-7213.95,-40416.66,-30589.29,-11683.845,-11697.12,-36508.545,-25306.47,-21995.955
1764511660.900161,-7214.58,-40417.38,-30590.055,-11684.61,-11698.155,-36509.535,-25308.135,-21997.53
1764511660.900161,-7213.455,-40416.075,-30588.615,-11683.755,-11696.31,-36508.23,-25306.155,-21996.63
1764511660.900161,-7208.594999999999,-40410.495,-30583.035,-11678.94,-11690.73,-36502.47,-25299.675,-21992.355
1764511660.900161,-7208.37,-40410.405,-30582.855,-11678.265,-11689.965,-36501.885,-25299.405,-21992.85
1764511660.900161,-7213.139999999999,-40416.39,-30589.2,-11684.79,-11696.355,-36508.455,-25304.58,-21998.97
1764511660.900161,-7211.745,-40413.465,-30585.51,-11681.37,-11693.7,-36505.485,-25302.06,-21997.575
1764511660.900161,-7213.32,-40414.275,-30586.365,-11681.505,-11694.42,-36506.07,-25302.87,-21999.465
1764511660.900161,-7219.889999999999,-40421.61,-30593.79,-11689.02,-11701.53,-36513.225,-25308.99,-22005.72
1764511660.900161,-7219.844999999999,-40421.07,-30593.115,-11688.435,-11700.315,-36512.64,-25307.865,-22005.09
1764511660.9011726,-7216.335,-40417.11,-30588.795,-11684.295,-11695.905,-36509.175,-25304.49,-22001.085
1764511660.9011726,-7217.594999999999,-40418.37,-30589.965,-11685.69,-11697.165,-36510.03,-25303.455,-22001.265
1764511660.9011726,-7222.184999999999,-40422.015,-30593.52,-11688.57,-11701.08,-36513.405,-25306.02,-22004.28
1764511660.9011726,-7217.054999999999,-40415.445,-30586.41,-11681.415,-11693.79,-36506.7,-25302.69,-22002.03
1764511660.9021668,-7219.53,-40419.045,-30589.2,-11683.98,-11696.76,-36510.165,-25303.14,-22004.685
1764511660.9021668,-7221.915,-40420.395,-30591.045,-11684.79,-11698.74,-36511.56,-25304.265,-22005.81
1764511660.9021668,-7226.325,-40424.22,-30595.23,-11688.12,-11702.43,-36514.98,-25307.82,-22009.005
1764511660.9021668,-7223.67,-40420.665,-30591.45,-11684.745,-11698.74,-36511.47,-25304.715,-22006.575
1764511660.90316,-7228.575,-40424.49,-30594.6,-11688.345,-11702.655,-36515.43,-25308.045,-22010.58
1764511660.90316,-7230.78,-40422.33,-30591.855,-11686.68,-11701.575,-36512.28,-25306.92,-22011.03
1764511660.90316,-7227.63,-40422.33,-30592.395,-11685.195,-11700.495,-36512.235,-25304.265,-22009.275
1764511660.90316,-7228.844999999999,-40424.4,-30594.285,-11686.32,-11701.98,-36514.44,-25306.695,-22010.805
1764511660.90316,-7231.905,-40427.28,-30596.58,-11689.245,-11705.04,-36517.23,-25309.71,-22014.63
1764511660.904158,-7227.945,-40422.645,-30593.34,-11685.285,-11699.865,-36513.18,-25305.705,-22011.03
1764511660.904158,-7229.07,-40422.105,-30593.07,-11684.16,-11699.055,-36512.055,-25306.515,-22011.57
1764511660.9445088,-7230.24,-40422.195,-30592.98,-11683.35,-11698.605,-36512.01,-25306.785,-22011.975
1764511660.9445088,-7231.995,-40423.185,-30594.465,-11684.115,-11699.415,-36514.17,-25308.315,-22013.91
1764511660.94602,-7234.83,-40425.615,-30597.48,-11686.905,-11702.115,-36517.32,-25311.375,-22017.195
1764511660.94602,-7233.255,-40423.68,-30594.24,-11684.16,-11699.595,-36514.485,-25309.08,-22016.295
1764511660.94602,-7237.98,-40429.98,-30599.325,-11689.065,-11704.995,-36519.345,-25314.03,-22022.1
1764511660.94602,-7238.655,-40429.71,-30599.325,-11688.84,-11704.995,-36519.165,-25314.255,-22022.055
1764511660.94602,-7236.224999999999,-40425.345,-30593.97,-11683.98,-11700.135,-36514.665,-25310.385,-22018.365
1764511660.94602,-7238.925,-40426.785,-30596.085,-11685.735,-11702.295,-36516.87,-25312.905,-22020.39
1764511660.94602,-7235.73,-40422.42,-30591.765,-11680.785,-11698.83,-36511.695,-25309.08,-22016.34
1764511660.94602,-7237.98,-40424.805,-30594.06,-11683.215,-11700.765,-36513.27,-25310.97,-22018.005
1764511660.94602,-7239.509999999999,-40428.09,-30597.255,-11686.05,-11703.6,-36516.645,-25313.94,-22020.435
1764511660.94602,-7242.255,-40431.06,-30600.945,-11689.155,-11706.705,-36520.47,-25318.305,-22022.595
1764511660.94602,-7241.13,-40430.88,-30599.46,-11688.39,-11705.895,-36519.66,-25318.485,-22021.29
1764511660.94602,-7240.005,-40427.37,-30595.545,-11685.555,-11703.375,-36515.7,-25316.82,-22019.49
1764511660.94602,-7235.19,-40424.535,-30592.575,-11681.505,-11698.785,-36512.46,-25313.085,-22015.08
1764511660.94602,-7234.38,-40425.3,-30592.62,-11681.865,-11699.28,-36513.315,-25313.4,-22014.675
1764511660.94602,-7233.929999999999,-40425.39,-30592.755,-11682.855,-11700.315,-36513.36,-25314.48,-22014.45
1764511660.94602,-7236.09,-40427.235,-30595.14,-11684.745,-11702.295,-36515.385,-25317.27,-22015.53
1764511660.94602,-7233.3,-40425.57,-30593.34,-11682.945,-11700.09,-36513.99,-25315.605,-22012.155
1764511660.94602,-7234.65,-40427.865,-30595.41,-11685.285,-11702.97,-36516.555,-25318.395,-22014.45
1764511660.94602,-7236.719999999999,-40431.96,-30599.73,-11688.615,-11707.965,-36520.47,-25322.31,-22018.05
1764511660.94602,-7232.58,-40428.225,-30596.175,-11685.015,-11703.735,-36516.33,-25320.06,-22014.765
1764511660.988945,-7229.88,-40426.74,-30594.87,-11685.105,-11702.745,-36514.845,-25319.925,-22013.685
1764511660.9899764,-7232.355,-40430.565,-30598.2,-11688.57,-11706.615,-36519.03,-25323.525,-22016.88
1764511660.9899764,-7229.565,-40426.785,-30594.375,-11684.79,-11703.105,-36516.33,-25322.22,-22013.37
1764511660.9899764,-7226.144999999999,-40420.89,-30588.75,-11679.75,-11698.605,-36509.715,-25317.225,-22008.69
1764511660.9899764,-7225.83,-40423.005,-30590.955,-11681.325,-11700.09,-36512.01,-25317.63,-22008.69
1764511660.9899764,-7225.425,-40422.915,-30591.135,-11681.64,-11699.325,-36512.73,-25317.495,-22008.375
1764511660.9899764,-7224.165,-40421.655,-30589.245,-11680.11,-11696.805,-36510.795,-25315.065,-22006.215
1764511660.9899764,-7229.519999999999,-40427.55,-30595.59,-11685.645,-11702.925,-36516.33,-25320.69,-22010.49
1764511660.9899764,-7229.115,-40427.28,-30595.23,-11685.105,-11702.97,-36516.33,-25320.735,-22008.78
1764511660.9899764,-7225.065,-40420.395,-30587.265,-11678.355,-11697.3,-36509.31,-25315.335,-22002.165
1764511660.9899764,-7225.469999999999,-40422.375,-30590.19,-11680.965,-11698.47,-36510.93,-25315.065,-22001.04
1764511660.9899764,-7228.889999999999,-40425.75,-30593.835,-11684.34,-11701.305,-36513.72,-25318.305,-22003.38
1764511660.9899764,-7224.48,-40420.62,-30588.615,-11679.66,-11696.04,-36508.77,-25313.445,-21998.205
1764511660.9899764,-7223.445,-40419.54,-30587.535,-11678.85,-11695.14,-36507.06,-25313.715,-21998.475
1764511660.9899764,-7226.505,-40424.49,-30592.53,-11682.945,-11699.28,-36512.19,-25317.63,-22000.995
1764511660.9899764,-7222.679999999999,-40418.235,-30585.555,-11677.5,-11693.43,-36505.125,-25312.005,-21992.715
1764511660.9899764,-7216.155,-40413.24,-30580.74,-11672.55,-11688.12,-36500.22,-25305.84,-21986.145
1764511660.9899764,-7222.365,-40420.305,-30587.445,-11678.4,-11694.645,-36506.97,-25312.14,-21996.135
1764511660.9899764,-7227.675,-40425.705,-30592.53,-11683.62,-11700.09,-36512.145,-25317.18,-22003.155
1764511660.9899764,-7227.405,-40423.725,-30590.01,-11682.27,-11699.055,-36509.67,-25316.505,-21999.78
1764511660.990988,-7230.509999999999,-40427.55,-30594.51,-11685.555,-11701.98,-36513.99,-25318.665,-22006.125
1764511660.990988,-7227.54,-40424.58,-30591.54,-11683.485,-11699.415,-36512.28,-25316.64,-22001.265
1764511660.990988,-7229.61,-40428.945,-30596.265,-11687.805,-11704.05,-36516.42,-25318.395,-22002.435
1764511660.990988,-7228.53,-40426.83,-30594.87,-11685.915,-11702.205,-36515.43,-25316.325,-22001.13
1764511660.990988,-7223.355,-40419.135,-30587.175,-11677.68,-11693.565,-36508.095,-25312.14,-21997.665
1764511660.990988,-7218.09,-40411.89,-30579.075,-11670.57,-11686.455,-36499.905,-25304.58,-21990.51
1764511661.0366523,-7216.29,-40411.395,-30579.93,-11669.445,-11685.375,-36499.59,-25302.87,-21987.945
1764511661.0366523,-7219.08,-40414.995,-30583.35,-11673.585,-11689.785,-36504.18,-25307.055,-21991.545
1764511661.0366523,-7223.804999999999,-40419.63,-30588.48,-11678.625,-11694.915,-36509.76,-25312.5,-21995.415
1764511661.0366523,-7225.335,-40418.55,-30586.68,-11677.545,-11694.285,-36508.005,-25312.77,-21995.73
1764511661.0366523,-7223.58,-40419.18,-30587.805,-11678.22,-11694.465,-36508.77,-25312.275,-21996.405
1764511661.0366523,-7218.945,-40416.21,-30584.79,-11674.89,-11690.55,-36504.63,-25310.25,-21993.84
1764511661.0366523,-7221.42,-40418.91,-30587.265,-11678.04,-11693.385,-36507.915,-25313.355,-21997.71
1764511661.0366523,-7218.855,-40414.23,-30583.17,-11673.855,-11689.605,-36504.405,-25308.99,-21994.695
1764511661.0366523,-7219.53,-40415.22,-30583.53,-11673.72,-11690.055,-36505.395,-25309.215,-21994.605
1764511661.0366523,-7223.625,-40418.415,-30586.905,-11676.96,-11693.295,-36508.815,-25312.32,-21998.835
1764511661.0377133,-7220.205,-40412.61,-30581.235,-11672.37,-11687.715,-36503.685,-25308.405,-21995.505
1764511661.0377133,-7226.009999999999,-40418.505,-30586.275,-11677.365,-11692.845,-36508.725,-25313.805,-22000.905
1764511661.0377133,-7228.394999999999,-40422.195,-30590.28,-11681.73,-11696.895,-36512.64,-25314.75,-22002.03
1764511661.0377133,-7227.63,-40417.92,-30585.87,-11678.85,-11693.745,-36509.4,-25312.995,-22001.445
1764511661.0377133,-7222.32,-40411.845,-30579.525,-11671.83,-11686.365,-36503.595,-25308.72,-21998.745
1764511661.0377133,-7226.865,-40419.045,-30587.085,-11678.265,-11694.24,-36510.795,-25314.39,-22003.965
1764511661.0377133,-7227.269999999999,-40420.395,-30588.975,-11679.03,-11695.455,-36512.415,-25316.415,-22006.08
1764511661.0377133,-7225.019999999999,-40419.18,-30586.77,-11677.545,-11693.61,-36510.66,-25316.055,-22005.63
1764511661.0377133,-7221.15,-40415.49,-30582.27,-11674.17,-11689.47,-36506.205,-25312.68,-22002.255
1764511661.0377133,-7220.34,-40415.31,-30581.865,-11673.855,-11689.38,-36505.98,-25311.825,-22001.67
1764511661.0377133,-7218.945,-40413.465,-30580.02,-11672.28,-11687.445,-36504.72,-25311.015,-22000.815
1764511661.0377133,-7219.755,-40412.52,-30579.705,-11672.055,-11687.535,-36504.99,-25311.69,-22002.12
1764511661.0867364,-7223.13,-40416.255,-30582.9,-11675.07,-11690.595,-36508.23,-25314.57,-22005.315
1764511661.0867364,-7220.745,-40414.095,-30580.245,-11672.28,-11687.355,-36505.305,-25312.275,-22003.605
1764511661.0867364,-7223.94,-40418.595,-30584.79,-11676.555,-11692.53,-36509.85,-25317.045,-22007.97
1764511661.087732,-7224.03,-40417.92,-30583.665,-11676.015,-11692.305,-36508.95,-25317.315,-22006.665
1764511661.087732,-7221.554999999999,-40415.265,-30581.1,-11673.855,-11689.335,-36506.7,-25313.805,-22003.47
1764511661.087732,-7223.94,-40417.65,-30583.53,-11676.465,-11691.495,-36509.085,-25316.055,-22005.72
1764511661.087732,-7219.889999999999,-40412.565,-30578.94,-11673.135,-11686.275,-36504.36,-25311.915,-22000.545
1764511661.087732,-7218.63,-40411.215,-30577.455,-11671.605,-11685.285,-36503.145,-25310.565,-21998.205
1764511661.087732,-7220.565,-40415.445,-30580.965,-11674.98,-11689.47,-36507.015,-25313.805,-22000.005
1764511661.087732,-7226.82,-40422.06,-30587.445,-11682.09,-11696.13,-36513.495,-25319.925,-22005.54
1764511661.087732,-7227.0,-40421.7,-30587.49,-11681.505,-11695.455,-36513.135,-25320.015,-22003.965
1764511661.087732,-7223.67,-40414.905,-30579.66,-11675.745,-11688.93,-36505.17,-25315.38,-21998.295
1764511661.087732,-7225.92,-40419.54,-30583.62,-11679.705,-11693.25,-36509.445,-25317.72,-22001.13
1764511661.087732,-7226.37,-40419.63,-30583.665,-11679.57,-11692.89,-36509.445,-25318.395,-21999.78
1764511661.087732,-7221.599999999999,-40416.075,-30581.145,-11676.015,-11688.48,-36505.89,-25314.57,-21995.55
1764511661.087732,-7219.665,-40416.21,-30581.325,-11675.79,-11687.805,-36506.07,-25313.67,-21994.56
1764511661.0887358,-7220.34,-40417.155,-30581.415,-11677.05,-11688.615,-36506.52,-25314.66,-21994.74
1764511661.0887358,-7220.16,-40417.29,-30581.37,-11676.87,-11688.3,-36506.295,-25314.84,-21993.795
1764511661.0887358,-7219.98,-40417.695,-30581.775,-11676.465,-11688.12,-36506.385,-25315.245,-21992.58
1764511661.0887358,-7225.469999999999,-40421.34,-30584.88,-11680.155,-11692.44,-36509.58,-25319.475,-21995.415
1764511661.0887358,-7222.59,-40419.315,-30583.08,-11677.545,-11690.145,-36507.6,-25316.685,-21992.31
1764511661.0887358,-7223.804999999999,-40419.36,-30583.17,-11679.03,-11691.63,-36508.365,-25318.98,-21993.21
1764511661.1345484,-7219.44,-40416.255,-30581.055,-11676.015,-11688.57,-36505.755,-25316.19,-21988.62
1764511661.1345484,-7217.325,-40414.545,-30579.795,-11674.35,-11686.77,-36504.225,-25315.02,-21986.73
1764511661.1345484,-7216.695,-40415.355,-30580.605,-11675.88,-11687.715,-36505.395,-25316.1,-21987.18
1764511661.1345484,-7217.415,-40415.895,-30580.785,-11676.24,-11688.75,-36505.845,-25317.225,-21986.19
1764511661.1345484,-7218.315,-40417.245,-30581.73,-11677.905,-11690.415,-36505.98,-25318.26,-21986.55
1764511661.1345484,-7217.144999999999,-40418.865,-30583.62,-11678.67,-11690.955,-36507.78,-25319.205,-21985.74
1764511661.1345484,-7216.155,-40414.32,-30579.345,-11675.34,-11687.985,-36503.865,-25317.315,-21983.85
1764511661.1345484,-7217.054999999999,-40415.805,-30581.19,-11677.365,-11689.65,-36505.575,-25319.88,-21985.65
1764511661.1345484,-7216.335,-40414.905,-30579.84,-11676.105,-11688.48,-36503.415,-25318.665,-21984.03
1764511661.1345484,-7213.724999999999,-40415.04,-30580.47,-11676.33,-11688.93,-36504.09,-25317.675,-21982.455
1764511661.1345484,-7214.94,-40415.4,-30579.615,-11676.735,-11689.47,-36503.775,-25318.845,-21982.14
1764511661.1345484,-7217.73,-40419.36,-30583.98,-11680.2,-11692.08,-36507.96,-25323.39,-21984.525
1764511661.1345484,-7213.005,-40415.58,-30580.245,-11677.005,-11687.805,-36504.18,-25320.33,-21980.655
1764511661.1350589,-7215.434999999999,-40417.83,-30582.765,-11680.29,-11690.145,-36507.24,-25323.03,-21982.68
1764511661.1350589,-7214.355,-40417.065,-30582.315,-11680.38,-11689.695,-36506.79,-25322.985,-21982.185
1764511661.1350589,-7207.785,-40409.64,-30574.35,-11672.595,-11682.54,-36498.915,-25317.72,-21975.435
1764511661.1350589,-7207.019999999999,-40411.215,-30576.465,-11673.225,-11683.845,-36500.805,-25317.81,-21975.93
1764511661.1350589,-7210.844999999999,-40415.76,-30581.01,-11678.58,-11688.615,-36505.305,-25322.715,-21980.565
1764511661.1350589,-7208.054999999999,-40413.735,-30579.345,-11677.275,-11687.22,-36503.73,-25322.175,-21977.055
1764511661.1350589,-7212.33,-40418.955,-30584.79,-11683.215,-11693.34,-36509.985,-25327.305,-21980.115
1764511661.1350589,-7212.24,-40418.64,-30583.89,-11683.035,-11692.53,-36509.85,-25325.505,-21979.485
1764511661.1350589,-7209.855,-40414.365,-30578.445,-11679.21,-11688.795,-36504.63,-25322.535,-21976.92
1764511661.1350589,-7208.235,-40412.52,-30576.645,-11677.365,-11687.76,-36503.28,-25321.41,-21974.175
1764511661.1350589,-7204.545,-40410.495,-30575.43,-11676.33,-11686.005,-36501.885,-25317.99,-21970.665
1764511661.1798549,-7205.445,-40412.97,-30577.41,-11677.455,-11687.265,-36504.315,-25322.355,-21974.49
1764511661.1798549,-7202.79,-40409.28,-30573.45,-11673.585,-11682.585,-36501.03,-25320.33,-21971.79
1764511661.1798549,-7193.925,-40399.335,-30564.54,-11664.675,-11673.225,-36491.805,-25311.33,-21961.17
1764511661.1798549,-7191.179999999999,-40397.49,-30562.785,-11662.785,-11671.38,-36489.555,-25308.945,-21957.615
1764511661.1798549,-7190.82,-40397.94,-30563.145,-11662.695,-11671.47,-36490.545,-25310.475,-21958.965
1764511661.1798549,-7202.429999999999,-40408.92,-30573.81,-11673.495,-11682.315,-36501.345,-25320.33,-21973.59
1764511661.1798549,-7204.815,-40412.61,-30578.535,-11678.22,-11687.445,-36506.07,-25322.67,-21974.22
1764511661.1798549,-7201.889999999999,-40408.38,-30573.63,-11674.35,-11683.08,-36502.29,-25319.745,-21973.185
1764511661.1798549,-7207.11,-40413.915,-30578.445,-11678.67,-11687.58,-36507.51,-25323.57,-21980.16
1764511661.1798549,-7208.82,-40416.705,-30581.055,-11681.595,-11690.685,-36510.39,-25326.045,-21980.115
1764511661.1798549,-7204.455,-40411.35,-30575.52,-11675.88,-11684.925,-36504.405,-25321.95,-21975.525
1764511661.1798549,-7205.355,-40410.36,-30575.52,-11675.61,-11683.935,-36504.405,-25321.185,-21975.21
1764511661.1798549,-7200.764999999999,-40402.44,-30567.555,-11668.59,-11676.42,-36497.115,-25314.57,-21968.55
1764511661.1798549,-7201.259999999999,-40402.215,-30566.565,-11668.68,-11676.24,-36496.71,-25314.57,-21969.63
1764511661.1798549,-7201.755,-40403.565,-30567.375,-11670.03,-11677.725,-36497.565,-25315.2,-21971.025
1764511661.1798549,-7204.185,-40405.14,-30569.13,-11671.83,-11679.12,-36498.825,-25316.775,-21973.59
1764511661.1798549,-7209.54,-40409.19,-30573.63,-11675.475,-11683.17,-36503.37,-25319.7,-21978.945
1764511661.1798549,-7207.605,-40404.825,-30569.445,-11670.48,-11678.715,-36499.635,-25315.515,-21975.705
1764511661.1798549,-7211.429999999999,-40408.47,-30572.865,-11674.575,-11682.72,-36503.235,-25318.8,-21979.755
1764511661.1798549,-7213.86,-40409.37,-30573.855,-11676.24,-11684.115,-36504.315,-25320.465,-21981.78
1764511661.1798549,-7213.23,-40407.975,-30573.18,-11675.295,-11682.99,-36503.505,-25319.34,-21981.015
1764511661.1798549,-7208.19,-40400.73,-30566.34,-11668.545,-11675.88,-36496.845,-25313.58,-21975.48
1764511661.1798549,-7207.695,-40400.64,-30566.385,-11667.6,-11675.385,-36496.125,-25312.77,-21975.255
1764511661.1798549,-7211.88,-40403.97,-30568.815,-11670.93,-11678.76,-36499.23,-25315.83,-21977.505
1764511661.2250507,-7217.55,-40408.785,-30573.405,-11676.78,-11684.16,-36504.63,-25320.33,-21982.32
1764511661.2250507,-7217.955,-40408.92,-30573.405,-11676.96,-11684.25,-36504.18,-25319.115,-21982.59
1764511661.2250507,-7214.804999999999,-40404.105,-30569.4,-11672.28,-11679.57,-36499.815,-25315.56,-21979.08
1764511661.2250507,-7215.795,-40402.89,-30567.42,-11671.92,-11678.805,-36498.645,-25315.785,-21980.07
1764511661.2250507,-7215.974999999999,-40405.905,-30570.165,-11673.495,-11679.885,-36501.165,-25315.785,-21980.745
1764511661.2250507,-7217.144999999999,-40406.715,-30571.425,-11674.08,-11680.74,-36502.02,-25316.64,-21982.455
1764511661.2250507,-7221.87,-40411.71,-30575.835,-11678.805,-11685.195,-36506.79,-25320.735,-21987.36
1764511661.2250507,-7222.679999999999,-40409.37,-30572.865,-11676.78,-11683.8,-36504.0,-25320.645,-21987.09
1764511661.2250507,-7219.08,-40402.665,-30565.755,-11671.245,-11677.815,-36497.475,-25314.93,-21981.87
1764511661.2250507,-7219.44,-40402.755,-30565.8,-11671.47,-11678.76,-36497.7,-25315.11,-21981.24
1764511661.2250507,-7219.53,-40405.59,-30568.86,-11673.45,-11680.38,-36500.265,-25316.37,-21982.815
1764511661.2250507,-7220.25,-40408.38,-30572.46,-11675.61,-11682.315,-36503.145,-25318.575,-21984.03
1764511661.2250507,-7223.13,-40412.07,-30576.465,-11679.75,-11685.735,-36506.79,-25321.95,-21986.865
1764511661.2250507,-7220.025,-40408.83,-30573.495,-11676.69,-11682.945,-36504.045,-25319.43,-21983.895
1764511661.2250507,-7223.804999999999,-40413.465,-30578.13,-11680.83,-11688.21,-36508.455,-25323.615,-21987.765
1764511661.2250507,-7224.705,-40415.04,-30578.805,-11682.54,-11688.975,-36509.895,-25325.37,-21989.34
1764511661.2250507,-7224.12,-40414.5,-30578.535,-11682.0,-11688.615,-36509.4,-25324.875,-21987.945
1764511661.2250507,-7219.215,-40407.525,-30572.055,-11675.07,-11681.91,-36502.47,-25319.205,-21981.645
1764511661.2250507,-7217.594999999999,-40405.23,-30568.68,-11672.28,-11678.76,-36500.22,-25317.27,-21979.485
1764511661.2250507,-7222.32,-40410.405,-30573.63,-11677.365,-11683.035,-36505.395,-25321.545,-21983.805
1764511661.2250507,-7222.455,-40410.27,-30573.945,-11677.95,-11683.485,-36505.44,-25321.86,-21983.76
1764511661.2250507,-7222.23,-40409.685,-30573.27,-11677.095,-11682.9,-36504.99,-25321.995,-21982.905
1764511661.2250507,-7219.755,-40406.94,-30570.03,-11674.305,-11680.065,-36502.38,-25318.485,-21978.72
1764511661.2250507,-7223.13,-40410.585,-30573.27,-11678.265,-11683.755,-36506.52,-25321.23,-21982.05
1764511661.2722917,-7218.63,-40406.175,-30569.13,-11674.08,-11678.895,-36502.47,-25317.495,-21977.325
1764511661.2722917,-7217.73,-40404.915,-30568.41,-11673.315,-11677.77,-36501.705,-25317.315,-21976.38
1764511661.2722917,-7221.42,-40410.09,-30573.09,-11677.77,-11683.44,-36506.79,-25321.59,-21979.395
1764511661.2722917,-7217.91,-40406.805,-30569.58,-11675.07,-11679.48,-36502.965,-25316.505,-21974.67
1764511661.2722917,-7216.38,-40404.33,-30567.195,-11672.73,-11676.735,-36500.085,-25312.14,-21971.34
1764511661.2722917,-7215.795,-40401.54,-30563.955,-11669.04,-11673.36,-36497.79,-25313.535,-21971.835
1764511661.2722917,-7216.965,-40404.015,-30567.555,-11672.235,-11676.735,-36501.93,-25315.335,-21972.465
1764511661.2722917,-7221.465,-40409.685,-30573.135,-11677.905,-11681.91,-36507.465,-25320.105,-21976.92
1764511661.2722917,-7221.644999999999,-40409.865,-30573.54,-11678.625,-11682.36,-36507.69,-25320.195,-21976.02
1764511661.2722917,-7217.55,-40404.555,-30568.23,-11673.495,-11676.645,-36502.065,-25315.29,-21970.665
1764511661.2732975,-7217.009999999999,-40404.33,-30567.555,-11672.955,-11676.42,-36501.57,-25314.39,-21970.935
1764511661.2732975,-7220.969999999999,-40409.01,-30571.605,-11676.6,-11680.02,-36505.935,-25317.765,-21974.13
1764511661.2732975,-7221.87,-40409.64,-30571.74,-11677.635,-11681.325,-36507.195,-25318.62,-21974.805
1764511661.2732975,-7217.37,-40403.61,-30565.08,-11671.695,-11674.89,-36500.985,-25312.77,-21969.54
1764511661.2732975,-7215.66,-40400.415,-30562.065,-11668.95,-11671.56,-36497.565,-25310.97,-21967.74
1764511661.2732975,-7219.53,-40404.15,-30564.99,-11672.595,-11675.295,-36500.805,-25313.805,-21971.07
1764511661.2732975,-7222.094999999999,-40405.77,-30567.15,-11675.205,-11677.995,-36503.37,-25315.155,-21972.24
1764511661.2732975,-7220.34,-40401.855,-30563.865,-11671.56,-11674.44,-36500.625,-25312.005,-21970.305
1764511661.2732975,-7219.755,-40401.63,-30563.19,-11670.345,-11673.63,-36499.68,-25311.42,-21969.765
1764511661.2732975,-7226.505,-40409.325,-30570.255,-11677.95,-11680.83,-36506.565,-25317.045,-21976.11
1764511661.2732975,-7227.09,-40409.145,-30570.255,-11678.445,-11680.65,-36506.745,-25317.045,-21977.82
1764511661.2732975,-7221.87,-40402.125,-30563.415,-11672.19,-11673.99,-36500.265,-25311.69,-21972.915
1764511661.2732975,-7222.815,-40403.07,-30564.045,-11673.09,-11674.665,-36501.57,-25311.915,-21973.86
1764511661.2732975,-7226.865,-40407.21,-30567.645,-11677.455,-11679.12,-36505.665,-25315.47,-21978.585
1764511661.319138,-7222.41,-40400.28,-30561.39,-11671.29,-11672.64,-36500.13,-25309.26,-21973.86
1764511661.319138,-7225.245,-40402.755,-30564.675,-11673.585,-11674.665,-36502.83,-25311.285,-21976.47
1764511661.319138,-7222.905,-40398.93,-30561.165,-11670.435,-11670.795,-36499.455,-25307.955,-21974.265
1764511661.319138,-7225.29,-40399.965,-30562.425,-11671.965,-11673.045,-36501.435,-25309.305,-21977.055
1764511661.320132,-7231.95,-40405.995,-30568.005,-11678.175,-11679.39,-36507.645,-25314.93,-21983.4
1764511661.320132,-7233.57,-40405.77,-30568.365,-11678.265,-11679.435,-36508.275,-25315.29,-21984.39
1764511661.320132,-7230.69,-40401.18,-30564.765,-11673.945,-11675.115,-36503.865,-25311.24,-21981.78
1764511661.320132,-7231.86,-40402.215,-30564.99,-11674.44,-11675.295,-36504.27,-25311.06,-21982.545
1764511661.3211305,-7234.155,-40404.105,-30566.07,-11675.88,-11676.645,-36506.565,-25312.275,-21984.615
1764511661.3211305,-7237.215,-40405.59,-30567.96,-11678.805,-11678.94,-36509.13,-25314.57,-21988.71
1764511661.3211305,-7232.94,-40396.455,-30558.645,-11670.345,-11670.48,-36499.725,-25307.415,-21982.77
1764511661.3211305,-7236.269999999999,-40395.285,-30556.89,-11669.895,-11671.02,-36496.98,-25306.92,-21984.165
1764511661.3211305,-7239.014999999999,-40401.765,-30564.54,-11675.385,-11675.61,-36505.305,-25310.07,-21988.125
1764511661.322127,-7245.36,-40408.065,-30570.615,-11681.145,-11681.325,-36512.37,-25315.65,-21994.515
1764511661.322127,-7248.059999999999,-40407.705,-30569.715,-11681.865,-11681.82,-36511.74,-25316.28,-21996.315
1764511661.322127,-7249.005,-40409.37,-30572.64,-11682.765,-11682.855,-36513.72,-25316.28,-21997.26
1764511661.322127,-7249.41,-40409.235,-30572.505,-11682.63,-11682.495,-36513.72,-25315.155,-21996.495
1764511661.323135,-7247.655,-40406.445,-30568.5,-11679.57,-11678.94,-36511.155,-25312.32,-21993.525
1764511661.323135,-7252.785,-40410.9,-30573.09,-11683.575,-11683.665,-36516.375,-25316.055,-21998.475
1764511661.323135,-7254.224999999999,-40407.705,-30569.895,-11680.74,-11681.055,-36513.045,-25314.03,-21998.7
1764511661.323135,-7251.705,-40403.115,-30565.665,-11676.6,-11676.105,-36508.815,-25308.54,-21995.595
1764511661.323135,-7254.315,-40404.555,-30567.465,-11678.265,-11678.085,-36510.705,-25309.89,-21998.61
1764511661.323135,-7258.59,-40409.28,-30571.155,-11683.395,-11682.63,-36514.71,-25313.67,-22002.705
1764511661.3241277,-7257.644999999999,-40407.165,-30568.68,-11681.28,-11680.02,-36512.1,-25312.23,-21999.645
1764511661.3657148,-7262.775,-40412.205,-30573.72,-11685.915,-11684.34,-36517.14,-25316.73,-22004.415
1764511661.3657148,-7265.61,-40414.41,-30575.565,-11688.255,-11686.365,-36519.525,-25317.765,-22006.17
1764511661.3657148,-7266.33,-40413.87,-30575.295,-11687.76,-11685.915,-36518.67,-25316.595,-22005.45
1764511661.3657148,-7262.28,-40407.795,-30569.04,-11681.28,-11679.705,-36512.01,-25311.42,-22000.455
1764511661.3657148,-7263.855,-40408.83,-30569.67,-11681.64,-11680.2,-36512.46,-25311.555,-22000.32
1764511661.3657148,-7269.389999999999,-40413.6,-30574.17,-11686.23,-11684.88,-36518.175,-25315.29,-22005.54
1764511661.3657148,-7267.634999999999,-40409.91,-30571.02,-11683.89,-11681.775,-36515.655,-25311.735,-22002.795
1764511661.3657148,-7271.144999999999,-40412.88,-30573.18,-11686.365,-11684.16,-36517.815,-25313.94,-22005.765
1764511661.3657148,-7277.445,-40419.405,-30579.48,-11692.845,-11690.505,-36523.71,-25318.215,-22011.165
1764511661.3657148,-7280.28,-40421.565,-30581.73,-11694.78,-11692.89,-36525.825,-25317.855,-22012.515
1764511661.3657148,-7279.74,-40418.19,-30578.22,-11690.64,-11689.2,-36523.17,-25317.9,-22013.685
1764511661.3657148,-7280.235,-40415.94,-30575.97,-11689.47,-11687.04,-36520.695,-25315.92,-22013.595
1764511661.3657148,-7282.215,-40416.615,-30577.095,-11691.27,-11688.525,-36521.91,-25315.965,-22015.035
1764511661.3657148,-7283.07,-40414.23,-30575.43,-11689.155,-11686.815,-36520.515,-25314.165,-22014.99
1764511661.3657148,-7282.98,-40412.79,-30573.54,-11687.355,-11684.52,-36518.67,-25311.87,-22013.685
1764511661.3657148,-7279.74,-40407.12,-30567.42,-11681.865,-11678.355,-36512.55,-25306.965,-22008.33
1764511661.366221,-7279.695,-40405.86,-30566.52,-11680.74,-11677.455,-36511.515,-25305.255,-22007.655
1764511661.366221,-7283.205,-40407.39,-30567.69,-11682.72,-11679.165,-36513.945,-25307.595,-22011.525
1764511661.366221,-7290.855,-40414.14,-30573.945,-11688.84,-11685.555,-36520.875,-25312.005,-22017.15
1764511661.366221,-7289.505,-40412.43,-30572.82,-11686.815,-11684.34,-36519.615,-25310.07,-22013.73
1764511661.366221,-7282.17,-40404.285,-30564.405,-11678.67,-11676.375,-36512.1,-25302.69,-22002.57
1764511661.366221,-7281.315,-40403.025,-30562.47,-11677.185,-11674.08,-36510.705,-25301.565,-22001.265
1764511661.409801,-7288.65,-40409.73,-30568.59,-11683.71,-11680.425,-36516.87,-25306.11,-22011.93
1764511661.409801,-7296.974999999999,-40418.73,-30578.265,-11693.52,-11690.235,-36525.645,-25313.895,-22019.265
1764511661.409801,-7296.344999999999,-40417.56,-30576.33,-11691.36,-11688.12,-36523.395,-25312.545,-22016.835
1764511661.409801,-7305.165,-40422.33,-30580.74,-11696.715,-11693.295,-36528.345,-25318.35,-22025.61
1764511661.409801,-7301.655,-40418.46,-30577.995,-11692.89,-11689.47,-36526.14,-25315.065,-22019.22
1764511661.409801,-7302.735,-40418.82,-30578.58,-11692.8,-11689.425,-36526.545,-25315.065,-22017.555
1764511661.409801,-7305.165,-40420.395,-30580.02,-11694.15,-11690.595,-36527.76,-25315.83,-22018.14
1764511661.409801,-7309.665,-40423.815,-30582.495,-11697.12,-11693.16,-36530.28,-25318.395,-22019.85
1764511661.409801,-7306.29,-40418.46,-30577.635,-11692.53,-11688.525,-36524.79,-25312.77,-22014.225
1764511661.409801,-7305.705,-40416.165,-30575.295,-11690.55,-11686.185,-36523.26,-25310.52,-22012.92
1764511661.409801,-7309.304999999999,-40420.89,-30579.3,-11694.96,-11690.505,-36527.445,-25313.04,-22016.43
1764511661.4108157,-7306.155,-40415.76,-30574.62,-11691.27,-11686.05,-36522.765,-25309.08,-22012.065
1764511661.4108157,-7307.054999999999,-40415.94,-30575.115,-11691.855,-11686.32,-36523.125,-25308.9,-22012.02
1764511661.4108157,-7311.69,-40420.755,-30579.57,-11696.58,-11690.685,-36528.075,-25312.725,-22014.27
1764511661.4108157,-7309.304999999999,-40417.38,-30576.375,-11693.88,-11687.22,-36524.925,-25308.99,-22008.645
1764511661.4108157,-7311.42,-40419.405,-30578.13,-11696.445,-11689.29,-36526.005,-25309.17,-22008.645
1764511661.4108157,-7314.84,-40420.53,-30577.95,-11697.615,-11690.505,-36526.68,-25313.985,-22014.045
1764511661.4108157,-7313.355,-40418.955,-30576.69,-11696.67,-11689.11,-36525.78,-25313.265,-22013.28
1764511661.4108157,-7313.4,-40415.265,-30573.18,-11694.645,-11687.04,-36522.405,-25310.34,-22010.13
1764511661.4108157,-7309.844999999999,-40413.78,-30573.405,-11693.205,-11684.43,-36521.64,-25307.55,-22006.08
1764511661.4108157,-7309.304999999999,-40415.04,-30574.395,-11694.24,-11684.925,-36522.63,-25308.27,-22005.135
1764511661.4108157,-7311.465,-40417.92,-30577.095,-11697.84,-11687.715,-36525.105,-25311.06,-22006.98
1764511661.459112,-7316.099999999999,-40423.545,-30583.305,-11704.185,-11693.7,-36531.09,-25315.47,-22011.075
1764511661.459112,-7312.365,-40418.415,-30578.355,-11699.1,-11688.795,-36526.455,-25311.375,-22007.97
1764511661.459112,-7311.195,-40416.48,-30577.32,-11698.29,-11687.22,-36526.095,-25310.25,-22007.07
1764511661.4601128,-7313.94,-40418.055,-30578.895,-11701.215,-11689.425,-36527.355,-25313.04,-22009.86
1764511661.4601128,-7315.38,-40420.935,-30582.27,-11703.915,-11692.62,-36530.955,-25314.03,-22012.245
1764511661.4601128,-7317.719999999999,-40422.915,-30584.61,-11705.805,-11694.78,-36533.655,-25315.785,-22013.64
1764511661.4607882,-7321.23,-40426.47,-30587.985,-11709.09,-11697.795,-36537.57,-25319.565,-22017.42
1764511661.4607882,-7319.429999999999,-40422.105,-30584.52,-11705.805,-11693.115,-36533.205,-25316.82,-22014.855
1764511661.4611094,-7321.455,-40423.995,-30586.005,-11708.505,-11695.185,-36535.365,-25317.63,-22015.665
1764511661.4611094,-7326.134999999999,-40429.035,-30590.955,-11714.085,-11700.855,-36541.62,-25322.355,-22021.605
1764511661.4611094,-7327.934999999999,-40429.485,-30591.405,-11714.895,-11702.025,-36542.475,-25323.39,-22022.1
1764511661.4611094,-7326.179999999999,-40425.12,-30587.445,-11711.52,-11698.65,-36538.335,-25320.015,-22019.085
1764511661.4611094,-7322.445,-40420.395,-30582.495,-11706.75,-11693.745,-36533.79,-25314.975,-22015.08
1764511661.4611094,-7326.945,-40423.5,-30585.645,-11710.035,-11696.67,-36537.165,-25319.295,-22018.185
1764511661.4611094,-7326.315,-40420.665,-30583.665,-11707.65,-11694.105,-36534.33,-25317.0,-22015.305
1764511661.4621124,-7331.94,-40426.74,-30589.92,-11713.905,-11699.955,-36541.53,-25321.5,-22019.355
1764511661.4621124,-7333.965,-40428.63,-30591.945,-11716.515,-11702.385,-36543.96,-25323.3,-22020.75
1764511661.4621124,-7332.974999999999,-40426.02,-30589.47,-11714.355,-11700.72,-36542.16,-25321.725,-22019.04
1764511661.4621124,-7329.825,-40421.745,-30585.24,-11710.17,-11696.04,-36537.435,-25317.09,-22014.315
1764511661.4621124,-7330.905,-40421.385,-30584.655,-11710.62,-11695.95,-36537.795,-25316.415,-22015.035
1764511661.4621124,-7335.045,-40426.29,-30589.2,-11714.76,-11700.405,-36542.745,-25321.005,-22018.95
1764511661.4621124,-7334.505,-40422.105,-30584.43,-11711.97,-11697.885,-36539.28,-25319.205,-22016.295
1764511661.4621124,-7331.894999999999,-40420.215,-30582.675,-11709.765,-11695.905,-36538.38,-25316.505,-22012.425
1764511661.4621124,-7338.105,-40428.27,-30590.64,-11717.37,-11703.195,-36546.21,-25323.39,-22019.49
1764511661.5034492,-7337.295,-40428.27,-30590.865,-11717.505,-11702.34,-36546.165,-25322.13,-22018.68
1764511661.5044608,-7332.615,-40423.815,-30585.735,-11712.15,-11697.255,-36541.17,-25317.045,-22013.19
1764511661.5044608,-7332.929999999999,-40423.5,-30584.79,-11711.565,-11697.165,-36541.26,-25316.37,-22012.83
1764511661.5044608,-7334.19,-40423.905,-30585.645,-11712.105,-11697.885,-36541.53,-25317.0,-22013.235
1764511661.5044608,-7335.99,-40426.245,-30587.94,-11714.67,-11700.09,-36543.825,-25319.475,-22015.035
1764511661.5044608,-7341.615,-40432.5,-30593.88,-11721.465,-11705.445,-36549.675,-25324.92,-22019.85
1764511661.5044608,-7342.83,-40432.995,-30594.735,-11722.5,-11705.985,-36550.62,-25325.28,-22019.895
1764511661.5044608,-7338.554999999999,-40428.405,-30589.695,-11717.775,-11701.62,-36545.67,-25320.645,-22016.115
1764511661.5059712,-7338.554999999999,-40429.215,-30589.515,-11717.955,-11701.8,-36546.12,-25320.555,-22016.475
1764511661.5059712,-7346.115,-40436.955,-30597.57,-11725.515,-11709.405,-36553.68,-25327.53,-22023.54
1764511661.5059712,-7346.88,-40437.36,-30598.515,-11726.64,-11709.765,-36554.715,-25328.115,-22024.845
1764511661.5059712,-7343.955,-40432.545,-30594.195,-11722.545,-11705.58,-36550.035,-25325.055,-22020.975
1764511661.5059712,-7348.995,-40437.81,-30598.785,-11726.595,-11709.99,-36555.48,-25329.375,-22025.565
1764511661.5069835,-7350.389999999999,-40438.035,-30597.975,-11726.955,-11710.395,-36555.615,-25330.545,-22026.555
1764511661.5069835,-7351.65,-40439.07,-30600.18,-11728.35,-11712.015,-36556.425,-25330.77,-22027.68
1764511661.5069835,-7353.045,-40438.845,-30600.99,-11728.845,-11712.105,-36556.065,-25330.365,-22027.59
1764511661.5069835,-7349.67,-40434.84,-30595.635,-11723.67,-11707.605,-36551.115,-25325.55,-22023.63
1764511661.5069835,-7348.59,-40434.03,-30594.69,-11722.23,-11706.255,-36550.395,-25324.515,-22023.405
1764511661.5069835,-7349.759999999999,-40433.985,-30595.005,-11723.265,-11705.94,-36550.665,-25324.785,-22024.35
1764511661.5079846,-7357.005,-40435.92,-30596.895,-11727.36,-11709.945,-36551.745,-25328.205,-22028.805
1764511661.5079846,-7356.059999999999,-40436.28,-30596.715,-11727.495,-11710.08,-36551.61,-25324.47,-22026.015
1764511661.5079846,-7357.634999999999,-40439.07,-30599.28,-11727.855,-11710.62,-36554.58,-25328.07,-22031.145
1764511661.5079846,-7359.615,-40436.595,-30595.41,-11726.145,-11708.865,-36550.98,-25328.34,-22032.27
1764511661.5079846,-7360.065,-40439.115,-30598.065,-11728.305,-11710.755,-36554.4,-25326.945,-22032.09
1764511661.551359,-7356.915,-40434.57,-30593.835,-11724.165,-11706.39,-36549.72,-25323.885,-22028.715
1764511661.551359,-7358.849999999999,-40439.025,-30598.695,-11727.0,-11710.44,-36553.905,-25327.08,-22032.495
1764511661.551359,-7364.7,-40445.955,-30605.13,-11732.94,-11716.695,-36560.7,-25332.48,-22038.345
1764511661.551359,-7364.969999999999,-40444.2,-30603.195,-11731.68,-11715.975,-36560.295,-25332.075,-22038.03
1764511661.551359,-7360.29,-40436.595,-30595.635,-11724.525,-11708.505,-36553.23,-25325.415,-22031.775
1764511661.551359,-7364.565,-40439.475,-30598.605,-11727.63,-11711.07,-36555.705,-25327.08,-22034.34
1764511661.551359,-7369.92,-40445.145,-30602.835,-11732.49,-11715.525,-36560.115,-25331.13,-22038.705
1764511661.5523932,-7367.58,-40441.995,-30599.73,-11729.565,-11712.195,-36556.335,-25328.52,-22036.185
1764511661.5523932,-7368.57,-40443.12,-30601.575,-11730.96,-11713.905,-36557.865,-25330.995,-22036.725
1764511661.5523932,-7366.59,-40441.995,-30600.405,-11729.475,-11712.96,-36556.515,-25330.005,-22033.575
1764511661.5523932,-7366.815,-40443.03,-30600.495,-11729.745,-11713.095,-36556.29,-25328.97,-22033.98
1764511661.5523932,-7371.764999999999,-40445.505,-30601.845,-11731.185,-11714.76,-36558.63,-25330.185,-22041.63
1764511661.5523932,-7370.865,-40443.615,-30600.54,-11730.51,-11714.13,-36556.92,-25328.205,-22039.245
1764511661.5523932,-7369.469999999999,-40439.655,-30597.12,-11727.36,-11710.215,-36553.185,-25325.055,-22037.76
1764511661.5523932,-7370.639999999999,-40440.06,-30597.705,-11727.45,-11710.53,-36554.04,-25325.595,-22039.56
1764511661.5523932,-7373.34,-40443.615,-30601.575,-11731.23,-11714.22,-36558.45,-25328.43,-22039.56
1764511661.5523932,-7374.285,-40445.01,-30602.52,-11732.58,-11715.66,-36559.35,-25329.195,-22040.325
1764511661.5523932,-7373.88,-40444.38,-30603.24,-11732.535,-11715.165,-36559.575,-25330.545,-22041.495
1764511661.5539312,-7380.269999999999,-40449.465,-30609.18,-11737.89,-11721.24,-36565.515,-25334.505,-22045.815
1764511661.5539312,-7380.63,-40448.88,-30608.82,-11737.665,-11721.195,-36565.515,-25334.28,-22045.095
1764511661.5539312,-7380.315,-40448.205,-30608.28,-11737.53,-11720.475,-36564.885,-25333.83,-22044.015
1764511661.5539312,-7380.405,-40445.055,-30604.095,-11734.92,-11718.045,-36560.79,-25332.12,-22041.99
1764511661.5539312,-7378.875,-40445.82,-30604.77,-11735.28,-11717.775,-36561.645,-25331.265,-22041.045
1764511661.5539312,-7373.88,-40440.78,-30601.08,-11731.14,-11713.77,-36557.55,-25327.17,-22035.42
1764511661.5953636,-7371.764999999999,-40439.79,-30599.775,-11730.645,-11712.69,-36556.245,-25326.045,-22033.44
1764511661.5953636,-7371.9,-40440.465,-30600.27,-11730.915,-11713.095,-36557.775,-25328.565,-22034.34
1764511661.5953636,-7371.36,-40441.14,-30601.26,-11732.4,-11713.59,-36559.35,-25329.285,-22032.945
1764511661.5953636,-7371.405,-40441.32,-30601.8,-11733.48,-11714.76,-36559.8,-25329.825,-22032.09
1764511661.5953636,-7373.924999999999,-40447.89,-30608.595,-11739.51,-11720.97,-36566.145,-25334.415,-22036.365
1764511661.5953636,-7370.144999999999,-40445.28,-30605.67,-11736.495,-11717.55,-36563.265,-25331.715,-22031.595
1764511661.5953636,-7372.08,-40448.25,-30608.415,-11739.465,-11720.655,-36566.37,-25334.415,-22033.71
1764511661.595875,-7371.134999999999,-40446.18,-30607.38,-11738.43,-11719.62,-36565.245,-25332.255,-22032.675
1764511661.595875,-7367.085,-40440.87,-30602.925,-11733.93,-11714.895,-36560.655,-25328.205,-22026.69
1764511661.595875,-7368.3,-40443.885,-30604.995,-11737.44,-11717.64,-36563.805,-25330.455,-22026.78
1764511661.5964017,-7363.304999999999,-40439.745,-30600.315,-11732.985,-11712.69,-36559.62,-25326.18,-22020.93
1764511661.5964017,-7364.745,-40441.995,-30602.295,-11735.73,-11714.895,-36561.645,-25327.53,-22021.605
1764511661.5964017,-7364.474999999999,-40442.085,-30603.015,-11736.495,-11715.57,-36562.32,-25329.015,-22020.84
1764511661.5964017,-7367.13,-40446.27,-30606.975,-11740.275,-11718.99,-36565.83,-25332.165,-22023.63
1764511661.5964017,-7362.495,-40441.59,-30601.665,-11734.92,-11714.715,-36560.88,-25328.115,-22019.265
1764511661.5964017,-7363.844999999999,-40440.555,-30600.72,-11735.1,-11715.57,-36559.845,-25328.655,-22017.87
1764511661.5964017,-7368.434999999999,-40446.495,-30607.155,-11741.31,-11721.24,-36566.64,-25333.47,-22020.93
1764511661.5964017,-7365.15,-40445.415,-30606.435,-11740.905,-11719.53,-36565.38,-25330.725,-22016.16
1764511661.5964017,-7363.755,-40445.325,-30606.39,-11740.995,-11719.305,-36564.705,-25330.77,-22015.26
1764511661.5964017,-7361.639999999999,-40442.58,-30603.24,-11738.115,-11715.795,-36562.68,-25330.77,-22014.45
1764511661.645089,-7360.965,-40442.895,-30602.925,-11737.935,-11716.065,-36562.32,-25329.015,-22013.37
1764511661.645089,-7362.99,-40447.125,-30607.29,-11742.66,-11720.655,-36566.64,-25332.525,-22015.62
1764511661.645089,-7362.269999999999,-40446.945,-30607.605,-11742.975,-11720.835,-36567.09,-25332.39,-22014.9
1764511661.645089,-7362.269999999999,-40443.795,-30603.105,-11741.31,-11719.665,-36563.49,-25331.94,-22013.955
1764511661.645089,-7363.98,-40448.16,-30607.695,-11745.585,-11723.265,-36568.26,-25333.515,-22015.845
1764511661.645089,-7367.445,-40453.65,-30612.915,-11750.58,-11727.675,-36573.075,-25338.15,-22019.625
1764511661.645089,-7364.835,-40452.615,-30612.555,-11749.545,-11726.64,-36572.85,-25338.105,-22018.725
1764511661.645089,-7363.575,-40451.625,-30611.745,-11749.77,-11727.0,-36572.805,-25338.285,-22019.4
1764511661.645089,-7361.955,-40451.49,-30612.915,-11750.04,-11726.82,-36573.705,-25338.42,-22019.085
1764511661.645089,-7357.905,-40445.325,-30606.165,-11744.865,-11721.105,-36566.595,-25333.92,-22013.775
1764511661.645089,-7357.679999999999,-40448.745,-30609.27,-11747.475,-11723.625,-36570.105,-25334.865,-22015.44
1764511661.645089,-7362.719999999999,-40455.63,-30616.83,-11754.45,-11730.24,-36577.53,-25341.165,-22021.47
1764511661.645089,-7359.75,-40452.255,-30613.59,-11751.12,-11727.315,-36574.65,-25338.555,-22019.04
1764511661.645089,-7359.165,-40450.59,-30611.97,-11750.31,-11725.515,-36572.85,-25336.98,-22018.275
1764511661.645089,-7360.695,-40451.535,-30613.185,-11751.12,-11726.37,-36574.29,-25337.43,-22019.355
1764511661.645089,-7365.42,-40456.395,-30618.27,-11757.375,-11731.59,-36580.185,-25343.235,-22025.07
1764511661.645089,-7364.205,-40455.765,-30618.18,-11757.06,-11731.095,-36579.645,-25343.28,-22025.25
1764511661.645089,-7359.165,-40450.14,-30612.42,-11750.715,-11724.93,-36573.615,-25338.15,-22020.93
1764511661.645089,-7359.884999999999,-40451.67,-30613.68,-11751.795,-11725.965,-36575.145,-25338.69,-22022.46
1764511661.645089,-7359.84,-40449.69,-30612.195,-11750.13,-11725.245,-36574.29,-25338.015,-22022.055
1764511661.645089,-7358.894999999999,-40446.675,-30610.125,-11747.43,-11723.04,-36572.13,-25336.755,-22020.84
1764511661.645089,-7362.809999999999,-40449.96,-30612.915,-11751.075,-11725.83,-36573.84,-25339.68,-22023.99
1764511661.645089,-7358.264999999999,-40447.8,-30609.765,-11748.195,-11722.365,-36571.005,-25335.27,-22020.93
1764511661.645089,-7356.644999999999,-40447.575,-30608.64,-11746.845,-11721.24,-36569.475,-25334.145,-22019.265
1764511661.6888735,-7357.139999999999,-40447.53,-30608.325,-11747.25,-11720.88,-36568.71,-25334.325,-22020.525
1764511661.6888735,-7360.29,-40451.58,-30612.645,-11750.58,-11725.605,-36573.12,-25339.5,-22025.7
1764511661.6888735,-7360.065,-40450.095,-30611.25,-11749.995,-11724.525,-36570.78,-25339.095,-22026.195
1764511661.6888735,-7355.7,-40447.755,-30609.045,-11746.845,-11721.555,-36568.53,-25335.045,-22022.865
1764511661.6888735,-7355.61,-40450.455,-30612.06,-11748.33,-11723.67,-36571.23,-25336.845,-22025.61
1764511661.6888735,-7352.37,-40448.745,-30609.855,-11746.62,-11721.15,-36567.72,-25335.63,-22023.54
1764511661.6888735,-7345.394999999999,-40441.68,-30602.835,-11739.69,-11713.995,-36560.43,-25330.05,-22017.33
1764511661.6888735,-7345.98,-40440.555,-30601.845,-11739.285,-11714.22,-36559.8,-25330.455,-22017.915
1764511661.6888735,-7345.035,-40441.995,-30603.78,-11740.725,-11715.21,-36562.005,-25332.57,-22019.265
1764511661.6888735,-7347.915,-40446.72,-30607.47,-11744.505,-11720.07,-36565.065,-25337.43,-22022.865
1764511661.6888735,-7347.105,-40448.34,-30609.315,-11745.81,-11721.42,-36566.685,-25338.195,-22024.125
1764511661.6888735,-7344.315,-40448.565,-30611.025,-11746.08,-11721.33,-36567.54,-25338.42,-22024.53
1764511661.6888735,-7342.965,-40449.96,-30612.42,-11746.98,-11723.31,-36568.755,-25340.895,-22025.52
1764511661.6888735,-7339.5,-40447.575,-30609.63,-11745.855,-11722.32,-36565.425,-25337.745,-22021.83
1764511661.6888735,-7335.585,-40447.62,-30610.215,-11745.54,-11722.32,-36564.795,-25336.89,-22020.21
1764511661.6888735,-7327.259999999999,-40439.835,-30602.115,-11736.27,-11712.555,-36556.47,-25332.975,-22016.07
1764511661.6888735,-7322.219999999999,-40435.56,-30597.615,-11732.265,-11708.91,-36553.455,-25329.24,-22012.2
1764511661.6888735,-7321.365,-40435.785,-30598.695,-11733.66,-11709.945,-36554.13,-25331.22,-22012.695
1764511661.6888735,-7321.32,-40437.315,-30601.17,-11735.145,-11711.79,-36555.21,-25333.065,-22014.045
1764511661.6888735,-7322.94,-40441.005,-30605.355,-11738.7,-11715.165,-36558.27,-25337.25,-22017.69
1764511661.6888735,-7318.665,-40437.945,-30602.295,-11735.19,-11712.195,-36555.435,-25335.675,-22015.035
1764511661.6898885,-7313.355,-40430.52,-30593.97,-11729.655,-11707.245,-36547.83,-25331.22,-22011.615
1764511661.6898885,-7315.065,-40437.45,-30600.855,-11735.865,-11713.095,-36554.715,-25336.44,-22016.43
1764511661.6898885,-7311.059999999999,-40436.37,-30600.045,-11734.245,-11711.43,-36554.22,-25336.35,-22014.27
1764511661.7362597,-7303.679999999999,-40431.33,-30595.635,-11729.475,-11706.075,-36549.09,-25331.715,-22008.645
1764511661.7362597,-7300.71,-40430.205,-30595.14,-11728.35,-11706.075,-36548.28,-25331.805,-22008.195
1764511661.7362597,-7298.955,-40428.99,-30594.42,-11727.54,-11705.22,-36547.29,-25332.39,-22008.69
1764511661.7368002,-7300.889999999999,-40432.5,-30597.03,-11731.68,-11709.045,-36550.35,-25337.61,-22013.415
1764511661.7368002,-7294.59,-40431.15,-30595.995,-11730.33,-11707.47,-36549.405,-25336.44,-22011.39
1764511661.7368002,-7293.735,-40433.22,-30598.065,-11731.86,-11709.495,-36551.205,-25338.825,-22013.28
1764511661.7368002,-7286.804999999999,-40428.63,-30593.34,-11726.595,-11703.87,-36546.615,-25335.135,-22007.835
1764511661.7368002,-7284.735,-40429.125,-30593.655,-11726.91,-11704.995,-36547.11,-25336.44,-22007.97
1764511661.7368002,-7286.759999999999,-40431.105,-30595.725,-11729.7,-11707.965,-36548.505,-25339.005,-22010.265
1764511661.7368002,-7282.125,-40427.46,-30591.63,-11725.83,-11704.455,-36544.59,-25335.45,-22007.52
1764511661.7368002,-7282.71,-40432.005,-30596.535,-11729.34,-11708.775,-36549.225,-25338.645,-22010.805
1764511661.7368002,-7277.894999999999,-40428.675,-30593.97,-11726.82,-11705.445,-36545.805,-25335.405,-22006.755
1764511661.7368002,-7275.059999999999,-40426.695,-30591.63,-11724.345,-11703.105,-36544.095,-25332.795,-22004.055
1764511661.7368002,-7277.309999999999,-40430.475,-30594.915,-11727.18,-11706.57,-36548.19,-25336.845,-22007.16
1764511661.7368002,-7275.735,-40430.43,-30595.23,-11727.9,-11706.255,-36547.785,-25337.34,-22006.665
1764511661.7368002,-7270.605,-40426.245,-30592.53,-11724.03,-11702.295,-36544.41,-25334.1,-22002.525
1764511661.7368002,-7273.394999999999,-40430.25,-30596.265,-11727.72,-11705.805,-36548.325,-25336.89,-22005.27
1764511661.7368002,-7273.259999999999,-40430.295,-30595.725,-11727.72,-11705.94,-36548.595,-25336.665,-22004.28
1764511661.7368002,-7267.86,-40424.76,-30591.315,-11721.915,-11700.27,-36543.555,-25331.31,-21999.915
1764511661.7368002,-7266.87,-40423.365,-30590.01,-11720.88,-11699.505,-36541.845,-25329.555,-21999.105
1764511661.7368002,-7271.955,-40429.125,-30595.5,-11726.415,-11705.13,-36546.93,-25334.685,-22002.345
1764511661.7368002,-7271.639999999999,-40428.45,-30595.68,-11725.47,-11704.77,-36546.615,-25334.37,-22000.905
1764511661.7368002,-7265.205,-40420.35,-30587.895,-11717.19,-11696.22,-36538.695,-25326.405,-21994.515
1764511661.7368002,-7269.48,-40424.625,-30591.855,-11721.69,-11700.54,-36543.555,-25330.545,-21998.88
1764511661.7852323,-7270.11,-40425.39,-30591.945,-11722.59,-11701.08,-36544.14,-25330.14,-21998.25
1764511661.7857416,-7266.195,-40422.015,-30589.11,-11719.845,-11697.84,-36541.035,-25326.855,-21993.66
1764511661.7857416,-7266.014999999999,-40422.105,-30589.605,-11719.98,-11698.155,-36542.205,-25325.73,-21993.3
1764511661.7857416,-7267.23,-40421.07,-30589.065,-11720.295,-11698.065,-36541.98,-25325.595,-21993.66
1764511661.7857416,-7267.95,-40423.095,-30591.135,-11722.095,-11700.27,-36544.455,-25326.315,-21994.965
1764511661.7857416,-7268.49,-40426.245,-30593.655,-11724.03,-11702.655,-36547.065,-25328.205,-21997.17
1764511661.7857416,-7272.855,-40431.825,-30599.73,-11729.07,-11708.145,-36551.925,-25332.705,-22001.445
1764511661.7857416,-7266.554999999999,-40424.49,-30592.755,-11723.04,-11700.81,-36545.04,-25326.36,-21994.785
1764511661.7857416,-7261.38,-40421.43,-30590.505,-11720.79,-11697.795,-36541.8,-25321.5,-21988.125
1764511661.7857416,-7263.09,-40424.715,-30592.89,-11722.905,-11699.145,-36543.465,-25326.18,-21990.015
1764511661.7857416,-7261.559999999999,-40422.6,-30590.28,-11720.115,-11696.175,-36541.665,-25326.495,-21991.77
1764511661.7857416,-7267.094999999999,-40426.695,-30594.24,-11724.975,-11700.855,-36546.075,-25330.05,-22000.095
1764511661.7857416,-7263.675,-40425.39,-30593.835,-11724.795,-11701.395,-36545.49,-25329.285,-21995.64
1764511661.7857416,-7267.455,-40429.98,-30598.155,-11728.575,-11705.76,-36549.045,-25333.38,-21999.78
1764511661.7857416,-7264.394999999999,-40427.37,-30595.995,-11725.875,-11703.33,-36546.57,-25331.265,-21995.37
1764511661.7857416,-7260.795,-40424.805,-30593.295,-11723.67,-11700.9,-36544.275,-25329.645,-21991.815
1764511661.7857416,-7259.58,-40425.03,-30593.025,-11724.48,-11701.08,-36544.95,-25329.915,-21990.69
1764511661.7857416,-7261.695,-40426.785,-30594.78,-11727.045,-11703.87,-36546.48,-25332.39,-21991.23
1764511661.7857416,-7255.215,-40419.945,-30587.76,-11720.565,-11696.805,-36539.1,-25327.08,-21985.29
1764511661.7857416,-7255.755,-40420.44,-30588.705,-11720.205,-11696.805,-36539.325,-25327.485,-21984.57
1764511661.7857416,-7255.08,-40420.53,-30588.615,-11720.205,-11696.895,-36539.145,-25327.305,-21982.095
1764511661.7857416,-7256.429999999999,-40422.87,-30590.64,-11723.4,-11699.685,-36541.665,-25329.105,-21983.535
1764511661.7857416,-7260.615,-40428.045,-30596.67,-11729.7,-11705.535,-36547.11,-25333.605,-21988.35
1764511661.7857416,-7260.929999999999,-40429.17,-30598.2,-11731.635,-11706.48,-36547.605,-25335.09,-21987.63
1764511661.8302145,-7255.755,-40424.265,-30593.565,-11726.73,-11701.395,-36541.98,-25331.175,-21982.815
1764511661.8307476,-7254.719999999999,-40423.995,-30593.385,-11726.91,-11701.215,-36541.35,-25331.22,-21981.24
1764511661.8307476,-7257.87,-40428.0,-30597.165,-11730.51,-11704.995,-36544.77,-25334.415,-21984.48
1764511661.8307476,-7252.245,-40422.15,-30591.63,-11724.66,-11699.19,-36538.155,-25328.25,-21979.71
1764511661.8307476,-7249.094999999999,-40418.055,-30587.94,-11720.88,-11695.185,-36533.97,-25324.38,-21975.885
1764511661.8307476,-7251.12,-40419.855,-30590.055,-11723.31,-11697.075,-36536.13,-25326.945,-21978.63
1764511661.8307476,-7253.73,-40423.635,-30594.375,-11726.955,-11701.17,-36540.405,-25330.32,-21983.355
1764511661.8307476,-7250.49,-40420.035,-30591.585,-11724.12,-11698.47,-36537.39,-25328.385,-21981.51
1764511661.8307476,-7254.36,-40423.725,-30594.51,-11727.765,-11701.98,-36540.675,-25332.57,-21985.695
1764511661.8307476,-7253.325,-40421.655,-30591.99,-11725.92,-11700.045,-36537.975,-25331.22,-21983.985
1764511661.8307476,-7257.014999999999,-40424.445,-30595.185,-11730.24,-11704.095,-36540.99,-25334.19,-21987.405
1764511661.8307476,-7255.62,-40423.905,-30594.42,-11729.16,-11702.61,-36540.765,-25333.02,-21987.315
1764511661.8307476,-7257.33,-40425.525,-30595.59,-11729.61,-11703.465,-36541.305,-25333.92,-21989.16
1764511661.8307476,-7256.925,-40423.455,-30593.88,-11727.36,-11701.17,-36538.605,-25332.57,-21988.215
1764511661.8307476,-7254.045,-40415.76,-30586.455,-11720.16,-11694.825,-36531.18,-25327.17,-21983.625
1764511661.8307476,-7259.535,-40422.06,-30592.44,-11726.505,-11699.37,-36538.65,-25332.39,-21989.97
1764511661.8307476,-7260.344999999999,-40422.33,-30592.575,-11726.73,-11699.37,-36539.325,-25332.03,-21991.14
1764511661.8307476,-7258.32,-40417.605,-30588.345,-11722.725,-11695.905,-36534.015,-25328.16,-21987.54
1764511661.8307476,-7259.49,-40417.965,-30588.39,-11723.31,-11696.175,-36534.285,-25327.8,-21988.035
1764511661.8307476,-7263.9,-40421.97,-30591.855,-11727.045,-11699.415,-36537.615,-25330.815,-21990.825
1764511661.8307476,-7270.605,-40427.955,-30597.615,-11732.715,-11704.95,-36543.915,-25335.225,-21997.755
1764511661.8307476,-7273.53,-40429.35,-30599.1,-11733.795,-11706.21,-36545.31,-25336.08,-22000.365
1764511661.8307476,-7274.88,-40428.405,-30597.705,-11731.86,-11704.815,-36544.41,-25335.54,-22000.95
1764511661.832285,-7273.485,-40424.04,-30593.025,-11727.135,-11699.595,-36539.82,-25331.445,-21999.42
1764511661.8813138,-7269.344999999999,-40416.57,-30586.005,-11720.43,-11692.215,-36532.62,-25324.785,-21993.75
1764511661.8813138,-7271.82,-40416.345,-30585.555,-11720.79,-11692.215,-36532.71,-25325.145,-21996.045
1764511661.8813138,-7274.115,-40417.695,-30586.68,-11722.59,-11693.43,-36533.88,-25326.585,-21998.25
1764511661.8813138,-7279.92,-40421.925,-30591.27,-11727.18,-11698.2,-36538.965,-25330.32,-22003.11
1764511661.8813138,-7278.57,-40417.875,-30587.805,-11722.77,-11694.915,-36535.635,-25326.945,-22001.04
1764511661.8813138,-7281.045,-40419.18,-30588.795,-11723.265,-11696.445,-36536.805,-25327.845,-22002.39
1764511661.8813138,-7285.59,-40422.645,-30591.405,-11726.37,-11698.74,-36539.055,-25327.845,-22004.91
1764511661.8813138,-7288.245,-40422.33,-30591.63,-11726.325,-11698.11,-36538.47,-25327.125,-22006.935
1764511661.8813138,-7289.099999999999,-40418.73,-30588.705,-11722.455,-11695.005,-36536.175,-25328.205,-22010.265
1764511661.8813138,-7295.355,-40421.34,-30591.495,-11726.28,-11699.145,-36540.09,-25330.095,-22014.36
1764511661.8813138,-7292.79,-40414.32,-30585.375,-11720.07,-11692.125,-36534.105,-25323.66,-22009.86
1764511661.8813138,-7295.894999999999,-40413.15,-30584.655,-11719.17,-11691.045,-36533.295,-25321.95,-22011.165
1764511661.8813138,-7300.035,-40415.535,-30586.41,-11721.735,-11692.71,-36535.275,-25322.4,-22014.495
1764511661.8813138,-7308.809999999999,-40423.635,-30593.205,-11729.025,-11699.82,-36542.115,-25328.655,-22022.64
1764511661.8813138,-7310.925,-40423.005,-30592.62,-11728.575,-11699.28,-36541.845,-25328.07,-22024.395
1764511661.8813138,-7309.844999999999,-40417.245,-30587.535,-11723.805,-11694.33,-36537.84,-25322.985,-22021.02
1764511661.8813138,-7314.75,-40420.665,-30591.135,-11727.63,-11697.795,-36542.07,-25324.74,-22026.69
1764511661.8813138,-7313.759999999999,-40417.065,-30587.31,-11724.255,-11694.24,-36538.02,-25320.87,-22026.78
1764511661.8813138,-7314.929999999999,-40415.445,-30585.105,-11722.635,-11692.53,-36537.39,-25319.25,-22027.815
1764511661.8813138,-7317.179999999999,-40414.59,-30584.43,-11721.6,-11691.0,-36536.85,-25317.18,-22028.58
1764511661.8813138,-7319.115,-40412.34,-30581.595,-11718.765,-11688.93,-36534.645,-25314.39,-22029.39
1764511661.8813138,-7323.389999999999,-40413.87,-30584.475,-11721.195,-11691.045,-36537.48,-25316.1,-22033.125
1764511661.926083,-7327.8,-40416.93,-30587.265,-11724.57,-11694.015,-36540.81,-25318.26,-22037.76
1764511661.9270957,-7333.92,-40419.63,-30588.885,-11727.72,-11698.065,-36543.69,-25321.86,-22043.88
1764511661.9270957,-7332.165,-40416.165,-30585.465,-11723.535,-11693.88,-36541.44,-25317.855,-22042.26
1764511661.9270957,-7333.65,-40417.38,-30586.365,-11724.39,-11694.105,-36542.565,-25317.54,-22044.33
1764511661.9270957,-7335.45,-40417.65,-30586.905,-11726.28,-11694.78,-36544.635,-25317.18,-22046.49
1764511661.9270957,-7337.205,-40416.03,-30586.545,-11726.28,-11694.555,-36545.76,-25317.225,-22047.255
1764511661.9270957,-7340.625,-40418.91,-30589.02,-11728.485,-11697.075,-36549.09,-25318.665,-22049.82
1764511661.9270957,-7345.44,-40421.16,-30591.09,-11730.33,-11699.28,-36550.935,-25320.645,-22052.88
1764511661.9280956,-7342.469999999999,-40413.42,-30582.99,-11722.905,-11692.395,-36544.185,-25314.48,-22049.82
1764511661.9280956,-7344.224999999999,-40417.155,-30586.365,-11725.965,-11695.095,-36547.92,-25315.245,-22052.16
1764511661.9280956,-7346.61,-40418.595,-30589.02,-11728.665,-11696.985,-36550.89,-25316.415,-22055.13
1764511661.9280956,-7348.139999999999,-40418.415,-30588.75,-11728.665,-11696.985,-36551.43,-25317.27,-22055.265
1764511661.9290934,-7350.525,-40419.495,-30589.47,-11729.655,-11697.75,-36552.195,-25318.44,-22055.67
1764511661.9290934,-7355.565,-40424.085,-30593.835,-11735.19,-11703.24,-36557.01,-25323.255,-22060.53
1764511661.9290934,-7354.755,-40421.7,-30592.125,-11733.255,-11701.26,-36554.985,-25321.005,-22057.875
1764511661.9290934,-7357.995,-40422.51,-30592.44,-11734.47,-11702.97,-36555.12,-25322.31,-22058.055
1764511661.9290934,-7363.394999999999,-40428.045,-30597.255,-11739.645,-11708.055,-36560.565,-25326.765,-22062.06
1764511661.930092,-7360.965,-40426.065,-30596.58,-11737.305,-11705.4,-36559.71,-25324.38,-22059.63
1764511661.930092,-7353.945,-40416.435,-30587.4,-11727.99,-11696.13,-36549.765,-25316.505,-22051.08
1764511661.930092,-7354.934999999999,-40418.19,-30588.705,-11729.745,-11698.155,-36551.43,-25317.99,-22051.62
1764511661.930092,-7355.7,-40421.295,-30591.54,-11732.13,-11699.91,-36555.93,-25319.97,-22051.98
1764511661.930092,-7356.96,-40423.05,-30592.755,-11734.335,-11702.52,-36557.505,-25321.14,-22051.755
1764511661.930092,-7358.175,-40426.695,-30596.895,-11738.745,-11706.75,-36560.88,-25322.31,-22051.44
1764511661.9310906,-7356.87,-40425.435,-30595.5,-11736.81,-11704.725,-36559.395,-25323.795,-22050.54
1764511661.9757948,-7349.49,-40417.515,-30587.895,-11729.25,-11696.49,-36552.015,-25317.855,-22042.8
1764511661.9757948,-7349.13,-40416.66,-30587.265,-11729.475,-11695.455,-36550.89,-25316.865,-22041.945
1764511661.9757948,-7356.78,-40424.355,-30594.78,-11736.945,-11703.6,-36557.73,-25323.165,-22050.585
1764511661.9757948,-7359.255,-40428.405,-30599.595,-11741.985,-11708.865,-36562.365,-25327.44,-22050.405
1764511661.9757948,-7356.644999999999,-40424.4,-30595.005,-11737.845,-11703.24,-36557.73,-25324.065,-22048.695
1764511661.9757948,-7364.295,-40434.165,-30604.005,-11747.295,-11713.275,-36567.18,-25332.75,-22056.66
1764511661.9757948,-7361.55,-40433.175,-30602.655,-11747.34,-11712.555,-36566.865,-25331.355,-22051.53
1764511661.9757948,-7354.215,-40425.795,-30595.5,-11739.645,-11704.23,-36558.9,-25325.505,-22043.7
1764511661.9757948,-7352.505,-40424.805,-30594.375,-11738.34,-11703.69,-36558.27,-25325.55,-22042.62
1764511661.9757948,-7353.495,-40426.695,-30595.68,-11740.41,-11705.67,-36560.745,-25327.53,-22041.855
1764511661.9757948,-7354.394999999999,-40430.115,-30597.975,-11743.02,-11708.055,-36563.58,-25327.755,-22041.405
1764511661.9757948,-7357.23,-40434.885,-30602.79,-11747.61,-11712.105,-36567.45,-25330.68,-22044.285
1764511661.9757948,-7355.61,-40434.3,-30602.295,-11746.53,-11711.52,-36565.83,-25331.58,-22042.44
1764511661.9757948,-7352.639999999999,-40430.115,-30597.48,-11742.66,-11708.325,-36561.105,-25330.14,-22037.535
1764511661.9757948,-7348.995,-40425.705,-30593.835,-11739.33,-11704.41,-36556.92,-25326.765,-22032.315
1764511661.9757948,-7352.594999999999,-40433.4,-30601.62,-11746.08,-11710.575,-36564.165,-25332.795,-22036.905
1764511661.9757948,-7352.37,-40435.02,-30602.295,-11747.34,-11711.07,-36565.515,-25334.19,-22035.69
1764511661.9757948,-7351.019999999999,-40434.12,-30601.215,-11746.755,-11710.44,-36564.66,-25333.56,-22033.395
1764511661.9768045,-7345.62,-40429.935,-30597.03,-11743.245,-11706.255,-36559.98,-25330.14,-22027.77
1764511661.9768045,-7347.014999999999,-40432.77,-30599.235,-11745.495,-11708.46,-36562.095,-25331.805,-22028.04
1764511661.9768045,-7342.245,-40428.945,-30595.05,-11741.445,-11704.725,-36558.18,-25327.62,-22021.605
1764511661.9768045,-7340.94,-40429.665,-30595.365,-11742.12,-11705.94,-36558.495,-25327.845,-22020.435
1764511662.0216224,-7345.485,-40435.02,-30601.485,-11747.205,-11711.7,-36563.535,-25332.39,-22023.135
1764511662.022615,-7343.054999999999,-40433.94,-30600.18,-11746.035,-11709.63,-36561.6,-25332.075,-22020.615
1764511662.022615,-7336.934999999999,-40428.855,-30594.015,-11741.04,-11704.86,-36557.01,-25326.855,-22014.945
1764511662.022615,-7339.23,-40432.455,-30598.02,-11744.82,-11708.55,-36560.34,-25331.67,-22016.655
1764511662.022615,-7338.87,-40434.48,-30600.0,-11746.8,-11710.44,-36561.69,-25332.21,-22015.395
1764511662.022615,-7337.835,-40434.705,-30599.865,-11746.62,-11710.17,-36560.745,-25332.03,-22013.28
1764511662.022615,-7335.09,-40433.58,-30598.155,-11744.73,-11708.775,-36558.855,-25330.59,-22009.815
1764511662.022615,-7329.42,-40428.09,-30593.16,-11740.365,-11703.105,-36553.68,-25325.91,-22004.82
1764511662.022615,-7330.769999999999,-40431.33,-30596.76,-11744.28,-11706.93,-36557.145,-25328.43,-22006.44
1764511662.022615,-7326.405,-40426.875,-30592.62,-11739.735,-11703.24,-36553.14,-25325.28,-22000.905
1764511662.022615,-7324.965,-40427.145,-30592.845,-11740.185,-11703.555,-36553.185,-25325.235,-21998.97
1764511662.022615,-7326.675,-40431.33,-30596.76,-11744.145,-11707.92,-36557.145,-25328.34,-22001.535
1764511662.022615,-7321.634999999999,-40429.215,-30594.465,-11741.265,-11705.22,-36554.265,-25325.505,-21998.835
1764511662.022615,-7326.0,-40435.155,-30600.135,-11746.8,-11710.305,-36559.8,-25331.625,-22003.11
1764511662.022615,-7324.065,-40433.085,-30599.235,-11746.53,-11708.73,-36558.225,-25331.175,-22001.04
1764511662.022615,-7318.259999999999,-40427.505,-30592.35,-11740.23,-11702.88,-36552.51,-25325.595,-21994.56
1764511662.022615,-7316.955,-40428.405,-30593.79,-11741.355,-11703.87,-36553.95,-25325.505,-21993.84
1764511662.022615,-7316.37,-40429.755,-30595.635,-11742.615,-11705.265,-36554.94,-25326.36,-21992.67
1764511662.022615,-7314.884999999999,-40429.89,-30596.04,-11742.93,-11706.12,-36554.805,-25328.115,-21991.995
1764511662.022615,-7314.389999999999,-40428.18,-30594.015,-11742.39,-11705.58,-36553.635,-25329.06,-21991.905
1764511662.022615,-7320.014999999999,-40433.22,-30599.415,-11748.915,-11712.105,-36559.08,-25332.84,-21995.28
1764511662.022615,-7316.865,-40431.69,-30598.2,-11748.015,-11710.17,-36557.28,-25330.095,-21991.455
1764511662.022615,-7308.764999999999,-40423.77,-30589.515,-11739.465,-11701.53,-36548.955,-25326.36,-21986.595
1764511662.022615,-7314.795,-40428.405,-30593.34,-11744.55,-11707.605,-36552.69,-25331.13,-21990.69
1764511662.06894,-7314.03,-40433.625,-30599.505,-11748.6,-11711.565,-36559.44,-25333.02,-21990.87
1764511662.06894,-7308.54,-40429.53,-30596.58,-11744.415,-11707.695,-36556.695,-25329.24,-21986.055
1764511662.06894,-7308.179999999999,-40429.845,-30597.48,-11745.045,-11708.19,-36557.37,-25329.78,-21986.055
1764511662.06894,-7311.825,-40434.21,-30601.8,-11750.13,-11713.185,-36562.59,-25334.55,-21990.195
1764511662.06894,-7312.094999999999,-40435.2,-30603.15,-11751.3,-11714.31,-36564.21,-25336.62,-21990.915
1764511662.06894,-7310.969999999999,-40434.525,-30602.43,-11751.075,-11713.545,-36562.59,-25336.755,-21990.105
1764511662.06894,-7310.655,-40434.39,-30602.52,-11750.445,-11713.455,-36562.275,-25336.44,-21989.565
1764511662.0702271,-7307.28,-40429.53,-30598.245,-11746.305,-11708.505,-36558.45,-25332.48,-21985.155
1764511662.0702271,-7302.42,-40423.68,-30593.025,-11741.175,-11702.655,-36553.455,-25328.79,-21980.745
1764511662.0702271,-7308.09,-40427.775,-30595.815,-11745.495,-11706.75,-36556.29,-25332.39,-21984.21
1764511662.0702271,-7307.91,-40430.115,-30598.515,-11747.97,-11709.405,-36559.62,-25332.57,-21984.3
1764511662.0702271,-7303.995,-40426.38,-30594.465,-11743.695,-11705.895,-36556.245,-25328.97,-21981.105
1764511662.0702271,-7305.255,-40427.19,-30596.355,-11744.28,-11707.155,-36556.92,-25330.095,-21982.455
1764511662.0702271,-7309.98,-40431.105,-30600.54,-11748.555,-11711.745,-36561.015,-25334.955,-21986.91
1764511662.0702271,-7308.99,-40430.07,-30598.92,-11746.53,-11709.675,-36559.485,-25333.605,-21985.065
1764511662.0702271,-7304.67,-40425.165,-30592.845,-11741.355,-11703.375,-36553.635,-25329.42,-21980.565
1764511662.0702271,-7308.675,-40429.08,-30596.67,-11744.82,-11706.75,-36557.505,-25332.255,-21984.84
1764511662.0702271,-7308.495,-40427.595,-30595.5,-11743.83,-11706.03,-36556.155,-25330.905,-21984.84
1764511662.0702271,-7303.995,-40421.205,-30588.84,-11737.71,-11700.09,-36549.45,-25325.37,-21980.52
1764511662.0702271,-7306.245,-40421.835,-30588.705,-11738.16,-11700.72,-36549.315,-25326.09,-21983.265
1764511662.0702271,-7308.585,-40425.39,-30591.99,-11741.355,-11704.05,-36552.87,-25327.755,-21986.46
1764511662.0702271,-7314.165,-40431.555,-30597.885,-11746.845,-11709.18,-36558.54,-25332.885,-21992.355
1764511662.0702271,-7312.905,-40428.54,-30594.69,-11743.47,-11706.165,-36555.39,-25330.23,-21990.42
1764511662.0702271,-7316.099999999999,-40432.68,-30598.335,-11747.52,-11710.17,-36558.765,-25333.2,-21994.65
1764511662.1159437,-7313.264999999999,-40428.765,-30595.05,-11743.965,-11706.075,-36554.49,-25328.97,-21991.455
1764511662.1159437,-7314.255,-40428.09,-30594.42,-11743.605,-11705.085,-36553.725,-25328.025,-21992.49
1764511662.1159437,-7319.07,-40432.185,-30598.38,-11747.52,-11709.27,-36557.505,-25332.57,-21997.17
1764511662.1159437,-7316.19,-40426.47,-30593.565,-11742.48,-11703.555,-36552.195,-25328.385,-21993.48
1764511662.1159437,-7315.514999999999,-40426.02,-30592.62,-11740.68,-11702.565,-36550.935,-25326.945,-21993.255
1764511662.1159437,-7320.644999999999,-40429.215,-30595.14,-11743.425,-11705.805,-36553.86,-25330.14,-21999.015
1764511662.1159437,-7327.17,-40433.805,-30599.73,-11748.195,-11710.8,-36558.045,-25333.92,-22005.045
1764511662.1159437,-7330.32,-40435.65,-30601.8,-11750.67,-11711.97,-36559.575,-25335.36,-22008.33
1764511662.1159437,-7331.894999999999,-40435.965,-30602.475,-11751.3,-11712.915,-36560.115,-25335.27,-22010.13
1764511662.1159437,-7329.33,-40430.7,-30596.355,-11745.18,-11706.975,-36553.86,-25329.51,-22007.205
1764511662.11702,-7332.344999999999,-40430.97,-30597.39,-11745.45,-11707.605,-36554.4,-25329.6,-22009.5
1764511662.11702,-7337.79,-40435.29,-30601.305,-11749.185,-11711.52,-36558.81,-25333.155,-22014.855
1764511662.11702,-7337.205,-40432.905,-30598.875,-11747.025,-11708.73,-36556.92,-25330.005,-22013.505
1764511662.11702,-7342.019999999999,-40437.09,-30602.34,-11751.075,-11712.825,-36561.015,-25332.435,-22018.5
1764511662.11702,-7342.155,-40435.83,-30601.395,-11749.68,-11711.565,-36559.98,-25329.24,-22018.32
1764511662.11702,-7345.125,-40435.695,-30601.755,-11750.085,-11712.555,-36560.16,-25329.465,-22020.615
1764511662.11702,-7348.455,-40436.865,-30603.465,-11751.03,-11714.085,-36560.79,-25330.59,-22024.395
1764511662.11702,-7355.655,-40442.4,-30609.27,-11756.07,-11719.8,-36566.325,-25335.045,-22031.19
1764511662.1610875,-7357.95,-40442.94,-30609.315,-11755.98,-11719.98,-36565.965,-25334.19,-22032.855
1764511662.1620922,-7357.634999999999,-40438.26,-30603.69,-11751.84,-11715.525,-36560.295,-25330.095,-22029.39
1764511662.1620922,-7361.775,-40442.67,-30608.28,-11755.17,-11719.395,-36564.39,-25331.85,-22032.855
1764511662.1620922,-7362.045,-40441.95,-30607.155,-11754.855,-11718.405,-36562.68,-25327.845,-22031.64
1764511662.1620922,-7365.33,-40443.255,-30607.605,-11756.16,-11718.855,-36563.445,-25330.365,-22036.095
1764511662.1620922,-7363.889999999999,-40437.27,-30602.88,-11749.59,-11712.915,-36558.045,-25325.64,-22032.72
1764511662.1620922,-7366.23,-40435.245,-30600.45,-11747.745,-11711.295,-36556.155,-25322.13,-22032.045
1764511662.16309,-7371.99,-40437.72,-30602.925,-11750.625,-11714.985,-36558.72,-25323.705,-22035.6
1764511662.16309,-7378.29,-40441.995,-30606.255,-11754.405,-11718.36,-36562.995,-25326.18,-22039.605
1764511662.16309,-7377.03,-40440.24,-30603.735,-11752.155,-11715.12,-36561.105,-25323.165,-22037.13
1764511662.16309,-7381.71,-40443.03,-30606.03,-11754.585,-11718.045,-36563.67,-25326.405,-22041.045
1764511662.16309,-7381.035,-40440.24,-30603.285,-11751.435,-11714.895,-36559.98,-25323.21,-22038.66
1764511662.16309,-7385.715,-40443.885,-30607.245,-11755.215,-11718.585,-36563.265,-25325.82,-22041.27
1764511662.16309,-7382.519999999999,-40439.295,-30602.205,-11750.58,-11713.23,-36558.18,-25322.4,-22035.825
1764511662.16309,-7381.304999999999,-40435.875,-30600.045,-11747.295,-11710.17,-36555.705,-25319.07,-22031.64
1764511662.16309,-7384.139999999999,-40438.26,-30602.295,-11749.185,-11712.78,-36557.955,-25320.735,-22032.945
1764511662.16309,-7386.389999999999,-40439.16,-30602.925,-11749.77,-11712.825,-36557.595,-25320.78,-22037.13
1764511662.16309,-7398.54,-40449.78,-30613.23,-11761.83,-11725.245,-36567.99,-25330.77,-22049.73
1764511662.16309,-7395.57,-40445.595,-30610.215,-11759.04,-11721.195,-36565.38,-25326.765,-22043.88
1764511662.1646006,-7398.495,-40446.765,-30611.16,-11760.03,-11721.915,-36566.28,-25328.655,-22049.19
1764511662.1646006,-7399.755,-40448.88,-30613.185,-11762.145,-11723.625,-36568.53,-25330.23,-22050.54
1764511662.1646006,-7398.63,-40447.215,-30611.7,-11760.975,-11722.185,-36567.54,-25328.835,-22048.65
1764511662.1646006,-7398.945,-40447.35,-30611.835,-11761.155,-11722.095,-36567.72,-25329.015,-22048.56
1764511662.1646006,-7399.62,-40448.43,-30612.69,-11762.28,-11722.77,-36568.755,-25329.96,-22050.045
1764511662.1646006,-7401.42,-40450.95,-30614.67,-11764.62,-11725.155,-36571.635,-25331.22,-22052.745
1764511662.1646006,-7403.849999999999,-40453.605,-30618.495,-11767.455,-11728.08,-36574.965,-25333.245,-22054.14
1764511662.1646006,-7402.365,-40452.165,-30617.73,-11765.745,-11727.09,-36573.57,-25330.995,-22050.765
1764511662.1646006,-7404.075,-40454.1,-30619.35,-11768.22,-11729.07,-36575.64,-25333.605,-22052.835
1764511662.204156,-7407.855,-40458.285,-30624.165,-11773.125,-11733.12,-36581.085,-25337.61,-22057.56
1764511662.204156,-7409.7,-40460.085,-30625.875,-11775.195,-11735.19,-36583.74,-25338.69,-22057.92
1764511662.204156,-7408.17,-40458.78,-30624.57,-11773.98,-11734.74,-36583.605,-25337.745,-22054.095
1764511662.204156,-7408.215,-40458.87,-30625.425,-11775.33,-11735.55,-36584.37,-25337.565,-22053.78
1764511662.2051735,-7409.88,-40460.67,-30626.865,-11776.455,-11736.9,-36586.215,-25338.96,-22054.815
1764511662.2051735,-7405.92,-40458.015,-30624.795,-11775.015,-11735.37,-36583.92,-25335.45,-22050.45
1764511662.2051735,-7409.07,-40462.695,-30630.6,-11781.045,-11741.22,-36589.095,-25340.175,-22053.33
1764511662.2051735,-7403.58,-40455.765,-30623.67,-11774.34,-11733.93,-36583.965,-25338.105,-22049.145
1764511662.2074788,-7403.219999999999,-40457.34,-30625.065,-11776.455,-11735.37,-36586.53,-25339.005,-22047.48
1764511662.2074788,-7406.415,-40461.48,-30628.935,-11780.955,-11739.51,-36590.22,-25342.83,-22049.64
1764511662.2074788,-7402.049999999999,-40457.565,-30624.975,-11776.635,-11734.965,-36586.395,-25339.77,-22042.935
1764511662.2074788,-7401.465,-40457.205,-30625.695,-11777.04,-11734.83,-36586.665,-25341.165,-22040.82
1764511662.2074788,-7403.715,-40462.155,-30630.105,-11782.305,-11739.69,-36591.57,-25345.26,-22042.845
1764511662.2074788,-7399.665,-40459.32,-30627.315,-11779.65,-11737.305,-36588.33,-25342.155,-22037.895
1764511662.2074788,-7401.465,-40464.135,-30633.075,-11785.455,-11742.48,-36594.54,-25346.025,-22039.605
1764511662.2074788,-7401.915,-40466.88,-30635.955,-11788.11,-11744.685,-36596.565,-25347.915,-22038.705
1764511662.2074788,-7399.17,-40465.845,-30634.605,-11787.345,-11743.2,-36595.35,-25346.655,-22035.465
1764511662.2074788,-7394.894999999999,-40462.56,-30630.735,-11784.24,-11740.32,-36593.055,-25343.415,-22030.245
1764511662.2074788,-7389.495,-40459.14,-30627.045,-11780.46,-11737.44,-36590.22,-25340.355,-22022.91
1764511662.2074788,-7392.644999999999,-40465.08,-30632.49,-11786.22,-11743.065,-36595.215,-25346.295,-22026.015
1764511662.2074788,-7387.559999999999,-40460.805,-30628.17,-11782.755,-11738.52,-36590.58,-25342.29,-22019.445
1764511662.2074788,-7387.83,-40463.415,-30631.725,-11786.175,-11741.535,-36593.595,-25345.17,-22019.49
1764511662.252728,-7384.455,-40461.525,-30629.79,-11784.42,-11739.42,-36591.435,-25343.595,-22016.43
1764511662.252728,-7376.849999999999,-40454.73,-30623.67,-11777.94,-11732.715,-36585.81,-25337.88,-22008.735
1764511662.252728,-7376.67,-40457.385,-30625.965,-11780.595,-11734.83,-36588.15,-25339.545,-22008.555
1764511662.252728,-7381.665,-40466.925,-30634.335,-11788.965,-11743.65,-36596.475,-25347.33,-22014.495
1764511662.252728,-7379.955,-40467.06,-30634.695,-11790.135,-11743.83,-36597.015,-25348.32,-22014.495
1764511662.252728,-7374.69,-40461.705,-30628.485,-11785.32,-11739.87,-36591.03,-25344.945,-22008.825
1764511662.252728,-7368.57,-40455.36,-30620.565,-11778.795,-11735.055,-36583.335,-25338.87,-22001.76
1764511662.252728,-7371.179999999999,-40460.805,-30627.495,-11785.365,-11740.32,-36588.78,-25343.55,-22006.215
