Timestamp,Channel1,Channel2,Channel3,Channel4,Channel5,Channel6,Channel7,Channel8
1764511269.5470862,-4676.04,-39284.01,-30685.95,-9762.525,-9738.045,-37116.765,-24474.87,-22321.35
1764511269.5470862,-4681.53,-39290.625,-30692.52,-9769.41,-9744.12,-37123.065,-24481.935,-22326.57
1764511269.5470862,-4677.795,-39286.575,-30688.515,-9765.495,-9739.89,-37119.42,-24478.83,-22322.07
1764511269.5470862,-4676.04,-39285.495,-30687.84,-9765.045,-9739.44,-37118.43,-24479.055,-22321.215
1764511269.5470862,-4674.96,-39285.135,-30687.84,-9765.225,-9739.62,-37118.61,-24478.875,-22321.035
1764511269.5470862,-4678.02,-39289.005,-30692.295,-9769.41,-9743.445,-37122.66,-24483.6,-22323.69
1764511269.5470862,-4677.615,-39289.095,-30692.115,-9769.275,-9743.895,-37122.165,-24484.995,-22323.24
1764511269.5470862,-4672.08,-39282.93,-30686.085,-9763.38,-9738.27,-37116.72,-24480.225,-22316.895
1764511269.5470862,-4671.09,-39282.03,-30685.635,-9763.065,-9737.19,-37116.36,-24480.9,-22315.455
1764511269.5470862,-4671.315,-39283.74,-30687.66,-9765.63,-9739.215,-37119.465,-24483.87,-22316.04
1764511269.5470862,-4665.69,-39280.5,-30683.97,-9761.805,-9735.57,-37115.37,-24480.765,-22310.37
1764511269.5470862,-4664.79,-39281.22,-30684.465,-9761.94,-9735.705,-37115.685,-24481.53,-22308.57
1764511269.5470862,-4664.429999999999,-39281.715,-30685.275,-9762.435,-9736.065,-37116.855,-24482.16,-22306.41
1764511269.5470862,-4665.735,-39283.29,-30686.4,-9764.145,-9738.27,-37119.105,-24483.555,-22305.915
1764511269.5470862,-4666.32,-39285.765,-30689.055,-9766.71,-9740.52,-37121.625,-24485.76,-22305.915
1764511269.5470862,-4669.56,-39289.995,-30693.195,-9771.12,-9744.525,-37125.765,-24490.395,-22308.93
1764511269.5470862,-4667.13,-39288.015,-30691.665,-9769.68,-9743.4,-37123.74,-24490.035,-22305.555
1764511269.5470862,-4663.304999999999,-39282.03,-30684.6,-9764.28,-9737.955,-37117.17,-24487.2,-22299.57
1764511269.5486052,-4665.014999999999,-39287.97,-30690.09,-9770.175,-9742.545,-37123.29,-24490.755,-22302.72
1764511269.5486052,-4661.415,-39282.075,-30684.78,-9765.405,-9737.28,-37117.71,-24487.29,-22298.445
1764511269.5486052,-4660.695,-39283.02,-30686.22,-9765.45,-9737.955,-37119.195,-24487.605,-22298.265
1764511269.5486052,-4666.455,-39289.905,-30693.015,-9771.975,-9744.3,-37125.855,-24493.41,-22302.765
1764511269.5486052,-4668.389999999999,-39289.995,-30693.285,-9771.75,-9743.715,-37126.125,-24493.005,-22302.72
1764511269.5486052,-4666.815,-39286.845,-30690.135,-9768.42,-9740.115,-37123.38,-24490.665,-22299.84
1764511269.5982685,-4660.965,-39279.465,-30683.25,-9761.535,-9732.915,-37116.765,-24484.905,-22292.595
1764511269.5982685,-4661.28,-39277.44,-30682.17,-9760.14,-9731.52,-37114.965,-24484.275,-22291.92
1764511269.5982685,-4664.655,-39281.58,-30685.77,-9763.29,-9735.75,-37119.555,-24488.1,-22295.7
1764511269.5982685,-4661.639999999999,-39277.485,-30682.125,-9759.015,-9731.565,-37115.64,-24484.815,-22291.92
1764511269.5982685,-4661.415,-39277.17,-30681.99,-9757.755,-9730.44,-37114.245,-24483.51,-22290.885
1764511269.5982685,-4661.19,-39277.17,-30682.395,-9758.295,-9731.025,-37114.29,-24482.97,-22291.29
1764511269.5982685,-4662.27,-39277.89,-30682.62,-9758.52,-9731.07,-37114.785,-24483.195,-22290.525
1764511269.5982685,-4664.61,-39281.355,-30685.545,-9761.4,-9734.715,-37118.295,-24486.255,-22293.72
1764511269.5982685,-4668.795,-39285.27,-30689.415,-9764.64,-9738.495,-37122.21,-24489.09,-22297.77
1764511269.5982685,-4665.465,-39278.34,-30682.755,-9758.205,-9731.115,-37115.145,-24483.465,-22292.685
1764511269.5982685,-4666.095,-39277.89,-30681.945,-9757.395,-9731.43,-37114.875,-24482.07,-22293.405
1764511269.5982685,-4670.82,-39284.055,-30688.47,-9763.47,-9737.775,-37120.23,-24486.615,-22297.995
1764511269.5982685,-4672.71,-39285.63,-30689.415,-9763.515,-9738.585,-37120.68,-24487.695,-22300.2
1764511269.5982685,-4671.63,-39284.1,-30687.705,-9761.535,-9736.65,-37119.015,-24486.615,-22301.55
1764511269.5982685,-4666.545,-39277.62,-30681.585,-9755.37,-9730.17,-37112.625,-24480.72,-22297.545
1764511269.5982685,-4666.095,-39276.855,-30680.1,-9754.245,-9728.865,-37111.5,-24479.415,-22297.14
1764511269.5982685,-4667.264999999999,-39277.845,-30681.945,-9755.685,-9729.855,-37111.995,-24479.28,-22299.03
1764511269.5982685,-4669.29,-39278.34,-30682.89,-9756.945,-9731.295,-37113.03,-24480.54,-22302.27
1764511269.5982685,-4669.83,-39279.285,-30683.655,-9757.62,-9732.195,-37113.615,-24479.865,-22304.79
1764511269.5982685,-4670.73,-39280.41,-30684.6,-9758.385,-9732.285,-37114.335,-24479.145,-22307.085
1764511269.5982685,-4672.304999999999,-39281.22,-30685.95,-9759.555,-9733.545,-37115.28,-24479.64,-22309.245
1764511269.5982685,-4678.29,-39287.115,-30692.07,-9764.775,-9739.08,-37121.31,-24484.095,-22314.915
1764511269.645084,-4679.955,-39288.555,-30692.52,-9765.63,-9739.8,-37121.94,-24484.77,-22316.715
1764511269.645084,-4679.82,-39288.24,-30692.205,-9765.495,-9739.395,-37121.31,-24484.32,-22318.11
1764511269.645084,-4678.47,-39285.765,-30690.09,-9763.29,-9737.01,-37118.79,-24481.62,-22316.895
1764511269.645084,-4672.62,-39279.555,-30684.825,-9758.115,-9731.79,-37113.12,-24477.21,-22311.99
1764511269.645084,-4671.945,-39279.69,-30685.14,-9758.43,-9732.24,-37114.065,-24477.03,-22312.215
1764511269.645084,-4673.835,-39282.03,-30687.165,-9760.815,-9734.49,-37115.505,-24479.37,-22314.285
1764511269.6460812,-4677.345,-39286.575,-30691.53,-9765.27,-9739.755,-37120.095,-24483.465,-22318.83
1764511269.6460812,-4676.355,-39285.675,-30690.855,-9764.19,-9738.63,-37119.465,-24483.33,-22318.83
1764511269.6460812,-4671.315,-39278.565,-30684.195,-9757.44,-9731.295,-37112.625,-24477.84,-22312.665
1764511269.6460812,-4670.415,-39277.35,-30682.665,-9756.63,-9729.945,-37111.365,-24476.895,-22312.08
1764511269.6460812,-4672.665,-39281.22,-30686.13,-9760.455,-9733.59,-37114.74,-24480.72,-22314.915
1764511269.6460812,-4668.66,-39277.215,-30682.44,-9756.765,-9729.54,-37110.915,-24478.02,-22311.585
1764511269.6470895,-4671.27,-39282.39,-30687.345,-9761.625,-9734.175,-37116.045,-24482.52,-22314.195
1764511269.6470895,-4671.764999999999,-39283.965,-30688.83,-9763.02,-9736.245,-37116.675,-24484.86,-22314.375
1764511269.6470895,-4668.615,-39281.985,-30687.39,-9761.895,-9734.85,-37114.83,-24482.07,-22312.215
1764511269.6470895,-4672.665,-39287.295,-30692.79,-9766.53,-9740.115,-37120.32,-24486.03,-22316.445
1764511269.6470895,-4671.63,-39286.665,-30692.52,-9766.665,-9740.34,-37120.095,-24486.255,-22315.86
1764511269.6470895,-4669.605,-39284.37,-30689.145,-9764.1,-9737.55,-37117.89,-24484.185,-22313.25
1764511269.6470895,-4663.845,-39277.8,-30682.44,-9756.675,-9730.44,-37111.545,-24477.615,-22306.32
1764511269.6470895,-4662.855,-39276.0,-30680.415,-9755.145,-9728.145,-37110.33,-24476.265,-22303.98
1764511269.6470895,-4663.889999999999,-39277.845,-30681.99,-9756.945,-9729.36,-37110.915,-24477.345,-22303.575
1764511269.6470895,-4664.34,-39279.645,-30683.655,-9758.565,-9731.34,-37112.22,-24478.92,-22303.755
1764511269.6470895,-4667.22,-39284.325,-30688.875,-9763.38,-9736.47,-37116.72,-24482.88,-22306.815
1764511269.6470895,-4665.24,-39282.84,-30686.67,-9760.815,-9734.67,-37114.065,-24481.485,-22304.7
1764511269.6470895,-4659.84,-39279.33,-30682.755,-9756.945,-9730.935,-37110.645,-24478.02,-22299.48
1764511269.6470895,-4660.83,-39276.72,-30679.515,-9756.045,-9729.9,-37108.35,-24478.38,-22297.5
1764511269.6924872,-4659.66,-39275.73,-30679.56,-9756.0,-9729.72,-37108.575,-24476.805,-22295.205
1764511269.6924872,-4659.3,-39279.645,-30684.015,-9758.115,-9732.51,-37112.265,-24477.12,-22296.015
1764511269.6924872,-4663.71,-39285.765,-30689.685,-9764.325,-9738.405,-37117.935,-24481.125,-22300.155
1764511269.6924872,-4664.115,-39284.505,-30688.29,-9763.83,-9737.28,-37116.765,-24481.17,-22300.245
1764511269.6924872,-4662.495,-39281.445,-30685.23,-9760.635,-9734.13,-37113.84,-24479.415,-22297.365
1764511269.6924872,-4661.415,-39281.175,-30685.095,-9760.32,-9734.085,-37113.165,-24478.515,-22296.645
1764511269.6935034,-4663.125,-39281.49,-30685.455,-9760.815,-9734.715,-37113.705,-24477.21,-22296.78
1764511269.6935034,-4663.53,-39279.42,-30683.43,-9759.195,-9732.33,-37111.725,-24475.725,-22295.07
1764511269.6935034,-4660.92,-39275.415,-30679.92,-9755.145,-9728.64,-37107.27,-24470.64,-22290.165
1764511269.6935034,-4664.565,-39277.17,-30681.63,-9757.17,-9730.53,-37108.53,-24472.08,-22292.1
1764511269.6935034,-4668.3,-39281.445,-30686.085,-9761.58,-9735.255,-37113.165,-24476.22,-22297.23
1764511269.6935034,-4665.465,-39276.585,-30680.73,-9756.495,-9730.395,-37108.53,-24472.395,-22293.495
1764511269.6935034,-4667.085,-39278.43,-30683.115,-9758.25,-9732.645,-37110.24,-24473.7,-22295.07
1764511269.6935034,-4671.72,-39283.29,-30688.695,-9764.055,-9737.73,-37115.775,-24477.57,-22300.245
1764511269.6935034,-4668.57,-39279.735,-30684.555,-9760.995,-9734.535,-37112.895,-24475.095,-22297.77
1764511269.6935034,-4670.595,-39282.705,-30687.48,-9763.695,-9737.505,-37115.19,-24478.515,-22301.19
1764511269.6935034,-4666.59,-39277.98,-30683.79,-9759.33,-9733.14,-37110.555,-24475.41,-22298.085
1764511269.6935034,-4664.429999999999,-39275.415,-30680.505,-9757.44,-9731.25,-37107.81,-24474.825,-22296.195
1764511269.6935034,-4663.62,-39278.61,-30683.835,-9760.635,-9733.905,-37111.77,-24476.355,-22297.455
1764511269.6935034,-4667.31,-39285.09,-30690.495,-9766.98,-9739.98,-37118.565,-24483.24,-22303.305
1764511269.6935034,-4664.025,-39283.965,-30689.595,-9765.81,-9739.17,-37117.53,-24483.825,-22302.405
1764511269.6935034,-4660.155,-39281.67,-30687.57,-9763.245,-9736.74,-37115.64,-24483.105,-22300.83
1764511269.7384677,-4656.24,-39278.925,-30684.645,-9760.59,-9734.355,-37113.48,-24482.07,-22299.705
1764511269.7384677,-4650.389999999999,-39272.715,-30679.245,-9755.73,-9728.595,-37107.63,-24478.29,-22295.34
1764511269.7384677,-4651.92,-39276.27,-30682.53,-9759.555,-9731.655,-37111.77,-24481.62,-22297.635
1764511269.7384677,-4649.4,-39274.605,-30680.64,-9758.565,-9730.08,-37110.78,-24479.865,-22296.15
1764511269.7384677,-4651.695,-39279.375,-30685.77,-9763.155,-9735.165,-37116.045,-24484.59,-22299.975
1764511269.7384677,-4646.07,-39273.12,-30679.83,-9757.305,-9728.955,-37109.79,-24479.91,-22295.88
1764511269.7384677,-4644.764999999999,-39272.4,-30679.02,-9756.495,-9727.92,-37108.485,-24478.245,-22295.07
1764511269.7384677,-4648.095,-39273.525,-30680.415,-9757.755,-9729.54,-37110.24,-24480.045,-22297.14
1764511269.7384677,-4649.895,-39274.65,-30681.225,-9759.6,-9730.665,-37112.13,-24480.09,-22298.805
1764511269.7384677,-4650.345,-39274.695,-30681.225,-9759.555,-9731.115,-37112.355,-24480.045,-22300.605
1764511269.7384677,-4654.935,-39279.915,-30686.265,-9764.46,-9735.93,-37117.17,-24484.995,-22305.015
1764511269.7384677,-4655.88,-39278.61,-30684.24,-9763.245,-9734.67,-37116.09,-24484.455,-22304.295
1764511269.7384677,-4656.195,-39277.62,-30683.115,-9762.165,-9733.59,-37115.64,-24483.33,-22303.71
1764511269.7384677,-4655.565,-39275.46,-30681.09,-9760.05,-9731.295,-37112.94,-24482.745,-22302.0
1764511269.7384677,-4652.099999999999,-39270.195,-30676.185,-9755.82,-9725.67,-37107.405,-24477.03,-22296.78
1764511269.7384677,-4651.92,-39268.305,-30674.43,-9753.48,-9724.14,-37105.515,-24475.77,-22293.99
1764511269.7384677,-4654.889999999999,-39272.94,-30677.805,-9755.28,-9727.56,-37109.205,-24477.705,-22295.43
1764511269.7384677,-4657.635,-39275.82,-30680.505,-9757.8,-9730.125,-37111.815,-24479.685,-22298.265
1764511269.7384677,-4657.275,-39276.27,-30681.315,-9759.06,-9731.025,-37111.77,-24480.36,-22299.12
1764511269.7384677,-4660.514999999999,-39279.465,-30684.375,-9762.705,-9733.995,-37114.335,-24483.06,-22301.37
1764511269.7384677,-4656.014999999999,-39274.965,-30680.775,-9758.88,-9729.99,-37111.23,-24480.495,-22297.545
1764511269.7384677,-4654.44,-39275.64,-30681.765,-9758.835,-9730.575,-37111.635,-24480.63,-22298.445
1764511269.739982,-4657.815,-39282.435,-30687.705,-9765.54,-9736.83,-37116.99,-24486.03,-22303.71
1764511269.739982,-4656.645,-39281.58,-30687.03,-9764.64,-9736.47,-37115.955,-24486.3,-22302.63
1764511269.784009,-4651.92,-39276.72,-30682.755,-9760.275,-9732.42,-37111.68,-24483.015,-22297.905
1764511269.784009,-4647.69,-39273.795,-30679.785,-9757.53,-9729.36,-37107.855,-24480.675,-22295.745
1764511269.784009,-4645.349999999999,-39273.435,-30679.56,-9757.845,-9729.72,-37107.945,-24479.505,-22295.925
1764511269.784009,-4649.94,-39279.87,-30686.625,-9764.73,-9736.02,-37114.785,-24485.805,-22302.27
1764511269.784009,-4649.67,-39279.825,-30686.94,-9764.91,-9736.47,-37115.415,-24486.885,-22302.405
1764511269.784009,-4644.675,-39273.975,-30681.36,-9759.24,-9730.98,-37109.475,-24484.545,-22297.41
1764511269.784009,-4647.105,-39277.845,-30685.905,-9763.38,-9735.165,-37113.3,-24488.82,-22301.055
1764511269.784009,-4644.45,-39276.405,-30683.025,-9760.68,-9733.185,-37111.68,-24487.335,-22299.255
1764511269.784009,-4647.465,-39281.94,-30688.11,-9765.99,-9738.99,-37117.71,-24492.33,-22303.845
1764511269.784009,-4646.97,-39282.075,-30688.56,-9765.63,-9739.485,-37117.575,-24493.365,-22305.105
1764511269.7850237,-4644.495,-39281.445,-30688.515,-9764.82,-9738.63,-37117.89,-24492.915,-22305.645
1764511269.7850237,-4642.11,-39278.7,-30685.68,-9761.94,-9736.11,-37115.28,-24491.205,-22304.88
1764511269.7850237,-4637.205,-39273.615,-30680.91,-9756.765,-9730.845,-37109.88,-24486.12,-22300.785
1764511269.7850237,-4639.32,-39275.82,-30684.24,-9760.68,-9733.59,-37112.445,-24489.45,-22303.62
1764511269.7850237,-4641.57,-39280.095,-30688.47,-9764.46,-9738.045,-37117.08,-24493.14,-22307.175
1764511269.7850237,-4636.755,-39275.235,-30685.095,-9760.68,-9734.355,-37113.345,-24490.26,-22304.025
1764511269.7850237,-4639.455,-39278.88,-30689.28,-9765.54,-9738.63,-37118.115,-24495.12,-22307.265
1764511269.7850237,-4639.32,-39279.015,-30688.425,-9764.685,-9738.405,-37117.89,-24496.29,-22307.49
1764511269.7850237,-4637.25,-39277.935,-30687.39,-9763.11,-9736.965,-37116.045,-24494.805,-22305.375
1764511269.7850237,-4631.715,-39274.47,-30682.98,-9759.375,-9733.095,-37112.13,-24492.015,-22300.515
1764511269.7850237,-4634.145,-39279.555,-30687.57,-9764.055,-9737.73,-37117.215,-24496.38,-22303.845
1764511269.7850237,-4631.715,-39278.565,-30685.77,-9763.515,-9736.29,-37116.63,-24495.435,-22302.54
1764511269.8297124,-4625.73,-39271.32,-30678.48,-9756.045,-9728.415,-37109.565,-24489.27,-22294.89
1764511269.8297124,-4626.764999999999,-39271.095,-30678.84,-9755.775,-9728.775,-37109.79,-24490.305,-22293.855
1764511269.8297124,-4627.304999999999,-39271.995,-30680.145,-9756.945,-9730.305,-37111.185,-24490.845,-22293.81
1764511269.8297124,-4630.139999999999,-39275.325,-30683.655,-9760.455,-9733.68,-37114.155,-24493.77,-22296.24
1764511269.830732,-4626.315,-39270.555,-30678.885,-9755.595,-9728.955,-37109.385,-24490.35,-22291.245
1764511269.830732,-4627.304999999999,-39271.32,-30679.92,-9756.99,-9729.81,-37110.645,-24490.89,-22290.84
1764511269.830732,-4631.58,-39276.945,-30685.725,-9762.795,-9735.21,-37116.18,-24494.94,-22294.485
1764511269.8317294,-4629.24,-39272.355,-30681.045,-9757.215,-9730.26,-37111.995,-24491.745,-22290.435
1764511269.8317294,-4633.38,-39276.63,-30684.195,-9761.04,-9733.545,-37116.18,-24495.255,-22292.055
1764511269.8317294,-4632.795,-39275.505,-30683.52,-9760.32,-9733.14,-37115.28,-24495.345,-22290.57
1764511269.8317294,-4628.34,-39268.35,-30676.95,-9754.245,-9726.255,-37107.99,-24489.405,-22284.54
1764511269.8317294,-4628.565,-39267.72,-30676.14,-9753.345,-9724.77,-37107.09,-24488.91,-22283.73
1764511269.8317294,-4628.385,-39267.36,-30676.095,-9753.795,-9724.995,-37107.63,-24489.675,-22283.64
1764511269.8317294,-4630.815,-39271.77,-30680.055,-9757.935,-9728.865,-37111.05,-24492.78,-22286.115
1764511269.8317294,-4633.74,-39275.55,-30683.25,-9761.355,-9732.33,-37114.47,-24495.66,-22288.005
1764511269.8317294,-4638.105,-39278.205,-30685.905,-9764.055,-9736.29,-37117.665,-24498.855,-22290.615
1764511269.8317294,-4638.825,-39278.34,-30686.04,-9764.19,-9736.605,-37117.935,-24498.27,-22289.94
1764511269.8317294,-4639.005,-39275.955,-30684.42,-9762.93,-9734.22,-37116.135,-24496.605,-22287.87
1764511269.8317294,-4635.495,-39269.745,-30678.525,-9757.125,-9727.155,-37109.97,-24491.61,-22283.055
1764511269.8317294,-4634.46,-39266.82,-30675.87,-9754.83,-9724.23,-37107.27,-24488.82,-22281.57
1764511269.8317294,-4635.27,-39266.505,-30675.6,-9754.02,-9724.32,-37107.72,-24487.38,-22280.85
1764511269.8317294,-4636.17,-39268.395,-30677.04,-9755.64,-9725.49,-37108.71,-24489.45,-22282.515
1764511269.8317294,-4639.005,-39269.88,-30679.245,-9757.89,-9727.29,-37110.69,-24491.52,-22283.73
1764511269.8317294,-4643.73,-39273.435,-30683.385,-9761.175,-9731.52,-37114.245,-24495.165,-22287.465
1764511269.8745103,-4642.11,-39270.87,-30680.55,-9758.61,-9729.0,-37111.455,-24491.385,-22284.9
1764511269.8745103,-4644.405,-39274.155,-30683.97,-9761.985,-9732.735,-37114.605,-24494.535,-22287.87
1764511269.8745103,-4641.705,-39271.5,-30681.315,-9759.42,-9729.495,-37111.815,-24491.295,-22285.395
1764511269.8745103,-4641.389999999999,-39272.445,-30682.17,-9759.555,-9729.9,-37112.94,-24491.745,-22286.655
1764511269.8745103,-4645.889999999999,-39278.835,-30689.46,-9766.44,-9736.83,-37120.14,-24496.92,-22293.405
1764511269.8745103,-4645.17,-39275.955,-30686.13,-9763.83,-9733.59,-37117.53,-24495.21,-22292.055
1764511269.8745103,-4639.635,-39267.9,-30678.03,-9755.415,-9725.625,-37109.655,-24487.83,-22286.25
1764511269.8745103,-4642.965,-39271.545,-30681.36,-9758.475,-9728.505,-37112.085,-24489.99,-22290.3
1764511269.875533,-4639.5,-39267.495,-30677.265,-9754.47,-9724.455,-37107.36,-24485.445,-22287.06
1764511269.875533,-4638.69,-39266.505,-30676.41,-9753.705,-9723.87,-37106.64,-24484.41,-22286.88
1764511269.875533,-4638.915,-39267.495,-30678.03,-9755.1,-9724.545,-37107.81,-24484.545,-22288.635
1764511269.875533,-4639.905,-39268.62,-30679.29,-9756.54,-9725.895,-37108.44,-24485.13,-22291.335
1764511269.875533,-4644.045,-39274.425,-30685.23,-9762.615,-9732.735,-37114.65,-24489.135,-22296.96
1764511269.875533,-4642.965,-39274.02,-30684.645,-9761.67,-9732.465,-37115.28,-24487.65,-22297.455
1764511269.875533,-4638.33,-39270.375,-30681.09,-9757.62,-9729.045,-37111.545,-24483.87,-22295.745
1764511269.875533,-4639.77,-39272.355,-30682.98,-9760.59,-9731.475,-37112.94,-24484.59,-22299.12
1764511269.875533,-4634.865,-39269.295,-30681.0,-9757.98,-9728.73,-37109.835,-24481.845,-22296.825
1764511269.875533,-4636.304999999999,-39273.48,-30684.69,-9761.13,-9732.105,-37113.21,-24484.455,-22299.255
1764511269.875533,-4639.679999999999,-39280.05,-30691.17,-9767.205,-9738.945,-37119.555,-24489.72,-22305.78
1764511269.875533,-4637.429999999999,-39279.42,-30690.405,-9766.98,-9738.405,-37118.745,-24490.125,-22307.535
1764511269.875533,-4632.03,-39274.245,-30685.095,-9761.715,-9733.59,-37113.84,-24485.805,-22303.62
1764511269.875533,-4634.235,-39277.89,-30688.92,-9765.315,-9737.595,-37117.08,-24488.73,-22306.905
1764511269.875533,-4631.535,-39274.38,-30685.905,-9761.625,-9733.545,-37113.3,-24486.39,-22304.925
1764511269.8765268,-4634.595,-39278.025,-30689.595,-9765.27,-9737.055,-37117.035,-24489.765,-22308.525
1764511269.923546,-4634.685,-39279.87,-30691.62,-9766.98,-9738.09,-37118.34,-24490.125,-22309.29
1764511269.923546,-4632.389999999999,-39278.16,-30689.37,-9765.54,-9736.065,-37116.18,-24488.055,-22307.715
1764511269.923546,-4626.764999999999,-39271.905,-30682.665,-9759.69,-9729.72,-37109.79,-24482.565,-22302.99
1764511269.923546,-4630.095,-39277.71,-30688.47,-9765.18,-9735.84,-37115.19,-24487.515,-22306.725
1764511269.923546,-4626.855,-39274.605,-30685.365,-9762.21,-9732.78,-37112.175,-24484.905,-22303.125
1764511269.923546,-4629.69,-39277.305,-30687.795,-9765.99,-9735.705,-37114.875,-24488.64,-22304.79
1764511269.923546,-4629.24,-39276.945,-30687.93,-9765.855,-9735.12,-37113.885,-24489.0,-22302.81
1764511269.923546,-4624.605,-39271.545,-30682.98,-9760.365,-9729.63,-37107.54,-24485.175,-22297.905
1764511269.923546,-4623.974999999999,-39272.04,-30684.015,-9761.49,-9730.755,-37109.43,-24485.67,-22297.86
1764511269.923546,-4627.304999999999,-39277.8,-30688.92,-9767.205,-9736.785,-37114.92,-24490.44,-22302.045
1764511269.9248068,-4625.955,-39275.73,-30687.21,-9764.91,-9734.715,-37112.445,-24488.505,-22299.165
1764511269.9248068,-4627.845,-39278.385,-30689.505,-9766.08,-9737.55,-37115.145,-24490.53,-22300.605
1764511269.9248068,-4625.55,-39276.135,-30687.165,-9763.47,-9734.985,-37113.03,-24487.785,-22297.635
1764511269.9248068,-4630.77,-39281.535,-30692.745,-9769.455,-9740.7,-37118.25,-24494.04,-22301.955
1764511269.9248068,-4631.22,-39282.93,-30693.465,-9770.445,-9742.005,-37118.88,-24495.3,-22302.405
1764511269.9248068,-4630.545,-39281.13,-30691.395,-9768.42,-9740.115,-37117.44,-24495.435,-22300.605
1764511269.9248068,-4629.465,-39278.025,-30688.83,-9765.945,-9736.965,-37115.415,-24494.85,-22297.32
1764511269.9248068,-4627.845,-39275.73,-30686.985,-9764.505,-9735.12,-37113.48,-24493.455,-22295.07
1764511269.9258049,-4622.49,-39270.465,-30681.045,-9758.565,-9729.72,-37107.765,-24489.225,-22288.86
1764511269.9258049,-4620.96,-39267.855,-30678.795,-9756.045,-9727.02,-37105.605,-24487.47,-22286.745
1764511269.9258049,-4620.285,-39266.775,-30677.805,-9755.55,-9725.58,-37105.065,-24487.38,-22285.62
1764511269.9258049,-4622.445,-39270.6,-30680.775,-9758.745,-9728.73,-37108.62,-24491.34,-22287.105
1764511269.969073,-4618.349999999999,-39265.38,-30675.6,-9752.715,-9724.185,-37102.77,-24487.02,-22280.805
1764511269.969073,-4623.12,-39270.51,-30680.64,-9757.26,-9728.505,-37108.575,-24492.195,-22285.53
1764511269.969073,-4622.94,-39269.565,-30679.965,-9756.81,-9727.875,-37108.395,-24491.79,-22285.17
1764511269.969073,-4618.395,-39265.515,-30675.465,-9752.715,-9723.915,-37104.165,-24488.865,-22281.48
1764511269.969073,-4617.405,-39265.2,-30675.015,-9751.68,-9722.88,-37103.49,-24488.73,-22280.67
1764511269.969073,-4619.429999999999,-39266.37,-30677.04,-9753.345,-9723.915,-37104.84,-24490.125,-22280.715
1764511269.969073,-4621.005,-39268.755,-30680.28,-9755.325,-9726.48,-37106.955,-24491.745,-22281.84
1764511269.969073,-4624.92,-39272.49,-30683.745,-9759.33,-9730.395,-37111.455,-24495.12,-22284.945
1764511269.969073,-4621.59,-39268.665,-30679.155,-9755.28,-9726.57,-37107.81,-24492.33,-22281.435
1764511269.969073,-4622.264999999999,-39271.68,-30682.35,-9758.205,-9729.855,-37110.555,-24495.39,-22283.145
1764511269.969073,-4618.304999999999,-39266.595,-30677.355,-9753.66,-9725.13,-37105.74,-24491.34,-22278.555
1764511269.9716346,-4622.264999999999,-39269.34,-30680.235,-9757.89,-9728.775,-37108.395,-24496.29,-22282.605
1764511269.9716346,-4621.724999999999,-39271.365,-30681.9,-9758.79,-9729.495,-37110.42,-24497.1,-22283.64
1764511269.9716346,-4619.88,-39270.105,-30681.36,-9757.26,-9728.055,-37109.97,-24496.785,-22282.47
1764511269.9716346,-4615.92,-39265.695,-30677.355,-9753.255,-9724.23,-37106.055,-24492.195,-22277.43
1764511269.9716346,-4615.514999999999,-39265.83,-30676.68,-9752.895,-9724.365,-37105.65,-24492.195,-22276.755
1764511269.972652,-4616.955,-39266.685,-30678.39,-9755.055,-9725.985,-37107.495,-24493.995,-22278.015
1764511269.972652,-4620.69,-39271.365,-30683.88,-9760.725,-9731.115,-37112.715,-24499.26,-22283.28
1764511269.972652,-4619.16,-39271.14,-30683.295,-9760.14,-9730.71,-37112.265,-24498.855,-22284.18
1764511269.972652,-4612.95,-39263.535,-30675.96,-9752.94,-9722.925,-37105.29,-24493.635,-22278.555
1764511269.973162,-4612.545,-39262.545,-30675.42,-9752.265,-9722.205,-37104.435,-24493.365,-22279.59
1764511269.973162,-4617.315,-39267.99,-30680.595,-9757.62,-9727.74,-37110.195,-24498.72,-22285.665
1764511269.973162,-4615.02,-39265.2,-30677.625,-9754.155,-9724.725,-37107.135,-24496.965,-22282.335
1764511269.973162,-4620.014999999999,-39269.385,-30681.72,-9758.295,-9729.315,-37111.59,-24501.42,-22287.105
1764511270.017157,-4620.915,-39269.925,-30681.63,-9759.015,-9730.44,-37111.68,-24502.905,-22288.23
1764511270.017157,-4621.5,-39269.205,-30681.585,-9759.78,-9730.62,-37111.365,-24502.455,-22288.14
1764511270.017157,-4616.955,-39264.57,-30677.265,-9754.47,-9726.615,-37107.765,-24498.765,-22283.73
1764511270.017157,-4616.505,-39263.265,-30675.33,-9752.49,-9725.31,-37106.865,-24498.27,-22283.64
1764511270.017157,-4615.425,-39259.89,-30672.315,-9749.475,-9721.935,-37104.075,-24497.055,-22282.515
1764511270.017157,-4614.345,-39258.81,-30670.875,-9749.07,-9720.63,-37102.545,-24496.11,-22281.57
1764511270.017157,-4613.58,-39257.64,-30669.705,-9747.315,-9719.775,-37101.015,-24494.49,-22280.94
1764511270.017157,-4613.94,-39257.55,-30669.12,-9747.45,-9719.685,-37101.015,-24494.67,-22281.795
1764511270.017157,-4615.02,-39259.485,-30671.325,-9749.88,-9721.98,-37103.265,-24496.02,-22283.055
1764511270.017157,-4620.33,-39265.56,-30677.445,-9755.73,-9728.1,-37109.52,-24501.555,-22287.645
1764511270.017157,-4620.87,-39267.18,-30678.48,-9757.665,-9729.18,-37110.6,-24502.365,-22289.58
1764511270.017157,-4620.87,-39265.02,-30676.275,-9755.82,-9726.615,-37108.35,-24500.925,-22289.22
1764511270.017157,-4617.54,-39260.16,-30671.73,-9751.455,-9721.755,-37103.625,-24496.38,-22284.945
1764511270.017157,-4618.755,-39259.395,-30671.01,-9750.78,-9721.89,-37102.545,-24496.695,-22284.315
1764511270.017157,-4623.21,-39264.975,-30676.005,-9756.18,-9727.29,-37107.945,-24501.51,-22289.175
1764511270.018197,-4622.849999999999,-39266.145,-30676.905,-9756.54,-9727.695,-37108.89,-24500.88,-22289.445
1764511270.018197,-4620.33,-39264.345,-30675.195,-9754.065,-9725.355,-37107.045,-24497.145,-22287.915
1764511270.018197,-4627.44,-39272.49,-30683.43,-9761.895,-9733.545,-37115.505,-24504.12,-22296.105
1764511270.018197,-4630.5,-39274.02,-30684.645,-9763.74,-9734.625,-37116.405,-24505.245,-22298.355
1764511270.018197,-4630.365,-39271.68,-30682.53,-9761.76,-9732.015,-37113.66,-24503.535,-22297.905
1764511270.018197,-4630.635,-39270.51,-30681.54,-9760.815,-9731.34,-37112.4,-24502.455,-22298.445
1764511270.018197,-4631.625,-39271.185,-30680.64,-9760.23,-9730.755,-37111.905,-24501.645,-22299.885
1764511270.018197,-4632.974999999999,-39270.42,-30679.335,-9758.43,-9728.685,-37110.78,-24500.07,-22300.29
1764511270.0197334,-4633.514999999999,-39268.62,-30678.165,-9756.045,-9727.155,-37110.015,-24498.18,-22300.695
1764511270.0652995,-4629.014999999999,-39263.49,-30673.44,-9750.735,-9722.07,-37104.03,-24492.735,-22295.745
1764511270.0652995,-4629.645,-39266.955,-30676.95,-9754.74,-9725.76,-37107.405,-24494.175,-22297.455
1764511270.0652995,-4627.53,-39263.13,-30673.35,-9751.275,-9721.845,-37102.095,-24490.215,-22295.52
1764511270.0652995,-4635.179999999999,-39268.395,-30677.85,-9755.28,-9725.58,-37105.965,-24493.68,-22303.035
1764511270.0652995,-4635.045,-39265.875,-30674.79,-9751.815,-9721.98,-37103.085,-24491.745,-22302.405
1764511270.0652995,-4641.345,-39269.655,-30677.805,-9755.28,-9726.03,-37106.55,-24494.625,-22308.57
1764511270.0652995,-4642.514999999999,-39270.24,-30678.12,-9755.775,-9726.345,-37106.865,-24494.355,-22307.715
1764511270.0652995,-4636.575,-39267.09,-30678.03,-9757.395,-9727.155,-37107.09,-24492.33,-22303.215
1764511270.0652995,-4637.07,-39271.14,-30683.52,-9763.335,-9732.735,-37112.58,-24495.345,-22306.14
1764511270.0652995,-4637.474999999999,-39270.645,-30683.205,-9762.345,-9732.6,-37111.815,-24495.57,-22304.79
1764511270.0652995,-4630.275,-39262.905,-30676.005,-9755.055,-9725.76,-37104.615,-24489.63,-22296.96
1764511270.0652995,-4625.415,-39260.475,-30675.51,-9755.055,-9725.895,-37104.345,-24488.685,-22292.91
1764511270.0652995,-4628.16,-39263.265,-30676.815,-9755.19,-9725.715,-37104.39,-24489.135,-22293.855
1764511270.0652995,-4630.41,-39263.22,-30676.815,-9754.965,-9725.49,-37104.93,-24489.54,-22295.97
1764511270.0652995,-4633.425,-39266.19,-30680.415,-9759.33,-9729.495,-37109.205,-24492.42,-22298.805
1764511270.0652995,-4630.23,-39263.4,-30677.175,-9755.64,-9725.445,-37104.345,-24489.63,-22295.925
1764511270.0652995,-4632.84,-39267.495,-30681.0,-9759.42,-9729.945,-37107.81,-24493.5,-22297.995
1764511270.066324,-4633.65,-39266.37,-30680.91,-9758.88,-9729.63,-37107.36,-24493.095,-22296.915
1764511270.066324,-4633.92,-39266.46,-30681.0,-9759.06,-9729.945,-37107.63,-24492.42,-22296.78
1764511270.066324,-4633.38,-39265.155,-30678.75,-9756.945,-9727.605,-37105.47,-24491.565,-22295.61
1764511270.066324,-4629.915,-39261.87,-30675.285,-9753.705,-9724.545,-37102.05,-24488.145,-22291.74
1764511270.066324,-4628.34,-39260.88,-30674.835,-9753.075,-9724.005,-37101.78,-24487.785,-22291.965
1764511270.1112406,-4629.69,-39264.57,-30677.49,-9755.955,-9727.515,-37104.93,-24489.99,-22292.64
1764511270.1112406,-4635.63,-39269.79,-30682.395,-9760.905,-9732.105,-37110.15,-24495.255,-22296.78
1764511270.1112406,-4632.3,-39264.66,-30677.94,-9755.28,-9727.425,-37105.29,-24491.295,-22292.19
1764511270.1112406,-4631.13,-39262.275,-30676.365,-9753.21,-9724.815,-37102.815,-24489.495,-22289.94
1764511270.1112406,-4633.02,-39263.76,-30676.635,-9754.605,-9726.165,-37103.715,-24490.71,-22289.355
1764511270.1112406,-4635.36,-39266.145,-30679.425,-9757.395,-9728.73,-37106.01,-24493.005,-22289.67
1764511270.1112406,-4639.455,-39270.915,-30683.88,-9761.58,-9733.23,-37111.365,-24497.055,-22293.18
1764511270.1112406,-4636.755,-39266.73,-30679.74,-9757.17,-9728.73,-37106.775,-24494.67,-22288.995
1764511270.1112406,-4636.215,-39265.965,-30679.425,-9757.035,-9728.325,-37105.74,-24495.57,-22287.555
1764511270.1112406,-4640.175,-39269.79,-30683.34,-9759.87,-9731.655,-37109.295,-24499.305,-22289.49
1764511270.1112406,-4636.349999999999,-39265.515,-30678.57,-9754.47,-9726.57,-37104.795,-24495.12,-22285.575
1764511270.1112406,-4638.645,-39267.54,-30680.91,-9756.9,-9729.09,-37106.955,-24497.415,-22287.69
1764511270.1112406,-4642.38,-39272.22,-30686.175,-9761.49,-9733.995,-37112.355,-24501.96,-22291.065
1764511270.1112406,-4640.31,-39270.645,-30683.97,-9759.555,-9731.385,-37110.825,-24500.61,-22288.455
1764511270.1112406,-4645.08,-39276.81,-30689.955,-9765.63,-9737.865,-37116.585,-24506.37,-22292.595
1764511270.1112406,-4646.429999999999,-39276.27,-30689.82,-9764.91,-9737.865,-37116.45,-24508.17,-22291.38
1764511270.1112406,-4644.0,-39273.48,-30686.58,-9762.48,-9734.22,-37112.85,-24505.92,-22288.455
1764511270.1112406,-4640.04,-39267.945,-30681.585,-9756.99,-9728.73,-37107.54,-24501.285,-22283.415
1764511270.1122727,-4644.54,-39273.345,-30687.165,-9761.895,-9734.76,-37112.985,-24506.505,-22287.105
1764511270.1122727,-4643.01,-39274.38,-30686.895,-9761.85,-9734.895,-37112.895,-24507.405,-22286.835
1764511270.1122727,-4637.79,-39271.32,-30683.745,-9759.6,-9732.24,-37110.33,-24504.75,-22282.515
1764511270.1122727,-4640.22,-39274.74,-30687.03,-9763.02,-9735.795,-37113.66,-24508.755,-22284.945
1764511270.1122727,-4638.87,-39273.57,-30685.455,-9761.805,-9734.49,-37112.49,-24507.9,-22284.18
1764511270.1122727,-4636.125,-39271.23,-30682.8,-9759.24,-9731.295,-37110.24,-24506.865,-22281.48
1764511270.1552205,-4630.679999999999,-39266.325,-30677.445,-9753.795,-9725.94,-37104.975,-24502.68,-22277.52
1764511270.1552205,-4629.15,-39265.92,-30677.175,-9753.48,-9725.895,-37104.39,-24502.005,-22276.845
1764511270.1552205,-4632.03,-39269.25,-30681.0,-9756.315,-9729.27,-37108.305,-24504.885,-22279.905
1764511270.1552205,-4636.71,-39274.965,-30686.265,-9761.805,-9734.715,-37114.02,-24510.24,-22285.755
1764511270.1552205,-4637.88,-39276.09,-30687.345,-9763.83,-9736.02,-37115.1,-24511.185,-22287.285
1764511270.1552205,-4636.485,-39274.29,-30685.68,-9762.345,-9734.895,-37113.03,-24510.735,-22287.42
1764511270.1557302,-4631.895,-39270.6,-30681.855,-9758.565,-9730.62,-37109.52,-24506.64,-22285.26
1764511270.1557302,-4633.245,-39271.275,-30682.215,-9758.655,-9731.34,-37109.475,-24507.9,-22286.52
1764511270.1557302,-4633.02,-39269.97,-30681.18,-9758.205,-9730.08,-37109.07,-24507.63,-22286.205
1764511270.1557302,-4635.495,-39271.095,-30682.53,-9759.69,-9731.79,-37111.005,-24507.765,-22288.77
1764511270.1557302,-4639.59,-39277.215,-30688.785,-9765.36,-9737.775,-37116.99,-24512.49,-22292.955
1764511270.1557302,-4635.855,-39272.805,-30684.42,-9761.49,-9733.41,-37112.4,-24510.465,-22290.165
1764511270.1557302,-4640.49,-39277.53,-30690.495,-9766.98,-9739.17,-37117.98,-24515.235,-22295.745
1764511270.1557302,-4641.3,-39278.925,-30690.945,-9768.105,-9740.25,-37119.42,-24517.35,-22298.22
1764511270.1557302,-4640.175,-39274.695,-30687.345,-9763.74,-9735.885,-37115.775,-24514.245,-22296.105
1764511270.1557302,-4635.0,-39268.08,-30680.73,-9757.53,-9728.505,-37108.665,-24507.72,-22290.3
1764511270.1557302,-4634.145,-39268.575,-30681.225,-9757.845,-9728.775,-37109.07,-24507.54,-22289.985
1764511270.1557302,-4637.565,-39271.095,-30683.79,-9760.095,-9731.655,-37111.995,-24510.735,-22293.495
1764511270.1557302,-4642.29,-39276.54,-30688.965,-9765.045,-9737.19,-37116.81,-24515.775,-22298.49
1764511270.1557302,-4641.57,-39277.575,-30689.865,-9765.765,-9737.505,-37117.485,-24515.955,-22298.67
1764511270.1557302,-4635.855,-39270.6,-30683.205,-9758.745,-9730.62,-37110.96,-24510.105,-22293.18
1764511270.1557302,-4635.179999999999,-39268.35,-30680.19,-9756.495,-9728.685,-37107.99,-24509.61,-22291.74
1764511270.2032166,-4634.865,-39271.41,-30682.98,-9758.925,-9731.43,-37111.32,-24509.79,-22293.495
1764511270.2032166,-4636.395,-39275.82,-30687.48,-9762.705,-9735.705,-37115.82,-24512.94,-22296.78
1764511270.2042353,-4640.31,-39280.905,-30692.745,-9768.015,-9741.87,-37121.49,-24517.485,-22301.055
1764511270.2042353,-4634.415,-39275.235,-30687.885,-9762.21,-9736.65,-37116.765,-24512.58,-22295.97
1764511270.2042353,-4632.12,-39276.09,-30688.74,-9763.065,-9736.47,-37116.765,-24512.22,-22294.98
1764511270.2042353,-4633.74,-39279.06,-30691.35,-9765.855,-9739.125,-37119.555,-24515.64,-22297.455
1764511270.2042353,-4633.92,-39280.365,-30692.88,-9767.07,-9740.43,-37120.905,-24516.72,-22298.49
1764511270.2042353,-4636.125,-39283.74,-30695.85,-9770.13,-9744.39,-37124.37,-24519.645,-22301.28
1764511270.2052317,-4629.87,-39277.215,-30689.145,-9763.605,-9738.27,-37117.17,-24514.695,-22296.645
1764511270.2052317,-4629.15,-39276.045,-30688.965,-9762.975,-9737.55,-37116.135,-24514.74,-22295.61
1764511270.2052317,-4632.075,-39280.23,-30693.24,-9767.52,-9740.79,-37119.69,-24517.395,-22298.13
1764511270.2052317,-4627.62,-39277.305,-30689.595,-9763.92,-9737.145,-37116.495,-24514.83,-22293.765
1764511270.2052317,-4626.945,-39277.215,-30690.045,-9763.695,-9737.415,-37116.99,-24514.74,-22294.44
1764511270.2052317,-4628.52,-39278.34,-30691.665,-9765.495,-9738.765,-37118.52,-24516.81,-22296.195
1764511270.2052317,-4623.345,-39273.39,-30686.625,-9760.635,-9734.4,-37114.245,-24513.03,-22291.425
1764511270.2052317,-4626.945,-39278.07,-30691.305,-9765.63,-9739.71,-37118.97,-24516.765,-22295.16
1764511270.2052317,-4627.125,-39279.06,-30692.79,-9766.35,-9740.52,-37120.32,-24517.71,-22294.665
1764511270.2052317,-4623.3,-39276.45,-30689.73,-9763.875,-9737.325,-37117.395,-24515.145,-22291.38
1764511270.2052317,-4624.38,-39278.655,-30692.43,-9766.89,-9740.115,-37119.645,-24518.115,-22293.09
1764511270.2052317,-4620.825,-39274.02,-30688.29,-9762.795,-9736.29,-37115.01,-24514.965,-22289.985
1764511270.2052317,-4620.87,-39274.47,-30688.245,-9762.12,-9735.885,-37115.145,-24514.83,-22289.22
1764511270.2052317,-4623.12,-39277.62,-30691.71,-9765.045,-9739.08,-37118.205,-24517.62,-22292.37
1764511270.2052317,-4617.63,-39272.265,-30686.085,-9759.24,-9732.915,-37112.49,-24512.49,-22286.79
1764511270.2052317,-4615.785,-39269.79,-30683.745,-9757.305,-9730.98,-37110.78,-24510.645,-22284.81
1764511270.25071,-4615.92,-39271.23,-30685.23,-9759.195,-9732.465,-37111.905,-24511.905,-22285.305
1764511270.25071,-4619.565,-39274.83,-30688.875,-9762.21,-9735.345,-37114.47,-24516.09,-22288.365
1764511270.25071,-4623.705,-39280.905,-30694.77,-9767.475,-9740.97,-37120.275,-24521.535,-22293.0
1764511270.25071,-4623.795,-39280.995,-30695.04,-9767.61,-9741.645,-37121.4,-24521.31,-22293.63
1764511270.25071,-4618.8,-39274.695,-30689.37,-9762.525,-9736.29,-37115.865,-24516.315,-22288.59
1764511270.25071,-4617.81,-39272.985,-30687.12,-9760.68,-9734.67,-37114.065,-24516.0,-22286.745
1764511270.25071,-4617.9,-39272.22,-30686.445,-9758.925,-9733.275,-37113.03,-24515.73,-22287.06
1764511270.25071,-4620.915,-39276.18,-30690.45,-9762.795,-9738.0,-37116.945,-24519.465,-22291.11
1764511270.25071,-4618.08,-39272.94,-30687.255,-9759.555,-9734.805,-37114.155,-24515.73,-22288.005
1764511270.25071,-4616.595,-39271.05,-30685.32,-9757.755,-9732.69,-37112.04,-24514.92,-22286.295
1764511270.25071,-4617.9,-39272.94,-30686.94,-9759.15,-9734.22,-37112.355,-24516.315,-22286.295
1764511270.25071,-4623.255,-39280.095,-30692.88,-9764.955,-9740.43,-37118.655,-24522.705,-22291.47
1764511270.25071,-4622.58,-39279.42,-30692.25,-9764.19,-9738.495,-37117.89,-24522.3,-22290.615
1764511270.25071,-4618.98,-39273.57,-30687.705,-9759.285,-9733.455,-37112.94,-24517.935,-22286.79
1764511270.25071,-4620.825,-39276.99,-30690.81,-9761.355,-9736.2,-37115.505,-24519.51,-22290.165
1764511270.251716,-4618.035,-39275.37,-30689.1,-9760.005,-9735.21,-37113.21,-24517.305,-22289.04
1764511270.251716,-4620.96,-39277.845,-30692.07,-9763.47,-9738.09,-37116.405,-24519.555,-22292.955
1764511270.251716,-4617.27,-39273.66,-30687.84,-9759.15,-9733.815,-37112.535,-24516.45,-22289.94
1764511270.251716,-4618.304999999999,-39276.855,-30690.135,-9762.12,-9736.11,-37114.875,-24519.915,-22292.595
1764511270.251716,-4613.895,-39272.04,-30685.14,-9758.34,-9732.24,-37109.97,-24515.01,-22288.5
1764511270.251716,-4611.78,-39271.095,-30684.87,-9757.08,-9731.16,-37109.475,-24514.47,-22286.88
1764511270.251716,-4613.355,-39275.37,-30688.605,-9760.545,-9734.985,-37113.48,-24518.025,-22290.12
1764511270.251716,-4613.13,-39276.405,-30690.27,-9761.13,-9736.56,-37114.83,-24518.97,-22291.155
1764511270.251716,-4613.76,-39277.17,-30692.025,-9762.3,-9737.55,-37115.19,-24520.5,-22291.695
1764511270.2965806,-4617.945,-39282.975,-30697.11,-9767.925,-9743.265,-37121.355,-24525.045,-22296.33
1764511270.2965806,-4616.55,-39282.84,-30696.03,-9767.34,-9743.04,-37120.68,-24525.54,-22296.915
1764511270.2965806,-4612.5,-39276.765,-30690.0,-9761.58,-9736.83,-37114.47,-24521.445,-22292.685
1764511270.2965806,-4615.785,-39277.17,-30691.17,-9763.29,-9738.855,-37115.37,-24523.785,-22294.98
1764511270.2965806,-4613.76,-39276.495,-30690.945,-9762.57,-9738.045,-37115.55,-24521.85,-22293.855
1764511270.2965806,-4608.045,-39269.565,-30684.51,-9756.27,-9730.845,-37109.295,-24516.405,-22288.86
1764511270.2965806,-4607.91,-39269.925,-30685.545,-9756.765,-9731.925,-37110.375,-24516.45,-22288.275
1764511270.2965806,-4610.115,-39274.47,-30689.235,-9760.365,-9736.02,-37114.785,-24519.87,-22290.48
1764511270.2965806,-4612.815,-39277.89,-30692.925,-9763.56,-9739.89,-37117.98,-24521.985,-22293.675
1764511270.2965806,-4610.88,-39272.49,-30687.66,-9758.385,-9734.76,-37112.715,-24517.89,-22289.355
1764511270.2965806,-4613.67,-39275.055,-30690.855,-9761.535,-9737.235,-37115.955,-24520.815,-22290.57
1764511270.2965806,-4614.255,-39276.405,-30692.565,-9763.2,-9738.18,-37117.755,-24522.435,-22291.425
1764511270.2965806,-4609.125,-39271.68,-30687.48,-9758.115,-9733.68,-37113.39,-24517.845,-22288.59
1764511270.2965806,-4610.385,-39273.345,-30688.875,-9759.51,-9735.795,-37115.415,-24519.915,-22291.065
1764511270.2965806,-4608.0,-39269.88,-30685.32,-9755.955,-9732.15,-37112.67,-24516.99,-22288.725
1764511270.2965806,-4610.429999999999,-39271.95,-30686.94,-9758.52,-9734.13,-37114.965,-24518.34,-22290.57
1764511270.2965806,-4608.945,-39269.475,-30684.78,-9755.73,-9731.88,-37111.815,-24515.415,-22287.645
1764511270.2965806,-4612.59,-39274.065,-30688.785,-9759.33,-9735.75,-37114.92,-24518.475,-22290.255
1764511270.2965806,-4618.395,-39280.95,-30695.445,-9765.18,-9741.24,-37120.995,-24523.29,-22295.61
1764511270.2965806,-4619.34,-39280.32,-30694.815,-9764.775,-9740.7,-37120.725,-24522.615,-22295.88
1764511270.2965806,-4615.56,-39273.975,-30688.155,-9758.43,-9734.715,-37113.705,-24517.44,-22291.02
1764511270.2965806,-4616.82,-39273.345,-30687.93,-9757.89,-9734.895,-37112.85,-24517.485,-22291.11
1764511270.3413172,-4618.755,-39271.815,-30685.14,-9756.36,-9733.86,-37110.375,-24517.215,-22291.38
1764511270.3413172,-4619.295,-39272.67,-30686.22,-9756.09,-9733.905,-37111.5,-24516.81,-22292.55
1764511270.3413172,-4620.735,-39272.625,-30686.67,-9756.495,-9734.265,-37111.77,-24517.71,-22293.99
1764511270.3413172,-4620.87,-39271.32,-30685.95,-9755.325,-9732.825,-37110.465,-24517.935,-22293.495
1764511270.3413172,-4623.75,-39274.83,-30688.965,-9757.755,-9735.48,-37113.93,-24520.23,-22294.935
1764511270.3413172,-4630.455,-39281.445,-30695.895,-9764.415,-9742.275,-37119.69,-24526.98,-22300.74
1764511270.3413172,-4630.59,-39280.995,-30695.04,-9763.965,-9740.79,-37118.34,-24527.295,-22299.75
1764511270.3413172,-4625.054999999999,-39274.065,-30687.75,-9757.08,-9733.635,-37110.915,-24521.445,-22292.91
1764511270.3413172,-4622.715,-39271.14,-30685.365,-9754.83,-9731.835,-37109.115,-24519.78,-22290.975
1764511270.3423102,-4623.12,-39272.67,-30687.345,-9756.81,-9733.725,-37110.555,-24521.94,-22292.82
1764511270.3423102,-4625.82,-39277.305,-30691.89,-9761.49,-9738.495,-37115.325,-24525.315,-22295.745
1764511270.3423102,-4621.185,-39272.985,-30688.065,-9757.215,-9734.535,-37111.545,-24521.265,-22291.56
1764511270.3423102,-4621.455,-39274.47,-30690.045,-9759.06,-9736.155,-37113.3,-24523.155,-22291.47
1764511270.3423102,-4614.075,-39267.72,-30682.395,-9751.995,-9729.36,-37106.595,-24517.485,-22285.575
1764511270.3423102,-4610.925,-39266.82,-30682.305,-9750.825,-9728.325,-37105.605,-24516.765,-22283.325
1764511270.3423102,-4615.605,-39274.38,-30690.45,-9757.89,-9736.425,-37112.805,-24524.145,-22289.895
1764511270.3423102,-4614.389999999999,-39276.54,-30691.755,-9759.195,-9737.91,-37114.29,-24524.28,-22289.535
1764511270.3423102,-4612.455,-39274.83,-30690.18,-9758.25,-9736.83,-37112.13,-24523.56,-22288.14
1764511270.34333,-4609.395,-39271.545,-30686.67,-9755.28,-9733.23,-37109.205,-24520.455,-22285.62
1764511270.34333,-4605.03,-39267.54,-30682.71,-9751.59,-9729.18,-37104.75,-24516.045,-22281.3
1764511270.34333,-4603.59,-39269.655,-30684.69,-9752.49,-9730.845,-37106.055,-24515.64,-22282.2
1764511270.34333,-4603.23,-39270.78,-30685.995,-9753.255,-9732.33,-37106.64,-24515.91,-22283.325
1764511270.34333,-4604.31,-39272.085,-30686.805,-9754.065,-9733.185,-37107.09,-24516.045,-22285.845
1764511270.34333,-4608.135,-39275.055,-30689.775,-9756.81,-9736.695,-37109.745,-24517.395,-22290.12
1764511270.3908892,-4605.165,-39270.69,-30686.04,-9752.355,-9733.545,-37105.695,-24512.04,-22288.77
1764511270.3908892,-4606.965,-39270.555,-30686.4,-9752.31,-9733.185,-37105.605,-24510.735,-22291.02
1764511270.3908892,-4610.295,-39273.795,-30688.605,-9754.875,-9735.525,-37106.775,-24510.69,-22293.045
1764511270.3908892,-4612.995,-39275.595,-30690.9,-9755.91,-9736.92,-37107.225,-24511.68,-22295.16
1764511270.3908892,-4616.91,-39280.905,-30696.165,-9761.265,-9742.14,-37112.22,-24516.315,-22301.01
1764511270.3908892,-4612.724999999999,-39274.515,-30690.0,-9754.92,-9736.02,-37105.92,-24511.365,-22296.51
1764511270.3908892,-4611.78,-39272.31,-30687.525,-9752.13,-9733.59,-37102.725,-24508.62,-22294.845
1764511270.3908892,-4614.255,-39274.11,-30687.66,-9752.895,-9734.445,-37103.04,-24507.99,-22297.275
1764511270.3908892,-4618.53,-39279.915,-30692.7,-9757.755,-9739.17,-37108.215,-24511.905,-22303.71
1764511270.3908892,-4616.099999999999,-39277.08,-30690.315,-9754.695,-9735.705,-37104.705,-24508.8,-22302.0
1764511270.3908892,-4608.63,-39270.825,-30683.565,-9748.125,-9729.18,-37097.055,-24501.915,-22296.465
1764511270.3908892,-4609.889999999999,-39273.705,-30686.13,-9750.33,-9732.285,-37099.62,-24504.255,-22298.265
1764511270.3908892,-4613.49,-39278.97,-30691.98,-9755.64,-9738.09,-37105.065,-24509.565,-22303.08
1764511270.3908892,-4609.98,-39276.405,-30689.865,-9753.03,-9735.3,-37102.455,-24509.025,-22301.055
1764511270.3908892,-4603.724999999999,-39271.05,-30683.97,-9747.945,-9729.945,-37096.155,-24504.75,-22295.25
1764511270.3908892,-4603.77,-39274.56,-30688.02,-9752.22,-9733.815,-37099.98,-24508.755,-22297.815
1764511270.3908892,-4599.45,-39272.805,-30685.995,-9750.33,-9732.24,-37097.91,-24507.855,-22296.105
1764511270.3908892,-4601.115,-39277.485,-30690.54,-9754.38,-9736.065,-37102.095,-24512.76,-22299.615
1764511270.3908892,-4600.304999999999,-39278.835,-30693.015,-9756.225,-9737.595,-37103.985,-24516.405,-22300.155
1764511270.3918912,-4595.94,-39276.09,-30689.865,-9753.075,-9734.895,-37101.465,-24515.28,-22296.915
1764511270.3918912,-4591.62,-39272.355,-30687.075,-9749.835,-9731.88,-37098.18,-24513.57,-22293.18
1764511270.3918912,-4595.22,-39277.62,-30692.79,-9755.325,-9737.37,-37103.715,-24520.68,-22297.005
1764511270.392856,-4590.09,-39272.265,-30688.065,-9750.825,-9732.375,-37098.765,-24518.655,-22292.955
1764511270.392856,-4592.115,-39276.585,-30692.61,-9754.245,-9735.84,-37102.86,-24523.11,-22296.69
1764511270.4388828,-4590.495,-39276.27,-30692.88,-9754.245,-9736.425,-37102.545,-24524.73,-22296.24
1764511270.4388828,-4584.014999999999,-39268.845,-30685.59,-9747.585,-9729.63,-37096.245,-24519.915,-22290.39
1764511270.4388828,-4582.62,-39265.56,-30682.845,-9744.975,-9726.435,-37094.58,-24519.15,-22286.655
1764511270.4388828,-4583.07,-39266.37,-30683.385,-9745.065,-9726.39,-37095.3,-24521.085,-22286.925
1764511270.4388828,-4584.915,-39271.455,-30688.515,-9749.115,-9731.745,-37100.52,-24526.89,-22291.965
1764511270.4388828,-4581.855,-39268.08,-30684.69,-9746.145,-9728.235,-37097.46,-24526.395,-22288.95
1764511270.4388828,-4574.565,-39261.33,-30677.58,-9739.665,-9721.665,-37091.61,-24521.49,-22282.155
1764511270.4388828,-4572.945,-39260.115,-30677.355,-9738.855,-9720.99,-37091.385,-24522.885,-22281.165
1764511270.4388828,-4575.735,-39265.02,-30682.53,-9743.895,-9725.76,-37096.695,-24528.915,-22284.495
1764511270.4388828,-4575.33,-39267.18,-30684.42,-9745.875,-9728.19,-37098.63,-24532.155,-22285.62
1764511270.4388828,-4571.73,-39264.975,-30682.215,-9744.255,-9725.805,-37096.875,-24531.255,-22281.75
1764511270.4388828,-4564.845,-39257.46,-30674.88,-9737.01,-9718.11,-37089.54,-24525.855,-22274.685
1764511270.4388828,-4563.945,-39257.055,-30675.195,-9737.19,-9718.605,-37089.09,-24525.675,-22273.02
1764511270.4388828,-4566.33,-39260.655,-30678.975,-9741.24,-9722.34,-37093.14,-24529.59,-22274.37
1764511270.4388828,-4560.795,-39256.29,-30674.565,-9737.505,-9718.2,-37089.72,-24525.945,-22270.05
1764511270.4388828,-4559.22,-39256.02,-30674.07,-9736.515,-9717.93,-37089.27,-24527.025,-22268.025
1764511270.4388828,-4560.84,-39259.305,-30677.715,-9739.89,-9722.07,-37091.835,-24529.32,-22267.62
1764511270.4388828,-4564.395,-39263.04,-30681.855,-9744.12,-9725.67,-37096.2,-24533.235,-22270.635
1764511270.4388828,-4560.03,-39258.27,-30677.13,-9739.89,-9720.72,-37091.385,-24530.175,-22265.46
1764511270.4388828,-4561.02,-39260.43,-30679.155,-9742.365,-9722.88,-37093.545,-24532.47,-22266.72
1764511270.4388828,-4555.53,-39254.805,-30673.935,-9737.28,-9716.58,-37088.145,-24527.79,-22261.32
1764511270.4388828,-4553.82,-39253.14,-30672.63,-9736.74,-9715.32,-37086.93,-24527.205,-22258.665
1764511270.4388828,-4554.405,-39254.445,-30673.305,-9737.775,-9716.895,-37088.1,-24529.275,-22258.89
1764511270.4388828,-4557.465,-39258.99,-30676.95,-9741.285,-9721.665,-37092.105,-24532.83,-22261.5
1764511270.485659,-4554.405,-39256.38,-30675.105,-9738.81,-9719.145,-37090.08,-24529.68,-22257.855
1764511270.485659,-4552.11,-39255.39,-30674.205,-9737.73,-9718.875,-37089.045,-24527.655,-22255.875
1764511270.485659,-4553.28,-39258.945,-30677.895,-9740.79,-9722.88,-37092.78,-24529.68,-22256.28
1764511270.485659,-4559.04,-39265.515,-30685.05,-9747.27,-9729.135,-37098.945,-24536.115,-22260.915
1764511270.485659,-4556.115,-39262.32,-30681.945,-9744.39,-9725.85,-37095.975,-24533.64,-22256.28
1764511270.485659,-4558.635,-39263.265,-30682.98,-9745.56,-9727.515,-37097.145,-24535.35,-22257.585
1764511270.485659,-4556.745,-39260.115,-30679.47,-9741.195,-9723.6,-37093.41,-24531.885,-22254.93
1764511270.485659,-4557.915,-39261.735,-30681.495,-9742.59,-9724.95,-37094.94,-24534.18,-22256.865
1764511270.485659,-4555.125,-39258.315,-30676.77,-9738.765,-9720.27,-37090.62,-24529.5,-22253.445
1764511270.485659,-4558.365,-39261.195,-30679.245,-9741.735,-9723.6,-37093.185,-24531.165,-22255.83
1764511270.485659,-4557.105,-39258.045,-30677.04,-9738.54,-9721.17,-37090.8,-24528.42,-22253.715
1764511270.485659,-4552.514999999999,-39250.71,-30668.85,-9732.42,-9714.915,-37082.925,-24522.57,-22249.08
1764511270.485659,-4551.255,-39250.755,-30669.075,-9731.835,-9714.645,-37081.89,-24520.365,-22248.63
1764511270.485659,-4553.37,-39255.12,-30674.205,-9735.39,-9718.02,-37087.245,-24522.165,-22252.545
1764511270.485659,-4554.045,-39257.235,-30676.545,-9737.505,-9720.585,-37089.765,-24523.875,-22254.975
1764511270.485659,-4558.724999999999,-39262.5,-30682.215,-9743.13,-9726.165,-37094.895,-24528.015,-22261.095
1764511270.485659,-4560.615,-39262.995,-30682.17,-9743.445,-9726.66,-37095.345,-24527.97,-22263.48
1764511270.485659,-4560.705,-39261.33,-30679.74,-9740.88,-9724.005,-37093.365,-24526.26,-22264.065
1764511270.485659,-4557.78,-39258.405,-30676.815,-9737.37,-9721.17,-37089.315,-24523.065,-22262.265
1764511270.4866676,-4561.92,-39262.905,-30680.955,-9741.33,-9725.94,-37092.87,-24525.36,-22268.16
1764511270.4866676,-4562.46,-39263.67,-30682.485,-9742.05,-9727.245,-37094.265,-24525.63,-22270.905
1764511270.4866676,-4557.105,-39258.855,-30677.67,-9736.74,-9722.43,-37088.775,-24520.725,-22268.295
1764511270.4866676,-4558.59,-39261.555,-30679.02,-9738.675,-9723.78,-37089.495,-24519.915,-22271.94
1764511270.4866676,-4562.955,-39267.72,-30685.41,-9744.435,-9729.63,-37095.165,-24524.37,-22280.085
1764511270.5296853,-4559.67,-39265.155,-30683.745,-9742.005,-9727.83,-37092.78,-24521.985,-22280.22
1764511270.5296853,-4563.405,-39267.72,-30687.165,-9745.02,-9730.845,-37095.39,-24524.595,-22284.945
1764511270.5296853,-4560.12,-39264.48,-30683.385,-9741.645,-9727.47,-37091.7,-24520.59,-22283.01
1764511270.5296853,-4561.785,-39267.63,-30685.815,-9743.715,-9730.035,-37094.4,-24522.705,-22286.745
1764511270.5296853,-4558.679999999999,-39264.795,-30683.925,-9741.555,-9727.29,-37092.24,-24519.915,-22286.34
1764511270.5296853,-4560.929999999999,-39268.71,-30687.255,-9744.885,-9730.575,-37095.21,-24522.075,-22290.84
1764511270.5296853,-4555.845,-39264.57,-30683.565,-9740.295,-9726.03,-37091.115,-24517.89,-22288.86
1764511270.5296853,-4553.595,-39263.22,-30682.53,-9738.81,-9724.905,-37089.54,-24517.575,-22288.095
1764511270.5296853,-4553.37,-39262.815,-30682.755,-9739.755,-9725.265,-37089.63,-24518.565,-22288.68
1764511270.5296853,-4557.78,-39267.27,-30688.29,-9744.075,-9730.53,-37093.86,-24522.93,-22294.305
1764511270.5296853,-4554.945,-39264.39,-30684.87,-9741.015,-9727.695,-37090.755,-24519.915,-22291.38
1764511270.5296853,-4555.08,-39266.865,-30686.58,-9743.445,-9729.54,-37093.095,-24522.12,-22293.54
1764511270.531077,-4551.075,-39263.895,-30683.835,-9740.745,-9726.93,-37090.71,-24519.915,-22290.345
1764511270.531077,-4550.895,-39264.84,-30684.6,-9742.005,-9727.38,-37091.43,-24520.95,-22289.85
1764511270.531077,-4553.73,-39268.53,-30688.605,-9746.46,-9731.34,-37094.49,-24524.325,-22292.865
1764511270.531077,-4548.825,-39262.95,-30682.44,-9740.475,-9725.535,-37088.415,-24519.735,-22287.42
1764511270.531077,-4549.815,-39265.92,-30684.195,-9741.42,-9726.705,-37091.43,-24520.59,-22287.825
1764511270.531077,-4544.73,-39260.34,-30679.29,-9735.66,-9720.99,-37085.625,-24515.955,-22281.795
1764511270.531077,-4543.02,-39257.415,-30676.68,-9733.545,-9718.695,-37082.925,-24514.65,-22277.205
1764511270.531077,-4547.07,-39261.06,-30680.73,-9737.28,-9722.34,-37086.39,-24519.06,-22278.465
1764511270.531077,-4544.91,-39260.295,-30679.875,-9736.425,-9721.35,-37084.68,-24517.845,-22275.54
1764511270.531077,-4542.929999999999,-39258.315,-30677.625,-9735.21,-9719.685,-37082.61,-24515.82,-22271.715
1764511270.5781546,-4539.51,-39255.975,-30675.015,-9733.455,-9716.715,-37080.315,-24513.75,-22266.99
1764511270.5781546,-4542.885,-39259.395,-30678.345,-9737.28,-9720.54,-37083.78,-24517.62,-22268.43
1764511270.5781546,-4538.429999999999,-39254.535,-30673.935,-9732.6,-9715.77,-37079.325,-24514.02,-22262.67
1764511270.5781546,-4536.405,-39253.23,-30672.63,-9731.34,-9714.78,-37078.245,-24512.805,-22259.25
1764511270.5781546,-4537.17,-39252.42,-30672.45,-9731.16,-9715.005,-37078.335,-24514.065,-22258.395
1764511270.5781546,-4535.865,-39250.17,-30670.245,-9729.27,-9713.25,-37076.805,-24513.525,-22257.09
1764511270.5781546,-4535.775,-39249.945,-30669.57,-9728.46,-9712.62,-37076.895,-24512.355,-22254.48
1764511270.5781546,-4539.645,-39253.455,-30672.765,-9732.555,-9716.4,-37080.405,-24514.2,-22254.795
1764511270.5781546,-4542.615,-39255.57,-30675.33,-9734.31,-9718.02,-37082.565,-24513.795,-22254.03
1764511270.5781546,-4545.54,-39259.125,-30678.93,-9738.0,-9720.99,-37086.48,-24517.62,-22255.605
1764511270.5781546,-4542.255,-39256.785,-30676.275,-9735.345,-9718.695,-37083.105,-24515.145,-22250.385
1764511270.5781546,-4544.685,-39259.35,-30679.02,-9738.54,-9722.34,-37086.93,-24519.555,-22251.555
1764511270.5781546,-4542.255,-39255.795,-30675.105,-9735.885,-9719.01,-37084.815,-24520.14,-22249.755
1764511270.5781546,-4542.3,-39255.03,-30673.215,-9735.93,-9718.605,-37083.78,-24520.32,-22249.08
1764511270.5781546,-4548.465,-39260.79,-30678.48,-9740.655,-9723.645,-37087.11,-24520.455,-22253.49
1764511270.5781546,-4549.77,-39258.63,-30676.095,-9738.63,-9720.81,-37082.43,-24516.495,-22251.24
1764511270.5781546,-4547.97,-39257.64,-30676.005,-9737.28,-9720.315,-37083.645,-24516.045,-22250.925
1764511270.5781546,-4549.545,-39258.99,-30677.49,-9738.495,-9721.215,-37086.3,-24518.475,-22254.705
1764511270.5781546,-4553.73,-39262.41,-30680.595,-9742.545,-9725.22,-37089.99,-24522.075,-22259.52
1764511270.5781546,-4553.505,-39259.8,-30678.705,-9740.88,-9724.095,-37089.09,-24520.095,-22258.215
1764511270.5781546,-4548.69,-39253.005,-30673.08,-9734.58,-9717.48,-37083.42,-24515.055,-22252.275
1764511270.5781546,-4556.97,-39261.69,-30681.99,-9743.715,-9726.57,-37091.565,-24519.69,-22257.315
1764511270.5781546,-4561.155,-39266.55,-30686.445,-9748.755,-9731.025,-37095.615,-24521.85,-22261.095
1764511270.5781546,-4563.99,-39267.9,-30687.255,-9749.88,-9731.97,-37096.605,-24524.37,-22265.415
1764511270.6269126,-4563.36,-39267.675,-30687.165,-9750.015,-9731.97,-37097.865,-24526.215,-22267.98
1764511270.6269126,-4561.065,-39263.67,-30683.07,-9746.055,-9728.325,-37094.13,-24523.83,-22266.63
1764511270.6269126,-4556.25,-39255.84,-30675.285,-9738.135,-9720.405,-37086.39,-24517.71,-22263.48
1764511270.6269126,-4555.935,-39255.255,-30675.555,-9738.855,-9720.72,-37086.84,-24518.16,-22265.235
1764511270.6269126,-4555.8,-39254.805,-30675.195,-9739.485,-9720.9,-37087.155,-24519.78,-22267.305
1764511270.6269126,-4561.155,-39260.61,-30680.73,-9744.3,-9726.93,-37092.465,-24525.405,-22273.38
1764511270.6269126,-4561.38,-39261.825,-30681.585,-9745.155,-9727.695,-37092.915,-24527.07,-22274.415
1764511270.6279085,-4555.62,-39256.965,-30676.86,-9740.43,-9723.42,-37088.19,-24524.955,-22272.12
1764511270.6279085,-4555.889999999999,-39259.755,-30679.38,-9743.265,-9726.12,-37090.755,-24528.42,-22275.855
1764511270.6279085,-4553.37,-39257.055,-30677.985,-9740.79,-9723.69,-37088.82,-24527.745,-22274.145
1764511270.6279085,-4554.495,-39261.105,-30682.71,-9745.065,-9728.28,-37092.78,-24532.155,-22278.195
1764511270.6279085,-4552.83,-39260.16,-30681.855,-9744.255,-9727.515,-37092.42,-24532.425,-22278.195
1764511270.6279085,-4547.07,-39253.185,-30673.935,-9737.37,-9720.855,-37085.715,-24526.845,-22272.75
1764511270.6279085,-4549.724999999999,-39258.855,-30679.785,-9742.77,-9725.94,-37090.755,-24531.705,-22278.69
1764511270.6279085,-4544.505,-39256.425,-30677.445,-9740.61,-9723.33,-37088.19,-24528.78,-22276.215
1764511270.6279085,-4544.46,-39256.155,-30677.445,-9740.88,-9723.735,-37088.145,-24529.365,-22275.9
1764511270.6279085,-4548.554999999999,-39259.215,-30681.315,-9744.255,-9727.47,-37091.745,-24532.29,-22278.645
1764511270.6279085,-4546.889999999999,-39257.325,-30679.11,-9742.365,-9724.77,-37089.54,-24530.445,-22276.53
1764511270.6279085,-4550.535,-39262.905,-30684.465,-9747.63,-9729.855,-37095.12,-24535.08,-22280.805
1764511270.6279085,-4546.889999999999,-39259.665,-30681.18,-9743.67,-9726.48,-37090.755,-24532.83,-22277.97
1764511270.6279085,-4549.679999999999,-39262.05,-30683.43,-9746.19,-9729.45,-37093.59,-24535.26,-22280.895
1764511270.6279085,-4545.45,-39256.83,-30677.49,-9740.79,-9723.24,-37088.145,-24530.49,-22276.305
1764511270.6725142,-4544.415,-39255.705,-30675.915,-9739.215,-9721.62,-37085.94,-24528.87,-22274.865
1764511270.6725142,-4552.695,-39264.795,-30684.69,-9747.99,-9730.62,-37094.31,-24535.665,-22282.155
1764511270.6725142,-4553.73,-39265.155,-30685.41,-9747.765,-9731.16,-37093.815,-24535.215,-22282.155
1764511270.6725142,-4552.965,-39264.21,-30684.24,-9746.685,-9730.17,-37092.15,-24534.45,-22281.12
1764511270.6725142,-4552.514999999999,-39262.5,-30682.305,-9745.065,-9728.865,-37090.305,-24532.065,-22279.455
1764511270.6725142,-4548.195,-39257.145,-30677.175,-9740.115,-9723.33,-37084.365,-24527.25,-22274.955
1764511270.6725142,-4551.03,-39261.33,-30681.54,-9743.13,-9726.93,-37088.055,-24530.22,-22277.7
1764511270.6725142,-4550.58,-39261.51,-30682.305,-9743.22,-9727.38,-37088.595,-24530.805,-22276.44
1764511270.6725142,-4545.945,-39256.38,-30676.725,-9737.73,-9721.845,-37083.33,-24525.405,-22270.095
1764511270.6740327,-4544.054999999999,-39256.29,-30676.725,-9738.18,-9721.665,-37082.655,-24524.055,-22268.43
1764511270.6740327,-4541.355,-39256.56,-30677.04,-9738.27,-9721.44,-37082.295,-24522.84,-22267.575
1764511270.6740327,-4543.74,-39259.845,-30679.56,-9740.79,-9724.59,-37084.86,-24524.73,-22269.33
1764511270.6740327,-4546.98,-39263.625,-30683.025,-9744.39,-9728.37,-37088.19,-24527.52,-22271.355
1764511270.6740327,-4542.795,-39260.25,-30680.415,-9741.24,-9725.49,-37084.905,-24523.47,-22267.395
1764511270.675055,-4544.91,-39264.12,-30684.24,-9744.705,-9728.775,-37088.37,-24526.8,-22270.635
1764511270.675055,-4546.17,-39263.895,-30684.285,-9745.065,-9728.865,-37088.28,-24527.655,-22271.31
1764511270.675055,-4544.37,-39261.42,-30681.81,-9742.995,-9726.57,-37085.535,-24524.955,-22269.285
1764511270.675055,-4539.69,-39257.01,-30677.355,-9738.72,-9722.655,-37081.17,-24522.12,-22266.405
1764511270.675055,-4541.94,-39261.24,-30681.225,-9742.23,-9725.85,-37085.04,-24525.27,-22269.42
1764511270.6756282,-4540.679999999999,-39259.08,-30679.92,-9740.97,-9723.78,-37083.06,-24525.72,-22268.07
1764511270.6756282,-4535.505,-39252.6,-30673.575,-9735.12,-9717.795,-37076.805,-24520.41,-22264.065
1764511270.6756282,-4536.72,-39251.79,-30671.82,-9734.85,-9717.885,-37075.365,-24520.86,-22264.425
1764511270.6760426,-4540.95,-39258.945,-30680.01,-9740.88,-9724.23,-37082.115,-24525.27,-22270.23
1764511270.6760426,-4540.32,-39258.72,-30680.685,-9740.115,-9723.645,-37082.385,-24525.045,-22271.94
1764511270.7210674,-4535.19,-39254.625,-30675.825,-9735.705,-9719.325,-37078.155,-24520.86,-22268.43
1764511270.7210674,-4533.57,-39252.375,-30673.26,-9733.95,-9716.85,-37075.725,-24519.015,-22267.26
1764511270.7210674,-4531.59,-39249.63,-30670.74,-9732.42,-9714.69,-37073.79,-24518.205,-22267.08
1764511270.7210674,-4531.815,-39251.835,-30672.945,-9735.39,-9717.84,-37076.85,-24520.635,-22270.05
1764511270.7210674,-4530.105,-39250.44,-30672.27,-9734.22,-9717.12,-37075.815,-24519.87,-22269.87
1764511270.7210674,-4528.665,-39249.405,-30672.0,-9733.23,-9716.535,-37075.275,-24521.175,-22269.465
1764511270.7210674,-4528.035,-39248.82,-30671.73,-9732.645,-9715.995,-37075.005,-24522.12,-22270.095
1764511270.7210674,-4532.715,-39253.455,-30676.455,-9737.775,-9720.9,-37079.595,-24526.89,-22276.755
1764511270.7210674,-4532.58,-39253.365,-30675.87,-9737.19,-9720.495,-37078.92,-24526.755,-22277.88
1764511270.7210674,-4528.98,-39248.235,-30671.505,-9733.32,-9716.625,-37074.69,-24525.0,-22275.54
1764511270.7210674,-4524.435,-39242.52,-30666.915,-9728.37,-9711.495,-37070.055,-24521.58,-22271.58
1764511270.7220874,-4524.615,-39243.78,-30668.13,-9729.765,-9712.44,-37071.405,-24523.11,-22272.03
1764511270.7220874,-4523.804999999999,-39244.68,-30668.175,-9730.125,-9713.385,-37072.575,-24524.37,-22272.39
1764511270.7220874,-4522.545,-39244.365,-30668.085,-9729.855,-9712.98,-37072.305,-24524.955,-22271.94
1764511270.7220874,-4520.429999999999,-39243.87,-30667.005,-9728.82,-9711.585,-37071.495,-24525.405,-22270.32
1764511270.7220874,-4519.17,-39242.52,-30666.51,-9727.965,-9711.27,-37070.82,-24525.405,-22268.52
1764511270.7220874,-4518.224999999999,-39243.015,-30666.645,-9728.595,-9712.125,-37071.63,-24526.17,-22266.54
1764511270.7220874,-4517.91,-39243.96,-30667.905,-9730.665,-9713.385,-37073.115,-24529.185,-22266.405
1764511270.7220874,-4517.639999999999,-39244.905,-30668.58,-9732.015,-9714.6,-37073.97,-24530.4,-22265.505
1764511270.7220874,-4523.22,-39251.97,-30676.095,-9738.675,-9722.25,-37081.26,-24536.565,-22269.33
1764511270.7220874,-4522.5,-39250.215,-30675.015,-9737.01,-9720.45,-37080.27,-24535.62,-22266.99
1764511270.7220874,-4517.685,-39243.195,-30667.68,-9730.755,-9713.745,-37073.745,-24529.455,-22258.98
1764511270.7220874,-4515.66,-39241.08,-30665.385,-9728.64,-9711.855,-37071.9,-24527.385,-22255.02
1764511270.7220874,-4514.49,-39239.82,-30663.945,-9727.02,-9710.055,-37070.46,-24526.125,-22252.815
1764511270.7648854,-4514.985,-39241.305,-30665.43,-9728.955,-9711.81,-37072.35,-24527.115,-22251.69
1764511270.7648854,-4518.495,-39247.065,-30671.505,-9734.895,-9717.795,-37077.525,-24531.93,-22253.94
1764511270.7648854,-4514.04,-39240.09,-30664.98,-9728.37,-9710.955,-37071.36,-24526.53,-22247.01
1764511270.7648854,-4514.175,-39241.26,-30666.42,-9730.08,-9712.44,-37073.565,-24527.565,-22246.02
1764511270.7648854,-4513.77,-39241.845,-30666.645,-9729.765,-9713.07,-37074.285,-24527.745,-22245.615
1764511270.7648854,-4515.929999999999,-39241.08,-30665.475,-9729.9,-9712.755,-37072.71,-24529.14,-22244.58
1764511270.7648854,-4519.17,-39245.715,-30670.875,-9734.715,-9717.03,-37076.94,-24532.92,-22246.92
1764511270.7648854,-4515.974999999999,-39240.54,-30665.835,-9729.27,-9712.125,-37072.665,-24528.24,-22242.78
1764511270.7648854,-4516.56,-39238.38,-30663.585,-9727.38,-9709.92,-37070.955,-24526.08,-22241.115
1764511270.7648854,-4519.8,-39238.875,-30663.45,-9728.28,-9710.595,-37071.405,-24527.79,-22242.105
1764511270.7648854,-4526.01,-39244.32,-30668.49,-9733.635,-9716.355,-37076.445,-24532.155,-22247.955
1764511270.7648854,-4525.74,-39243.6,-30668.265,-9732.33,-9714.645,-37076.355,-24530.445,-22247.685
1764511270.7648854,-4522.455,-39239.19,-30664.755,-9728.055,-9710.775,-37072.305,-24526.665,-22244.4
1764511270.7648854,-4527.315,-39243.915,-30669.84,-9733.41,-9715.725,-37077.03,-24531.255,-22249.845
1764511270.7648854,-4525.92,-39239.865,-30665.52,-9729.315,-9710.865,-37072.845,-24527.34,-22247.64
1764511270.7648854,-4530.195,-39242.295,-30668.175,-9732.06,-9714.42,-37075.77,-24529.635,-22251.78
1764511270.7648854,-4526.865,-39238.065,-30664.17,-9728.145,-9709.74,-37071.315,-24525.855,-22248.855
1764511270.7648854,-4528.125,-39238.74,-30664.62,-9728.91,-9709.74,-37072.215,-24525.72,-22250.115
1764511270.7648854,-4533.615,-39244.14,-30670.155,-9734.13,-9715.23,-37077.12,-24530.04,-22256.28
1764511270.766506,-4533.57,-39243.465,-30667.995,-9732.465,-9713.655,-37075.995,-24527.745,-22256.235
1764511270.766506,-4530.554999999999,-39239.145,-30663.315,-9727.92,-9709.425,-37072.53,-24524.235,-22253.175
1764511270.766506,-4533.615,-39244.185,-30668.895,-9733.545,-9714.015,-37077.03,-24527.745,-22257.72
1764511270.766506,-4532.895,-39244.185,-30669.39,-9733.455,-9714.24,-37077.12,-24525.18,-22258.305
1764511270.766506,-4535.639999999999,-39244.995,-30669.795,-9734.445,-9716.13,-37077.03,-24525.945,-22261.815
1764511270.8112645,-4539.96,-39250.35,-30675.33,-9740.115,-9720.765,-37082.61,-24529.815,-22267.89
1764511270.8112645,-4538.925,-39250.215,-30675.465,-9740.025,-9719.955,-37082.115,-24529.005,-22269.24
1764511270.8117986,-4534.245,-39243.555,-30669.57,-9734.715,-9714.6,-37076.715,-24523.245,-22266.315
1764511270.8117986,-4534.605,-39241.53,-30668.67,-9733.32,-9713.655,-37075.14,-24522.075,-22267.845
1764511270.8117986,-4539.69,-39246.525,-30674.205,-9738.315,-9718.29,-37080.09,-24525.81,-22275.0
1764511270.8117986,-4539.87,-39245.625,-30673.665,-9737.505,-9717.255,-37079.415,-24525.27,-22276.53
1764511270.8117986,-4534.38,-39239.055,-30666.78,-9730.53,-9710.505,-37072.305,-24520.14,-22272.03
1764511270.8117986,-4534.02,-39238.29,-30666.06,-9730.395,-9709.065,-37071.63,-24519.96,-22272.525
1764511270.8117986,-4534.155,-39238.155,-30665.88,-9731.34,-9709.02,-37072.035,-24519.69,-22275.045
1764511270.8117986,-4540.005,-39244.14,-30672.045,-9737.055,-9715.365,-37078.065,-24524.64,-22282.245
1764511270.8117986,-4540.545,-39244.77,-30673.44,-9737.82,-9716.715,-37078.56,-24525.495,-22283.145
1764511270.8117986,-4540.635,-39245.355,-30673.62,-9738.72,-9716.67,-37078.2,-24525.18,-22285.08
1764511270.8117986,-4539.42,-39243.24,-30672.54,-9737.415,-9715.05,-37076.85,-24523.605,-22285.755
1764511270.812831,-4536.495,-39240.27,-30669.12,-9734.67,-9712.53,-37073.655,-24520.59,-22283.73
1764511270.812831,-4540.05,-39245.58,-30673.215,-9738.855,-9717.66,-37078.2,-24524.01,-22287.825
1764511270.812831,-4537.935,-39243.645,-30671.685,-9737.055,-9715.95,-37076.805,-24521.85,-22285.575
1764511270.812831,-4541.264999999999,-39247.83,-30675.33,-9741.105,-9720.36,-37080.585,-24525.315,-22289.22
1764511270.812831,-4539.645,-39245.67,-30673.305,-9739.08,-9718.425,-37078.38,-24523.155,-22288.23
1764511270.812831,-4532.264999999999,-39236.13,-30664.845,-9730.62,-9708.705,-37069.605,-24516.45,-22280.895
1764511270.812831,-4533.03,-39237.84,-30666.69,-9732.69,-9710.1,-37071.765,-24519.24,-22282.065
1764511270.812831,-4537.215,-39244.32,-30672.765,-9739.08,-9716.76,-37078.065,-24524.685,-22286.7
1764511270.812831,-4537.575,-39244.68,-30672.765,-9739.8,-9717.345,-37078.47,-24524.64,-22285.53
1764511270.8598156,-4531.275,-39238.29,-30666.555,-9734.175,-9711.0,-37072.17,-24519.42,-22279.23
1764511270.8598156,-4530.105,-39237.255,-30665.79,-9733.095,-9710.505,-37071.675,-24519.78,-22277.205
1764511270.8598156,-4529.34,-39238.02,-30666.195,-9732.87,-9710.82,-37071.99,-24520.815,-22276.845
1764511270.8598156,-4532.13,-39241.845,-30668.985,-9735.84,-9714.015,-37074.915,-24523.02,-22278.87
1764511270.8598156,-4530.735,-39239.865,-30666.87,-9733.815,-9712.53,-37072.62,-24521.445,-22275.765
1764511270.8598156,-4523.715,-39230.055,-30656.835,-9725.355,-9703.62,-37062.9,-24514.515,-22267.395
1764511270.8598156,-4522.095,-39232.26,-30658.59,-9726.48,-9704.205,-37065.24,-24514.245,-22265.775
1764511270.8598156,-4528.755,-39242.16,-30669.75,-9735.975,-9713.745,-37075.14,-24523.02,-22272.03
1764511270.8598156,-4529.52,-39242.97,-30670.695,-9737.01,-9715.005,-37076.13,-24523.29,-22271.265
1764511270.8598156,-4524.974999999999,-39237.615,-30664.665,-9731.52,-9709.29,-37070.82,-24519.105,-22264.515
1764511270.8598156,-4528.215,-39241.98,-30668.715,-9736.02,-9713.655,-37075.14,-24522.21,-22267.845
1764511270.8598156,-4530.465,-39243.96,-30670.2,-9737.415,-9715.635,-37076.49,-24524.37,-22268.52
1764511270.8598156,-4529.025,-39241.26,-30667.68,-9735.12,-9713.205,-37073.34,-24522.39,-22266.63
1764511270.8598156,-4523.625,-39235.32,-30662.19,-9729.09,-9707.58,-37067.445,-24517.395,-22260.6
1764511270.8608303,-4523.355,-39233.835,-30661.2,-9728.55,-9706.365,-37067.31,-24516.855,-22258.935
1764511270.8608303,-4522.77,-39231.945,-30659.085,-9726.75,-9705.735,-37066.185,-24516.27,-22257.765
1764511270.8608303,-4521.465,-39229.38,-30657.33,-9724.14,-9703.215,-37063.665,-24515.415,-22257.045
1764511270.861837,-4526.37,-39233.88,-30661.785,-9728.865,-9707.445,-37068.84,-24520.95,-22261.68
1764511270.861837,-4526.595,-39233.61,-30661.245,-9728.595,-9706.365,-37068.525,-24521.04,-22260.915
1764511270.86283,-4523.895,-39229.875,-30658.77,-9725.31,-9703.575,-37066.005,-24519.15,-22258.08
1764511270.86283,-4527.27,-39233.565,-30662.73,-9729.9,-9707.445,-37069.695,-24522.39,-22262.625
1764511270.86283,-4524.705,-39230.73,-30659.13,-9727.605,-9705.15,-37066.185,-24520.86,-22260.42
1764511270.86283,-4526.415,-39233.88,-30662.37,-9730.215,-9708.03,-37069.02,-24522.525,-22262.715
1764511270.86283,-4524.84,-39231.765,-30659.895,-9728.055,-9705.33,-37067.445,-24520.545,-22260.915
1764511270.9047873,-4528.17,-39235.77,-30663.315,-9732.285,-9709.695,-37071.765,-24525.045,-22266.225
1764511270.9047873,-4526.595,-39232.665,-30661.29,-9729.945,-9707.22,-37069.56,-24523.65,-22266.495
1764511270.9047873,-4522.185,-39226.5,-30655.44,-9724.815,-9701.55,-37063.98,-24518.655,-22261.275
1764511270.905789,-4528.44,-39231.855,-30659.895,-9730.755,-9707.805,-37068.03,-24523.29,-22264.965
1764511270.905789,-4530.105,-39235.005,-30663.405,-9732.915,-9709.425,-37071.0,-24524.82,-22265.415
1764511270.905789,-4529.79,-39232.62,-30659.94,-9730.125,-9705.195,-37066.68,-24524.28,-22265.955
1764511270.905789,-4529.205,-39233.07,-30661.11,-9732.735,-9710.28,-37068.39,-24521.535,-22266.495
1764511270.905789,-4529.115,-39234.87,-30662.73,-9733.77,-9711.54,-37069.92,-24522.615,-22266.765
1764511270.905789,-4529.16,-39236.04,-30664.8,-9734.13,-9712.53,-37071.855,-24522.12,-22267.17
1764511270.9067874,-4528.755,-39236.04,-30664.845,-9733.77,-9710.955,-37071.27,-24521.22,-22267.215
1764511270.9067874,-4525.514999999999,-39231.765,-30660.345,-9729.855,-9706.545,-37067.22,-24517.62,-22264.65
1764511270.9067874,-4528.575,-39234.735,-30663.0,-9731.88,-9709.11,-37070.235,-24520.185,-22267.665
1764511270.9067874,-4525.47,-39228.3,-30656.79,-9725.94,-9702.945,-37063.845,-24515.73,-22263.3
1764511270.9067874,-4530.78,-39233.205,-30661.695,-9731.565,-9708.255,-37069.02,-24519.735,-22268.925
1764511270.9067874,-4529.385,-39229.695,-30658.545,-9728.865,-9705.465,-37066.41,-24516.72,-22267.215
1764511270.9077885,-4534.02,-39234.69,-30663.09,-9733.635,-9710.19,-37071.495,-24520.86,-22272.615
1764511270.9077885,-4535.955,-39235.995,-30663.675,-9734.13,-9710.505,-37071.945,-24521.67,-22275.27
1764511270.9077885,-4536.179999999999,-39234.105,-30660.93,-9731.43,-9708.165,-37069.47,-24519.555,-22274.91
1764511270.9077885,-4532.04,-39228.075,-30654.18,-9725.67,-9701.73,-37062.675,-24513.885,-22269.735
1764511270.9077885,-4530.42,-39228.075,-30655.575,-9726.39,-9701.955,-37063.62,-24514.245,-22268.97
1764511270.9077885,-4532.49,-39232.44,-30662.37,-9732.555,-9708.345,-37070.19,-24518.655,-22271.625
1764511270.9077885,-4528.26,-39225.555,-30654.63,-9724.86,-9700.785,-37062.63,-24513.75,-22266.09
1764511270.9530685,-4526.054999999999,-39220.965,-30648.915,-9719.91,-9695.88,-37057.995,-24509.52,-22264.11
1764511270.9530685,-4528.125,-39222.99,-30650.625,-9721.62,-9697.275,-37059.795,-24511.59,-22265.955
1764511270.9530685,-4529.655,-39226.41,-30653.505,-9724.005,-9700.47,-37062.675,-24513.48,-22267.665
1764511270.9530685,-4535.46,-39232.755,-30660.57,-9730.44,-9707.13,-37068.57,-24518.655,-22272.795
1764511270.9530685,-4536.27,-39231.9,-30659.58,-9729.72,-9706.59,-37068.705,-24517.89,-22272.615
1764511270.9530685,-4534.875,-39230.46,-30658.5,-9728.505,-9705.87,-37068.03,-24516.63,-22273.02
1764511270.9530685,-4533.84,-39229.605,-30656.88,-9727.875,-9704.52,-37066.905,-24515.505,-22273.02
1764511270.9530685,-4529.97,-39224.115,-30652.38,-9723.15,-9698.76,-37061.595,-24510.51,-22268.115
1764511270.9530685,-4529.97,-39224.52,-30652.875,-9723.51,-9699.12,-37061.28,-24509.52,-22268.07
1764511270.9530685,-4534.83,-39228.885,-30656.79,-9728.145,-9703.755,-37065.42,-24513.12,-22271.94
1764511270.9530685,-4530.06,-39221.73,-30650.445,-9721.53,-9697.005,-37058.22,-24507.09,-22266.54
1764511270.9530685,-4531.32,-39221.91,-30650.58,-9720.855,-9696.735,-37057.815,-24506.82,-22266.99
1764511270.954067,-4532.804999999999,-39222.135,-30650.265,-9721.08,-9697.275,-37058.085,-24507.27,-22267.08
1764511270.954067,-4534.065,-39222.945,-30651.03,-9722.79,-9698.715,-37059.165,-24507.81,-22268.43
1764511270.954067,-4535.145,-39223.62,-30650.895,-9722.835,-9698.175,-37058.805,-24507.36,-22269.105
1764511270.954067,-4537.08,-39223.89,-30651.255,-9723.465,-9698.58,-37059.57,-24507.9,-22270.365
1764511270.954067,-4541.4,-39228.93,-30655.71,-9728.955,-9703.71,-37064.88,-24510.69,-22275.27
1764511270.954067,-4543.065,-39229.38,-30656.745,-9729.765,-9704.115,-37065.78,-24510.555,-22275.135
1764511270.954067,-4541.04,-39224.97,-30652.47,-9725.355,-9700.11,-37061.325,-24507.18,-22271.355
1764511270.954067,-4544.55,-39229.47,-30656.43,-9729.675,-9704.79,-37065.33,-24509.52,-22275.54
1764511270.954067,-4539.195,-39222.315,-30649.455,-9722.43,-9697.635,-37057.95,-24503.13,-22270.05
1764511270.954067,-4539.465,-39222.045,-30649.815,-9722.34,-9697.545,-37058.04,-24503.085,-22269.51
1764511270.954067,-4539.645,-39223.35,-30650.355,-9723.195,-9698.67,-37058.85,-24502.905,-22269.42
1764511270.954067,-4540.995,-39224.655,-30650.805,-9723.87,-9699.705,-37059.615,-24503.22,-22269.87
1764511270.9995203,-4541.22,-39225.735,-30652.155,-9724.995,-9701.145,-37061.055,-24503.49,-22271.04
1764511270.9995203,-4540.77,-39227.175,-30653.235,-9725.85,-9701.775,-37062.81,-24503.265,-22270.815
1764511270.9995203,-4542.03,-39228.93,-30654.63,-9727.83,-9703.035,-37064.565,-24504.345,-22272.165
1764511270.9995203,-4546.17,-39232.665,-30658.5,-9732.015,-9706.725,-37068.48,-24508.485,-22276.845
1764511270.9995203,-4545.945,-39231.765,-30658.725,-9732.555,-9706.815,-37068.39,-24508.89,-22276.71
1764511270.9995203,-4542.57,-39228.48,-30655.395,-9729.09,-9702.945,-37064.52,-24507.135,-22273.56
1764511270.9995203,-4537.304999999999,-39221.055,-30647.7,-9721.71,-9695.34,-37056.915,-24500.97,-22267.35
1764511270.9995203,-4539.15,-39222.855,-30649.32,-9723.33,-9696.87,-37058.49,-24502.77,-22268.88
1764511270.9995203,-4538.835,-39223.44,-30650.67,-9723.87,-9697.68,-37059.795,-24504.12,-22270.14
1764511270.9995203,-4539.014999999999,-39223.44,-30650.85,-9723.87,-9697.455,-37059.57,-24503.805,-22270.68
1764511270.9995203,-4538.97,-39222.63,-30650.355,-9723.555,-9697.23,-37058.895,-24503.805,-22270.095
1764511270.9995203,-4541.67,-39224.565,-30651.39,-9724.95,-9699.3,-37060.92,-24505.83,-22270.545
1764511271.0000255,-4546.62,-39230.28,-30656.835,-9730.53,-9705.33,-37067.265,-24511.14,-22274.82
1764511271.0000255,-4546.44,-39229.065,-30655.305,-9728.64,-9704.07,-37066.05,-24510.915,-22274.28
1764511271.0000255,-4541.04,-39223.215,-30649.59,-9723.42,-9697.995,-37060.65,-24506.145,-22269.375
1764511271.0000255,-4540.905,-39221.82,-30648.33,-9722.7,-9697.185,-37060.065,-24504.885,-22267.575
1764511271.0000255,-4541.49,-39220.245,-30646.665,-9721.395,-9695.79,-37059.075,-24504.57,-22266.81
1764511271.0000255,-4546.53,-39224.34,-30651.39,-9725.895,-9700.245,-37063.305,-24509.7,-22271.13
1764511271.0000255,-4543.245,-39220.56,-30647.745,-9722.205,-9696.69,-37059.705,-24505.83,-22267.62
1764511271.0000255,-4543.83,-39221.19,-30648.33,-9722.655,-9696.96,-37059.345,-24506.595,-22267.125
1764511271.0000255,-4545.54,-39222.405,-30650.13,-9725.49,-9699.165,-37061.46,-24509.295,-22268.43
1764511271.0000255,-4549.365,-39226.23,-30653.28,-9729.315,-9702.36,-37064.79,-24512.265,-22271.49
1764511271.0000255,-4544.505,-39220.47,-30646.755,-9723.465,-9696.78,-37058.67,-24506.955,-22267.08
1764511271.0000255,-4544.145,-39218.76,-30645.36,-9721.845,-9694.98,-37058.22,-24505.695,-22265.235
1764511271.046497,-4545.179999999999,-39220.245,-30647.16,-9724.05,-9697.275,-37059.795,-24507.45,-22266.36
1764511271.046497,-4547.115,-39223.755,-30650.445,-9727.155,-9700.47,-37062.855,-24509.88,-22268.88
1764511271.046497,-4540.77,-39214.98,-30642.12,-9718.74,-9691.245,-37054.53,-24503.355,-22261.32
1764511271.046497,-4538.835,-39212.775,-30640.815,-9716.67,-9690.075,-37053.135,-24502.905,-22259.745
1764511271.046497,-4538.52,-39214.665,-30642.165,-9717.975,-9691.965,-37054.8,-24504.57,-22260.465
1764511271.046497,-4544.415,-39222.765,-30651.21,-9726.165,-9700.605,-37063.125,-24512.13,-22265.595
1764511271.046497,-4546.44,-39224.745,-30653.685,-9729.54,-9703.08,-37065.735,-24514.83,-22265.73
1764511271.046497,-4546.304999999999,-39224.61,-30653.01,-9729.045,-9702.855,-37065.69,-24514.02,-22265.46
1764511271.046497,-4541.715,-39218.805,-30647.25,-9722.475,-9696.69,-37059.66,-24510.42,-22260.195
1764511271.046497,-4542.57,-39219.345,-30647.745,-9722.61,-9697.365,-37060.245,-24510.645,-22260.285
1764511271.046497,-4547.07,-39225.825,-30653.1,-9728.505,-9702.945,-37065.825,-24516.315,-22265.64
1764511271.046497,-4546.125,-39224.88,-30652.065,-9727.47,-9701.955,-37064.61,-24516.135,-22264.74
1764511271.0475245,-4540.275,-39216.555,-30644.28,-9719.82,-9694.845,-37057.77,-24509.385,-22258.575
1764511271.0475245,-4540.455,-39218.94,-30646.08,-9722.925,-9697.5,-37060.92,-24510.195,-22261.23
1764511271.0475245,-4544.145,-39223.89,-30651.39,-9727.335,-9702.54,-37066.32,-24514.695,-22265.37
1764511271.0475245,-4540.32,-39219.795,-30647.205,-9722.52,-9698.085,-37062.315,-24512.625,-22262.085
1764511271.0475245,-4540.635,-39220.605,-30647.655,-9723.51,-9698.895,-37063.26,-24513.03,-22262.175
1764511271.0475245,-4545.99,-39226.095,-30653.19,-9728.91,-9704.295,-37069.02,-24517.845,-22267.71
1764511271.0475245,-4545.315,-39225.015,-30652.02,-9727.92,-9703.08,-37067.94,-24516.045,-22267.89
1764511271.0475245,-4540.905,-39219.435,-30645.72,-9722.79,-9697.59,-37062.45,-24511.005,-22262.535
1764511271.0475245,-4540.995,-39220.74,-30647.07,-9724.455,-9698.4,-37063.98,-24511.14,-22262.67
1764511271.0475245,-4544.054999999999,-39225.69,-30652.38,-9729.09,-9703.755,-37068.39,-24515.28,-22267.17
1764511271.0475245,-4538.115,-39219.48,-30646.305,-9723.33,-9697.005,-37061.73,-24510.42,-22262.49
1764511271.0475245,-4535.865,-39217.725,-30644.64,-9723.015,-9695.43,-37060.02,-24509.655,-22262.49
1764511271.090374,-4535.775,-39218.22,-30645.405,-9722.79,-9696.285,-37060.155,-24510.015,-22262.85
1764511271.090374,-4536.72,-39220.875,-30648.015,-9724.815,-9698.625,-37062.18,-24510.915,-22264.425
1764511271.090374,-4537.215,-39222.945,-30649.815,-9727.11,-9699.93,-37064.34,-24510.645,-22266.63
1764511271.090374,-4540.41,-39227.805,-30654.36,-9731.295,-9705.195,-37069.29,-24514.47,-22272.48
1764511271.090374,-4535.325,-39223.8,-30650.22,-9727.47,-9701.64,-37065.195,-24511.41,-22270.005
1764511271.090374,-4534.785,-39224.295,-30650.715,-9728.415,-9702.225,-37066.185,-24511.365,-22270.77
1764511271.090374,-4538.429999999999,-39228.975,-30656.34,-9733.95,-9707.49,-37071.0,-24514.92,-22275.945
1764511271.090374,-4531.635,-39221.775,-30649.68,-9727.065,-9700.425,-37063.755,-24509.34,-22270.815
1764511271.090374,-4528.755,-39217.95,-30646.305,-9723.375,-9696.42,-37059.93,-24506.235,-22268.61
1764511271.090374,-4533.03,-39224.34,-30652.47,-9730.305,-9703.62,-37065.06,-24511.185,-22274.865
1764511271.090374,-4529.474999999999,-39221.865,-30649.905,-9728.235,-9701.19,-37062.675,-24509.025,-22272.705
1764511271.090374,-4532.895,-39224.97,-30652.695,-9731.115,-9704.565,-37065.645,-24511.455,-22276.35
1764511271.090374,-4532.22,-39224.565,-30652.83,-9731.16,-9704.565,-37064.88,-24510.915,-22276.665
1764511271.090374,-4527.99,-39217.725,-30645.72,-9725.85,-9698.535,-37057.455,-24506.37,-22272.345
1764511271.090374,-4530.465,-39223.755,-30651.795,-9730.8,-9703.89,-37063.89,-24509.475,-22277.385
1764511271.090374,-4530.014999999999,-39224.475,-30652.155,-9730.98,-9704.07,-37065.015,-24509.61,-22278.555
1764511271.090374,-4529.34,-39223.71,-30651.345,-9730.755,-9703.44,-37064.43,-24509.025,-22278.105
1764511271.090374,-4528.395,-39222.945,-30650.49,-9730.395,-9702.405,-37062.585,-24507.405,-22277.25
1764511271.090374,-4523.49,-39219.12,-30646.215,-9726.165,-9698.895,-37058.625,-24503.175,-22272.705
1764511271.0919142,-4525.965,-39221.64,-30649.05,-9728.955,-9701.595,-37061.595,-24505.965,-22275.72
1764511271.0919142,-4529.115,-39226.95,-30653.955,-9734.355,-9706.68,-37066.995,-24509.835,-22280.85
1764511271.0919142,-4525.74,-39224.07,-30650.085,-9731.205,-9703.62,-37063.17,-24506.595,-22278.465
1764511271.1378314,-4525.605,-39224.295,-30649.32,-9731.925,-9704.205,-37063.62,-24506.595,-22279.095
1764511271.1378314,-4530.69,-39228.84,-30654.45,-9735.93,-9708.3,-37067.58,-24510.87,-22283.415
1764511271.1378314,-4530.33,-39228.21,-30654.09,-9735.39,-9707.58,-37066.77,-24510.465,-22282.965
1764511271.1378314,-4529.25,-39226.68,-30652.065,-9734.175,-9705.96,-37064.79,-24508.395,-22281.03
1764511271.1378314,-4528.485,-39225.015,-30650.175,-9732.375,-9703.98,-37063.395,-24507.36,-22279.365
1764511271.1378314,-4521.69,-39216.33,-30641.49,-9724.545,-9695.79,-37054.98,-24501.195,-22273.29
1764511271.1378314,-4518.764999999999,-39212.145,-30637.665,-9720.765,-9691.29,-37050.93,-24497.46,-22270.23
1764511271.1378314,-4521.105,-39214.215,-30640.725,-9724.095,-9694.17,-37053.99,-24498.315,-22273.02
1764511271.1378314,-4520.88,-39215.34,-30641.13,-9724.68,-9696.015,-37054.89,-24498.315,-22273.2
1764511271.1378314,-4520.88,-39217.545,-30642.795,-9726.165,-9697.77,-37056.375,-24499.215,-22273.56
1764511271.1378314,-4520.565,-39217.59,-30642.705,-9725.58,-9697.05,-37056.78,-24499.53,-22273.605
1764511271.1378314,-4521.014999999999,-39215.97,-30641.355,-9724.905,-9696.105,-37055.16,-24499.62,-22272.3
1764511271.1378314,-4524.795,-39219.795,-30645.72,-9729.09,-9700.83,-37059.48,-24504.48,-22275.855
1764511271.139351,-4522.995,-39217.68,-30643.47,-9727.02,-9698.805,-37057.905,-24503.22,-22273.92
1764511271.139351,-4525.605,-39221.28,-30646.575,-9730.215,-9702.27,-37062.09,-24505.965,-22276.08
1764511271.139351,-4520.925,-39215.655,-30641.31,-9724.59,-9695.97,-37056.015,-24501.24,-22271.265
1764511271.1398656,-4519.62,-39215.07,-30640.905,-9724.995,-9695.565,-37056.195,-24501.195,-22271.49
1764511271.1398656,-4524.795,-39222.405,-30649.005,-9731.43,-9703.755,-37063.89,-24507.54,-22277.43
1764511271.1398656,-4522.23,-39217.68,-30644.595,-9727.515,-9699.84,-37060.29,-24504.93,-22273.065
1764511271.140875,-4521.599999999999,-39216.735,-30643.56,-9726.525,-9698.985,-37059.57,-24505.875,-22272.075
1764511271.140875,-4525.74,-39221.73,-30648.285,-9731.025,-9703.8,-37064.565,-24509.745,-22275.81
1764511271.140875,-4526.19,-39221.505,-30647.52,-9731.43,-9704.34,-37064.97,-24510.645,-22275.675
1764511271.141884,-4522.365,-39216.6,-30643.38,-9726.93,-9699.12,-37060.38,-24506.64,-22271.67
1764511271.141884,-4525.605,-39220.785,-30647.565,-9731.43,-9702.945,-37064.655,-24511.275,-22276.215
1764511271.1880124,-4523.13,-39217.32,-30644.37,-9728.19,-9699.615,-37061.595,-24509.115,-22274.37
1764511271.1880124,-4525.605,-39220.245,-30647.565,-9731.565,-9702.765,-37064.385,-24511.59,-22277.565
1764511271.1880124,-4523.085,-39217.86,-30645.63,-9729.585,-9700.74,-37061.73,-24509.88,-22274.37
1764511271.1880124,-4529.61,-39224.61,-30652.605,-9736.065,-9707.94,-37068.84,-24516.045,-22279.455
1764511271.1880124,-4528.845,-39222.405,-30650.535,-9733.545,-9705.51,-37066.815,-24513.705,-22277.565
1764511271.1880124,-4533.84,-39226.14,-30654.63,-9738.045,-9709.83,-37071.315,-24517.71,-22281.525
1764511271.1880124,-4535.82,-39226.635,-30654.855,-9737.91,-9709.29,-37071.585,-24518.205,-22282.065
1764511271.1880124,-4536.315,-39225.69,-30653.55,-9736.83,-9707.715,-37070.055,-24517.305,-22281.57
1764511271.1880124,-4535.865,-39223.665,-30651.57,-9735.795,-9706.005,-37068.165,-24515.595,-22280.445
1764511271.1890154,-4533.615,-39218.895,-30646.215,-9730.71,-9700.425,-37063.26,-24511.275,-22276.755
1764511271.1890154,-4539.15,-39224.565,-30650.715,-9735.39,-9705.96,-37068.57,-24515.01,-22281.39
1764511271.1890154,-4540.365,-39223.215,-30649.365,-9734.895,-9705.465,-37067.85,-24514.02,-22280.58
1764511271.1890154,-4535.775,-39217.455,-30643.74,-9728.73,-9699.48,-37062.0,-24509.565,-22274.73
1764511271.1890154,-4538.295,-39219.345,-30645.675,-9730.98,-9700.92,-37063.935,-24512.085,-22276.08
1764511271.1890154,-4540.995,-39220.92,-30647.205,-9732.195,-9702.315,-37064.97,-24513.255,-22276.89
1764511271.1890154,-4543.2,-39220.605,-30646.935,-9732.51,-9701.865,-37064.745,-24513.165,-22276.845
1764511271.1890154,-4545.045,-39221.595,-30647.43,-9733.59,-9702.315,-37066.095,-24514.155,-22277.34
1764511271.1890154,-4549.455,-39227.22,-30652.875,-9738.72,-9707.895,-37071.63,-24518.61,-22281.255
1764511271.1890154,-4547.79,-39223.305,-30649.905,-9735.03,-9704.16,-37068.48,-24515.685,-22277.79
1764511271.1890154,-4551.345,-39225.195,-30652.245,-9737.775,-9706.77,-37070.73,-24518.655,-22279.365
1764511271.1890154,-4550.175,-39223.215,-30649.59,-9735.705,-9704.295,-37069.155,-24516.855,-22276.44
1764511271.1890154,-4553.01,-39225.645,-30651.39,-9738.27,-9707.58,-37071.99,-24519.645,-22279.185
1764511271.2293792,-4551.03,-39221.235,-30646.08,-9733.995,-9703.395,-37067.715,-24515.235,-22275.135
1764511271.2299323,-4558.905,-39228.48,-30654.225,-9741.825,-9711.045,-37074.87,-24521.355,-22280.94
1764511271.2299323,-4559.67,-39228.12,-30654.72,-9742.05,-9710.595,-37075.32,-24519.915,-22280.445
1764511271.2299323,-4556.115,-39223.305,-30650.4,-9737.28,-9705.735,-37070.775,-24515.46,-22276.305
1764511271.2299323,-4560.12,-39227.85,-30655.17,-9741.555,-9710.505,-37074.645,-24518.7,-22280.265
1764511271.2299323,-4560.165,-39228.975,-30655.215,-9742.05,-9710.865,-37075.05,-24518.565,-22281.795
1764511271.2299323,-4559.49,-39228.255,-30654.18,-9742.095,-9710.28,-37074.825,-24517.305,-22281.615
1764511271.2299323,-4559.76,-39227.49,-30653.415,-9741.015,-9709.695,-37073.7,-24516.405,-22281.48
1764511271.2299323,-4559.625,-39226.32,-30652.29,-9740.205,-9709.02,-37071.9,-24513.075,-22280.85
1764511271.2299323,-4554.945,-39218.985,-30644.595,-9733.14,-9701.235,-37064.43,-24505.92,-22275.405
1764511271.2299323,-4553.19,-39218.13,-30643.47,-9732.105,-9700.29,-37063.305,-24504.705,-22274.82
1764511271.2299323,-4558.005,-39224.7,-30649.86,-9739.17,-9707.445,-37069.875,-24510.51,-22281.165
1764511271.2299323,-4554.675,-39221.415,-30646.485,-9735.66,-9703.935,-37066.14,-24506.37,-22278.78
1764511271.23046,-4558.365,-39224.745,-30649.815,-9738.72,-9707.085,-37068.75,-24508.89,-22282.92
1764511271.23046,-4556.025,-39221.19,-30645.99,-9734.85,-9703.44,-37065.645,-24504.435,-22282.02
1764511271.23046,-4556.34,-39220.065,-30643.965,-9733.68,-9702.045,-37063.08,-24502.095,-22282.425
1764511271.23046,-4558.455,-39222.225,-30645.72,-9736.605,-9704.115,-37064.7,-24502.05,-22285.53
1764511271.23046,-4563.09,-39227.85,-30651.93,-9741.825,-9708.705,-37069.83,-24505.38,-22290.975
1764511271.23046,-4561.785,-39225.105,-30648.42,-9738.99,-9705.555,-37066.5,-24501.015,-22290.3
1764511271.23046,-4564.62,-39228.39,-30650.985,-9741.375,-9707.67,-37069.11,-24502.59,-22293.99
1764511271.23046,-4561.155,-39223.62,-30645.72,-9736.245,-9703.08,-37064.07,-24496.74,-22289.805
1764511271.23046,-4561.56,-39223.8,-30646.845,-9736.74,-9703.89,-37064.655,-24496.335,-22291.155
1764511271.23046,-4565.474999999999,-39229.515,-30652.02,-9742.05,-9709.605,-37069.83,-24499.71,-22296.78
1764511271.23046,-4564.71,-39228.705,-30650.94,-9740.655,-9708.93,-37068.075,-24498.585,-22297.095
1764511271.278953,-4559.985,-39224.385,-30646.53,-9736.29,-9704.34,-37063.44,-24494.22,-22294.215
1764511271.278953,-4563.63,-39228.57,-30651.12,-9740.97,-9709.335,-37067.58,-24497.775,-22298.715
1764511271.278953,-4563.855,-39230.235,-30652.29,-9741.69,-9709.875,-37068.48,-24497.595,-22299.885
1764511271.278953,-4563.63,-39230.235,-30652.515,-9741.735,-9710.37,-37068.345,-24497.37,-22300.605
1764511271.278953,-4563.27,-39229.605,-30652.38,-9741.87,-9710.01,-37067.805,-24496.515,-22300.29
1764511271.278953,-4560.705,-39226.86,-30649.545,-9739.035,-9707.67,-37064.61,-24494.355,-22298.58
1764511271.278953,-4556.205,-39222.0,-30643.965,-9733.455,-9702.45,-37059.21,-24489.45,-22293.99
1764511271.2794929,-4557.465,-39222.855,-30644.73,-9735.12,-9703.8,-37060.65,-24490.305,-22294.98
1764511271.2794929,-4556.745,-39223.035,-30644.46,-9735.075,-9703.755,-37060.695,-24490.62,-22295.205
1764511271.2794929,-4558.95,-39223.53,-30645.18,-9736.11,-9704.43,-37061.865,-24492.51,-22296.465
1764511271.2794929,-4564.71,-39230.415,-30652.155,-9742.68,-9711.63,-37069.47,-24499.395,-22302.855
1764511271.2794929,-4565.429999999999,-39229.425,-30651.345,-9742.77,-9711.72,-37069.83,-24500.25,-22302.765
1764511271.2794929,-4566.105,-39230.415,-30652.335,-9744.165,-9712.395,-37070.505,-24501.915,-22303.035
1764511271.2794929,-4565.565,-39229.605,-30651.255,-9743.85,-9711.54,-37070.19,-24502.905,-22302.945
1764511271.2794929,-4563.855,-39228.03,-30649.68,-9743.22,-9709.83,-37069.515,-24502.32,-22301.82
1764511271.2794929,-4561.74,-39225.87,-30647.34,-9740.97,-9707.76,-37068.21,-24502.005,-22299.795
1764511271.2794929,-4560.12,-39221.235,-30643.47,-9737.19,-9704.115,-37063.575,-24498.72,-22295.745
1764511271.2794929,-4565.655,-39226.77,-30648.78,-9742.77,-9709.605,-37069.155,-24504.165,-22300.785
1764511271.2794929,-4565.655,-39225.42,-30648.24,-9742.59,-9708.705,-37069.38,-24505.155,-22301.28
1764511271.2794929,-4565.474999999999,-39221.73,-30643.695,-9739.755,-9706.5,-37065.6,-24504.93,-22300.155
1764511271.2794929,-4564.62,-39218.805,-30641.175,-9736.74,-9703.44,-37062.72,-24502.905,-22297.59
1764511271.2794929,-4568.445,-39225.42,-30647.61,-9741.735,-9708.255,-37069.38,-24506.73,-22300.74
1764511271.2794929,-4566.735,-39220.515,-30642.975,-9738.495,-9704.07,-37065.195,-24503.76,-22296.42
1764511271.2794929,-4566.78,-39218.895,-30641.94,-9737.82,-9703.53,-37065.42,-24502.905,-22295.25
1764511271.323682,-4566.915,-39222.135,-30644.64,-9739.89,-9705.735,-37068.57,-24504.75,-22296.06
1764511271.323682,-4568.445,-39223.17,-30645.405,-9740.61,-9706.68,-37069.695,-24506.145,-22297.05
1764511271.323682,-4569.3,-39223.845,-30645.63,-9740.97,-9706.59,-37069.515,-24505.785,-22297.815
1764511271.323682,-4573.035,-39226.905,-30647.835,-9744.12,-9709.38,-37072.665,-24508.665,-22300.47
1764511271.323682,-4576.905,-39230.55,-30651.435,-9748.44,-9713.34,-37077.57,-24512.58,-22303.215
1764511271.323682,-4574.52,-39226.365,-30646.845,-9744.84,-9709.11,-37073.52,-24510.285,-22299.795
1764511271.323682,-4578.525,-39228.705,-30649.365,-9747.045,-9711.09,-37076.04,-24512.58,-22301.73
1764511271.323682,-4580.145,-39227.445,-30647.835,-9745.47,-9709.605,-37074.375,-24511.095,-22300.29
1764511271.323682,-4577.49,-39221.73,-30642.165,-9739.89,-9704.205,-37068.48,-24505.56,-22295.43
1764511271.323682,-4578.795,-39221.46,-30641.445,-9740.115,-9704.34,-37069.2,-24505.29,-22294.89
1764511271.323682,-4580.37,-39222.72,-30642.885,-9741.15,-9705.555,-37071.045,-24505.965,-22295.745
1764511271.323682,-4581.135,-39221.82,-30641.805,-9740.745,-9705.195,-37070.28,-24506.01,-22295.745
1764511271.323682,-4582.53,-39222.99,-30642.84,-9741.87,-9706.14,-37071.18,-24505.965,-22296.375
1764511271.323682,-4591.44,-39232.665,-30652.605,-9750.465,-9714.78,-37080.495,-24513.255,-22303.305
1764511271.323682,-4593.87,-39234.105,-30654.495,-9751.725,-9716.265,-37081.44,-24514.425,-22303.98
1764511271.323682,-4593.735,-39234.465,-30654.765,-9751.905,-9716.445,-37081.665,-24513.39,-22303.44
1764511271.323682,-4590.224999999999,-39231.09,-30649.815,-9748.395,-9712.755,-37078.065,-24509.115,-22298.94
1764511271.3252442,-4592.115,-39233.115,-30651.705,-9750.33,-9715.455,-37080.09,-24510.195,-22299.975
1764511271.3252442,-4595.895,-39237.075,-30656.295,-9755.055,-9720.315,-37084.635,-24512.625,-22302.945
1764511271.3252442,-4600.755,-39241.98,-30661.065,-9758.97,-9724.59,-37089.405,-24516.765,-22306.545
1764511271.3252442,-4601.16,-39242.655,-30660.03,-9759.465,-9724.32,-37089.9,-24515.865,-22307.445
1764511271.3252442,-4601.295,-39239.955,-30657.6,-9757.71,-9722.295,-37087.605,-24513.66,-22306.41
1764511271.3722005,-4597.02,-39233.52,-30650.94,-9751.545,-9715.815,-37081.17,-24507.045,-22300.245
1764511271.3722005,-4599.945,-39235.545,-30652.83,-9753.84,-9718.065,-37083.33,-24509.565,-22301.91
1764511271.3731966,-4606.605,-39241.395,-30658.455,-9759.42,-9723.555,-37089.0,-24514.155,-22307.715
1764511271.3731966,-4606.74,-39239.64,-30656.205,-9756.945,-9722.07,-37086.795,-24511.545,-22307.31
1764511271.3731966,-4611.69,-39244.365,-30661.47,-9761.985,-9727.335,-37092.78,-24516.18,-22312.845
1764511271.3741949,-4611.51,-39242.88,-30660.255,-9761.49,-9726.165,-37092.15,-24514.92,-22311.99
1764511271.3741949,-4616.235,-39247.11,-30664.035,-9765.99,-9730.53,-37096.425,-24517.845,-22315.77
1764511271.3741949,-4614.795,-39243.78,-30661.47,-9763.02,-9727.83,-37093.23,-24515.82,-22313.88
1764511271.3741949,-4616.099999999999,-39242.88,-30660.3,-9762.165,-9726.795,-37092.555,-24515.055,-22314.33
1764511271.3741949,-4616.955,-39241.215,-30658.995,-9761.445,-9725.76,-37091.25,-24514.245,-22315.14
1764511271.3741949,-4617.045,-39241.125,-30658.5,-9761.625,-9725.58,-37091.925,-24513.84,-22316.265
1764511271.3741949,-4622.22,-39245.04,-30662.505,-9765.36,-9730.08,-37095.345,-24517.215,-22320.495
1764511271.3741949,-4628.655,-39251.295,-30668.985,-9771.615,-9736.38,-37101.645,-24522.93,-22326.615
1764511271.3741949,-4630.59,-39251.565,-30670.02,-9772.515,-9736.38,-37102.185,-24524.505,-22328.28
1764511271.3741949,-4628.52,-39249.315,-30667.815,-9770.58,-9733.86,-37100.655,-24522.3,-22329.045
1764511271.3741949,-4623.929999999999,-39242.745,-30661.605,-9764.235,-9727.605,-37094.04,-24516.63,-22325.13
1764511271.3741949,-4626.27,-39245.49,-30663.945,-9766.44,-9729.99,-37096.245,-24518.655,-22329.09
1764511271.3741949,-4623.525,-39240.405,-30657.87,-9761.49,-9724.5,-37090.53,-24513.84,-22326.075
1764511271.3741949,-4623.885,-39240.855,-30658.59,-9762.165,-9725.13,-37091.745,-24514.02,-22327.515
1764511271.3741949,-4628.07,-39246.39,-30663.855,-9766.845,-9729.63,-37096.02,-24517.395,-22331.205
1764511271.3741949,-4625.415,-39244.23,-30661.695,-9763.965,-9727.335,-37093.185,-24514.245,-22329.045
1764511271.3741949,-4629.599999999999,-39248.235,-30665.07,-9767.88,-9731.205,-37097.19,-24517.35,-22334.895
1764511271.3741949,-4630.005,-39246.84,-30664.665,-9767.205,-9731.07,-37096.245,-24516.63,-22335.57
1764511271.3741949,-4629.87,-39246.3,-30664.17,-9766.845,-9730.62,-37095.03,-24516.09,-22335.48
1764511271.4186833,-4626.09,-39241.935,-30659.895,-9762.615,-9725.805,-37091.34,-24511.05,-22331.43
1764511271.4186833,-4627.304999999999,-39242.07,-30659.76,-9762.48,-9726.57,-37091.295,-24511.005,-22332.555
1764511271.4186833,-4629.825,-39244.995,-30662.775,-9765.945,-9729.27,-37094.04,-24512.49,-22336.065
1764511271.4186833,-4635.72,-39250.98,-30667.995,-9771.93,-9734.94,-37099.665,-24517.62,-22341.15
1764511271.4186833,-4635.945,-39250.71,-30668.445,-9771.93,-9735.255,-37099.62,-24517.755,-22341.645
1764511271.4202194,-4631.895,-39243.78,-30661.56,-9766.215,-9728.955,-37091.43,-24513.12,-22335.165
1764511271.4202194,-4632.84,-39245.445,-30663.09,-9767.655,-9730.89,-37094.175,-24512.715,-22334.13
1764511271.4202194,-4639.139999999999,-39252.06,-30669.3,-9775.125,-9737.64,-37101.33,-24519.555,-22339.305
1764511271.4202194,-4636.035,-39249.855,-30666.825,-9771.93,-9734.355,-37098.495,-24516.585,-22336.29
1764511271.4212365,-4639.545,-39252.825,-30669.345,-9774.0,-9737.145,-37101.42,-24518.52,-22337.64
1764511271.4212365,-4635.945,-39246.705,-30663.72,-9768.15,-9731.745,-37095.705,-24513.885,-22331.205
1764511271.4212365,-4635.495,-39246.795,-30663.09,-9767.475,-9730.98,-37095.48,-24512.58,-22329.405
1764511271.4212365,-4638.87,-39252.015,-30667.32,-9772.605,-9736.2,-37100.52,-24516.765,-22332.645
1764511271.4222617,-4640.94,-39254.895,-30670.605,-9775.71,-9738.54,-37103.085,-24519.015,-22332.645
1764511271.4222617,-4641.075,-39255.93,-30671.28,-9776.565,-9739.62,-37104.255,-24519.555,-22329.81
1764511271.4222617,-4639.77,-39253.815,-30668.4,-9774.63,-9737.82,-37103.4,-24518.61,-22326.12
1764511271.4222617,-4635.135,-39249.315,-30662.775,-9769.635,-9732.96,-37098.99,-24513.705,-22320.54
1764511271.4222617,-4636.845,-39250.17,-30663.27,-9770.175,-9733.59,-37099.44,-24514.155,-22320.09
1764511271.4222617,-4636.035,-39249.54,-30662.235,-9769.41,-9732.78,-37098.495,-24513.66,-22317.885
1764511271.4222617,-4636.665,-39250.305,-30663.54,-9770.715,-9733.635,-37099.665,-24514.29,-22317.075
1764511271.4222617,-4642.335,-39255.525,-30669.165,-9776.88,-9739.08,-37104.795,-24518.925,-22320.225
1764511271.4238024,-4644.405,-39257.19,-30670.515,-9778.86,-9741.51,-37107.36,-24520.68,-22321.305
1764511271.464435,-4644.63,-39257.28,-30670.065,-9778.995,-9741.555,-37107.495,-24519.6,-22319.505
1764511271.464435,-4644.405,-39253.77,-30666.825,-9775.485,-9737.64,-37104.21,-24516.54,-22315.815
1764511271.464435,-4644.9,-39252.69,-30665.97,-9774.405,-9736.605,-37103.355,-24516.09,-22315.23
1764511271.464435,-4646.205,-39254.04,-30667.095,-9776.07,-9739.395,-37104.615,-24516.72,-22315.41
1764511271.465447,-4642.514999999999,-39248.325,-30661.245,-9770.94,-9733.59,-37099.08,-24511.815,-22309.695
1764511271.465447,-4644.27,-39250.035,-30662.595,-9772.47,-9734.805,-37100.745,-24513.48,-22310.865
1764511271.465447,-4650.48,-39253.68,-30667.185,-9776.52,-9739.125,-37105.29,-24516.855,-22315.455
1764511271.465447,-4651.514999999999,-39252.96,-30666.87,-9776.07,-9738.99,-37104.705,-24516.765,-22317.12
1764511271.465447,-4651.965,-39252.015,-30665.79,-9775.125,-9737.955,-37104.255,-24515.73,-22317.345
1764511271.465447,-4651.514999999999,-39249.225,-30662.73,-9772.38,-9734.67,-37101.6,-24512.22,-22314.555
1764511271.465447,-4656.69,-39253.41,-30666.42,-9776.655,-9738.27,-37105.56,-24514.605,-22319.235
1764511271.465447,-4658.804999999999,-39253.59,-30667.14,-9777.645,-9738.72,-37106.64,-24515.955,-22321.89
1764511271.465447,-4659.84,-39249.9,-30663.765,-9773.82,-9735.12,-37102.185,-24513.705,-22320.99
1764511271.465447,-4656.915,-39244.23,-30657.645,-9767.79,-9729.135,-37096.245,-24509.07,-22317.48
1764511271.465447,-4657.005,-39243.6,-30656.43,-9767.7,-9728.685,-37095.525,-24507.09,-22317.525
1764511271.465447,-4661.955,-39247.47,-30659.895,-9772.065,-9733.68,-37100.025,-24510.375,-22322.43
1764511271.465447,-4667.804999999999,-39252.465,-30664.935,-9777.51,-9738.495,-37105.605,-24515.1,-22328.82
1764511271.465447,-4664.115,-39248.01,-30659.895,-9773.415,-9733.815,-37101.105,-24512.085,-22326.975
1764511271.465447,-4664.115,-39248.28,-30660.975,-9774.135,-9734.22,-37102.5,-24512.715,-22328.145
1764511271.465447,-4669.245,-39254.895,-30667.41,-9781.02,-9740.79,-37108.395,-24518.79,-22334.67
1764511271.465447,-4668.48,-39253.86,-30666.195,-9781.065,-9740.205,-37107.945,-24518.88,-22334.4
1764511271.465447,-4661.775,-39246.705,-30659.355,-9774.045,-9733.095,-37101.465,-24513.84,-22329.72
1764511271.465447,-4660.47,-39245.265,-30657.96,-9771.975,-9731.52,-37100.16,-24513.93,-22329.945
1764511271.4665694,-4658.895,-39244.77,-30657.465,-9772.605,-9730.845,-37099.665,-24514.785,-22329.99
1764511271.5102134,-4657.679999999999,-39243.555,-30656.43,-9772.245,-9729.54,-37099.305,-24515.19,-22328.595
1764511271.5102134,-4660.065,-39246.12,-30659.04,-9775.17,-9732.78,-37101.825,-24518.25,-22330.44
1764511271.5102134,-4662.27,-39250.665,-30663.63,-9780.03,-9737.325,-37106.73,-24522.255,-22334.895
1764511271.5102134,-4659.705,-39247.425,-30660.525,-9776.655,-9734.175,-37103.535,-24519.96,-22332.465
1764511271.5102134,-4663.665,-39253.095,-30665.295,-9781.965,-9739.71,-37109.43,-24525.54,-22336.56
1764511271.5102134,-4662.54,-39252.825,-30665.16,-9782.01,-9740.115,-37110.195,-24526.26,-22336.47
1764511271.5102134,-4657.86,-39247.47,-30660.345,-9775.755,-9735.03,-37104.84,-24521.805,-22330.485
1764511271.5102134,-4657.59,-39247.695,-30660.75,-9777.33,-9735.39,-37105.29,-24522.255,-22330.17
1764511271.5102134,-4659.929999999999,-39251.925,-30664.845,-9782.28,-9740.475,-37110.105,-24525.495,-22333.275
1764511271.5102134,-4656.014999999999,-39245.76,-30658.77,-9776.07,-9735.12,-37103.895,-24521.49,-22329.945
1764511271.5102134,-4655.7,-39242.61,-30655.53,-9773.64,-9731.88,-37100.61,-24517.755,-22328.1
1764511271.5102134,-4662.224999999999,-39250.26,-30663.54,-9781.335,-9739.26,-37108.35,-24523.245,-22334.895
1764511271.5102134,-4660.155,-39248.865,-30662.595,-9779.22,-9736.38,-37108.17,-24520.635,-22331.61
1764511271.5102134,-4663.125,-39251.88,-30665.115,-9782.28,-9739.35,-37111.545,-24523.02,-22333.905
1764511271.5127764,-4661.46,-39248.505,-30661.695,-9779.445,-9737.055,-37107.765,-24519.87,-22330.305
1764511271.5127764,-4666.185,-39253.185,-30666.915,-9784.8,-9741.96,-37112.04,-24523.065,-22334.535
1764511271.5127764,-4668.57,-39253.995,-30667.41,-9784.89,-9742.005,-37112.94,-24522.48,-22335.255
1764511271.5137465,-4669.875,-39255.705,-30668.085,-9785.52,-9742.995,-37114.47,-24522.57,-22334.895
1764511271.5137465,-4672.08,-39256.425,-30668.22,-9786.555,-9743.67,-37115.1,-24522.615,-22335.255
1764511271.5137465,-4671.224999999999,-39253.815,-30665.52,-9783.405,-9740.745,-37111.905,-24519.24,-22333.23
1764511271.5137465,-4667.04,-39246.345,-30657.735,-9775.755,-9732.645,-37103.31,-24512.355,-22326.66
1764511271.5137465,-4671.27,-39248.91,-30660.12,-9778.275,-9734.49,-37105.335,-24514.065,-22327.74
1764511271.5137465,-4673.61,-39250.485,-30661.2,-9779.67,-9736.245,-37106.73,-24514.56,-22328.82
1764511271.5137465,-4674.735,-39250.935,-30661.83,-9780.525,-9736.92,-37106.82,-24514.47,-22328.865
1764511271.560082,-4676.94,-39252.015,-30663.405,-9781.83,-9737.91,-37107.99,-24514.74,-22330.17
1764511271.560082,-4681.395,-39254.13,-30666.33,-9784.305,-9740.295,-37110.87,-24516.81,-22333.545
1764511271.560082,-4678.245,-39249.9,-30661.83,-9780.03,-9735.525,-37105.65,-24512.22,-22330.08
1764511271.560082,-4681.349999999999,-39251.97,-30663.63,-9781.965,-9737.64,-37107.9,-24513.84,-22332.105
1764511271.560082,-4678.785,-39247.92,-30660.03,-9778.23,-9733.41,-37104.255,-24510.24,-22329.09
1764511271.560082,-4680.72,-39249.81,-30661.47,-9779.94,-9735.48,-37105.74,-24512.13,-22330.665
1764511271.560082,-4677.48,-39244.59,-30656.52,-9775.8,-9730.935,-37100.88,-24507.81,-22327.335
1764511271.560082,-4683.06,-39251.655,-30663.315,-9783.09,-9738.405,-37108.395,-24513.93,-22334.895
1764511271.560082,-4684.185,-39253.455,-30664.35,-9785.025,-9740.205,-37110.105,-24514.56,-22335.93
1764511271.5605905,-4682.34,-39252.015,-30662.64,-9783.72,-9738.765,-37109.295,-24513.975,-22335.165
1764511271.5605905,-4679.46,-39248.325,-30659.13,-9779.625,-9734.94,-37105.425,-24510.69,-22332.33
1764511271.5605905,-4682.61,-39251.34,-30662.145,-9782.145,-9738.405,-37108.215,-24514.065,-22335.615
1764511271.5605905,-4679.639999999999,-39248.505,-30659.22,-9779.58,-9735.885,-37105.515,-24512.13,-22333.41
1764511271.5605905,-4681.485,-39251.43,-30661.11,-9782.64,-9737.865,-37108.08,-24514.965,-22335.84
1764511271.5605905,-4677.3,-39246.435,-30655.98,-9777.735,-9732.555,-37104.12,-24510.15,-22331.925
1764511271.5605905,-4675.23,-39244.77,-30653.865,-9775.215,-9730.26,-37102.365,-24508.44,-22330.035
1764511271.5605905,-4674.825,-39243.78,-30653.505,-9774.315,-9729.315,-37101.285,-24507.63,-22329.405
1764511271.5605905,-4681.035,-39251.205,-30661.065,-9782.1,-9738.045,-37109.115,-24514.38,-22336.065
1764511271.5605905,-4680.179999999999,-39251.655,-30661.56,-9782.415,-9738.54,-37109.745,-24514.74,-22336.155
1764511271.5605905,-4678.065,-39249.18,-30659.67,-9780.75,-9736.065,-37108.215,-24513.165,-22334.67
1764511271.5605905,-4675.59,-39246.525,-30657.015,-9777.51,-9732.78,-37105.47,-24511.05,-22331.79
1764511271.5605905,-4669.605,-39240.63,-30651.255,-9772.065,-9726.795,-37099.89,-24506.91,-22326.03
1764511271.5605905,-4668.165,-39240.045,-30650.265,-9772.56,-9726.39,-37099.305,-24505.425,-22324.14
1764511271.5605905,-4667.13,-39239.1,-30648.96,-9771.84,-9724.32,-37097.145,-24505.065,-22322.34
1764511271.6049516,-4665.735,-39238.425,-30648.555,-9771.03,-9724.41,-37096.335,-24505.29,-22321.935
1764511271.6049516,-4663.665,-39235.59,-30645.225,-9769.14,-9721.665,-37093.545,-24503.355,-22319.505
1764511271.6049516,-4663.395,-39233.565,-30643.965,-9768.195,-9720.09,-37091.97,-24502.32,-22318.155
1764511271.6049516,-4669.47,-39239.775,-30650.31,-9774.36,-9726.525,-37098.315,-24506.91,-22323.555
1764511271.6049516,-4668.3,-39240.765,-30651.48,-9775.215,-9726.57,-37098.495,-24507.18,-22323.24
1764511271.6049516,-4665.33,-39237.66,-30648.69,-9771.705,-9722.97,-37095.84,-24504.975,-22319.64
1764511271.6049516,-4660.155,-39231.495,-30643.335,-9766.935,-9718.605,-37091.16,-24499.935,-22313.25
1764511271.6049516,-4659.66,-39230.865,-30642.795,-9766.26,-9718.155,-37090.44,-24498.99,-22312.125
1764511271.6049516,-4661.28,-39232.755,-30644.505,-9768.24,-9720.0,-37092.015,-24500.07,-22313.115
1764511271.6049516,-4665.15,-39238.335,-30649.455,-9773.145,-9725.625,-37097.73,-24505.29,-22317.435
1764511271.6049516,-4665.014999999999,-39238.695,-30650.04,-9773.955,-9726.435,-37099.125,-24506.19,-22316.67
1764511271.6049516,-4662.855,-39236.805,-30648.15,-9772.47,-9725.13,-37097.1,-24504.39,-22313.295
1764511271.6049516,-4657.724999999999,-39230.955,-30642.345,-9766.305,-9718.695,-37090.44,-24499.44,-22305.645
1764511271.6049516,-4662.27,-39235.005,-30645.36,-9770.445,-9723.105,-37093.32,-24503.805,-22308.84
1764511271.6049516,-4662.045,-39236.715,-30646.845,-9772.11,-9724.59,-37095.165,-24503.94,-22307.355
1764511271.6049516,-4657.23,-39232.485,-30641.895,-9766.89,-9719.685,-37090.98,-24499.215,-22302.045
1764511271.6049516,-4660.695,-39236.94,-30646.44,-9771.705,-9723.645,-37095.255,-24502.5,-22304.34
1764511271.6049516,-4660.875,-39238.74,-30647.79,-9773.145,-9725.31,-37096.875,-24503.895,-22304.115
1764511271.6049516,-4657.5,-39235.77,-30645.0,-9769.86,-9722.79,-37094.58,-24501.195,-22300.02
1764511271.6049516,-4661.19,-39240.495,-30649.59,-9774.36,-9728.145,-37099.305,-24504.255,-22303.215
1764511271.6049516,-4658.94,-39237.345,-30645.81,-9771.705,-9724.23,-37096.335,-24501.87,-22300.785
1764511271.6049516,-4662.179999999999,-39239.64,-30647.88,-9773.685,-9726.795,-37098.72,-24502.815,-22302.945
1764511271.6538386,-4659.345,-39233.565,-30641.805,-9767.745,-9720.855,-37092.87,-24497.865,-22297.23
1764511271.6538386,-4663.98,-39238.02,-30646.845,-9772.425,-9726.255,-37097.55,-24503.67,-22300.515
1764511271.6538386,-4661.639999999999,-39234.555,-30643.605,-9769.14,-9722.52,-37094.445,-24500.34,-22298.355
1764511271.6538386,-4665.554999999999,-39238.695,-30647.025,-9772.875,-9725.895,-37098.315,-24504.12,-22303.53
1764511271.6538386,-4665.645,-39238.47,-30646.17,-9773.055,-9725.625,-37097.64,-24503.76,-22303.845
1764511271.6538386,-4661.37,-39234.33,-30641.895,-9768.735,-9721.485,-37093.995,-24500.295,-22300.74
1764511271.6538386,-4663.665,-39237.795,-30645.405,-9772.245,-9725.58,-37097.325,-24504.12,-22304.97
1764511271.6538386,-4658.94,-39233.205,-30641.04,-9768.33,-9721.08,-37093.185,-24500.205,-22302.27
1764511271.6538386,-4657.005,-39233.07,-30640.77,-9767.655,-9720.27,-37093.23,-24499.665,-22301.91
1764511271.6538386,-4654.889999999999,-39231.0,-30639.015,-9766.395,-9718.56,-37091.79,-24499.08,-22302.9
1764511271.6538386,-4654.395,-39230.01,-30637.89,-9765.405,-9717.885,-37090.935,-24498.765,-22303.53
1764511271.6538386,-4656.87,-39234.78,-30641.58,-9769.41,-9721.665,-37094.445,-24501.87,-22307.85
1764511271.6538386,-4657.005,-39236.625,-30643.695,-9770.49,-9723.015,-37095.84,-24503.85,-22310.19
1764511271.6538386,-4656.645,-39238.155,-30645.45,-9772.2,-9725.265,-37097.1,-24506.55,-22312.71
1764511271.6538386,-4656.285,-39237.525,-30645.495,-9772.47,-9725.535,-37097.685,-24506.01,-22314.42
1764511271.6538386,-4654.8,-39234.6,-30643.155,-9769.815,-9723.06,-37095.57,-24503.94,-22314.645
1764511271.6538386,-4653.36,-39234.105,-30642.885,-9769.68,-9722.565,-37094.94,-24504.975,-22315.365
1764511271.6538386,-4655.97,-39238.29,-30647.655,-9775.08,-9727.83,-37099.665,-24509.52,-22320.585
1764511271.6538386,-4655.835,-39239.1,-30648.51,-9775.98,-9729.27,-37101.06,-24510.465,-22323.24
1764511271.6538386,-4652.775,-39235.95,-30645.18,-9773.145,-9726.3,-37098.135,-24507.765,-22321.98
1764511271.6538386,-4645.304999999999,-39227.535,-30637.08,-9765.585,-9717.975,-37089.765,-24499.935,-22315.455
1764511271.6538386,-4646.025,-39229.245,-30638.655,-9767.43,-9719.82,-37091.43,-24501.645,-22317.84
1764511271.6538386,-4649.58,-39232.98,-30642.615,-9771.435,-9723.555,-37095.66,-24504.93,-22321.71
1764511271.6538386,-4645.889999999999,-39228.525,-30638.295,-9766.845,-9718.605,-37091.565,-24500.745,-22318.56
1764511271.696478,-4644.27,-39228.48,-30638.34,-9767.385,-9719.73,-37091.79,-24499.035,-22319.37
1764511271.6974986,-4643.955,-39228.57,-30638.88,-9767.565,-9720.18,-37091.88,-24498.495,-22321.17
1764511271.6974986,-4644.179999999999,-39230.235,-30640.005,-9767.97,-9721.35,-37093.23,-24498.27,-22322.295
1764511271.6974986,-4644.27,-39232.395,-30641.895,-9769.68,-9723.645,-37095.165,-24499.62,-22323.195
1764511271.6974986,-4648.41,-39238.29,-30648.15,-9775.35,-9729.225,-37101.105,-24505.245,-22327.92
1764511271.6974986,-4644.99,-39233.97,-30644.01,-9771.975,-9724.455,-37096.605,-24502.815,-22324.14
1764511271.6974986,-4637.7,-39226.365,-30636.135,-9764.505,-9717.615,-37089.18,-24495.21,-22316.355
1764511271.6974986,-4638.825,-39228.3,-30638.925,-9767.115,-9720.0,-37091.295,-24496.38,-22316.49
1764511271.6974986,-4642.425,-39233.115,-30643.695,-9771.75,-9724.275,-37095.615,-24499.935,-22319.235
1764511271.6974986,-4639.32,-39229.695,-30640.275,-9768.015,-9720.99,-37092.33,-24497.46,-22316.58
1764511271.6974986,-4641.57,-39233.745,-30644.775,-9772.47,-9725.13,-37096.74,-24500.52,-22319.955
1764511271.6984966,-4638.78,-39229.785,-30640.365,-9769.5,-9721.98,-37093.095,-24498.765,-22317.03
1764511271.6984966,-4640.58,-39234.825,-30644.46,-9773.82,-9726.12,-37097.865,-24501.915,-22319.415
1764511271.6984966,-4637.79,-39231.765,-30641.94,-9771.255,-9722.88,-37095.75,-24498.855,-22316.535
1764511271.6984966,-4640.849999999999,-39235.68,-30646.17,-9774.72,-9726.255,-37099.8,-24502.005,-22319.865
1764511271.6984966,-4640.13,-39235.905,-30646.305,-9774.945,-9726.39,-37100.115,-24502.635,-22318.965
1764511271.6994908,-4636.62,-39230.73,-30640.995,-9769.86,-9721.17,-37094.94,-24498.81,-22313.97
1764511271.6994908,-4642.785,-39235.59,-30645.54,-9774.675,-9726.3,-37098.99,-24505.38,-22318.695
1764511271.6994908,-4640.4,-39233.61,-30643.155,-9772.605,-9723.42,-37097.595,-24503.175,-22316.22
1764511271.6994908,-4642.83,-39234.69,-30644.595,-9774.045,-9724.815,-37097.865,-24505.2,-22318.155
1764511271.7,-4641.795,-39234.24,-30645.36,-9773.46,-9724.365,-37098.315,-24505.065,-22316.94
1764511271.7,-4644.45,-39237.525,-30647.88,-9776.79,-9727.605,-37101.555,-24508.8,-22320.09
1764511271.7484474,-4640.49,-39231.585,-30642.525,-9771.57,-9722.43,-37096.92,-24504.795,-22316.085
1764511271.7484474,-4640.535,-39231.135,-30642.57,-9772.38,-9722.745,-37097.145,-24506.01,-22316.58
1764511271.7484474,-4643.639999999999,-39236.04,-30647.52,-9776.97,-9727.695,-37102.32,-24510.78,-22320.45
1764511271.7484474,-4640.264999999999,-39231.315,-30642.345,-9772.02,-9723.195,-37097.505,-24507.045,-22315.68
1764511271.7484474,-4637.88,-39228.57,-30639.69,-9769.995,-9720.405,-37094.94,-24504.615,-22312.845
1764511271.7484474,-4638.825,-39230.64,-30642.3,-9772.29,-9722.655,-37097.37,-24507.315,-22314.645
1764511271.7484474,-4642.514999999999,-39235.455,-30647.52,-9776.43,-9727.245,-37102.095,-24511.365,-22318.425
1764511271.7484474,-4641.885,-39235.59,-30647.88,-9777.42,-9727.11,-37101.78,-24512.22,-22318.83
1764511271.7484474,-4639.23,-39233.97,-30646.53,-9776.295,-9725.58,-37099.62,-24511.725,-22316.895
1764511271.7484474,-4634.37,-39227.265,-30639.735,-9769.815,-9718.965,-37093.365,-24508.035,-22311.405
1764511271.7484474,-4636.44,-39231.675,-30643.785,-9774.855,-9724.005,-37098.855,-24513.075,-22315.005
1764511271.7484474,-4635.81,-39232.89,-30644.955,-9776.115,-9725.04,-37100.34,-24515.19,-22315.275
1764511271.7484474,-4634.955,-39232.305,-30644.28,-9775.395,-9724.77,-37099.89,-24515.055,-22314.96
1764511271.7484474,-4632.03,-39228.3,-30640.005,-9771.75,-9720.99,-37096.02,-24512.445,-22312.755
1764511271.7484474,-4626.224999999999,-39223.53,-30634.74,-9767.34,-9715.59,-37090.755,-24508.935,-22306.5
1764511271.7484474,-4629.24,-39228.615,-30640.05,-9772.245,-9720.765,-37095.975,-24514.605,-22309.92
1764511271.7484474,-4624.245,-39224.34,-30636.09,-9767.745,-9717.165,-37092.15,-24510.69,-22305.105
1764511271.7484474,-4624.245,-39226.41,-30638.025,-9770.175,-9719.55,-37094.49,-24511.635,-22304.565
1764511271.7484474,-4628.205,-39231.9,-30643.605,-9775.845,-9725.355,-37100.97,-24516.54,-22308.255
1764511271.7484474,-4626.945,-39231.315,-30643.065,-9775.62,-9724.995,-37100.205,-24517.665,-22307.13
1764511271.7484474,-4624.245,-39229.83,-30641.58,-9775.26,-9723.285,-37098.54,-24517.08,-22304.475
1764511271.7484474,-4619.025,-39226.23,-30637.98,-9771.165,-9719.64,-37095.075,-24514.92,-22299.93
1764511271.7484474,-4620.105,-39229.83,-30641.31,-9774.27,-9722.97,-37098.585,-24517.665,-22302.225
1764511271.7484474,-4614.615,-39226.995,-30638.43,-9771.165,-9720.45,-37096.47,-24515.325,-22298.22
1764511271.7892363,-4611.645,-39224.79,-30636.36,-9769.365,-9719.28,-37094.58,-24513.615,-22296.195
1764511271.7892363,-4614.389999999999,-39228.57,-30640.095,-9772.785,-9722.655,-37097.415,-24516.27,-22297.545
1764511271.7892363,-4618.62,-39234.015,-30645.09,-9778.005,-9728.28,-37102.545,-24519.6,-22301.19
1764511271.7892363,-4618.125,-39233.745,-30645.405,-9777.96,-9727.875,-37103.04,-24520.77,-22300.74
1764511271.7892363,-4612.679999999999,-39228.21,-30640.23,-9773.28,-9722.295,-37097.955,-24516.585,-22294.665
1764511271.7892363,-4611.87,-39227.13,-30639.105,-9772.65,-9721.395,-37097.325,-24516.45,-22292.64
1764511271.7892363,-4615.514999999999,-39231.405,-30642.975,-9777.24,-9725.94,-37101.645,-24520.005,-22296.915
1764511271.790269,-4611.24,-39227.67,-30638.655,-9773.595,-9721.53,-37097.82,-24517.62,-22292.28
1764511271.790269,-4612.77,-39231.585,-30643.155,-9777.915,-9725.22,-37101.78,-24520.365,-22294.17
1764511271.790269,-4608.855,-39229.74,-30641.265,-9775.215,-9723.51,-37099.62,-24517.215,-22290.93
1764511271.790269,-4608.495,-39229.065,-30640.365,-9773.955,-9723.42,-37098.585,-24516.765,-22290.165
1764511271.790269,-4612.23,-39231.855,-30643.74,-9777.6,-9726.48,-37101.69,-24519.285,-22293.315
1764511271.790269,-4617.315,-39236.805,-30648.195,-9782.955,-9730.89,-37106.73,-24523.83,-22297.725
1764511271.7907825,-4616.91,-39235.32,-30646.17,-9781.695,-9729.27,-37105.695,-24522.84,-22297.365
1764511271.7907825,-4616.325,-39234.015,-30645.225,-9780.48,-9728.415,-37104.57,-24521.265,-22296.96
1764511271.7907825,-4615.965,-39231.315,-30642.705,-9778.365,-9725.85,-37101.24,-24519.645,-22296.555
1764511271.7907825,-4613.94,-39227.04,-30639.645,-9774.9,-9722.655,-37097.595,-24515.73,-22293.855
1764511271.7907825,-4619.07,-39232.845,-30645.675,-9781.425,-9728.775,-37104.75,-24519.555,-22298.715
1764511271.7907825,-4620.105,-39234.285,-30645.27,-9782.19,-9729.765,-37104.93,-24518.52,-22299.885
1764511271.7907825,-4618.17,-39230.775,-30642.03,-9778.905,-9726.255,-37100.79,-24515.415,-22298.13
1764511271.7907825,-4615.695,-39227.22,-30638.655,-9774.99,-9722.745,-37096.785,-24510.87,-22294.845
1764511271.7907825,-4619.88,-39232.305,-30643.65,-9779.715,-9728.145,-37102.365,-24514.56,-22299.39
1764511271.7907825,-4624.38,-39238.11,-30649.545,-9785.115,-9733.005,-37107.81,-24517.89,-22305.465
1764511271.7907825,-4622.849999999999,-39233.88,-30644.64,-9780.705,-9727.83,-37103.355,-24512.535,-22303.44
1764511271.8382132,-4626.72,-39236.76,-30647.115,-9783.405,-9730.44,-37105.65,-24513.57,-22306.635
1764511271.8382132,-4624.335,-39233.295,-30642.93,-9779.895,-9726.84,-37102.095,-24508.215,-22303.98
1764511271.8382132,-4626.72,-39235.545,-30645.675,-9782.37,-9729.675,-37104.75,-24509.52,-22307.805
1764511271.8382132,-4623.389999999999,-39229.47,-30640.545,-9776.295,-9723.915,-37099.08,-24504.66,-22303.935
1764511271.8382132,-4626.764999999999,-39233.385,-30643.425,-9779.67,-9727.56,-37103.31,-24507.225,-22307.58
1764511271.8382132,-4625.37,-39230.73,-30640.275,-9776.88,-9724.995,-37100.295,-24505.425,-22306.635
1764511271.8382132,-4620.285,-39223.755,-30633.255,-9769.995,-9717.57,-37092.825,-24499.665,-22302.495
1764511271.8382132,-4626.63,-39230.865,-30640.77,-9777.6,-9724.32,-37100.52,-24504.795,-22309.245
1764511271.8382132,-4628.7,-39233.115,-30642.795,-9779.715,-9726.57,-37102.68,-24506.19,-22309.875
1764511271.8382132,-4629.42,-39234.555,-30645.45,-9781.83,-9728.955,-37104.345,-24507.135,-22311.405
1764511271.8382132,-4629.915,-39235.68,-30646.575,-9782.82,-9730.125,-37105.29,-24506.685,-22312.935
1764511271.8382132,-4628.925,-39233.88,-30644.595,-9781.605,-9728.64,-37102.725,-24505.425,-22312.71
1764511271.8392117,-4626.81,-39231.495,-30642.3,-9779.76,-9726.705,-37100.025,-24503.535,-22310.145
1764511271.839722,-4622.67,-39227.625,-30637.845,-9775.89,-9722.88,-37096.83,-24500.115,-22305.87
1764511271.839722,-4626.09,-39231.99,-30642.795,-9780.345,-9728.64,-37102.005,-24503.58,-22309.695
1764511271.8402338,-4621.545,-39225.69,-30637.305,-9774.9,-9722.52,-37096.11,-24498.405,-22304.205
1764511271.8402338,-4620.105,-39225.015,-30637.08,-9774.315,-9721.305,-37094.985,-24496.83,-22303.125
1764511271.8402338,-4626.675,-39234.735,-30645.63,-9782.46,-9730.53,-37103.67,-24503.85,-22310.595
1764511271.8412488,-4627.665,-39234.915,-30645.585,-9782.505,-9730.395,-37103.04,-24504.165,-22311.0
1764511271.8412488,-4625.595,-39231.09,-30643.2,-9779.715,-9727.56,-37100.34,-24502.14,-22308.21
1764511271.8412488,-4620.195,-39226.635,-30638.655,-9775.575,-9723.15,-37096.02,-24497.73,-22304.115
1764511271.8412488,-4619.97,-39228.075,-30639.645,-9776.88,-9723.915,-37097.505,-24497.865,-22304.655
1764511271.8422496,-4623.48,-39233.115,-30643.92,-9782.145,-9728.775,-37102.545,-24502.545,-22309.065
1764511271.8422496,-4624.47,-39233.205,-30644.505,-9782.595,-9729.09,-37102.185,-24502.59,-22308.48
1764511271.8861842,-4623.435,-39231.945,-30643.695,-9781.605,-9727.47,-37100.655,-24500.745,-22307.085
1764511271.8861842,-4617.135,-39223.53,-30636.27,-9773.595,-9719.82,-37093.005,-24494.805,-22300.065
1764511271.8861842,-4616.865,-39224.115,-30636.585,-9772.965,-9719.64,-37092.51,-24495.705,-22299.975
1764511271.8861842,-4624.56,-39234.78,-30646.305,-9783.495,-9729.72,-37102.14,-24504.885,-22308.525
1764511271.8861842,-4625.415,-39235.455,-30646.845,-9784.71,-9731.34,-37103.13,-24506.235,-22308.75
1764511271.8861842,-4623.435,-39233.115,-30644.955,-9783.63,-9729.18,-37101.78,-24504.66,-22307.805
1764511271.8861842,-4619.295,-39229.065,-30640.14,-9778.815,-9724.59,-37098.045,-24500.025,-22304.655
1764511271.8861842,-4622.76,-39232.71,-30643.695,-9781.875,-9728.595,-37102.005,-24503.985,-22308.615
1764511271.8861842,-4623.929999999999,-39233.385,-30645.315,-9783.72,-9729.765,-37102.77,-24505.74,-22308.525
1764511271.8861842,-4624.56,-39233.655,-30645.99,-9784.035,-9730.215,-37102.68,-24505.92,-22308.975
1764511271.886693,-4623.615,-39233.52,-30645.0,-9783.45,-9729.315,-37101.645,-24506.055,-22308.165
1764511271.886693,-4620.69,-39229.29,-30640.725,-9779.805,-9724.725,-37097.28,-24503.355,-22306.095
1764511271.886693,-4616.19,-39223.71,-30634.605,-9774.36,-9718.92,-37092.24,-24498.27,-22302.225
1764511271.886693,-4621.995,-39230.64,-30641.265,-9781.335,-9725.49,-37099.395,-24505.695,-22308.12
1764511271.886693,-4620.735,-39229.74,-30640.23,-9780.345,-9724.995,-37098.36,-24504.84,-22306.68
1764511271.886693,-4615.11,-39222.405,-30633.21,-9773.505,-9718.335,-37092.015,-24499.26,-22301.055
1764511271.886693,-4615.245,-39222.72,-30633.03,-9773.28,-9718.56,-37092.015,-24499.215,-22300.875
1764511271.886693,-4620.375,-39227.895,-30637.845,-9778.005,-9723.6,-37096.335,-24504.525,-22306.005
1764511271.886693,-4620.87,-39230.145,-30639.69,-9779.94,-9725.94,-37098.585,-24506.37,-22307.805
1764511271.886693,-4621.635,-39231.045,-30640.905,-9781.02,-9727.245,-37099.53,-24507.09,-22308.39
1764511271.886693,-4620.195,-39229.875,-30639.105,-9780.03,-9725.67,-37099.305,-24505.83,-22307.13
1764511271.886693,-4616.145,-39224.43,-30634.425,-9774.63,-9720.135,-37094.175,-24500.79,-22301.865
1764511271.9287405,-4615.514999999999,-39224.745,-30634.965,-9775.215,-9720.495,-37094.13,-24500.79,-22302.27
