Timestamp,Channel1,Channel2,Channel3,Channel4,Channel5,Channel6,Channel7,Channel8
1764510957.0601444,-6842.34,-39289.275,-31598.145,-8767.529999999999,-8586.81,-38603.43,-25052.445,-24855.57
1764510957.0601444,-6839.19,-39285.045,-31592.88,-8763.21,-8582.715,-38598.795,-25049.88,-24853.005
1764510957.0601444,-6840.495,-39286.89,-31594.905,-8764.515,-8585.01,-38600.865,-25051.14,-24853.905
1764510957.0601444,-6844.05,-39290.49,-31598.19,-8768.34,-8588.744999999999,-38604.195,-25054.155,-24858.045
1764510957.0601444,-6839.594999999999,-39285.63,-31592.475,-8763.66,-8583.255,-38598.885,-25050.555,-24854.58
1764510957.0601444,-6844.32,-39291.255,-31598.055,-8768.744999999999,-8589.06,-38604.285,-25055.955,-24861.015
1764510957.0601444,-6841.62,-39288.33,-31595.625,-8765.82,-8586.63,-38601.09,-25053.255,-24858.27
1764510957.0601444,-6844.32,-39292.47,-31599.765,-8769.465,-8590.005,-38604.69,-25056.72,-24860.34
1764510957.0601444,-6839.28,-39287.835,-31594.68,-8763.84,-8584.92,-38600.235,-25052.445,-24855.615
1764510957.0601444,-6838.29,-39287.61,-31594.32,-8763.93,-8585.19,-38600.505,-25051.815,-24855.93
1764510957.0601444,-6842.429999999999,-39293.415,-31600.035,-8769.465,-8591.265,-38605.455,-25055.37,-24859.98
1764510957.0601444,-6836.625,-39288.915,-31594.14,-8764.695,-8586.18,-38599.92,-25051.14,-24854.31
1764510957.0611496,-6833.34,-39288.645,-31593.015,-8763.39,-8584.92,-38599.02,-25051.005,-24851.655
1764510957.0611496,-6831.179999999999,-39287.61,-31592.43,-8762.085,-8583.84,-38597.58,-25050.465,-24849.27
1764510957.0611496,-6826.95,-39283.56,-31588.65,-8757.945,-8580.195,-38594.115,-25048.53,-24845.715
1764510957.0611496,-6828.615,-39287.52,-31591.71,-8761.77,-8583.615,-38597.94,-25053.165,-24847.425
1764510957.0611496,-6831.855,-39294.54,-31597.605,-8767.98,-8590.095,-38604.51,-25058.79,-24851.565
1764510957.0611496,-6829.2,-39294.63,-31597.74,-8768.43,-8590.275,-38603.745,-25058.655,-24850.845
1764510957.0611496,-6826.455,-39293.955,-31598.325,-8767.935,-8589.69,-38602.89,-25057.89,-24850.035
1764510957.0611496,-6823.08,-39292.515,-31596.03,-8766.0,-8588.205,-38601.27,-25057.17,-24848.73
1764510957.0611496,-6818.849999999999,-39290.535,-31593.465,-8763.345,-8585.19,-38599.11,-25055.325,-24845.895
1764510957.0611496,-6812.46,-39282.345,-31585.995,-8756.324999999999,-8578.935,-38590.74,-25050.555,-24839.865
1764510957.0611496,-6815.79,-39285.945,-31589.28,-8759.88,-8583.975,-38593.125,-25054.92,-24843.915
1764510957.0611496,-6813.405,-39287.07,-31590.945,-8760.645,-8584.605,-38594.925,-25054.155,-24844.905
1764510957.1044872,-6803.865,-39278.025,-31582.26,-8751.42,-8575.335,-38586.015,-25046.145,-24836.58
1764510957.1044872,-6806.384999999999,-39283.11,-31588.29,-8755.785,-8579.52,-38591.28,-25050.195,-24841.53
1764510957.1044872,-6800.67,-39277.665,-31583.25,-8751.105,-8574.345,-38586.15,-25045.155,-24837.705
1764510957.1044872,-6798.78,-39276.945,-31581.27,-8750.16,-8572.86,-38584.53,-25043.805,-24836.355
1764510957.1050255,-6803.009999999999,-39282.39,-31587.12,-8755.02,-8577.494999999999,-38590.29,-25048.305,-24840.495
1764510957.1050255,-6803.415,-39282.12,-31588.2,-8755.244999999999,-8577.63,-38590.11,-25047.765,-24840.585
1764510957.1050255,-6802.83,-39280.905,-31588.335,-8754.84,-8577.27,-38589.48,-25046.955,-24842.565
1764510957.1050255,-6802.56,-39281.04,-31588.83,-8754.615,-8577.449999999999,-38589.39,-25045.83,-24844.095
1764510957.1050255,-6802.469999999999,-39282.03,-31589.865,-8755.47,-8578.574999999999,-38590.515,-25046.37,-24845.58
1764510957.1050255,-6798.33,-39277.98,-31586.04,-8751.824999999999,-8574.615,-38586.69,-25043.445,-24842.475
1764510957.1050255,-6791.895,-39271.77,-31579.605,-8745.48,-8567.73,-38580.03,-25037.685,-24836.04
1764510957.1050255,-6796.44,-39278.295,-31585.275,-8751.33,-8573.58,-38585.565,-25042.725,-24840.495
1764510957.1050255,-6790.905,-39274.605,-31581.36,-8746.74,-8569.26,-38580.48,-25038.855,-24837.795
1764510957.1050255,-6792.929999999999,-39278.565,-31585.05,-8750.789999999999,-8574.029999999999,-38584.575,-25043.715,-24841.08
1764510957.1050255,-6791.895,-39277.26,-31583.745,-8748.855,-8572.23,-38583.135,-25042.815,-24840.855
1764510957.1050255,-6786.179999999999,-39268.53,-31574.88,-8739.855,-8563.815,-38573.955,-25036.695,-24835.32
1764510957.1050255,-6787.62,-39269.97,-31575.87,-8741.654999999999,-8565.93,-38574.675,-25039.08,-24837.705
1764510957.1050255,-6783.795,-39268.035,-31573.845,-8738.82,-8562.015,-38572.695,-25036.335,-24835.77
1764510957.1050255,-6786.9,-39272.445,-31577.715,-8742.42,-8566.244999999999,-38577.015,-25040.565,-24839.73
1764510957.1050255,-6782.264999999999,-39266.46,-31571.505,-8735.67,-8559.765,-38569.995,-25035.84,-24836.67
1764510957.1050255,-6777.81,-39258.945,-31565.205,-8729.55,-8553.6,-38563.83,-25031.295,-24833.97
1764510957.1050255,-6779.34,-39258.99,-31565.43,-8729.55,-8554.14,-38563.605,-25032.465,-24838.065
1764510957.1488998,-6781.365,-39261.825,-31567.77,-8731.17,-8556.705,-38566.98,-25033.905,-24842.205
1764510957.1488998,-6786.179999999999,-39267.36,-31572.99,-8736.164999999999,-8562.645,-38571.705,-25037.955,-24849.72
1764510957.1488998,-6786.855,-39266.73,-31572.405,-8735.895,-8562.33,-38571.57,-25037.865,-24852.51
1764510957.1488998,-6784.74,-39261.285,-31566.555,-8730.315,-8556.93,-38565.765,-25033.365,-24850.845
1764510957.1488998,-6786.585,-39263.895,-31568.94,-8731.8,-8559.045,-38567.88,-25034.22,-24854.805
1764510957.1488998,-6792.3,-39271.545,-31576.005,-8738.64,-8566.154999999999,-38575.485,-25039.215,-24863.175
1764510957.1488998,-6794.415,-39272.04,-31576.545,-8738.64,-8566.38,-38575.845,-25039.935,-24866.415
1764510957.1499293,-6791.4,-39269.025,-31572.225,-8734.725,-8562.779999999999,-38571.84,-25036.83,-24865.155
1764510957.1499293,-6787.62,-39266.055,-31569.03,-8731.71,-8560.529999999999,-38568.78,-25033.725,-24863.94
1764510957.1499293,-6793.83,-39272.265,-31575.375,-8737.065,-8566.154999999999,-38575.305,-25039.17,-24871.095
1764510957.1509435,-6790.77,-39267.99,-31571.46,-8732.16,-8561.565,-38570.535,-25035.885,-24870.285
1764510957.1509435,-6795.99,-39272.58,-31576.05,-8736.75,-8565.435,-38575.26,-25040.61,-24876.585
1764510957.1509435,-6795.81,-39271.23,-31574.07,-8735.67,-8564.58,-38574.045,-25040.16,-24878.205
1764510957.1509435,-6795.09,-39268.215,-31570.335,-8732.34,-8562.015,-38570.49,-25038.18,-24877.665
1764510957.1509435,-6796.035,-39268.215,-31570.065,-8731.935,-8561.16,-38570.085,-25037.82,-24877.755
1764510957.1509435,-6796.755,-39268.665,-31571.28,-8731.98,-8561.52,-38570.04,-25038.27,-24878.52
1764510957.1509435,-6794.955,-39266.73,-31569.39,-8730.045,-8559.63,-38568.24,-25036.515,-24878.43
1764510957.1509435,-6787.44,-39258.225,-31560.255,-8720.865,-8551.035,-38559.42,-25030.44,-24872.715
1764510957.1509435,-6787.17,-39259.125,-31560.57,-8720.73,-8551.71,-38559.96,-25031.115,-24873.48
1764510957.1509435,-6796.304999999999,-39268.305,-31569.525,-8730.18,-8560.845,-38569.32,-25038.405,-24881.67
1764510957.1509435,-6792.84,-39264.255,-31565.07,-8726.58,-8556.795,-38565.9,-25034.805,-24878.205
1764510957.1509435,-6793.29,-39261.465,-31561.335,-8724.375,-8555.13,-38561.535,-25033.86,-24877.215
1764510957.1954415,-6799.139999999999,-39265.605,-31564.845,-8727.975,-8559.09,-38563.965,-25037.37,-24880.95
1764510957.1954415,-6798.24,-39268.26,-31568.445,-8729.685,-8560.17,-38567.88,-25037.505,-24880.905
1764510957.1954415,-6793.335,-39263.895,-31563.54,-8724.914999999999,-8554.904999999999,-38562.795,-25033.32,-24876.09
1764510957.1954415,-6797.205,-39264.705,-31563.54,-8725.904999999999,-8556.975,-38562.48,-25036.245,-24878.79
1764510957.1954415,-6794.009999999999,-39260.34,-31558.5,-8721.225,-8552.52,-38557.755,-25032.015,-24875.37
1764510957.1954415,-6789.78,-39259.89,-31559.13,-8720.235,-8551.17,-38557.44,-25029.585,-24872.67
1764510957.1954415,-6784.29,-39255.21,-31555.395,-8715.555,-8546.625,-38553.615,-25027.02,-24867.99
1764510957.1954415,-6784.469999999999,-39255.3,-31555.44,-8716.23,-8546.985,-38553.975,-25028.595,-24867.72
1764510957.1954415,-6784.469999999999,-39254.715,-31553.865,-8716.455,-8547.164999999999,-38552.49,-25029.45,-24866.46
1764510957.1954415,-6783.344999999999,-39255.12,-31552.65,-8716.635,-8547.255,-38551.815,-25030.53,-24865.29
1764510957.1954415,-6781.455,-39257.37,-31555.08,-8718.074999999999,-8548.38,-38553.84,-25032.375,-24864.435
1764510957.1954415,-6779.429999999999,-39257.82,-31555.98,-8718.39,-8548.515,-38553.66,-25033.41,-24863.085
1764510957.1954415,-6782.759999999999,-39262.59,-31560.795,-8723.07,-8553.69,-38559.06,-25038.63,-24866.415
1764510957.1954415,-6782.535,-39262.095,-31559.895,-8723.115,-8553.869999999999,-38559.42,-25039.935,-24866.1
1764510957.1954415,-6780.195,-39259.89,-31557.6,-8721.27,-8552.07,-38556.27,-25038.855,-24864.165
1764510957.1954415,-6773.355,-39253.635,-31550.67,-8714.52,-8545.365,-38550.195,-25033.455,-24858.18
1764510957.1954415,-6769.889999999999,-39251.97,-31548.825,-8712.315,-8543.25,-38548.98,-25031.385,-24855.255
1764510957.1954415,-6770.474999999999,-39254.355,-31551.525,-8714.789999999999,-8544.779999999999,-38551.95,-25033.545,-24857.235
1764510957.1954415,-6773.94,-39259.62,-31556.52,-8719.83,-8549.955,-38556.585,-25039.035,-24862.545
1764510957.1964517,-6774.344999999999,-39258.045,-31554.09,-8719.244999999999,-8550.404999999999,-38554.065,-25040.655,-24863.265
1764510957.1964517,-6773.804999999999,-39257.415,-31553.91,-8718.705,-8550.18,-38553.345,-25038.99,-24862.59
1764510957.1964517,-6771.195,-39258.18,-31556.295,-8718.029999999999,-8550.315,-38555.55,-25037.55,-24861.51
1764510957.1980228,-6765.705,-39253.14,-31550.625,-8712.404999999999,-8544.869999999999,-38551.05,-25033.185,-24856.92
1764510957.1989305,-6765.12,-39254.67,-31551.525,-8713.529999999999,-8545.904999999999,-38552.22,-25034.04,-24858.405
1764510957.1989305,-6765.84,-39257.73,-31554.315,-8715.645,-8548.515,-38554.605,-25036.515,-24860.88
1764510957.1989305,-6768.179999999999,-39259.215,-31555.665,-8718.57,-8551.755,-38555.55,-25041.15,-24865.29
1764510957.2449636,-6762.195,-39253.14,-31549.545,-8712.855,-8546.13,-38548.485,-25036.56,-24861.105
1764510957.2449636,-6761.565,-39257.82,-31554.585,-8715.914999999999,-8548.74,-38553.75,-25039.17,-24863.085
1764510957.2449636,-6764.219999999999,-39264.03,-31561.29,-8721.18,-8555.13,-38560.41,-25045.065,-24867.945
1764510957.2449636,-6764.895,-39266.55,-31562.955,-8723.115,-8557.785,-38561.805,-25047.27,-24869.34
1764510957.2449636,-6762.825,-39266.145,-31561.515,-8721.36,-8556.029999999999,-38560.095,-25045.74,-24868.89
1764510957.2449636,-6756.75,-39259.17,-31554.585,-8714.295,-8549.1,-38552.67,-25040.835,-24864.48
1764510957.2449636,-6755.219999999999,-39258.45,-31554.135,-8713.529999999999,-8548.74,-38552.265,-25041.06,-24863.355
1764510957.2449636,-6754.95,-39259.44,-31555.62,-8714.61,-8549.91,-38553.48,-25041.78,-24864.345
1764510957.2449636,-6761.115,-39265.92,-31561.2,-8721.539999999999,-8556.84,-38558.25,-25048.8,-24869.97
1764510957.2449636,-6759.764999999999,-39264.165,-31557.78,-8719.515,-8556.21,-38555.01,-25048.17,-24869.385
1764510957.2449636,-6752.07,-39261.42,-31555.71,-8715.42,-8552.25,-38553.165,-25044.3,-24865.47
1764510957.2449636,-6753.509999999999,-39266.865,-31561.02,-8720.595,-8557.515,-38558.655,-25048.35,-24869.79
1764510957.2449636,-6746.94,-39261.33,-31554.72,-8714.97,-8553.195,-38552.76,-25044.975,-24865.02
1764510957.2449636,-6742.485,-39260.925,-31554.63,-8714.52,-8552.699999999999,-38552.355,-25045.11,-24862.86
1764510957.2449636,-6739.2,-39262.815,-31555.26,-8715.914999999999,-8553.24,-38552.76,-25046.64,-24861.06
1764510957.2532897,-6735.509999999999,-39263.985,-31556.295,-8716.095,-8554.455,-38554.47,-25046.685,-24858.765
1764510957.2532897,-6732.99,-39266.145,-31558.095,-8717.445,-8555.58,-38556.45,-25048.125,-24856.83
1764510957.2532897,-6734.565,-39266.64,-31557.195,-8718.615,-8557.065,-38554.83,-25051.41,-24856.425
1764510957.2532897,-6730.74,-39263.355,-31554.0,-8715.33,-8553.555,-38550.915,-25048.305,-24852.42
1764510957.2532897,-6729.929999999999,-39266.145,-31557.42,-8716.994999999999,-8555.715,-38554.02,-25050.33,-24852.69
1764510957.2899623,-6722.594999999999,-39259.17,-31550.265,-8709.75,-8549.01,-38546.55,-25043.31,-24845.67
1764510957.2899623,-6722.235,-39260.52,-31552.65,-8711.19,-8550.99,-38548.395,-25043.715,-24846.615
1764510957.2899623,-6722.145,-39261.915,-31554.63,-8712.315,-8552.925,-38548.845,-25046.145,-24847.695
1764510957.2899623,-6726.69,-39266.82,-31558.905,-8717.039999999999,-8558.324999999999,-38552.355,-25052.805,-24852.195
1764510957.2899623,-6727.679999999999,-39267.945,-31559.355,-8718.255,-8559.539999999999,-38552.625,-25053.255,-24853.5
1764510957.2899623,-6723.945,-39268.485,-31561.47,-8718.164999999999,-8558.55,-38553.525,-25050.555,-24853.365
1764510957.2899623,-6717.509999999999,-39263.805,-31556.61,-8712.99,-8553.06,-38548.845,-25045.695,-24850.035
1764510957.2899623,-6720.929999999999,-39268.62,-31560.255,-8716.86,-8558.414999999999,-38552.355,-25050.735,-24854.445
1764510957.2899623,-6721.155,-39273.345,-31565.43,-8720.82,-8563.14,-38556.99,-25053.075,-24857.595
1764510957.2904975,-6716.655,-39271.365,-31562.145,-8717.94,-8560.755,-38554.83,-25051.545,-24855.84
1764510957.2904975,-6709.86,-39265.245,-31555.305,-8710.65,-8553.914999999999,-38547.315,-25046.055,-24850.125
1764510957.2904975,-6710.67,-39267.72,-31556.97,-8712.135,-8555.895,-38548.935,-25047.315,-24852.6
1764510957.2904975,-6714.09,-39272.49,-31561.11,-8716.68,-8561.295,-38552.805,-25053.03,-24857.595
1764510957.2904975,-6709.679999999999,-39271.455,-31560.705,-8714.97,-8559.72,-38551.815,-25052.535,-24857.28
1764510957.2904975,-6710.895,-39275.91,-31564.44,-8718.39,-8563.77,-38555.64,-25057.485,-24861.42
1764510957.2904975,-6704.594999999999,-39270.825,-31559.4,-8712.675,-8558.414999999999,-38550.465,-25054.065,-24857.595
1764510957.2904975,-6701.759999999999,-39271.185,-31559.4,-8712.27,-8558.414999999999,-38550.555,-25054.47,-24857.775
1764510957.2904975,-6704.639999999999,-39275.505,-31563.63,-8716.545,-8562.779999999999,-38554.74,-25060.095,-24862.365
1764510957.2904975,-6702.255,-39275.19,-31563.315,-8716.5,-8561.789999999999,-38554.38,-25061.355,-24863.04
1764510957.2904975,-6698.52,-39271.23,-31557.645,-8712.539999999999,-8558.82,-38549.025,-25059.42,-24860.88
1764510957.2904975,-6691.815,-39261.87,-31547.025,-8704.08,-8550.99,-38538.765,-25052.85,-24854.22
1764510957.2904975,-6690.465,-39266.28,-31551.795,-8706.779999999999,-8553.96,-38543.445,-25055.01,-24855.93
1764510957.2904975,-6688.44,-39268.35,-31554.045,-8707.77,-8554.635,-38545.425,-25055.19,-24856.02
1764510957.2904975,-6687.855,-39268.665,-31554.405,-8708.535,-8554.59,-38545.56,-25057.17,-24855.975
1764510957.2904975,-6688.125,-39272.22,-31557.69,-8710.605,-8557.199999999999,-38547.855,-25060.86,-24857.145
1764510957.2904975,-6691.995,-39277.395,-31561.47,-8715.555,-8562.779999999999,-38551.905,-25067.43,-24861.915
1764510957.3380747,-6691.139999999999,-39278.115,-31562.325,-8715.69,-8563.59,-38551.635,-25068.555,-24862.365
1764510957.3390722,-6689.745,-39278.52,-31562.055,-8715.06,-8565.074999999999,-38551.905,-25069.815,-24862.545
1764510957.3390722,-6689.34,-39281.85,-31564.8,-8717.85,-8568.315,-38555.055,-25073.28,-24863.94
1764510957.3390722,-6686.19,-39279.33,-31562.01,-8715.33,-8565.84,-38552.085,-25073.415,-24860.52
1764510957.3390722,-6678.9,-39270.87,-31553.055,-8706.645,-8558.1,-38543.13,-25066.305,-24851.97
1764510957.3390722,-6678.719999999999,-39272.265,-31554.09,-8706.465,-8558.82,-38543.535,-25068.24,-24852.24
1764510957.3400905,-6676.11,-39272.355,-31554.315,-8705.744999999999,-8558.279999999999,-38543.085,-25068.87,-24851.475
1764510957.3400905,-6675.929999999999,-39271.545,-31550.94,-8704.529999999999,-8557.92,-38540.205,-25069.23,-24850.53
1764510957.34058,-6678.315,-39278.61,-31558.41,-8710.515,-8563.904999999999,-38547.54,-25074.045,-24854.085
1764510957.34058,-6673.455,-39276.72,-31556.745,-8707.68,-8561.475,-38545.965,-25071.975,-24851.475
1764510957.341081,-6675.344999999999,-39281.715,-31560.435,-8711.505,-8565.164999999999,-38549.115,-25077.15,-24854.13
1764510957.341081,-6672.645,-39281.355,-31560.12,-8710.515,-8564.355,-38548.305,-25076.655,-24853.005
1764510957.341081,-6666.615,-39274.83,-31552.965,-8703.72,-8558.46,-38541.24,-25071.93,-24847.335
1764510957.341081,-6666.344999999999,-39277.71,-31555.755,-8705.744999999999,-8560.35,-38544.795,-25073.82,-24847.785
1764510957.341081,-6661.349999999999,-39274.92,-31552.83,-8702.414999999999,-8557.065,-38541.015,-25070.715,-24843.69
1764510957.341081,-6662.7,-39279.42,-31557.15,-8705.97,-8561.34,-38544.435,-25074.54,-24847.29
1764510957.341081,-6655.995,-39273.39,-31551.705,-8699.94,-8555.13,-38538.9,-25071.255,-24840.855
1764510957.341081,-6653.745,-39271.095,-31548.33,-8698.5,-8554.545,-38535.345,-25072.02,-24838.605
1764510957.3854237,-6656.445,-39274.965,-31551.12,-8702.145,-8559.449999999999,-38537.955,-25075.53,-24840.99
1764510957.3854237,-6652.62,-39272.13,-31548.33,-8699.039999999999,-8555.039999999999,-38535.84,-25072.38,-24837.93
1764510957.3854237,-6644.969999999999,-39264.12,-31539.24,-8691.029999999999,-8546.805,-38526.93,-25066.485,-24830.28
1764510957.3854237,-6642.09,-39261.96,-31538.115,-8689.14,-8545.68,-38524.905,-25066.845,-24828.255
1764510957.3854237,-6641.415,-39260.115,-31535.955,-8688.42,-8545.77,-38523.15,-25068.06,-24827.535
1764510957.3854237,-6641.775,-39266.685,-31542.075,-8693.1,-8550.315,-38529.72,-25070.31,-24830.28
1764510957.3854237,-6636.33,-39265.02,-31539.78,-8690.355,-8546.58,-38527.245,-25066.71,-24824.745
1764510957.3854237,-6637.365,-39268.305,-31542.48,-8693.19,-8549.82,-38529.135,-25070.22,-24824.925
1764510957.3854237,-6639.84,-39272.625,-31546.215,-8697.869999999999,-8554.815,-38532.735,-25075.845,-24827.94
1764510957.386937,-6636.375,-39269.205,-31542.705,-8694.36,-8551.935,-38529.135,-25073.55,-24824.97
1764510957.386937,-6627.69,-39262.995,-31537.125,-8688.015,-8545.365,-38523.15,-25068.105,-24816.555
1764510957.386937,-6625.304999999999,-39265.11,-31540.725,-8689.365,-8546.94,-38525.58,-25069.32,-24814.8
1764510957.386937,-6627.33,-39271.95,-31547.25,-8694.675,-8552.744999999999,-38531.61,-25074.225,-24817.995
1764510957.386937,-6622.245,-39267.945,-31542.66,-8690.445,-8548.515,-38528.055,-25071.435,-24813.27
1764510957.386937,-6623.235,-39270.285,-31544.73,-8692.47,-8550.765,-38529.63,-25073.595,-24813.855
1764510957.386937,-6617.16,-39260.34,-31533.48,-8684.369999999999,-8542.26,-38518.155,-25067.88,-24806.07
1764510957.386937,-6613.02,-39257.865,-31530.915,-8680.86,-8539.515,-38515.545,-25064.145,-24803.235
1764510957.386937,-6612.3,-39262.005,-31535.64,-8683.425,-8542.935,-38520.855,-25066.305,-24805.53
1764510957.387947,-6615.585,-39265.605,-31539.96,-8687.16,-8546.445,-38524.815,-25070.895,-24809.22
1764510957.387947,-6611.355,-39261.195,-31535.145,-8682.21,-8541.539999999999,-38520.09,-25067.43,-24805.89
1764510957.387947,-6609.15,-39259.44,-31532.58,-8679.869999999999,-8539.289999999999,-38517.795,-25066.215,-24805.215
1764510957.387947,-6610.995,-39262.275,-31535.19,-8682.074999999999,-8542.529999999999,-38520.045,-25069.41,-24807.645
1764510957.387947,-6615.09,-39268.44,-31542.3,-8688.015,-8549.19,-38526.75,-25074.81,-24814.215
1764510957.387947,-6615.585,-39269.025,-31542.75,-8688.015,-8550.09,-38526.615,-25075.305,-24816.015
1764510957.387947,-6613.29,-39266.685,-31540.68,-8686.395,-8548.154999999999,-38524.185,-25073.415,-24817.5
1764510957.387947,-6610.545,-39260.88,-31534.83,-8681.22,-8543.025,-38518.425,-25068.87,-24817.275
1764510957.387947,-6604.155,-39251.565,-31526.1,-8672.49,-8533.755,-38509.695,-25060.86,-24811.875
1764510957.387947,-6610.77,-39258.72,-31533.39,-8678.699999999999,-8540.73,-38516.94,-25066.89,-24820.74
1764510957.4332175,-6610.995,-39261.33,-31536.27,-8680.095,-8542.529999999999,-38520.09,-25066.755,-24824.925
1764510957.4332175,-6606.9,-39256.11,-31531.635,-8675.19,-8537.355,-38515.455,-25062.975,-24824.295
1764510957.4332175,-6611.264999999999,-39259.845,-31534.83,-8678.925,-8540.955,-38519.415,-25066.125,-24829.965
1764510957.4332175,-6613.02,-39257.28,-31530.24,-8676.99,-8538.975,-38515.32,-25065.945,-24832.44
1764510957.4332175,-6612.48,-39253.815,-31527.315,-8674.289999999999,-8535.96,-38511.765,-25063.245,-24833.25
1764510957.4332175,-6606.495,-39247.29,-31522.59,-8666.55,-8528.039999999999,-38507.13,-25054.56,-24829.29
1764510957.4332175,-6607.98,-39247.83,-31521.33,-8666.505,-8528.175,-38506.14,-25054.515,-24831.72
1764510957.4332175,-6610.41,-39248.91,-31522.23,-8667.494999999999,-8529.615,-38505.78,-25054.875,-24835.995
1764510957.4332175,-6611.94,-39248.01,-31521.195,-8666.64,-8529.255,-38504.115,-25054.29,-24837.12
1764510957.4332175,-6619.95,-39255.975,-31529.25,-8674.425,-8536.365,-38513.565,-25060.185,-24846.03
1764510957.4337444,-6616.935,-39251.07,-31525.605,-8669.52,-8531.505,-38508.93,-25056.27,-24844.77
1764510957.4337444,-6618.105,-39248.73,-31523.04,-8668.529999999999,-8529.705,-38505.645,-25056.09,-24845.895
1764510957.4337444,-6621.389999999999,-39249.765,-31523.625,-8669.699999999999,-8530.74,-38506.545,-25056.81,-24849.18
1764510957.4337444,-6626.295,-39254.895,-31527.72,-8673.21,-8535.015,-38511.72,-25060.41,-24855.12
1764510957.4337444,-6622.514999999999,-39249.675,-31521.78,-8666.865,-8529.164999999999,-38505.33,-25055.955,-24852.06
1764510957.4337444,-6623.73,-39249.0,-31520.52,-8666.55,-8529.48,-38503.8,-25056.09,-24852.645
1764510957.4337444,-6625.215,-39252.915,-31524.84,-8670.105,-8532.449999999999,-38509.695,-25057.44,-24856.335
1764510957.4337444,-6628.05,-39254.265,-31526.955,-8671.86,-8534.025,-38511.18,-25059.78,-24859.98
1764510957.4337444,-6624.495,-39245.67,-31518.54,-8663.67,-8526.42,-38502.045,-25053.165,-24854.805
1764510957.4337444,-6626.79,-39251.025,-31523.67,-8667.72,-8530.38,-38507.265,-25055.235,-24859.305
1764510957.4337444,-6632.009999999999,-39259.035,-31532.535,-8675.82,-8539.47,-38515.275,-25063.605,-24866.505
1764510957.4337444,-6633.315,-39260.7,-31534.29,-8678.34,-8541.404999999999,-38516.895,-25065.63,-24868.935
1764510957.4337444,-6633.54,-39263.58,-31537.215,-8680.41,-8542.755,-38519.955,-25066.845,-24870.51
1764510957.4337444,-6631.56,-39262.185,-31534.425,-8677.8,-8541.135,-38517.84,-25065.09,-24868.755
1764510957.4792762,-6625.17,-39257.955,-31530.87,-8673.93,-8536.14,-38513.565,-25061.355,-24864.39
1764510957.4792762,-6626.384999999999,-39260.565,-31534.605,-8676.72,-8538.3,-38517.345,-25064.235,-24867.045
1764510957.4792762,-6620.445,-39256.11,-31530.105,-8672.715,-8534.34,-38513.79,-25060.68,-24862.23
1764510957.4792762,-6621.255,-39255.39,-31528.845,-8672.895,-8536.23,-38512.62,-25063.515,-24862.005
1764510957.4792762,-6615.09,-39249.855,-31523.22,-8667.945,-8531.73,-38507.04,-25059.24,-24856.785
1764510957.4792762,-6616.98,-39257.865,-31532.355,-8676.36,-8539.154999999999,-38514.915,-25066.62,-24863.13
1764510957.4792762,-6613.785,-39255.615,-31530.42,-8675.414999999999,-8537.715,-38512.44,-25066.935,-24860.16
1764510957.4792762,-6606.81,-39248.955,-31524.12,-8668.98,-8531.055,-38506.005,-25061.49,-24851.295
1764510957.4792762,-6603.974999999999,-39247.47,-31522.455,-8667.72,-8529.93,-38504.43,-25061.265,-24850.08
1764510957.4792762,-6605.865,-39253.32,-31528.215,-8673.435,-8535.645,-38510.685,-25067.925,-24852.915
1764510957.4792762,-6599.429999999999,-39250.53,-31526.19,-8670.96,-8533.08,-38507.805,-25065.585,-24846.84
1764510957.4792762,-6598.755,-39252.87,-31528.89,-8673.164999999999,-8535.285,-38510.55,-25067.25,-24845.13
1764510957.4792762,-6591.915,-39247.11,-31523.445,-8668.35,-8530.154999999999,-38504.565,-25064.64,-24836.625
1764510957.4792762,-6587.235,-39247.02,-31523.85,-8669.115,-8530.92,-38504.97,-25064.28,-24833.205
1764510957.4792762,-6584.13,-39249.405,-31526.19,-8670.914999999999,-8533.215,-38506.59,-25065.18,-24832.08
1764510957.4792762,-6586.29,-39256.785,-31534.02,-8677.215,-8539.74,-38513.88,-25071.435,-24835.005
1764510957.4792762,-6581.474999999999,-39252.87,-31530.465,-8673.57,-8536.23,-38511.045,-25069.68,-24828.57
1764510957.4792762,-6581.835,-39257.55,-31534.335,-8677.35,-8540.595,-38515.365,-25074.72,-24829.47
1764510957.4792762,-6575.445,-39253.725,-31530.825,-8673.345,-8536.725,-38511.405,-25071.48,-24822.675
1764510957.4792762,-6573.375,-39252.33,-31529.43,-8672.039999999999,-8536.41,-38509.29,-25071.84,-24820.47
1764510957.4792762,-6574.86,-39256.515,-31532.805,-8676.18,-8540.955,-38513.205,-25075.62,-24822.675
1764510957.480789,-6570.315,-39253.455,-31529.745,-8673.75,-8538.615,-38510.1,-25073.64,-24817.86
1764510957.5248957,-6571.889999999999,-39259.35,-31535.19,-8678.34,-8543.16,-38515.815,-25077.195,-24819.84
1764510957.5248957,-6564.915,-39253.365,-31529.88,-8671.904999999999,-8537.49,-38510.64,-25072.515,-24813.045
1764510957.5248957,-6561.09,-39250.305,-31526.46,-8669.115,-8534.43,-38507.58,-25072.245,-24809.535
1764510957.525899,-6566.715,-39256.02,-31531.815,-8675.82,-8541.09,-38512.935,-25079.355,-24815.25
1764510957.525899,-6565.185,-39257.145,-31533.84,-8676.63,-8542.125,-38514.105,-25078.23,-24813.675
1764510957.525899,-6560.594999999999,-39253.68,-31530.375,-8671.275,-8537.895,-38510.37,-25075.575,-24808.815
1764510957.525899,-6562.889999999999,-39259.62,-31535.46,-8677.125,-8543.744999999999,-38515.365,-25080.345,-24812.01
1764510957.525899,-6561.945,-39260.745,-31537.17,-8678.97,-8545.005,-38516.715,-25082.01,-24812.28
1764510957.526897,-6555.69,-39252.87,-31529.565,-8671.59,-8538.119999999999,-38509.155,-25077.105,-24805.98
1764510957.526897,-6552.855,-39251.115,-31527.675,-8669.25,-8536.05,-38507.265,-25075.26,-24804.63
1764510957.526897,-6552.405,-39254.13,-31530.825,-8671.005,-8537.535,-38509.83,-25077.285,-24806.025
1764510957.526897,-6550.92,-39255.84,-31532.355,-8672.13,-8538.164999999999,-38511.81,-25076.925,-24806.385
1764510957.526897,-6550.65,-39254.535,-31531.455,-8671.005,-8536.904999999999,-38510.775,-25076.16,-24805.98
1764510957.526897,-6555.645,-39260.43,-31536.99,-8676.18,-8542.529999999999,-38516.49,-25082.505,-24812.28
1764510957.526897,-6551.55,-39255.39,-31531.995,-8670.914999999999,-8536.275,-38511.0,-25077.375,-24808.725
1764510957.5280707,-6552.09,-39256.38,-31532.67,-8670.69,-8537.22,-38511.63,-25078.005,-24810.39
1764510957.5280707,-6556.275,-39261.78,-31538.025,-8676.72,-8543.25,-38516.265,-25082.955,-24816.285
1764510957.5280707,-6553.71,-39254.895,-31531.005,-8672.175,-8539.335,-38509.515,-25080.885,-24814.665
1764510957.5285823,-6559.2,-39261.195,-31536.09,-8677.619999999999,-8545.59,-38515.05,-25086.42,-24819.975
1764510957.5285823,-6559.83,-39262.905,-31538.07,-8678.789999999999,-8546.49,-38517.57,-25087.005,-24823.44
1764510957.5285823,-6557.94,-39259.665,-31535.505,-8675.955,-8544.15,-38514.555,-25085.205,-24823.71
1764510957.5285823,-6553.17,-39253.545,-31528.755,-8669.16,-8538.119999999999,-38507.625,-25079.805,-24819.255
1764510957.586079,-6554.25,-39256.2,-31531.23,-8670.465,-8538.66,-38510.325,-25079.94,-24820.515
1764510957.586079,-6562.215,-39265.29,-31540.68,-8679.824999999999,-8548.56,-38520.18,-25088.4,-24830.505
1764510957.586079,-6563.52,-39265.83,-31541.67,-8680.365,-8549.369999999999,-38520.855,-25089.435,-24833.295
1764510957.586079,-6563.655,-39262.86,-31537.845,-8679.015,-8547.48,-38517.48,-25089.12,-24833.655
1764510957.586079,-6564.915,-39263.67,-31538.205,-8679.869999999999,-8547.93,-38516.985,-25088.535,-24835.005
1764510957.586079,-6565.41,-39263.265,-31539.105,-8679.914999999999,-8548.65,-38518.02,-25088.445,-24835.545
1764510957.586079,-6566.31,-39263.4,-31538.025,-8679.51,-8548.65,-38516.985,-25087.95,-24837.165
1764510957.586079,-6566.085,-39266.595,-31542.48,-8681.625,-8550.855,-38521.665,-25088.49,-24839.595
1764510957.622169,-6565.275,-39266.55,-31543.245,-8681.22,-8549.19,-38521.845,-25087.68,-24840.675
1764510957.622169,-6562.8,-39261.96,-31538.43,-8676.585,-8544.69,-38517.255,-25084.53,-24838.47
1764510957.622169,-6555.96,-39253.14,-31529.43,-8667.945,-8535.645,-38507.805,-25076.205,-24833.025
1764510957.622169,-6559.02,-39252.915,-31528.08,-8668.574999999999,-8536.095,-38506.68,-25077.33,-24835.185
1764510957.622169,-6565.95,-39258.675,-31533.705,-8674.74,-8543.52,-38512.44,-25082.415,-24842.88
1764510957.622169,-6565.59,-39258.045,-31533.84,-8673.93,-8542.395,-38512.215,-25082.01,-24844.455
1764510957.622169,-6561.134999999999,-39253.905,-31530.015,-8669.97,-8537.94,-38509.11,-25078.05,-24841.755
1764510957.622169,-6565.005,-39259.26,-31535.595,-8674.965,-8543.385,-38513.43,-25082.595,-24848.145
1764510957.622169,-6566.13,-39259.755,-31536.405,-8676.315,-8543.88,-38512.98,-25083.765,-24849.405
1764510957.6231894,-6565.995,-39262.185,-31539.15,-8677.17,-8544.96,-38516.625,-25084.215,-24851.07
1764510957.6231894,-6565.23,-39261.42,-31538.205,-8676.0,-8544.15,-38515.455,-25083.045,-24849.63
1764510957.6231894,-6559.02,-39253.815,-31530.285,-8667.72,-8535.914999999999,-38506.995,-25077.15,-24842.79
1764510957.6231894,-6556.86,-39251.7,-31528.215,-8664.93,-8533.98,-38504.43,-25075.755,-24842.115
1764510957.6231894,-6559.425,-39254.31,-31531.41,-8667.494999999999,-8536.994999999999,-38507.4,-25078.905,-24844.635
1764510957.6231894,-6562.71,-39260.79,-31537.62,-8674.289999999999,-8543.34,-38513.565,-25083.495,-24849.54
1764510957.6231894,-6561.224999999999,-39261.645,-31539.555,-8674.56,-8543.835,-38515.095,-25083.99,-24849.0
1764510957.6231894,-6555.195,-39252.285,-31530.015,-8665.83,-8535.69,-38505.33,-25078.815,-24842.115
1764510957.6231894,-6555.42,-39252.69,-31529.295,-8666.324999999999,-8535.96,-38505.375,-25078.86,-24841.665
1764510957.6231894,-6557.804999999999,-39261.105,-31537.89,-8673.255,-8543.025,-38514.33,-25084.62,-24846.84
1764510957.6231894,-6556.41,-39259.305,-31535.505,-8671.545,-8541.99,-38511.72,-25085.07,-24846.57
1764510957.6231894,-6550.92,-39254.355,-31529.835,-8667.09,-8537.805,-38506.365,-25081.155,-24841.665
1764510957.6231894,-6548.31,-39255.615,-31530.69,-8667.855,-8538.435,-38506.725,-25081.155,-24840.9
1764510957.6231894,-6546.554999999999,-39254.805,-31530.33,-8666.64,-8537.445,-38505.915,-25081.335,-24840.09
1764510957.6231894,-6546.105,-39257.37,-31534.02,-8668.845,-8539.289999999999,-38509.245,-25082.37,-24842.115
1764510957.623701,-6545.88,-39258.36,-31534.29,-8669.43,-8540.414999999999,-38509.56,-25083.99,-24842.745
1764510957.623701,-6550.965,-39264.84,-31539.915,-8675.685,-8546.13,-38515.59,-25089.66,-24846.525
1764510957.623701,-6551.865,-39267.9,-31543.29,-8679.105,-8548.605,-38518.695,-25091.595,-24847.92
1764510957.623701,-6549.12,-39267.63,-31543.83,-8678.97,-8548.515,-38518.74,-25091.955,-24846.975
1764510957.623701,-6543.764999999999,-39262.455,-31538.745,-8673.345,-8543.699999999999,-38514.285,-25088.67,-24842.43
1764510957.623701,-6546.33,-39264.345,-31540.59,-8675.595,-8546.49,-38516.805,-25090.245,-24844.59
1764510957.623701,-6540.57,-39258.855,-31535.46,-8670.06,-8541.09,-38510.595,-25084.71,-24839.595
1764510957.623701,-6537.645,-39256.02,-31532.4,-8667.135,-8537.49,-38507.445,-25082.73,-24837.525
1764510957.623701,-6537.465,-39256.965,-31532.895,-8668.17,-8537.895,-38508.345,-25084.035,-24838.29
1764510957.623701,-6543.675,-39264.345,-31539.96,-8675.55,-8545.545,-38516.4,-25090.605,-24844.815
1764510957.623701,-6540.12,-39260.25,-31536.0,-8671.86,-8541.404999999999,-38512.08,-25087.185,-24840.99
1764510957.623701,-6542.73,-39262.725,-31538.97,-8674.515,-8544.33,-38514.87,-25089.525,-24843.6
1764510957.623701,-6538.32,-39256.92,-31533.345,-8668.44,-8539.154999999999,-38508.93,-25083.99,-24838.785
1764510957.623701,-6537.554999999999,-39256.965,-31533.57,-8668.395,-8539.11,-38508.795,-25083.765,-24838.425
1764510957.623701,-6542.91,-39264.795,-31540.14,-8675.91,-8546.535,-38516.22,-25090.02,-24844.23
1764510957.623701,-6542.145,-39265.245,-31540.545,-8677.305,-8547.21,-38517.03,-25091.1,-24845.04
1764510957.623701,-6535.62,-39259.35,-31535.055,-8671.68,-8541.855,-38511.18,-25085.745,-24840.36
1764510957.623701,-6533.28,-39257.28,-31533.3,-8669.52,-8539.47,-38508.885,-25083.855,-24839.055
1764510957.6659906,-6532.469999999999,-39255.705,-31532.4,-8668.35,-8538.21,-38507.94,-25083.495,-24837.705
1764510957.6659906,-6538.365,-39262.95,-31538.655,-8674.65,-8544.914999999999,-38515.275,-25090.47,-24843.42
1764510957.6659906,-6536.52,-39261.375,-31537.44,-8673.615,-8543.744999999999,-38514.555,-25089.75,-24841.89
1764510957.6659906,-6529.32,-39254.355,-31530.555,-8666.505,-8537.085,-38507.445,-25084.395,-24835.59
1764510957.6659906,-6525.855,-39253.455,-31529.7,-8665.38,-8536.14,-38506.365,-25083.99,-24834.69
1764510957.6659906,-6524.415,-39252.375,-31529.205,-8664.66,-8535.06,-38505.465,-25083.675,-24833.925
1764510957.6659906,-6523.514999999999,-39253.005,-31529.52,-8664.615,-8536.904999999999,-38506.275,-25084.305,-24833.835
1764510957.6659906,-6526.98,-39259.17,-31535.505,-8670.69,-8542.664999999999,-38511.36,-25089.435,-24839.145
1764510957.6659906,-6525.405,-39259.215,-31535.955,-8671.095,-8542.035,-38509.74,-25090.02,-24838.425
1764510957.6659906,-6520.95,-39256.74,-31533.12,-8667.945,-8539.38,-38507.355,-25088.355,-24834.96
1764510957.6659906,-6512.31,-39249.9,-31526.055,-8660.744999999999,-8532.539999999999,-38501.19,-25082.64,-24827.805
1764510957.6659906,-6512.759999999999,-39252.24,-31528.17,-8663.355,-8534.925,-38504.205,-25084.44,-24829.47
1764510957.7104287,-6516.945,-39257.145,-31533.345,-8668.8,-8539.83,-38509.515,-25089.84,-24832.575
1764510957.7104287,-6511.815,-39252.285,-31528.71,-8663.039999999999,-8534.744999999999,-38504.565,-25086.51,-24828.255
1764510957.7104287,-6513.48,-39255.075,-31531.59,-8665.74,-8537.895,-38507.355,-25089.66,-24831.225
1764510957.7104287,-6512.49,-39253.275,-31528.8,-8664.84,-8536.77,-38503.485,-25090.875,-24830.955
1764510957.7104287,-6511.815,-39254.445,-31529.88,-8665.56,-8538.255,-38504.16,-25091.28,-24831.045
1764510957.7104287,-6508.665,-39255.165,-31530.96,-8665.605,-8537.49,-38505.33,-25090.65,-24831.27
1764510957.7104287,-6505.065,-39251.43,-31528.17,-8662.005,-8534.654999999999,-38502.99,-25088.895,-24827.94
1764510957.7104287,-6496.785,-39244.185,-31521.195,-8655.345,-8527.41,-38496.555,-25083.045,-24821.505
1764510957.7104287,-6494.4,-39243.015,-31519.26,-8654.535,-8526.375,-38494.395,-25081.83,-24821.01
1764510957.7104287,-6497.594999999999,-39251.025,-31526.235,-8662.32,-8533.98,-38501.865,-25088.895,-24826.455
1764510957.7104287,-6491.52,-39247.155,-31522.95,-8657.279999999999,-8530.244999999999,-38498.58,-25086.285,-24821.91
1764510957.7104287,-6493.365,-39246.975,-31522.32,-8658.72,-8532.27,-38497.995,-25088.85,-24823.845
1764510957.7104287,-6487.83,-39244.545,-31520.025,-8655.795,-8528.49,-38495.655,-25084.215,-24820.2
1764510957.7104287,-6487.514999999999,-39250.53,-31526.235,-8660.97,-8533.125,-38501.775,-25087.995,-24822.72
1764510957.7104287,-6480.9,-39245.85,-31521.465,-8656.11,-8528.265,-38496.69,-25084.665,-24817.995
1764510957.7104287,-6480.045,-39245.895,-31522.14,-8655.93,-8529.029999999999,-38496.78,-25085.34,-24817.545
1764510957.7104287,-6484.094999999999,-39252.555,-31528.89,-8663.085,-8535.555,-38503.125,-25091.46,-24821.55
1764510957.7104287,-6481.53,-39251.7,-31527.495,-8662.32,-8534.52,-38501.685,-25092.09,-24820.02
1764510957.7104287,-6473.745,-39243.69,-31518.99,-8655.119999999999,-8527.41,-38493.09,-25086.015,-24811.92
1764510957.7104287,-6472.215,-39243.915,-31519.17,-8655.164999999999,-8527.545,-38492.73,-25087.635,-24810.48
1764510957.7114513,-6469.695,-39245.49,-31521.69,-8656.38,-8529.119999999999,-38495.205,-25088.805,-24810.12
1764510957.7114513,-6467.13,-39246.03,-31522.77,-8656.92,-8529.93,-38496.645,-25088.76,-24808.995
1764510957.7114513,-6466.455,-39247.92,-31524.615,-8658.855,-8531.595,-38498.355,-25090.29,-24809.22
1764510957.7114513,-6469.155,-39253.005,-31529.97,-8663.805,-8536.23,-38503.665,-25095.915,-24812.325
1764510957.7114513,-6463.304999999999,-39250.08,-31525.83,-8660.34,-8532.855,-38500.02,-25093.26,-24808.185
1764510957.7114513,-6464.655,-39254.04,-31529.43,-8663.445,-8537.22,-38503.26,-25096.59,-24811.47
1764510957.7114513,-6462.63,-39253.095,-31529.43,-8663.13,-8536.455,-38502.765,-25095.69,-24810.525
1764510957.7114513,-6454.53,-39246.705,-31523.445,-8656.965,-8529.84,-38495.61,-25089.525,-24803.235
1764510957.7129972,-6450.255,-39244.32,-31520.88,-8654.445,-8527.23,-38492.82,-25087.725,-24800.805
1764510957.7129972,-6453.99,-39248.91,-31525.29,-8659.89,-8532.27,-38496.69,-25093.755,-24805.17
1764510957.7129972,-6450.57,-39245.4,-31522.095,-8656.38,-8529.074999999999,-38493.315,-25092.135,-24802.695
1764510957.7129972,-6443.505,-39238.92,-31515.795,-8649.404999999999,-8522.73,-38487.465,-25086.015,-24797.34
1764510957.7129972,-6444.315,-39242.61,-31518.54,-8651.789999999999,-8525.205,-38490.615,-25088.22,-24799.14
1764510957.7139845,-6439.05,-39237.75,-31514.715,-8647.605,-8521.425,-38486.25,-25084.53,-24795.945
1764510957.758711,-6437.205,-39238.245,-31515.075,-8648.955,-8521.92,-38486.295,-25084.53,-24795.855
1764510957.758711,-6441.615,-39246.12,-31522.005,-8655.705,-8529.39,-38493.45,-25090.92,-24802.155
1764510957.758711,-6441.84,-39247.29,-31523.355,-8657.055,-8530.695,-38494.575,-25092.18,-24804.495
1764510957.758711,-6437.07,-39244.005,-31520.07,-8653.904999999999,-8527.455,-38491.155,-25089.48,-24802.02
1764510957.758711,-6429.06,-39236.715,-31512.6,-8646.525,-8520.525,-38483.28,-25082.28,-24796.305
1764510957.758711,-6431.895,-39239.055,-31514.85,-8648.324999999999,-8522.91,-38485.035,-25084.8,-24799.095
1764510957.758711,-6436.98,-39245.4,-31521.015,-8653.68,-8528.22,-38490.39,-25090.74,-24804.765
1764510957.758711,-6436.665,-39245.445,-31521.06,-8653.59,-8527.77,-38489.94,-25090.92,-24806.115
1764510957.7597165,-6436.44,-39244.185,-31519.89,-8652.645,-8526.6,-38488.815,-25089.12,-24806.745
1764510957.7597165,-6437.745,-39243.33,-31519.395,-8652.33,-8526.42,-38488.545,-25088.355,-24807.555
1764510957.7597165,-6436.98,-39242.7,-31518.63,-8651.115,-8526.285,-38487.87,-25088.445,-24808.905
1764510957.7597165,-6437.474999999999,-39242.16,-31518.315,-8650.17,-8525.565,-38487.33,-25089.03,-24811.47
1764510957.7597165,-6436.665,-39240.63,-31516.965,-8649.045,-8524.44,-38486.655,-25087.095,-24811.515
1764510957.7597165,-6431.13,-39231.72,-31507.92,-8641.215,-8515.664999999999,-38477.88,-25080.615,-24806.925
1764510957.7597165,-6432.48,-39229.11,-31503.78,-8639.19,-8514.09,-38473.965,-25078.86,-24806.79
1764510957.7597165,-6439.59,-39235.725,-31510.98,-8644.59,-8519.445,-38480.715,-25084.485,-24814.485
1764510957.7597165,-6437.07,-39231.81,-31507.875,-8641.08,-8515.395,-38477.835,-25081.515,-24812.37
1764510957.7597165,-6443.685,-39236.85,-31512.105,-8645.76,-8520.795,-38482.47,-25085.295,-24817.545
1764510957.7597165,-6442.695,-39236.58,-31512.015,-8644.455,-8519.76,-38482.065,-25083.63,-24818.04
1764510957.7597165,-6448.094999999999,-39241.53,-31517.28,-8649.99,-8525.34,-38487.555,-25088.31,-24824.52
1764510957.7597165,-6444.63,-39237.705,-31513.68,-8646.164999999999,-8521.289999999999,-38483.505,-25085.43,-24823.08
1764510957.7597165,-6444.179999999999,-39238.02,-31514.22,-8645.085,-8520.84,-38483.595,-25085.385,-24823.215
1764510957.7597165,-6446.565,-39239.865,-31515.615,-8645.94,-8522.369999999999,-38485.305,-25085.52,-24827.175
1764510957.7597165,-6450.795,-39243.42,-31518.09,-8649.945,-8525.88,-38488.815,-25088.58,-24832.215
1764510957.8026645,-6446.565,-39237.255,-31511.745,-8643.645,-8519.67,-38482.56,-25083.855,-24829.2
1764510957.8026645,-6452.19,-39241.26,-31516.515,-8647.74,-8523.855,-38486.925,-25087.77,-24835.365
1764510957.8508215,-6450.57,-39238.02,-31513.455,-8644.095,-8519.175,-38483.775,-25085.52,-24834.015
1764510957.8508215,-6456.105,-39243.555,-31518.315,-8649.404999999999,-8524.619999999999,-38489.355,-25089.975,-24838.605
1764510957.8508215,-6458.625,-39244.545,-31519.395,-8650.305,-8526.24,-38490.435,-25091.1,-24841.395
1764510957.8508215,-6459.66,-39243.285,-31517.55,-8648.73,-8526.06,-38490.12,-25089.435,-24843.555
1764510957.8513513,-6460.965,-39240.405,-31514.445,-8647.065,-8525.115,-38486.61,-25088.265,-24843.825
1764510957.8513513,-6462.945,-39241.44,-31515.57,-8647.965,-8525.34,-38487.06,-25088.445,-24845.625
1764510957.8513513,-6465.24,-39243.69,-31517.73,-8650.44,-8527.005,-38489.895,-25088.67,-24846.975
1764510957.8513513,-6464.34,-39242.88,-31516.605,-8649.09,-8525.654999999999,-38489.67,-25087.41,-24847.155
1764510957.8513513,-6463.62,-39240.405,-31513.59,-8646.975,-8524.529999999999,-38486.79,-25085.88,-24846.39
1764510957.8513513,-6469.245,-39247.38,-31520.925,-8653.365,-8530.695,-38493.54,-25090.83,-24853.41
1764510957.8513513,-6466.23,-39238.785,-31512.465,-8646.255,-8523.09,-38484.855,-25084.98,-24847.875
1764510957.8513513,-6467.264999999999,-39240.27,-31514.715,-8647.065,-8524.125,-38487.015,-25085.07,-24850.71
1764510957.8513513,-6471.585,-39245.85,-31520.205,-8651.43,-8528.49,-38492.73,-25088.67,-24855.48
1764510957.8513513,-6467.49,-39240.09,-31514.175,-8644.59,-8522.414999999999,-38485.395,-25084.215,-24852.285
1764510957.8513513,-6468.615,-39239.145,-31512.015,-8644.365,-8521.74,-38484.045,-25083.9,-24852.015
1764510957.8513513,-6474.285,-39242.88,-31515.57,-8648.73,-8526.779999999999,-38487.915,-25087.32,-24856.47
1764510957.8513513,-6473.429999999999,-39240.99,-31513.14,-8646.84,-8524.845,-38486.655,-25085.475,-24855.93
1764510957.8513513,-6465.915,-39233.745,-31505.625,-8638.154999999999,-8516.205,-38479.905,-25077.735,-24849.495
1764510957.8513513,-6464.25,-39230.19,-31502.565,-8635.32,-8512.74,-38476.575,-25074.81,-24847.155
1764510957.8513513,-6472.8,-39237.84,-31510.35,-8643.105,-8521.11,-38484.0,-25081.83,-24854.085
1764510957.8513513,-6475.005,-39240.945,-31513.68,-8644.949999999999,-8523.315,-38487.015,-25082.145,-24856.38
1764510957.8513513,-6474.42,-39238.965,-31511.34,-8642.789999999999,-8520.705,-38485.08,-25080.435,-24855.66
1764510957.8513513,-6471.764999999999,-39230.865,-31503.24,-8635.815,-8514.72,-38476.53,-25074.18,-24850.215
1764510957.8513513,-6474.69,-39229.02,-31501.215,-8635.14,-8513.955,-38474.37,-25073.685,-24850.215
1764510957.8513513,-6481.935,-39237.885,-31509.765,-8642.88,-8521.83,-38483.37,-25079.58,-24856.605
1764510957.8513513,-6483.78,-39239.325,-31511.025,-8643.869999999999,-8522.01,-38484.99,-25078.905,-24857.82
1764510957.8513513,-6483.825,-39236.175,-31508.145,-8640.63,-8519.13,-38481.885,-25076.97,-24856.785
1764510957.8513513,-6480.0,-39231.09,-31502.745,-8635.095,-8513.505,-38476.665,-25071.615,-24852.195
1764510957.8513513,-6481.125,-39230.91,-31503.42,-8634.69,-8513.279999999999,-38476.71,-25071.39,-24852.375
1764510957.8513513,-6489.719999999999,-39239.145,-31510.98,-8642.88,-8521.289999999999,-38483.82,-25078.905,-24859.17
1764510957.8513513,-6490.755,-39239.235,-31510.395,-8643.015,-8520.975,-38483.595,-25080.12,-24859.71
1764510957.8513513,-6486.21,-39232.485,-31503.69,-8635.41,-8514.09,-38477.205,-25074.27,-24854.355
1764510957.8513513,-6485.535,-39231.36,-31502.475,-8634.824999999999,-8512.965,-38476.8,-25073.19,-24853.185
1764510957.8513513,-6492.15,-39234.195,-31504.635,-8638.38,-8517.105,-38479.14,-25077.69,-24857.415
1764510957.8513513,-6492.825,-39232.89,-31504.23,-8638.02,-8516.43,-38478.015,-25077.375,-24857.28
1764510957.8513513,-6489.27,-39229.605,-31501.26,-8635.14,-8512.65,-38475.135,-25074.81,-24854.04
1764510957.8513513,-6483.33,-39223.575,-31494.555,-8628.705,-8505.494999999999,-38468.745,-25068.285,-24847.875
1764510957.8513513,-6480.0,-39223.44,-31495.635,-8627.49,-8504.46,-38470.095,-25067.025,-24846.66
1764510957.8513513,-6479.82,-39219.885,-31490.865,-8624.52,-8502.164999999999,-38465.055,-25066.305,-24844.905
1764510957.8535233,-6481.62,-39222.855,-31494.6,-8626.949999999999,-8505.045,-38468.655,-25068.6,-24847.785
1764510957.8535233,-6486.57,-39230.055,-31502.43,-8633.699999999999,-8512.065,-38476.035,-25074.765,-24853.635
1764510957.8545125,-6485.67,-39232.44,-31505.04,-8635.635,-8513.505,-38478.6,-25076.565,-24853.815
1764510957.942045,-6483.42,-39230.64,-31503.69,-8633.744999999999,-8511.795,-38477.34,-25075.665,-24851.745
1764510957.942045,-6482.16,-39228.975,-31502.34,-8632.305,-8510.22,-38475.36,-25074.27,-24850.53
1764510957.942045,-6481.259999999999,-39227.805,-31500.81,-8630.279999999999,-8508.6,-38474.325,-25073.505,-24849.495
1764510957.942045,-6477.3,-39221.865,-31494.015,-8625.69,-8503.74,-38467.17,-25071.03,-24844.59
1764510957.942045,-6481.349999999999,-39226.86,-31497.795,-8630.145,-8508.465,-38471.085,-25074.495,-24847.155
1764510957.942045,-6475.275,-39222.54,-31493.61,-8625.015,-8503.02,-38466.45,-25069.5,-24842.61
1764510957.942045,-6474.15,-39221.73,-31493.565,-8623.395,-8502.029999999999,-38465.955,-25068.645,-24841.44
1764510957.942045,-6476.715,-39223.53,-31496.355,-8625.015,-8504.505,-38467.8,-25071.84,-24844.005
1764510957.943794,-6478.245,-39224.745,-31496.49,-8625.779999999999,-8506.305,-38467.755,-25073.235,-24844.59
1764510957.943794,-6482.745,-39229.11,-31500.405,-8629.965,-8510.445,-38472.345,-25077.375,-24847.695
1764510957.943794,-6479.46,-39224.97,-31496.085,-8625.555,-8506.44,-38468.43,-25073.685,-24844.77
1764510957.943794,-6484.094999999999,-39230.64,-31502.43,-8631.449999999999,-8511.705,-38475.09,-25077.51,-24849.405
1764510957.943794,-6482.79,-39227.94,-31499.505,-8628.255,-8508.33,-38471.4,-25075.305,-24847.245
1764510957.943794,-6486.21,-39233.025,-31504.275,-8632.755,-8513.279999999999,-38476.485,-25078.68,-24852.33
1764510957.943794,-6485.804999999999,-39233.835,-31504.59,-8632.395,-8513.235,-38477.475,-25078.005,-24852.465
1764510957.943794,-6478.65,-39224.43,-31495.59,-8623.17,-8503.92,-38468.25,-25069.77,-24844.68
1764510957.943794,-6477.255,-39224.295,-31494.78,-8622.225,-8502.93,-38466.765,-25067.7,-24845.085
1764510957.943794,-6481.71,-39229.965,-31500.495,-8627.985,-8508.195,-38472.39,-25072.695,-24850.035
1764510957.943794,-6487.29,-39233.925,-31503.285,-8632.664999999999,-8513.19,-38475.855,-25077.825,-24856.155
1764510957.943794,-6487.74,-39233.88,-31503.06,-8632.215,-8514.315,-38475.405,-25077.69,-24858.54
1764510957.943794,-6486.66,-39234.015,-31502.565,-8631.585,-8513.46,-38474.145,-25076.025,-24859.17
1764510957.943794,-6479.37,-39228.93,-31498.92,-8625.555,-8506.845,-38470.365,-25069.995,-24855.975
1764510957.943794,-6478.02,-39226.23,-31495.5,-8622.99,-8505.855,-38467.125,-25069.185,-24856.155
1764510957.943794,-6481.98,-39233.43,-31501.26,-8628.705,-8512.199999999999,-38472.93,-25074.495,-24862.095
1764510957.943794,-6482.52,-39234.645,-31501.44,-8629.244999999999,-8513.369999999999,-38473.38,-25076.07,-24864.12
1764510957.944811,-6479.009999999999,-39231.63,-31499.01,-8626.32,-8510.265,-38471.04,-25073.775,-24863.76
1764510957.944811,-6471.0,-39223.575,-31490.19,-8618.355,-8503.065,-38462.04,-25067.52,-24858.81
1764510957.944811,-6469.65,-39225.51,-31492.98,-8619.795,-8504.414999999999,-38464.83,-25069.23,-24860.34
1764510957.944811,-6466.32,-39225.42,-31492.8,-8620.244999999999,-8503.875,-38465.28,-25071.075,-24860.115
1764510957.944811,-6463.395,-39226.23,-31492.845,-8619.93,-8504.235,-38464.785,-25071.39,-24860.655
1764510957.944811,-6465.915,-39232.98,-31499.82,-8625.914999999999,-8511.39,-38471.85,-25077.87,-24864.975
1764510957.944811,-6465.014999999999,-39233.07,-31499.505,-8626.32,-8511.525,-38470.995,-25079.895,-24864.795
1764510957.944811,-6461.955,-39232.71,-31498.47,-8625.779999999999,-8509.68,-38469.915,-25079.265,-24863.58
1764510957.944811,-6457.815,-39230.37,-31496.76,-8623.845,-8507.925,-38467.98,-25078.005,-24861.015
1764510957.944811,-6452.054999999999,-39225.825,-31492.8,-8619.255,-8503.83,-38463.93,-25074.765,-24857.145
1764510957.944811,-6452.639999999999,-39227.31,-31494.915,-8621.1,-8505.18,-38465.865,-25076.835,-24858.945
1764510957.944811,-6445.62,-39220.155,-31487.355,-8615.34,-8498.385,-38457.855,-25072.155,-24854.04
1764510957.944811,-6448.545,-39223.08,-31490.37,-8619.255,-8502.615,-38460.78,-25076.07,-24858.945
1764510957.944811,-6442.56,-39221.01,-31490.055,-8616.869999999999,-8499.42,-38461.32,-25072.605,-24857.145
1764510957.944811,-6446.115,-39226.455,-31495.275,-8621.73,-8504.955,-38466.585,-25077.24,-24862.545
1764510957.944811,-6445.98,-39227.67,-31496.22,-8622.18,-8506.529999999999,-38467.215,-25078.41,-24864.705
1764510957.944811,-6443.415,-39225.105,-31493.88,-8620.154999999999,-8504.01,-38465.82,-25077.42,-24862.455
1764510957.944811,-6442.155,-39224.475,-31493.115,-8619.255,-8503.289999999999,-38465.37,-25077.645,-24860.97
1764510957.944811,-6441.389999999999,-39223.26,-31492.305,-8618.22,-8502.029999999999,-38464.785,-25076.115,-24859.89
1764510957.944811,-6436.17,-39217.59,-31487.49,-8612.955,-8497.44,-38459.835,-25071.57,-24854.715
1764510957.944811,-6434.82,-39216.555,-31486.545,-8611.695,-8496.404999999999,-38457.99,-25071.12,-24851.835
1764510957.945808,-6435.36,-39217.68,-31487.805,-8613.225,-8497.755,-38459.565,-25071.615,-24851.745
1764510957.945808,-6442.38,-39224.88,-31494.33,-8619.84,-8505.09,-38466.99,-25079.13,-24857.145
1764510957.989326,-6443.685,-39226.23,-31495.545,-8620.83,-8506.26,-38468.52,-25080.525,-24858.18
1764510957.989326,-6441.884999999999,-39224.115,-31493.97,-8620.11,-8504.82,-38466.63,-25079.67,-24855.57
1764510957.989326,-6435.9,-39217.995,-31488.39,-8614.305,-8499.24,-38461.365,-25075.53,-24849.315
1764510957.989326,-6436.935,-39220.155,-31490.145,-8616.285,-8501.085,-38463.21,-25077.15,-24849.855
1764510957.989326,-6442.469999999999,-39228.165,-31497.795,-8623.619999999999,-8508.195,-38469.915,-25083.405,-24855.885
1764510957.9905884,-6441.66,-39227.58,-31497.705,-8623.305,-8507.744999999999,-38470.23,-25083.855,-24854.58
1764510957.9905884,-6439.77,-39224.745,-31494.915,-8621.235,-8505.18,-38468.295,-25083.09,-24850.53
1764510957.9905884,-6433.92,-39215.475,-31485.69,-8613.449999999999,-8497.44,-38458.44,-25077.06,-24842.16
1764510957.9905884,-6432.255,-39213.99,-31483.89,-8612.865,-8497.08,-38456.145,-25075.71,-24840.0
1764510957.9905884,-6435.179999999999,-39219.975,-31489.74,-8617.095,-8501.085,-38461.77,-25079.04,-24841.935
1764510957.9905884,-6436.44,-39224.88,-31495.05,-8620.875,-8504.55,-38466.945,-25081.515,-24844.23
1764510957.9905884,-6440.985,-39230.865,-31501.62,-8626.86,-8511.615,-38473.38,-25086.645,-24849.54
1764510958.0405004,-6437.025,-39226.455,-31497.345,-8622.315,-8507.565,-38468.565,-25082.955,-24846.075
1764510958.0415156,-6436.53,-39226.905,-31497.39,-8622.18,-8507.34,-38468.25,-25082.91,-24845.49
1764510958.0415156,-6441.615,-39234.015,-31503.87,-8628.57,-8514.494999999999,-38475.495,-25087.905,-24850.44
1764510958.0415156,-6437.745,-39225.24,-31494.195,-8621.19,-8507.34,-38465.64,-25082.595,-24846.165
1764510958.0415156,-6438.825,-39225.735,-31494.96,-8621.82,-8508.69,-38465.82,-25081.38,-24846.795
1764510958.0415156,-6441.165,-39231.45,-31501.62,-8626.005,-8512.515,-38471.535,-25084.08,-24850.395
1764510958.0415156,-6436.844999999999,-39226.635,-31496.895,-8620.695,-8507.16,-38466.09,-25079.67,-24845.805
1764510958.0415156,-6443.19,-39233.295,-31503.42,-8627.13,-8513.64,-38472.57,-25085.745,-24850.53
1764510958.0415156,-6444.405,-39232.71,-31502.655,-8626.904999999999,-8512.83,-38472.345,-25085.295,-24850.17
1764510958.0415156,-6440.219999999999,-39225.96,-31495.23,-8621.19,-8506.98,-38465.28,-25080.03,-24844.545
1764510958.0415156,-6440.085,-39226.455,-31497.12,-8622.81,-8508.555,-38466.45,-25080.255,-24844.68
1764510958.0415156,-6444.495,-39230.505,-31500.585,-8626.275,-8512.065,-38469.915,-25083.36,-24849.045
1764510958.0415156,-6441.84,-39227.94,-31497.885,-8623.125,-8509.32,-38467.44,-25080.03,-24846.705
1764510958.0415156,-6447.69,-39233.34,-31503.78,-8628.885,-8515.125,-38473.605,-25084.44,-24852.195
1764510958.0415156,-6450.57,-39234.645,-31505.535,-8630.369999999999,-8516.34,-38475.405,-25085.205,-24852.87
1764510958.0415156,-6450.21,-39231.63,-31502.655,-8628.3,-8513.414999999999,-38472.615,-25083.045,-24851.43
1764510958.0415156,-6444.855,-39226.68,-31497.93,-8623.17,-8507.97,-38467.215,-25076.655,-24847.29
1764510958.0415156,-6447.645,-39226.815,-31498.11,-8623.619999999999,-8509.005,-38467.17,-25077.42,-24849.225
1764510958.0415156,-6451.425,-39229.695,-31500.765,-8625.779999999999,-8511.48,-38470.32,-25078.995,-24851.115
1764510958.0415156,-6458.13,-39235.905,-31507.425,-8631.99,-8518.005,-38477.88,-25084.62,-24857.595
1764510958.0858788,-6460.155,-39238.29,-31510.98,-8633.654999999999,-8519.22,-38480.76,-25085.655,-24858.405
1764510958.0858788,-6460.965,-39238.56,-31511.475,-8633.835,-8519.895,-38480.805,-25086.105,-24859.89
1764510958.0858788,-6462.315,-39239.28,-31512.555,-8634.779999999999,-8520.795,-38481.84,-25085.025,-24861.42
1764510958.0858788,-6461.28,-39232.125,-31504.545,-8628.255,-8514.855,-38473.65,-25080.39,-24856.92
1764510958.0858788,-6463.889999999999,-39232.08,-31503.915,-8629.065,-8515.935,-38473.38,-25081.2,-24857.145
1764510958.0858788,-6466.724999999999,-39237.21,-31510.17,-8632.664999999999,-8520.3,-38479.68,-25082.955,-24860.52
1764510958.0858788,-6466.094999999999,-39234.195,-31506.795,-8630.145,-8516.97,-38475.63,-25081.335,-24859.665
1764510958.0858788,-6468.525,-39233.97,-31506.03,-8630.73,-8517.6,-38475.045,-25082.865,-24861.24
1764510958.0858788,-6471.81,-39239.505,-31512.555,-8635.545,-8521.92,-38480.805,-25085.565,-24865.74
1764510958.0858788,-6469.02,-39233.835,-31506.885,-8630.73,-8516.744999999999,-38474.775,-25081.155,-24862.59
1764510958.0858788,-6470.37,-39236.355,-31509.315,-8632.529999999999,-8518.994999999999,-38478.105,-25081.155,-24864.3
1764510958.0858788,-6470.91,-39235.41,-31507.785,-8631.855,-8518.005,-38476.89,-25080.255,-24865.2
1764510958.0858788,-6471.36,-39235.05,-31508.46,-8631.81,-8517.33,-38476.845,-25080.57,-24865.11
1764510958.0858788,-6471.99,-39235.005,-31507.965,-8631.18,-8517.555,-38476.71,-25080.84,-24865.92
1764510958.0858788,-6473.115,-39234.105,-31507.065,-8630.46,-8517.105,-38476.575,-25079.445,-24866.46
1764510958.0858788,-6471.585,-39232.17,-31505.805,-8629.11,-8515.08,-38475.855,-25077.06,-24865.74
1764510958.0858788,-6469.65,-39232.53,-31505.94,-8629.02,-8514.72,-38475.81,-25076.565,-24866.235
1764510958.0858788,-6472.08,-39235.005,-31507.92,-8631.855,-8517.33,-38477.115,-25079.175,-24869.43
1764510958.0858788,-6474.509999999999,-39237.75,-31510.755,-8634.24,-8519.715,-38480.58,-25081.29,-24872.04
1764510958.0858788,-6469.965,-39232.125,-31505.49,-8627.94,-8513.865,-38475.63,-25078.095,-24866.82
1764510958.0858788,-6471.719999999999,-39230.01,-31503.195,-8626.86,-8512.92,-38472.705,-25076.745,-24866.28
1764510958.0858788,-6472.215,-39230.865,-31504.815,-8627.805,-8513.369999999999,-38474.91,-25076.07,-24866.955
1764510958.0858788,-6472.53,-39232.17,-31507.515,-8629.154999999999,-8514.045,-38476.8,-25077.78,-24868.44
1764510958.0858788,-6475.455,-39232.395,-31506.57,-8629.11,-8514.855,-38475.765,-25080.435,-24870.24
1764510958.0858788,-6472.8,-39229.02,-31502.34,-8625.69,-8512.154999999999,-38472.57,-25076.655,-24865.47
1764510958.0858788,-6471.045,-39227.85,-31501.17,-8624.34,-8510.49,-38472.165,-25074.54,-24863.85
1764510958.0858788,-6470.28,-39224.43,-31498.02,-8621.73,-8506.98,-38469.24,-25072.155,-24861.87
1764510958.0858788,-6473.384999999999,-39228.255,-31502.43,-8625.51,-8509.59,-38473.965,-25075.26,-24862.77
1764510958.0858788,-6474.105,-39227.94,-31501.89,-8625.105,-8509.455,-38472.57,-25075.395,-24861.78
1764510958.0858788,-6475.86,-39229.74,-31504.095,-8627.265,-8511.615,-38475.225,-25077.78,-24862.995
1764510958.087442,-6477.84,-39232.215,-31506.615,-8629.965,-8513.955,-38477.79,-25079.805,-24864.165
1764510958.087442,-6482.429999999999,-39236.76,-31511.295,-8634.285,-8518.545,-38482.155,-25084.35,-24868.08
1764510958.1304555,-6481.395,-39236.85,-31511.115,-8635.185,-8519.13,-38483.235,-25083.54,-24866.325
1764510958.1304555,-6476.49,-39232.08,-31507.335,-8630.369999999999,-8513.64,-38478.825,-25079.22,-24859.89
1764510958.1304555,-6480.0,-39236.04,-31511.25,-8632.845,-8517.15,-38481.93,-25082.955,-24862.41
1764510958.1319954,-6476.04,-39228.93,-31502.385,-8625.914999999999,-8510.67,-38473.29,-25078.095,-24855.39
1764510958.1319954,-6476.264999999999,-39227.22,-31499.595,-8625.824999999999,-8510.625,-38470.32,-25076.835,-24853.365
1764510958.1319954,-6476.895,-39234.6,-31508.64,-8632.664999999999,-8517.015,-38479.86,-25080.165,-24857.235
1764510958.1319954,-6479.82,-39238.11,-31512.105,-8635.904999999999,-8520.48,-38483.28,-25084.665,-24860.025
1764510958.1319954,-6480.134999999999,-39240.81,-31514.58,-8636.94,-8522.279999999999,-38485.62,-25085.655,-24861.69
1764510958.1330118,-6480.09,-39239.64,-31513.59,-8637.164999999999,-8522.324999999999,-38484.045,-25085.16,-24860.97
1764510958.1330118,-6475.094999999999,-39233.43,-31506.705,-8630.369999999999,-8515.215,-38477.295,-25080.03,-24855.39
1764510958.1330118,-6472.889999999999,-39233.07,-31505.715,-8628.57,-8513.145,-38476.89,-25078.86,-24852.96
1764510958.1330118,-6474.06,-39233.88,-31506.165,-8628.795,-8513.685,-38477.025,-25080.165,-24853.005
1764510958.1330118,-6475.185,-39235.005,-31507.695,-8630.685,-8515.755,-38477.61,-25081.695,-24852.825
1764510958.1340086,-6474.599999999999,-39233.97,-31508.055,-8633.654999999999,-8519.265,-38479.365,-25083.54,-24853.005
1764510958.1340086,-6466.77,-39229.065,-31507.02,-8631.09,-8516.565,-38478.015,-25079.4,-24846.84
1764510958.1340086,-6471.81,-39236.265,-31513.095,-8636.895,-8521.83,-38484.045,-25085.295,-24851.475
1764510958.1340086,-6469.065,-39233.97,-31510.035,-8633.835,-8518.275,-38480.265,-25082.235,-24848.505
1764510958.1340086,-6472.62,-39236.895,-31512.465,-8637.705,-8522.145,-38482.47,-25086.915,-24850.395
1764510958.1340086,-6471.27,-39237.48,-31512.915,-8638.56,-8522.91,-38483.19,-25087.905,-24849.045
1764510958.1340086,-6468.795,-39239.865,-31515.795,-8640.09,-8523.72,-38486.565,-25087.815,-24849.675
1764510958.1340086,-6467.759999999999,-39239.73,-31515.345,-8640.539999999999,-8523.99,-38487.105,-25088.22,-24850.17
1764510958.1350083,-6466.139999999999,-39238.605,-31512.735,-8638.244999999999,-8522.82,-38484.27,-25087.41,-24848.865
1764510958.1350083,-6462.495,-39234.87,-31509.315,-8634.33,-8519.625,-38479.86,-25083.855,-24845.22
1764510958.1350083,-6464.115,-39236.085,-31511.295,-8636.67,-8521.38,-38482.155,-25085.655,-24846.975
1764510958.1350083,-6459.03,-39230.37,-31505.04,-8631.315,-8515.71,-38476.305,-25081.155,-24843.375
1764510958.1350083,-6465.33,-39238.515,-31512.15,-8639.414999999999,-8523.675,-38483.37,-25088.355,-24849.54
1764510958.1350083,-6466.41,-39240.045,-31514.625,-8640.63,-8525.07,-38485.755,-25088.49,-24849.675
1764510958.1350083,-6462.54,-39234.195,-31509.495,-8634.779999999999,-8519.13,-38480.13,-25084.53,-24845.49
1764510958.179698,-6463.53,-39238.56,-31513.95,-8638.605,-8523.0,-38484.45,-25087.41,-24847.74
1764510958.180778,-6459.389999999999,-39233.79,-31508.64,-8633.115,-8517.6,-38479.365,-25082.055,-24843.735
1764510958.180778,-6461.415,-39235.005,-31510.53,-8634.96,-8518.32,-38480.76,-25081.83,-24845.355
1764510958.180778,-6469.469999999999,-39241.395,-31516.38,-8642.475,-8526.105,-38485.89,-25089.255,-24851.925
1764510958.180778,-6471.495,-39241.89,-31516.56,-8642.43,-8526.869999999999,-38485.935,-25090.245,-24854.355
1764510958.180778,-6469.155,-39240.045,-31515.93,-8639.955,-8524.08,-38484.675,-25087.905,-24854.22
1764510958.180778,-6464.429999999999,-39233.115,-31508.73,-8632.44,-8517.24,-38478.645,-25081.92,-24849.09
1764510958.180778,-6466.724999999999,-39232.62,-31508.505,-8632.215,-8517.33,-38478.105,-25081.515,-24851.34
1764510958.180778,-6467.94,-39230.325,-31505.715,-8631.0,-8515.755,-38475.27,-25081.245,-24851.97
1764510958.1817892,-6468.884999999999,-39233.79,-31509.495,-8633.205,-8518.365,-38479.68,-25082.145,-24854.49
1764510958.1817892,-6470.325,-39235.14,-31512.015,-8634.015,-8518.77,-38481.48,-25083.36,-24856.74
1764510958.1817892,-6472.035,-39236.76,-31513.86,-8636.13,-8519.805,-38482.92,-25083.9,-24858.315
1764510958.1817892,-6472.665,-39234.69,-31511.34,-8633.295,-8517.465,-38480.625,-25081.83,-24859.305
1764510958.1817892,-6479.505,-39239.775,-31515.615,-8637.795,-8522.01,-38484.99,-25085.385,-24865.11
1764510958.2277417,-6479.775,-39237.21,-31513.59,-8635.23,-8519.715,-38482.38,-25083.495,-24865.38
1764510958.2277417,-6473.025,-39228.93,-31505.31,-8627.039999999999,-8511.48,-38474.64,-25076.61,-24859.44
1764510958.2277417,-6469.74,-39225.105,-31501.08,-8624.07,-8507.789999999999,-38470.365,-25072.47,-24857.91
1764510958.2277417,-6471.945,-39226.05,-31500.405,-8626.365,-8510.039999999999,-38470.185,-25074.945,-24858.81
1764510958.2277417,-6474.42,-39228.795,-31502.97,-8628.57,-8513.01,-38472.165,-25075.98,-24860.115
1764510958.2277417,-6476.31,-39233.43,-31508.37,-8631.99,-8516.25,-38477.43,-25077.465,-24863.22
1764510958.2277417,-6479.415,-39235.41,-31510.935,-8634.869999999999,-8519.355,-38479.995,-25080.795,-24866.55
1764510958.2277417,-6474.33,-39230.82,-31507.515,-8629.83,-8514.945,-38475.945,-25075.935,-24863.535
1764510958.2277417,-6474.014999999999,-39228.39,-31503.915,-8627.94,-8513.505,-38473.155,-25075.53,-24863.13
1764510958.2277417,-6479.37,-39235.32,-31509.72,-8633.88,-8519.67,-38479.59,-25079.67,-24867.63
1764510958.2277417,-6475.815,-39231.945,-31506.705,-8630.235,-8515.619999999999,-38476.08,-25077.285,-24864.435
1764510958.2277417,-6472.98,-39230.235,-31505.895,-8629.199999999999,-8513.73,-38475.54,-25076.115,-24863.175
1764510958.2277417,-6472.98,-39230.28,-31505.445,-8629.289999999999,-8513.73,-38475.45,-25076.115,-24864.255
1764510958.2277417,-6481.575,-39238.83,-31513.59,-8637.074999999999,-8521.875,-38483.145,-25083.54,-24872.4
1764510958.2277417,-6483.33,-39240.27,-31515.615,-8638.02,-8523.27,-38485.89,-25084.89,-24872.805
1764510958.2286203,-6477.795,-39233.925,-31510.665,-8632.529999999999,-8517.645,-38481.12,-25081.155,-24867.585
1764510958.2286203,-6479.009999999999,-39237.39,-31513.23,-8634.914999999999,-8521.199999999999,-38483.145,-25084.665,-24871.23
1764510958.2286203,-6472.53,-39236.04,-31513.095,-8633.654999999999,-8518.59,-38480.985,-25083.045,-24870.78
1764510958.2286203,-6468.12,-39233.25,-31507.38,-8627.175,-8512.154999999999,-38475.315,-25078.05,-24864.705
1764510958.2286203,-6486.525,-39237.84,-31505.085,-8627.13,-8512.92,-38474.46,-25079.94,-24866.91
1764510958.2286203,-6495.389999999999,-39237.39,-31510.845,-8634.779999999999,-8523.045,-38484.405,-25087.32,-24872.31
1764510958.2286203,-6481.44,-39228.57,-31502.295,-8627.58,-8515.215,-38475.9,-25080.93,-24864.255
1764510958.2286203,-6479.505,-39225.105,-31499.055,-8624.205,-8510.625,-38472.75,-25077.105,-24861.42
1764510958.2286203,-6484.5,-39231.45,-31506.345,-8630.865,-8516.789999999999,-38480.04,-25083.0,-24866.82
1764510958.2286203,-6480.134999999999,-39227.49,-31501.845,-8626.545,-8512.83,-38476.44,-25078.995,-24862.005
1764510958.2286203,-6481.844999999999,-39228.435,-31503.33,-8628.119999999999,-8514.449999999999,-38476.89,-25081.2,-24862.095
1764510958.2286203,-6489.179999999999,-39234.195,-31508.505,-8633.52,-8520.164999999999,-38481.48,-25086.24,-24866.865
1764510958.2296166,-6488.775,-39238.02,-31512.915,-8635.365,-8521.56,-38486.295,-25086.915,-24867.405
1764510958.2296166,-6487.605,-39239.82,-31514.445,-8636.49,-8522.369999999999,-38487.735,-25088.715,-24868.71
1764510958.2296166,-6487.83,-39238.11,-31511.88,-8634.33,-8520.84,-38484.81,-25088.805,-24867.675
1764510958.2296166,-6485.04,-39233.475,-31506.975,-8629.605,-8516.565,-38479.995,-25084.44,-24864.03
1764510958.2296166,-6487.695,-39236.175,-31509.72,-8633.025,-8519.535,-38483.55,-25087.095,-24866.37
1764510958.2711833,-6483.78,-39235.365,-31508.505,-8631.945,-8518.23,-38482.875,-25085.025,-24862.77
1764510958.2711833,-6484.634999999999,-39239.1,-31511.97,-8634.555,-8521.65,-38485.8,-25087.5,-24865.02
1764510958.2711833,-6482.969999999999,-39237.57,-31510.44,-8634.195,-8520.66,-38485.08,-25086.87,-24862.995
1764510958.2711833,-6483.42,-39235.23,-31506.75,-8632.89,-8519.355,-38482.38,-25087.23,-24862.68
1764510958.2711833,-6487.11,-39239.28,-31510.44,-8637.57,-8523.81,-38485.98,-25091.19,-24865.695
1764510958.2711833,-6483.554999999999,-39236.22,-31508.01,-8634.105,-8519.76,-38483.28,-25087.545,-24861.015
1764510958.2711833,-6486.389999999999,-39241.44,-31513.545,-8638.74,-8524.845,-38488.995,-25091.64,-24864.39
1764510958.2711833,-6485.625,-39241.89,-31513.545,-8638.56,-8524.98,-38489.805,-25092.63,-24863.355
1764510958.2711833,-6480.764999999999,-39236.715,-31508.37,-8633.205,-8519.76,-38483.955,-25087.14,-24856.11
1764510958.2711833,-6483.195,-39238.83,-31511.34,-8635.77,-8522.235,-38486.07,-25088.58,-24856.335
1764510958.2711833,-6478.38,-39231.675,-31503.42,-8629.065,-8514.9,-38477.88,-25083.495,-24848.73
1764510958.2711833,-6483.105,-39238.02,-31510.035,-8634.465,-8520.93,-38484.0,-25087.545,-24851.115
1764510958.2711833,-6480.45,-39235.095,-31506.93,-8630.955,-8518.095,-38480.535,-25083.855,-24846.255
1764510958.2711833,-6484.545,-39240.27,-31511.52,-8636.085,-8522.775,-38485.44,-25087.23,-24848.73
1764510958.2711833,-6483.105,-39239.685,-31511.385,-8635.59,-8521.154999999999,-38484.945,-25086.915,-24845.625
1764510958.2711833,-6478.605,-39235.005,-31506.57,-8629.74,-8515.395,-38480.715,-25082.1,-24840.315
1764510958.2711833,-6482.565,-39240.72,-31511.16,-8633.34,-8519.805,-38485.53,-25085.79,-24843.105
1764510958.2711833,-6483.465,-39242.835,-31512.825,-8635.365,-8521.515,-38487.285,-25087.635,-24843.105
1764510958.2711833,-6482.655,-39242.07,-31512.69,-8634.779999999999,-8521.56,-38486.925,-25088.085,-24841.755
1764510958.2711833,-6479.55,-39238.695,-31508.685,-8631.0,-8517.555,-38482.515,-25085.115,-24837.48
1764510958.2711833,-6474.465,-39231.225,-31500.495,-8623.35,-8510.31,-38475.54,-25078.905,-24831.045
1764510958.2711833,-6476.849999999999,-39234.24,-31504.005,-8626.455,-8513.505,-38478.645,-25081.425,-24833.115
1764510958.2711833,-6481.215,-39239.91,-31509.135,-8632.17,-8518.23,-38483.64,-25085.295,-24838.38
1764510958.2711833,-6480.179999999999,-39238.065,-31506.705,-8630.279999999999,-8516.43,-38481.255,-25084.08,-24837.39
1764510958.2711833,-6473.205,-39231.045,-31500.27,-8623.89,-8509.41,-38474.595,-25078.545,-24831.63
1764510958.2711833,-6472.44,-39228.615,-31497.48,-8622.585,-8508.33,-38471.49,-25077.87,-24830.775
1764510958.3201528,-6473.565,-39231.495,-31500.495,-8624.385,-8509.994999999999,-38474.82,-25079.175,-24832.98
1764510958.3201528,-6475.59,-39234.015,-31502.655,-8626.59,-8512.65,-38477.43,-25082.955,-24837.75
1764510958.3642852,-6472.035,-39228.57,-31496.805,-8622.225,-8507.835,-38472.48,-25077.645,-24833.925
1764510958.3642852,-6471.0,-39227.985,-31495.77,-8621.01,-8506.89,-38471.13,-25076.835,-24833.34
1764510958.3642852,-6471.179999999999,-39226.86,-31494.96,-8619.66,-8505.9,-38469.6,-25076.295,-24832.62
1764510958.3642852,-6474.33,-39226.05,-31492.98,-8619.48,-8506.125,-38467.575,-25077.735,-24833.25
1764510958.3642852,-6475.365,-39228.57,-31495.5,-8622.09,-8507.475,-38471.04,-25077.42,-24834.69
1764510958.3642852,-6474.509999999999,-39230.73,-31498.47,-8623.619999999999,-8509.59,-38473.245,-25078.275,-24835.455
1764510958.3642852,-6476.219999999999,-39231.99,-31499.145,-8624.699999999999,-8510.805,-38473.875,-25079.31,-24835.995
1764510958.3642852,-6483.24,-39238.965,-31506.48,-8632.44,-8518.23,-38480.895,-25084.485,-24842.295
1764510958.3642852,-6484.05,-39241.26,-31509.63,-8633.699999999999,-8519.58,-38483.37,-25086.33,-24844.05
1764510958.3642852,-6482.88,-39238.245,-31505.31,-8630.64,-8517.15,-38479.68,-25084.665,-24842.565
1764510958.3642852,-6478.245,-39233.295,-31499.595,-8625.645,-8512.244999999999,-38474.19,-25078.5,-24838.245
1764510958.368063,-6480.63,-39234.195,-31501.395,-8627.22,-8514.404999999999,-38475.09,-25081.245,-24840.54
1764510958.368063,-6475.77,-39227.625,-31495.32,-8620.695,-8508.06,-38468.565,-25075.215,-24835.86
1764510958.368063,-6476.895,-39229.2,-31497.345,-8622.09,-8509.32,-38470.5,-25075.755,-24837.795
1764510958.368063,-6478.29,-39229.965,-31499.325,-8623.89,-8510.445,-38471.445,-25077.51,-24839.595
1764510958.368063,-6483.69,-39237.03,-31506.525,-8629.965,-8517.42,-38478.69,-25083.0,-24844.86
1764510958.368063,-6483.195,-39236.22,-31505.445,-8628.345,-8516.88,-38478.375,-25082.19,-24844.365
1764510958.368063,-6478.74,-39230.64,-31500.18,-8623.529999999999,-8511.39,-38473.2,-25077.24,-24840.495
1764510958.368063,-6484.094999999999,-39236.22,-31505.265,-8629.02,-8517.465,-38478.15,-25081.605,-24845.535
1764510958.368063,-6485.31,-39237.975,-31507.425,-8630.91,-8519.67,-38480.265,-25082.415,-24847.425
1764510958.368063,-6484.05,-39237.57,-31508.46,-8630.91,-8519.715,-38480.715,-25082.145,-24847.065
1764510958.368063,-6484.05,-39233.205,-31502.07,-8626.994999999999,-8517.015,-38474.775,-25079.85,-24845.22
1764510958.3685143,-6477.615,-39228.885,-31498.245,-8621.055,-8511.074999999999,-38471.04,-25073.595,-24841.89
1764510958.3685143,-6479.775,-39231.18,-31500.495,-8622.63,-8512.92,-38473.425,-25074.72,-24844.68
1764510958.3685143,-6482.295,-39232.125,-31502.385,-8625.51,-8514.675,-38475.495,-25075.665,-24846.03
1764510958.3685143,-6483.33,-39232.8,-31503.645,-8626.77,-8515.755,-38475.945,-25075.755,-24848.145
1764510958.3685143,-6485.355,-39235.23,-31505.85,-8628.345,-8517.824999999999,-38478.285,-25076.925,-24851.655
1764510958.3685143,-6493.679999999999,-39240.99,-31510.89,-8633.97,-8524.215,-38482.785,-25082.55,-24858.36
1764510958.3685143,-6493.77,-39241.305,-31511.97,-8633.565,-8523.99,-38483.73,-25081.56,-24860.07
1764510958.3685143,-6489.719999999999,-39234.195,-31504.815,-8626.994999999999,-8516.385,-38477.34,-25075.395,-24855.795
1764510958.3685143,-6491.115,-39235.32,-31506.705,-8627.67,-8517.195,-38479.545,-25074.495,-24856.74
1764510958.3695257,-6496.11,-39236.715,-31506.975,-8629.605,-8519.085,-38479.095,-25077.285,-24860.295
1764510958.3695257,-6494.355,-39232.755,-31502.565,-8625.465,-8515.305,-38474.055,-25072.38,-24856.425
1764510958.3695257,-6502.455,-39240.855,-31510.305,-8633.25,-8523.99,-38481.93,-25078.095,-24863.715
1764510958.3695257,-6503.759999999999,-39243.69,-31513.86,-8635.14,-8525.475,-38485.89,-25079.04,-24865.92
1764510958.3695257,-6503.085,-39240.855,-31511.97,-8632.125,-8522.82,-38483.685,-25076.205,-24865.155
1764510958.4135256,-6499.44,-39236.67,-31508.055,-8628.074999999999,-8518.32,-38479.59,-25071.255,-24861.465
1764510958.4135256,-6506.325,-39244.545,-31515.165,-8635.725,-8527.005,-38486.655,-25078.185,-24867.405
1764510958.4135256,-6509.205,-39249.99,-31521.15,-8640.855,-8530.92,-38492.73,-25080.93,-24870.465
1764510958.4135256,-6510.014999999999,-39247.92,-31518.405,-8639.145,-8528.715,-38490.615,-25080.57,-24870.285
1764510958.4135256,-6511.77,-39245.625,-31516.29,-8637.885,-8527.545,-38487.87,-25080.165,-24870.69
1764510958.4135256,-6512.67,-39244.995,-31515.48,-8636.895,-8526.69,-38486.61,-25078.68,-24869.97
1764510958.4135256,-6506.37,-39239.82,-31510.395,-8631.449999999999,-8520.119999999999,-38481.975,-25072.605,-24864.885
1764510958.4135256,-6509.025,-39241.26,-31511.97,-8632.89,-8522.055,-38484.45,-25073.955,-24866.55
1764510958.4135256,-6512.94,-39246.255,-31517.01,-8637.345,-8526.69,-38489.85,-25077.375,-24869.835
1764510958.4135256,-6510.285,-39243.015,-31513.5,-8634.42,-8523.18,-38486.79,-25074.27,-24867.27
1764510958.4135256,-6514.56,-39246.255,-31515.48,-8637.885,-8526.555,-38489.445,-25078.14,-24869.295
1764510958.4135256,-6512.13,-39244.41,-31513.725,-8635.815,-8524.619999999999,-38487.33,-25075.35,-24866.955
1764510958.4152758,-6516.045,-39247.065,-31517.595,-8639.055,-8526.869999999999,-38490.57,-25078.59,-24870.51
1764510958.4152758,-6517.44,-39249.27,-31519.305,-8640.81,-8528.67,-38492.37,-25080.12,-24871.095
1764510958.4152758,-6515.19,-39245.805,-31515.705,-8636.85,-8525.43,-38489.49,-25076.52,-24867.0
1764510958.4152758,-6518.745,-39246.705,-31516.02,-8637.885,-8527.365,-38490.165,-25078.41,-24868.44
1764510958.4162853,-6512.49,-39241.845,-31511.79,-8632.8,-8521.74,-38485.665,-25073.055,-24862.5
1764510958.4162853,-6510.69,-39236.76,-31506.525,-8628.93,-8517.869999999999,-38479.815,-25071.3,-24860.115
1764510958.4162853,-6511.95,-39237.48,-31507.92,-8629.92,-8518.77,-38480.76,-25070.85,-24860.52
1764510958.4162853,-6516.63,-39246.03,-31516.875,-8636.715,-8525.34,-38490.66,-25076.79,-24865.515
1764510958.4162853,-6514.785,-39242.655,-31513.905,-8633.88,-8522.369999999999,-38487.42,-25075.305,-24861.78
1764510958.4172852,-6519.33,-39243.51,-31513.59,-8636.445,-8524.529999999999,-38487.24,-25077.69,-24862.815
1764510958.4172852,-6515.28,-39241.845,-31512.78,-8634.375,-8522.145,-38486.385,-25074.945,-24859.08
1764510958.4172852,-6518.025,-39242.07,-31512.87,-8634.69,-8522.91,-38486.16,-25077.87,-24858.99
1764510958.4172852,-6513.84,-39238.47,-31509.045,-8629.289999999999,-8518.185,-38482.29,-25073.235,-24854.58
1764510958.4172852,-6511.455,-39238.515,-31509.18,-8628.705,-8517.015,-38483.325,-25071.12,-24851.88
1764510958.4184053,-6511.59,-39237.615,-31508.73,-8628.615,-8515.98,-38482.515,-25070.625,-24850.8
1764510958.4184053,-6515.28,-39239.73,-31511.385,-8632.44,-8519.4,-38484.945,-25073.145,-24852.69
1764510958.4184053,-6516.99,-39240.63,-31512.015,-8632.664999999999,-8520.029999999999,-38484.63,-25072.965,-24852.195
1764510958.4184053,-6519.06,-39243.33,-31514.04,-8634.33,-8522.235,-38487.015,-25074.27,-24853.68
1764510958.4627938,-6523.83,-39246.39,-31517.415,-8637.57,-8525.295,-38491.02,-25077.105,-24857.37
1764510958.4627938,-6520.139999999999,-39239.865,-31510.71,-8630.369999999999,-8518.23,-38484.495,-25072.245,-24852.33
1764510958.4627938,-6520.59,-39238.83,-31509.315,-8629.065,-8516.97,-38482.965,-25070.535,-24850.98
1764510958.4627938,-6523.38,-39235.995,-31505.94,-8627.715,-8515.89,-38480.445,-25070.13,-24850.53
1764510958.4627938,-6524.955,-39236.355,-31505.985,-8627.49,-8515.845,-38479.68,-25068.375,-24851.205
1764510958.4627938,-6525.315,-39236.94,-31506.525,-8626.815,-8514.9,-38480.265,-25067.835,-24851.565
1764510958.4627938,-6530.219999999999,-39239.64,-31508.82,-8629.289999999999,-8517.869999999999,-38483.19,-25070.175,-24854.265
1764510958.4627938,-6540.12,-39248.955,-31517.955,-8639.369999999999,-8527.545,-38492.505,-25078.59,-24862.545
1764510958.4627938,-6542.145,-39248.01,-31516.965,-8638.605,-8526.779999999999,-38491.38,-25077.915,-24863.49
1764510958.4627938,-6540.57,-39244.185,-31513.545,-8635.275,-8523.494999999999,-38488.365,-25074.81,-24862.23
1764510958.4627938,-6535.889999999999,-39235.815,-31505.265,-8626.41,-8515.17,-38479.32,-25069.32,-24855.93
1764510958.4627938,-6536.295,-39236.49,-31506.03,-8626.77,-8514.72,-38480.58,-25067.88,-24855.48
1764510958.4627938,-6539.13,-39237.48,-31506.705,-8627.895,-8515.755,-38481.165,-25068.645,-24857.145
1764510958.4627938,-6541.965,-39238.47,-31507.74,-8629.289999999999,-8517.33,-38483.415,-25069.725,-24859.53
1764510958.4627938,-6547.139999999999,-39244.59,-31513.59,-8634.824999999999,-8523.494999999999,-38490.66,-25074.045,-24863.985
1764510958.4627938,-6543.224999999999,-39239.64,-31508.325,-8629.47,-8517.555,-38484.765,-25069.14,-24859.44
1764510958.4627938,-6543.9,-39239.1,-31508.055,-8628.345,-8516.744999999999,-38484.135,-25067.925,-24859.08
1764510958.4627938,-6547.094999999999,-39241.575,-31510.485,-8631.135,-8518.77,-38486.43,-25070.13,-24862.14
1764510958.4627938,-6547.77,-39241.575,-31509.315,-8631.18,-8518.365,-38487.195,-25070.04,-24861.78
1764510958.4627938,-6549.84,-39242.925,-31510.44,-8632.17,-8519.49,-38488.275,-25070.94,-24862.725
1764510958.4627938,-6553.395,-39245.625,-31512.96,-8634.285,-8521.785,-38491.56,-25072.47,-24865.56
1764510958.4627938,-6559.245,-39250.44,-31517.28,-8638.605,-8526.24,-38495.565,-25075.755,-24869.385
1764510958.5073235,-6557.94,-39247.695,-31514.04,-8635.815,-8523.045,-38492.28,-25072.92,-24866.28
1764510958.5073235,-6562.17,-39248.955,-31515.255,-8637.84,-8525.654999999999,-38493.63,-25076.34,-24870.33
1764510958.5073235,-6557.625,-39244.005,-31511.385,-8632.89,-8520.885,-38489.22,-25071.93,-24867.09
1764510958.5083408,-6557.04,-39243.06,-31511.025,-8631.539999999999,-8519.085,-38488.86,-25070.22,-24866.145
1764510958.5519986,-6557.895,-39243.105,-31510.755,-8631.855,-8518.275,-38489.04,-25070.31,-24865.155
1764510958.5519986,-6564.599999999999,-39249.18,-31516.47,-8638.74,-8524.35,-38495.205,-25076.745,-24872.04
1764510958.5519986,-6565.23,-39246.795,-31513.185,-8637.255,-8524.08,-38492.37,-25076.07,-24871.905
1764510958.5519986,-6561.63,-39244.5,-31513.005,-8635.005,-8521.83,-38490.75,-25072.47,-24868.845
1764510958.5519986,-6565.41,-39247.38,-31516.02,-8638.199999999999,-8524.845,-38493.675,-25074.99,-24872.04
1764510958.5519986,-6565.094999999999,-39245.4,-31514.265,-8636.265,-8523.045,-38492.28,-25072.65,-24870.87
1764510958.5519986,-6560.325,-39236.715,-31504.41,-8628.525,-8515.26,-38482.965,-25066.575,-24865.155
1764510958.5519986,-6560.775,-39239.82,-31506.795,-8630.279999999999,-8517.105,-38485.53,-25068.195,-24865.875
1764510958.5519986,-6567.48,-39244.14,-31510.71,-8635.275,-8522.46,-38488.59,-25073.1,-24870.24
1764510958.5519986,-6565.139999999999,-39242.97,-31510.71,-8634.195,-8520.3,-38488.905,-25070.895,-24869.34
1764510958.5519986,-6555.24,-39236.895,-31505.445,-8626.725,-8511.795,-38483.37,-25062.885,-24862.365
1764510958.5519986,-6558.21,-39239.505,-31506.705,-8629.425,-8515.35,-38484.09,-25066.755,-24864.03
1764510958.5519986,-6563.429999999999,-39243.15,-31508.73,-8632.529999999999,-8519.355,-38485.98,-25071.39,-24866.775
1764510958.5519986,-6560.054999999999,-39238.56,-31505.58,-8629.065,-8515.17,-38482.425,-25066.17,-24862.005
1764510958.5519986,-6562.62,-39243.87,-31511.34,-8632.98,-8519.265,-38487.87,-25069.995,-24864.615
1764510958.5519986,-6562.889999999999,-39244.995,-31512.24,-8633.43,-8519.085,-38489.85,-25070.445,-24864.075
1764510958.5519986,-6562.08,-39243.6,-31510.17,-8632.035,-8518.545,-38487.69,-25068.915,-24863.13
1764510958.5547638,-6561.09,-39244.59,-31511.385,-8632.89,-8518.904999999999,-38488.32,-25068.015,-24862.68
1764510958.5547638,-6556.995,-39238.335,-31504.95,-8627.4,-8513.279999999999,-38482.695,-25063.38,-24856.965
1764510958.5547638,-6555.87,-39236.265,-31502.79,-8625.06,-8511.975,-38479.545,-25061.49,-24854.22
1764510958.5547638,-6554.79,-39234.51,-31500.63,-8623.89,-8510.67,-38477.655,-25061.94,-24852.195
1764510958.5547638,-6557.895,-39237.525,-31503.645,-8626.949999999999,-8513.595,-38481.48,-25065.54,-24854.175
1764510958.5547638,-6564.06,-39244.05,-31510.98,-8633.205,-8520.525,-38487.96,-25071.21,-24859.35
1764510958.5547638,-6564.24,-39243.285,-31510.665,-8632.305,-8519.13,-38486.475,-25070.445,-24858.945
1764510958.5547638,-6558.525,-39239.01,-31507.02,-8627.985,-8514.225,-38482.965,-25065.405,-24853.095
1764510958.5547638,-6562.44,-39242.475,-31509.81,-8631.18,-8518.77,-38485.8,-25069.185,-24855.975
1764510958.5547638,-6562.53,-39242.835,-31511.115,-8631.9,-8518.545,-38487.645,-25069.635,-24856.785
1764510958.5547638,-6561.764999999999,-39239.055,-31507.47,-8629.92,-8515.755,-38484.135,-25067.25,-24855.48
1764510958.5547638,-6559.83,-39237.615,-31505.985,-8628.21,-8514.63,-38482.38,-25065.495,-24853.41
1764510958.5547638,-6554.07,-39230.73,-31498.875,-8621.775,-8507.97,-38475.18,-25059.195,-24847.785
1764510958.5547638,-6554.34,-39234.465,-31504.05,-8625.015,-8510.085,-38480.355,-25059.96,-24849.315
1764510958.5547638,-6562.44,-39244.815,-31515.03,-8634.645,-8520.705,-38490.84,-25068.555,-24857.37
1764510958.5547638,-6562.304999999999,-39244.95,-31515.3,-8634.375,-8521.02,-38491.65,-25067.79,-24857.01
1764510958.5547638,-6556.094999999999,-39238.74,-31507.965,-8628.164999999999,-8514.404999999999,-38485.305,-25062.615,-24851.925
1764510958.5547638,-6556.545,-39238.965,-31507.92,-8628.615,-8515.125,-38485.755,-25061.805,-24851.52
1764510958.5547638,-6561.045,-39242.475,-31510.71,-8632.619999999999,-8518.005,-38488.545,-25064.19,-24853.815
1764510958.5547638,-6556.724999999999,-39237.435,-31506.93,-8627.805,-8513.1,-38484.225,-25059.96,-24848.955
1764510958.5547638,-6561.945,-39243.195,-31513.23,-8633.789999999999,-8518.77,-38490.48,-25065.18,-24853.815
1764510958.5547638,-6563.115,-39244.095,-31514.355,-8635.185,-8519.49,-38491.155,-25066.53,-24854.445
1764510958.5547638,-6560.82,-39240.225,-31510.71,-8632.485,-8516.52,-38487.915,-25063.695,-24851.61
1764510958.5547638,-6555.06,-39234.105,-31505.175,-8625.96,-8509.68,-38481.84,-25058.025,-24845.49
1764510958.5547638,-6555.69,-39235.68,-31506.84,-8627.22,-8511.48,-38483.415,-25059.33,-24847.155
1764510958.5547638,-6558.12,-39238.56,-31509.63,-8630.73,-8513.685,-38486.07,-25061.04,-24849.27
1764510958.5547638,-6562.665,-39244.14,-31514.805,-8636.625,-8519.22,-38491.515,-25065.045,-24854.175
1764510958.5547638,-6559.785,-39241.125,-31512.33,-8634.69,-8517.555,-38489.49,-25062.975,-24851.97
1764510958.5547638,-6562.349999999999,-39243.87,-31515.84,-8638.065,-8521.244999999999,-38492.64,-25065.585,-24855.615
1764510958.5547638,-6559.29,-39239.82,-31511.97,-8633.97,-8516.565,-38488.905,-25061.76,-24853.005
1764510958.5557704,-6563.07,-39243.645,-31515.39,-8638.74,-8520.119999999999,-38493.09,-25065.63,-24857.325
1764510958.6032095,-6563.565,-39245.94,-31518.0,-8641.529999999999,-8522.505,-38495.61,-25068.105,-24858.675
1764510958.6129951,-6561.09,-39242.88,-31514.355,-8637.975,-8519.58,-38492.505,-25065.315,-24855.705
1764510958.6129951,-6555.69,-39237.75,-31508.055,-8631.09,-8513.055,-38486.655,-25058.79,-24850.98
1764510958.6129951,-6558.929999999999,-39243.87,-31513.59,-8636.94,-8519.175,-38491.515,-25064.325,-24856.56
1764510958.6139965,-6556.5,-39239.82,-31509.405,-8632.755,-8515.664999999999,-38487.51,-25060.455,-24853.995
1764510958.6139965,-6557.219999999999,-39241.035,-31509.945,-8633.295,-8515.89,-38487.78,-25061.445,-24854.355
1764510958.6139965,-6561.495,-39246.435,-31515.615,-8639.01,-8521.47,-38493.36,-25066.665,-24859.215
1764510958.6139965,-6561.99,-39246.03,-31515.93,-8638.83,-8520.975,-38492.775,-25066.665,-24860.205
1764510958.6149898,-6562.08,-39245.4,-31514.67,-8638.38,-8520.029999999999,-38492.19,-25065.495,-24859.755
1764510958.6149898,-6560.91,-39245.175,-31513.68,-8637.39,-8519.67,-38491.29,-25064.775,-24860.475
1764510958.6149898,-6561.405,-39244.905,-31513.77,-8636.67,-8519.4,-38490.795,-25064.55,-24861.645
1764510958.6159968,-6560.415,-39243.24,-31511.7,-8634.869999999999,-8518.005,-38489.355,-25063.29,-24860.52
1764510958.6159968,-6555.554999999999,-39238.38,-31506.255,-8629.199999999999,-8512.83,-38483.73,-25057.89,-24855.975
1764510958.6159968,-6557.445,-39240.72,-31507.83,-8631.135,-8514.18,-38485.935,-25060.545,-24859.35
1764510958.6159968,-6561.315,-39245.58,-31513.545,-8636.445,-8519.13,-38491.38,-25064.955,-24864.3
1764510958.616995,-6557.04,-39240.54,-31509.045,-8630.955,-8514.449999999999,-38486.205,-25061.58,-24861.24
1764510958.616995,-6556.995,-39239.775,-31506.93,-8629.92,-8512.92,-38485.17,-25061.4,-24861.915
1764510958.616995,-6558.929999999999,-39241.395,-31508.055,-8631.045,-8514.045,-38486.07,-25062.795,-24864.435
1764510958.616995,-6564.014999999999,-39247.155,-31513.545,-8636.67,-8519.715,-38491.695,-25068.42,-24870.15
1764510958.6176543,-6564.465,-39245.58,-31510.71,-8634.914999999999,-8519.355,-38489.355,-25068.195,-24871.23
1764510958.6176543,-6558.705,-39238.245,-31502.34,-8626.949999999999,-8512.785,-38480.94,-25062.435,-24866.01
1764510958.6176543,-6558.57,-39236.895,-31500.72,-8625.015,-8511.345,-38479.905,-25061.22,-24866.19
1764510958.6176543,-6559.29,-39241.08,-31504.815,-8626.949999999999,-8513.955,-38484.225,-25061.265,-24867.99
1764510958.6176543,-6562.035,-39243.15,-31506.165,-8628.164999999999,-8515.529999999999,-38486.34,-25064.145,-24869.43
1764510958.6463208,-6562.62,-39242.565,-31505.355,-8627.895,-8515.125,-38485.755,-25064.37,-24869.295
1764510958.6463208,-6565.365,-39243.24,-31506.12,-8629.02,-8515.529999999999,-38486.52,-25064.73,-24871.185
1764510958.6473374,-6569.91,-39247.29,-31509.54,-8632.35,-8518.904999999999,-38490.795,-25068.78,-24875.235
1764510958.6473374,-6571.53,-39247.875,-31509.495,-8632.529999999999,-8519.175,-38490.705,-25069.905,-24875.595
1764510958.6473374,-6573.69,-39250.26,-31511.115,-8634.105,-8521.47,-38492.55,-25071.975,-24877.62
1764510958.6473374,-6573.78,-39249.315,-31509.18,-8632.664999999999,-8520.074999999999,-38491.2,-25071.48,-24877.44
1764510958.6473374,-6568.74,-39241.71,-31501.575,-8625.33,-8512.154999999999,-38484.54,-25065.315,-24871.59
1764510958.6473374,-6570.179999999999,-39238.74,-31497.03,-8622.315,-8510.67,-38480.4,-25064.415,-24870.78
1764510958.6473374,-6571.844999999999,-39241.215,-31500.0,-8624.34,-8512.695,-38483.595,-25064.37,-24871.365
1764510958.6473374,-6575.759999999999,-39245.085,-31505.355,-8628.164999999999,-8516.925,-38488.68,-25067.655,-24874.56
1764510958.6473374,-6582.78,-39248.46,-31506.66,-8631.72,-8521.199999999999,-38489.895,-25071.12,-24878.745
1764510958.648494,-6579.405,-39244.995,-31501.53,-8627.85,-8516.565,-38486.07,-25065.99,-24875.235
1764510958.648494,-6583.545,-39249.81,-31507.29,-8632.664999999999,-8520.435,-38491.515,-25069.32,-24878.205
1764510958.648494,-6584.985,-39249.72,-31507.515,-8631.765,-8519.895,-38491.335,-25069.995,-24878.565
1764510958.648494,-6585.03,-39249.63,-31507.56,-8631.404999999999,-8519.985,-38490.75,-25070.58,-24878.565
1764510958.6499867,-6585.615,-39252.78,-31511.295,-8633.835,-8522.19,-38493.72,-25072.74,-24880.815
1764510958.6499867,-6587.415,-39254.355,-31511.97,-8634.645,-8523.09,-38495.565,-25074.18,-24881.445
1764510958.6499867,-6586.38,-39252.24,-31509.945,-8632.8,-8521.02,-38493.855,-25073.28,-24878.52
1764510958.6499867,-6579.945,-39244.995,-31503.015,-8626.05,-8514.225,-38486.475,-25066.755,-24871.725
1764510958.6499867,-6582.24,-39248.19,-31506.39,-8629.56,-8517.96,-38488.995,-25068.87,-24872.49
1764510958.6499867,-6587.505,-39254.76,-31513.05,-8636.22,-8524.035,-38495.07,-25073.865,-24876.27
1764510958.6499867,-6582.915,-39247.92,-31506.345,-8629.92,-8517.33,-38489.4,-25069.455,-24870.195
1764510958.6940465,-6581.429999999999,-39248.145,-31506.255,-8629.38,-8517.375,-38489.175,-25069.05,-24868.845
1764510958.6940465,-6585.705,-39253.725,-31511.79,-8634.914999999999,-8522.505,-38494.215,-25074.405,-24872.265
1764510958.6950405,-6586.469999999999,-39254.13,-31512.375,-8635.23,-8523.045,-38494.98,-25074.945,-24871.59
1764510958.6950405,-6584.219999999999,-39252.105,-31509.54,-8632.35,-8520.39,-38493.09,-25072.965,-24868.845
1764510958.6950405,-6579.54,-39246.57,-31504.365,-8626.005,-8514.494999999999,-38487.105,-25067.745,-24862.86
1764510958.6950405,-6581.79,-39249.225,-31507.74,-8629.289999999999,-8517.195,-38489.535,-25070.4,-24863.715
1764510958.6950405,-6577.83,-39246.03,-31504.095,-8625.735,-8512.515,-38485.71,-25066.98,-24859.35
1764510958.6950405,-6582.87,-39252.465,-31509.855,-8631.63,-8518.68,-38492.28,-25072.155,-24863.67
1764510958.6950405,-6578.009999999999,-39246.615,-31504.86,-8626.14,-8514.135,-38487.6,-25068.105,-24857.865
1764510958.6950405,-6577.469999999999,-39242.97,-31500.54,-8624.115,-8512.875,-38483.46,-25066.98,-24856.29
1764510958.6950405,-6582.645,-39247.47,-31504.455,-8629.875,-8518.005,-38487.555,-25070.355,-24859.44
1764510958.6950405,-6577.875,-39245.535,-31503.915,-8627.085,-8515.035,-38485.89,-25066.71,-24857.415
1764510958.6950405,-6579.495,-39245.76,-31502.97,-8627.49,-8515.755,-38485.125,-25066.8,-24856.92
1764510958.6950405,-6585.03,-39251.655,-31509.09,-8634.33,-8522.64,-38490.705,-25072.155,-24862.095
1764510958.6950405,-6583.139999999999,-39247.92,-31505.175,-8630.82,-8519.58,-38486.52,-25068.555,-24859.305
1764510958.6950405,-6585.435,-39249.0,-31506.3,-8632.305,-8520.48,-38487.42,-25068.78,-24859.845
1764510958.6950405,-6582.06,-39245.58,-31504.005,-8628.255,-8516.205,-38484.63,-25064.91,-24855.795
1764510958.6950405,-6587.82,-39251.79,-31511.205,-8633.835,-8522.414999999999,-38491.425,-25069.77,-24861.78
1764510958.6961925,-6588.09,-39250.35,-31509.54,-8631.765,-8521.02,-38489.04,-25068.15,-24860.925
1764510958.6961925,-6584.94,-39246.525,-31507.02,-8627.715,-8516.43,-38485.89,-25062.705,-24856.605
1764510958.7447238,-6589.53,-39251.925,-31512.69,-8632.935,-8521.92,-38491.83,-25066.35,-24860.7
1764510958.7447238,-6590.655,-39251.745,-31511.79,-8631.9,-8520.84,-38490.885,-25065.99,-24861.24
1764510958.7447238,-6585.615,-39245.22,-31505.67,-8624.97,-8513.82,-38484.18,-25059.15,-24858.045
1764510958.7447238,-6586.514999999999,-39243.825,-31503.555,-8624.115,-8513.055,-38482.47,-25058.25,-24859.395
1764510958.7447238,-6593.804999999999,-39247.065,-31507.02,-8628.345,-8516.97,-38484.675,-25061.94,-24864.3
1764510958.7447238,-6594.075,-39246.93,-31507.785,-8627.625,-8515.935,-38485.17,-25058.79,-24865.605
1764510958.7447238,-6589.935,-39242.565,-31504.005,-8623.035,-8511.75,-38480.94,-25053.525,-24863.67
1764510958.7447238,-6596.865,-39248.37,-31509.18,-8629.065,-8518.05,-38486.025,-25058.745,-24869.25
1764510958.7447238,-6594.974999999999,-39240.54,-31500.765,-8621.91,-8510.4,-38476.98,-25053.21,-24865.695
1764510958.7447238,-6595.245,-39241.845,-31503.555,-8623.215,-8510.445,-38479.455,-25052.265,-24867.99
1764510958.7447238,-6599.655,-39246.93,-31508.28,-8628.119999999999,-8515.215,-38484.495,-25055.82,-24874.245
1764510958.7447238,-6598.53,-39244.68,-31505.445,-8625.645,-8512.289999999999,-38481.93,-25053.795,-24873.84
1764510958.7447238,-6603.075,-39249.045,-31509.765,-8629.695,-8517.015,-38485.665,-25057.035,-24878.295
1764510958.7447238,-6601.679999999999,-39245.31,-31505.58,-8625.42,-8512.965,-38481.885,-25053.57,-24877.395
1764510958.7447238,-6606.179999999999,-39248.775,-31508.775,-8628.119999999999,-8516.205,-38485.53,-25057.17,-24882.75
1764510958.745725,-6605.145,-39245.13,-31504.635,-8624.789999999999,-8512.695,-38481.615,-25054.29,-24882.39
1764510958.745725,-6598.215,-39236.085,-31494.96,-8616.195,-8503.199999999999,-38473.245,-25045.605,-24876.09
1764510958.745725,-6601.23,-39238.965,-31497.75,-8619.57,-8505.539999999999,-38475.765,-25047.45,-24878.205
1764510958.745725,-6603.84,-39241.71,-31501.845,-8622.765,-8508.645,-38478.87,-25049.07,-24881.67
1764510958.745725,-6609.465,-39246.615,-31506.975,-8627.715,-8514.315,-38483.415,-25053.12,-24886.53
1764510958.745725,-6605.91,-39241.8,-31501.98,-8622.945,-8509.815,-38479.095,-25048.755,-24882.93
1764510958.745725,-6607.575,-39239.19,-31498.83,-8622.045,-8509.455,-38476.89,-25049.475,-24882.93
1764510958.745725,-6610.005,-39243.87,-31504.05,-8625.555,-8513.46,-38481.885,-25051.455,-24885.315
1764510958.745725,-6612.12,-39248.73,-31509.54,-8629.199999999999,-8517.015,-38486.61,-25053.75,-24887.43
1764510958.745725,-6617.115,-39252.87,-31514.22,-8634.015,-8521.515,-38490.795,-25058.025,-24891.93
1764510958.745725,-6613.245,-39247.11,-31507.92,-8629.02,-8515.44,-38485.305,-25052.445,-24886.71
1764510958.745725,-6612.615,-39246.12,-31506.795,-8627.715,-8514.27,-38484.855,-25050.015,-24883.38
1764510958.745725,-6616.71,-39249.135,-31510.125,-8631.315,-8517.42,-38488.68,-25053.255,-24885.135
1764510958.790032,-6619.365,-39252.24,-31513.455,-8634.285,-8519.625,-38491.56,-25055.73,-24886.755
1764510958.790032,-6625.44,-39259.44,-31520.52,-8641.215,-8526.465,-38498.445,-25061.805,-24891.435
1764510958.790032,-6626.115,-39259.89,-31520.655,-8641.619999999999,-8528.13,-38499.165,-25062.39,-24890.22
1764510958.790032,-6623.639999999999,-39255.525,-31516.695,-8637.3,-8524.035,-38495.61,-25060.23,-24885.855
1764510958.790032,-6618.465,-39250.44,-31511.43,-8632.17,-8519.039999999999,-38490.525,-25055.73,-24879.465
1764510958.790032,-6621.615,-39254.715,-31515.615,-8636.625,-8523.135,-38494.62,-25059.87,-24881.895
1764510958.790032,-6621.48,-39253.815,-31514.805,-8637.164999999999,-8522.19,-38493.99,-25060.545,-24880.5
1764510958.790032,-6619.724999999999,-39251.97,-31512.96,-8634.69,-8519.895,-38491.65,-25058.115,-24877.08
1764510958.790032,-6613.02,-39245.22,-31506.255,-8627.67,-8513.235,-38484.54,-25051.455,-24869.07
1764510958.790032,-6613.65,-39245.94,-31506.615,-8628.57,-8513.73,-38485.755,-25053.48,-24868.485
1764510958.790032,-6614.594999999999,-39248.055,-31508.595,-8630.595,-8515.8,-38487.645,-25055.19,-24868.62
1764510958.790032,-6617.52,-39251.07,-31511.52,-8633.744999999999,-8518.815,-38490.795,-25057.485,-24870.24
1764510958.790032,-6611.94,-39244.77,-31506.03,-8628.029999999999,-8512.875,-38485.485,-25052.355,-24864.21
1764510958.790032,-6610.59,-39242.97,-31504.32,-8626.77,-8511.345,-38484.315,-25052.04,-24860.835
1764510958.790032,-6609.509999999999,-39243.33,-31504.86,-8627.715,-8511.795,-38484.765,-25053.12,-24858.81
1764510958.790032,-6611.759999999999,-39241.71,-31502.88,-8627.13,-8511.975,-38483.1,-25054.065,-24858.99
1764510958.790032,-6606.9,-39233.88,-31494.42,-8620.065,-8505.315,-38475.27,-25048.89,-24851.205
1764510958.790032,-6605.235,-39233.925,-31494.51,-8619.255,-8504.595,-38475.72,-25047.585,-24848.055
1764510958.790032,-6605.775,-39237.21,-31498.38,-8622.0,-8506.935,-38478.555,-25049.16,-24847.29
1764510958.790032,-6610.545,-39246.12,-31507.92,-8629.965,-8515.08,-38487.78,-25056.765,-24852.015
1764510958.8347404,-6607.349999999999,-39242.925,-31505.58,-8627.265,-8512.02,-38485.215,-25053.885,-24848.28
1764510958.8347404,-6609.15,-39245.04,-31508.28,-8630.505,-8515.08,-38487.78,-25056.63,-24850.035
1764510958.8347404,-6605.28,-39241.53,-31504.32,-8626.59,-8511.164999999999,-38483.37,-25054.02,-24845.4
1764510958.8347404,-6607.8,-39243.06,-31504.32,-8628.48,-8513.279999999999,-38484.045,-25056.315,-24845.895
1764510958.8347404,-6605.054999999999,-39239.64,-31500.45,-8625.33,-8509.994999999999,-38480.13,-25053.705,-24841.35
1764510958.8347404,-6607.125,-39246.57,-31508.82,-8631.449999999999,-8515.215,-38487.24,-25057.08,-24843.465
1764510958.8347404,-6604.11,-39241.89,-31505.76,-8627.85,-8511.57,-38483.595,-25052.94,-24838.65
1764510958.8347404,-6602.849999999999,-39239.73,-31504.005,-8625.645,-8509.455,-38481.03,-25053.12,-24837.255
1764510958.8347404,-6597.99,-39232.305,-31496.535,-8619.345,-8502.345,-38472.48,-25047.405,-24831.045
1764510958.8347404,-6605.775,-39238.515,-31501.755,-8626.904999999999,-8509.365,-38478.285,-25053.12,-24836.085
1764510958.8347404,-6607.215,-39240.54,-31504.23,-8628.119999999999,-8510.94,-38480.715,-25053.12,-24836.85
1764510958.8347404,-6607.17,-39240.09,-31504.05,-8626.904999999999,-8509.904999999999,-38480.22,-25051.365,-24836.805
1764510958.8347404,-6602.49,-39234.87,-31499.145,-8621.279999999999,-8504.64,-38474.955,-25046.28,-24833.565
1764510958.8347404,-6607.349999999999,-39238.83,-31503.105,-8625.914999999999,-8508.779999999999,-38479.77,-25050.465,-24839.19
1764510958.8347404,-6609.33,-39240.675,-31505.49,-8628.029999999999,-8511.345,-38482.02,-25051.95,-24841.665
1764510958.8347404,-6605.19,-39236.805,-31501.665,-8623.755,-8506.44,-38477.745,-25047.675,-24839.46
1764510958.8347404,-6608.34,-39238.92,-31504.365,-8625.465,-8508.555,-38479.59,-25049.43,-24844.41
1764510958.8347404,-6607.215,-39231.9,-31496.715,-8619.39,-8503.244999999999,-38472.165,-25045.605,-24843.87
1764510958.8347404,-6608.16,-39233.385,-31497.435,-8620.605,-8504.91,-38473.245,-25044.795,-24844.14
1764510958.8347404,-6611.13,-39238.875,-31502.745,-8625.24,-8509.185,-38479.14,-25048.575,-24848.64
1764510958.8347404,-6611.895,-39240.0,-31504.005,-8625.914999999999,-8509.14,-38481.165,-25048.62,-24851.565
1764510958.8347404,-6613.155,-39241.53,-31506.03,-8627.94,-8510.58,-38483.325,-25049.295,-24854.13
1764510958.8357637,-6617.07,-39245.04,-31509.945,-8632.485,-8514.945,-38486.475,-25052.85,-24859.53
1764510958.8357637,-6614.685,-39238.965,-31503.645,-8626.994999999999,-8509.68,-38480.625,-25049.52,-24857.28
1764510958.878431,-6614.685,-39240.675,-31505.67,-8627.715,-8510.49,-38482.965,-25050.06,-24858.27
1764510958.8794496,-6616.215,-39244.68,-31509.63,-8630.73,-8513.91,-38486.565,-25052.715,-24860.565
1764510958.8794496,-6616.395,-39245.805,-31511.385,-8631.539999999999,-8514.99,-38487.6,-25053.57,-24861.96
1764510958.8794496,-6618.915,-39245.625,-31510.125,-8632.89,-8517.24,-38486.43,-25055.64,-24863.895
1764510958.8794496,-6614.46,-39241.935,-31506.345,-8629.74,-8513.414999999999,-38482.92,-25050.15,-24860.79
1764510958.8794496,-6619.545,-39249.135,-31514.265,-8636.31,-8519.76,-38490.48,-25056.945,-24868.08
1764510958.8794496,-6615.719999999999,-39247.065,-31513.5,-8633.385,-8517.15,-38489.22,-25053.66,-24865.92
1764510958.8794496,-6614.82,-39246.84,-31513.68,-8632.664999999999,-8517.105,-38489.535,-25052.94,-24863.985
1764510958.8794496,-6616.8,-39250.98,-31517.01,-8637.074999999999,-8520.975,-38493.27,-25056.54,-24865.875
1764510958.8794496,-6621.389999999999,-39256.875,-31522.815,-8643.015,-8527.14,-38499.165,-25061.58,-24870.69
1764510958.8794496,-6620.49,-39256.425,-31522.905,-8642.789999999999,-8526.869999999999,-38499.255,-25061.715,-24869.25
1764510958.8794496,-6615.09,-39251.97,-31518.675,-8639.279999999999,-8522.055,-38494.485,-25057.305,-24863.355
1764510958.8794496,-6616.304999999999,-39256.11,-31522.545,-8642.34,-8526.195,-38498.58,-25059.555,-24863.895
1764510958.8794496,-6619.59,-39261.465,-31527.405,-8646.84,-8531.279999999999,-38503.26,-25064.28,-24865.965
1764510958.8794496,-6615.0,-39257.37,-31523.535,-8643.105,-8527.005,-38498.715,-25060.995,-24861.195
1764510958.8794496,-6619.679999999999,-39264.48,-31530.6,-8650.845,-8533.845,-38505.825,-25067.565,-24865.515
1764510958.8794496,-6619.545,-39265.11,-31530.24,-8651.475,-8534.205,-38506.095,-25068.555,-24864.12
1764510958.8794496,-6617.655,-39264.255,-31529.745,-8650.8,-8533.845,-38505.51,-25068.15,-24861.555
1764510958.8794496,-6615.315,-39261.195,-31527.27,-8647.65,-8530.875,-38502.765,-25065.675,-24856.74
1764510958.8794496,-6617.88,-39263.895,-31530.78,-8649.945,-8533.8,-38505.825,-25069.995,-24856.695
1764510958.8794496,-6612.165,-39259.485,-31526.73,-8645.49,-8529.119999999999,-38501.145,-25066.44,-24850.485
1764510958.8794496,-6613.83,-39261.78,-31528.44,-8648.145,-8531.82,-38503.125,-25069.5,-24850.89
1764510958.8794496,-6611.445,-39260.07,-31527.0,-8647.154999999999,-8530.11,-38501.595,-25069.455,-24848.19
1764510958.8809786,-6603.3,-39250.305,-31515.975,-8637.84,-8520.39,-38490.705,-25062.615,-24839.55
1764510958.9298162,-6601.23,-39247.38,-31512.96,-8636.039999999999,-8518.904999999999,-38488.005,-25059.87,-24835.455
1764510958.9298162,-6602.31,-39250.305,-31516.605,-8639.55,-8521.875,-38491.605,-25061.355,-24836.94
1764510958.9298162,-6604.155,-39255.435,-31522.68,-8644.5,-8526.195,-38497.635,-25063.155,-24838.29
1764510958.9298162,-6599.474999999999,-39252.33,-31519.215,-8640.72,-8522.82,-38494.485,-25060.545,-24832.8
1764510958.9298162,-6597.99,-39252.42,-31519.44,-8640.494999999999,-8522.91,-38494.62,-25059.24,-24831.045
1764510958.9298162,-6598.53,-39252.15,-31519.125,-8639.955,-8522.55,-38494.215,-25058.88,-24830.91
1764510958.9298162,-6599.88,-39254.4,-31521.195,-8642.43,-8524.035,-38496.285,-25061.535,-24832.71
1764510958.9298162,-6595.695,-39248.505,-31515.57,-8638.56,-8519.805,-38490.12,-25058.07,-24825.69
1764510958.930939,-6595.83,-39246.84,-31513.23,-8637.57,-8518.994999999999,-38487.285,-25056.45,-24823.44
1764510958.930939,-6594.57,-39246.3,-31513.86,-8637.525,-8518.41,-38487.69,-25054.605,-24820.74
1764510958.930939,-6591.24,-39245.265,-31512.78,-8635.185,-8515.08,-38486.7,-25051.455,-24817.68
1764510958.930939,-6592.365,-39244.185,-31510.53,-8632.89,-8513.505,-38484.765,-25053.255,-24819.75
1764510958.930939,-6592.815,-39243.69,-31509.81,-8633.07,-8513.19,-38482.965,-25053.48,-24820.38
1764510958.930939,-6589.844999999999,-39242.07,-31508.415,-8631.135,-8511.345,-38481.705,-25051.86,-24818.31
1764510958.930939,-6588.315,-39240.81,-31507.425,-8630.73,-8511.255,-38480.58,-25051.005,-24817.635
1764510958.931953,-6588.315,-39241.665,-31508.865,-8632.619999999999,-8513.055,-38482.11,-25052.22,-24818.895
1764510958.9757218,-6593.219999999999,-39250.755,-31518.0,-8640.539999999999,-8520.84,-38490.705,-25058.115,-24824.565
1764510958.9757218,-6593.49,-39251.7,-31519.17,-8640.9,-8521.83,-38491.83,-25058.565,-24825.24
1764510958.9757218,-6591.42,-39249.945,-31517.46,-8638.74,-8519.715,-38489.4,-25057.305,-24824.07
1764510958.9757218,-6585.974999999999,-39240.45,-31507.02,-8631.18,-8511.48,-38478.555,-25051.095,-24817.68
1764510958.9757218,-6586.695,-39236.805,-31503.195,-8628.119999999999,-8508.24,-38475.315,-25047.72,-24816.24
1764510958.9757218,-6590.61,-39238.965,-31505.67,-8631.27,-8511.345,-38478.645,-25050.465,-24819.975
1764510958.9757218,-6591.375,-39244.32,-31510.62,-8635.005,-8515.664999999999,-38483.685,-25052.535,-24823.98
1764510958.9757218,-6596.145,-39248.91,-31515.255,-8639.91,-8520.164999999999,-38487.6,-25056.045,-24830.46
1764510958.9757218,-6590.745,-39243.87,-31510.485,-8634.24,-8514.09,-38482.92,-25051.005,-24827.175
1764510958.9757218,-6591.87,-39242.52,-31509.36,-8633.43,-8513.91,-38482.11,-25051.32,-24827.355
1764510958.9757218,-6599.07,-39247.335,-31514.49,-8640.09,-8521.065,-38487.285,-25057.485,-24833.835
1764510958.9757218,-6601.139999999999,-39249.99,-31518.045,-8642.115,-8523.494999999999,-38491.02,-25059.78,-24837.345
1764510958.9757218,-6602.355,-39252.06,-31520.34,-8643.015,-8524.44,-38493.315,-25060.23,-24839.01
1764510958.9757218,-6602.219999999999,-39251.295,-31520.025,-8642.565,-8522.46,-38492.505,-25058.88,-24838.245
1764510958.9757218,-6597.405,-39243.78,-31512.915,-8636.13,-8515.305,-38486.07,-25053.345,-24833.205
1764510958.9757218,-6603.48,-39247.245,-31515.84,-8640.36,-8519.805,-38488.185,-25058.07,-24838.38
1764510958.9757218,-6603.75,-39246.57,-31515.93,-8639.775,-8519.805,-38488.365,-25056.855,-24839.19
1764510958.9757218,-6598.304999999999,-39239.145,-31508.865,-8632.574999999999,-8512.65,-38482.47,-25051.14,-24833.745
1764510958.9757218,-6597.764999999999,-39238.695,-31508.64,-8631.539999999999,-8510.76,-38481.84,-25049.925,-24833.43
1764510958.9757218,-6602.49,-39243.51,-31513.905,-8636.31,-8515.755,-38487.105,-25053.66,-24837.48
1764510958.9757218,-6598.44,-39238.965,-31509.045,-8631.72,-8511.615,-38482.74,-25050.285,-24834.015
1764510958.9757218,-6600.06,-39240.045,-31509.855,-8632.619999999999,-8511.93,-38483.19,-25050.87,-24835.59
1764510958.9757218,-6605.009999999999,-39244.68,-31514.49,-8636.85,-8516.835,-38487.69,-25054.245,-24840.63
1764510958.9757218,-6601.23,-39239.055,-31508.55,-8631.0,-8511.345,-38482.29,-25048.8,-24835.59
1764510958.9757218,-6598.349999999999,-39236.22,-31505.85,-8628.3,-8508.105,-38479.14,-25045.605,-24832.8
1764510958.9772637,-6599.88,-39238.92,-31508.145,-8630.595,-8510.4,-38481.885,-25047.09,-24835.14
1764510958.9772637,-6601.634999999999,-39240.495,-31509.765,-8632.26,-8512.875,-38483.19,-25047.585,-24836.22
1764510958.9772637,-6602.355,-39240.72,-31511.07,-8632.619999999999,-8513.73,-38483.28,-25047.495,-24837.21
1764510959.0681877,-6602.31,-39240.72,-31511.565,-8632.71,-8513.01,-38483.595,-25046.64,-24837.795
1764510959.0681877,-6603.57,-39243.105,-31513.365,-8634.824999999999,-8514.404999999999,-38485.845,-25047.495,-24839.775
1764510959.0681877,-6608.88,-39249.135,-31519.305,-8640.9,-8520.57,-38491.83,-25052.13,-24844.995
1764510959.0681877,-6609.645,-39248.055,-31516.965,-8640.404999999999,-8521.02,-38489.67,-25053.705,-24845.085
1764510959.0681877,-6609.15,-39248.01,-31517.055,-8640.81,-8521.92,-38489.355,-25053.57,-24844.365
1764510959.0681877,-6606.405,-39246.75,-31515.57,-8638.785,-8519.22,-38488.005,-25051.59,-24842.475
1764510959.0681877,-6600.195,-39239.37,-31508.37,-8631.539999999999,-8511.39,-38480.4,-25045.47,-24836.04
1764510959.0681877,-6604.065,-39244.77,-31514.535,-8636.715,-8517.06,-38485.98,-25049.115,-24839.775
1764510959.0681877,-6600.465,-39241.215,-31510.305,-8632.574999999999,-8512.92,-38481.705,-25045.695,-24835.815
1764510959.0681877,-6604.425,-39247.02,-31516.11,-8637.885,-8518.904999999999,-38487.645,-25050.24,-24838.965
1764510959.0681877,-6605.594999999999,-39250.305,-31518.0,-8639.595,-8521.38,-38490.255,-25052.535,-24840.18
1764510959.0681877,-6602.895,-39246.57,-31514.175,-8635.545,-8517.69,-38486.61,-25049.52,-24836.445
1764510959.0681877,-6598.17,-39241.215,-31509.315,-8630.955,-8512.02,-38481.03,-25044.75,-24832.125
1764510959.0681877,-6602.58,-39247.605,-31515.66,-8637.48,-8518.59,-38486.88,-25050.375,-24836.67
1764510959.0681877,-6601.59,-39247.92,-31515.795,-8637.345,-8518.455,-38486.475,-25051.23,-24836.4
1764510959.0681877,-6593.715,-39243.69,-31511.79,-8632.17,-8513.145,-38482.74,-25046.55,-24830.955
1764510959.0681877,-6590.969999999999,-39241.215,-31509.63,-8629.875,-8510.49,-38479.995,-25044.615,-24829.965
1764510959.0691984,-6595.11,-39246.525,-31515.12,-8635.32,-8516.34,-38485.845,-25051.545,-24836.175
1764510959.0691984,-6595.785,-39244.995,-31511.7,-8634.779999999999,-8516.789999999999,-38482.74,-25052.895,-24835.86
1764510959.0691984,-6593.49,-39244.59,-31511.295,-8633.654999999999,-8516.43,-38482.695,-25051.68,-24834.105
1764510959.0691984,-6588.63,-39240.54,-31507.335,-8629.47,-8511.615,-38479.23,-25047.18,-24828.705
1764510959.0691984,-6592.59,-39245.265,-31511.7,-8634.645,-8516.789999999999,-38483.775,-25051.725,-24831.765
1764510959.0691984,-6592.679999999999,-39246.705,-31513.59,-8635.41,-8517.645,-38485.53,-25052.58,-24831.0
1764510959.0691984,-6591.33,-39245.04,-31511.52,-8633.654999999999,-8516.07,-38483.73,-25052.355,-24828.48
1764510959.0691984,-6586.469999999999,-39239.325,-31505.265,-8627.039999999999,-8510.22,-38477.97,-25047.63,-24823.305
1764510959.0691984,-6584.13,-39238.92,-31504.32,-8625.69,-8508.42,-38476.665,-25046.37,-24820.2
1764510959.0691984,-6582.69,-39238.065,-31502.97,-8624.699999999999,-8507.16,-38475.045,-25046.145,-24818.04
1764510959.0691984,-6584.219999999999,-39240.855,-31504.995,-8627.49,-8509.05,-38477.07,-25048.305,-24819.57
1764510959.0691984,-6583.094999999999,-39240.18,-31504.275,-8626.904999999999,-8508.6,-38475.81,-25048.305,-24819.66
1764510959.0691984,-6583.23,-39241.8,-31505.58,-8627.49,-8509.994999999999,-38476.845,-25049.655,-24822.225
1764510959.0691984,-6585.12,-39244.41,-31508.01,-8630.82,-8513.279999999999,-38480.445,-25053.12,-24824.925
1764510959.0691984,-6588.405,-39252.195,-31516.605,-8637.57,-8519.85,-38489.04,-25059.195,-24830.235
1764510959.0691984,-6588.99,-39251.79,-31515.12,-8637.255,-8519.265,-38487.915,-25061.355,-24829.83
1764510959.0691984,-6588.45,-39247.425,-31510.17,-8633.789999999999,-8516.43,-38482.29,-25060.14,-24827.67
1764510959.0691984,-6583.679999999999,-39240.765,-31502.655,-8627.22,-8510.31,-38475.045,-25054.83,-24822.045
1764510959.0691984,-6580.889999999999,-39239.865,-31502.205,-8625.555,-8508.779999999999,-38473.92,-25053.57,-24819.75
1764510959.0691984,-6580.349999999999,-39244.635,-31508.19,-8628.93,-8512.154999999999,-38480.265,-25055.64,-24821.955
1764510959.0701869,-6583.545,-39245.805,-31508.415,-8631.0,-8514.585,-38481.165,-25059.375,-24824.655
1764510959.0701869,-6587.19,-39249.72,-31511.97,-8634.33,-8518.59,-38484.36,-25062.345,-24827.58
1764510959.0701869,-6585.255,-39249.045,-31511.79,-8633.115,-8516.88,-38483.955,-25060.995,-24826.455
1764510959.0701869,-6580.889999999999,-39244.275,-31507.065,-8629.199999999999,-8512.47,-38479.005,-25056.585,-24820.695
1764510959.0711317,-6584.804999999999,-39250.305,-31513.185,-8635.68,-8519.22,-38485.17,-25062.12,-24824.385
1764510959.0711317,-6584.715,-39250.305,-31513.77,-8635.815,-8518.904999999999,-38485.53,-25063.11,-24824.295
1764510959.0711317,-6582.24,-39248.91,-31512.465,-8634.06,-8518.23,-38484.27,-25061.895,-24822.045
1764510959.0711317,-6580.844999999999,-39249.675,-31513.455,-8634.735,-8517.869999999999,-38484.81,-25061.175,-24820.605
1764510959.0711317,-6579.315,-39248.775,-31513.05,-8632.98,-8516.654999999999,-38483.82,-25060.815,-24817.23
1764510959.0721903,-6572.34,-39242.43,-31506.435,-8626.23,-8509.77,-38477.07,-25056.405,-24810.39
1764510959.0721903,-6571.665,-39243.33,-31507.065,-8627.175,-8510.715,-38478.06,-25056.855,-24810.84
1764510959.0721903,-6570.9,-39243.915,-31507.38,-8626.994999999999,-8511.164999999999,-38477.835,-25057.08,-24809.13
1764510959.0721903,-6570.09,-39243.6,-31506.84,-8626.59,-8510.94,-38477.295,-25057.35,-24807.69
1764510959.1153977,-6568.065,-39242.79,-31506.39,-8626.365,-8510.085,-38476.71,-25056.945,-24806.25
1764510959.1153977,-6565.815,-39242.655,-31506.705,-8626.23,-8509.904999999999,-38475.99,-25056.99,-24805.755
1764510959.1153977,-6565.32,-39242.925,-31506.93,-8626.77,-8510.355,-38476.035,-25056.675,-24805.08
1764510959.1153977,-6569.28,-39249.495,-31512.24,-8632.08,-8516.115,-38481.705,-25062.345,-24807.69
1764510959.1153977,-6564.645,-39244.14,-31507.605,-8626.77,-8511.029999999999,-38476.62,-25058.16,-24802.92
1764510959.1153977,-6561.855,-39240.54,-31505.13,-8623.845,-8507.295,-38474.235,-25055.37,-24799.77
1764510959.1153977,-6559.29,-39238.065,-31502.97,-8621.955,-8505.135,-38471.805,-25053.975,-24796.89
1764510959.1153977,-6557.759999999999,-39236.265,-31501.17,-8621.19,-8504.19,-38469.87,-25052.85,-24796.08
1764510959.1153977,-6556.815,-39235.455,-31500.315,-8620.335,-8503.244999999999,-38469.33,-25051.23,-24794.82
1764510959.1153977,-6556.365,-39236.985,-31501.845,-8621.145,-8504.55,-38470.635,-25051.275,-24794.37
1764510959.1153977,-6557.264999999999,-39238.38,-31502.43,-8622.045,-8505.404999999999,-38471.31,-25052.535,-24793.515
1764510959.1153977,-6558.165,-39240.225,-31504.41,-8624.654999999999,-8507.835,-38472.795,-25053.975,-24794.235
1764510959.1153977,-6562.844999999999,-39246.615,-31510.665,-8630.145,-8513.414999999999,-38479.455,-25059.015,-24798.105
1764510959.1153977,-6562.71,-39246.84,-31510.35,-8630.324999999999,-8513.55,-38479.275,-25059.6,-24798.825
1764510959.1171763,-6561.36,-39245.985,-31509.81,-8628.93,-8511.93,-38478.465,-25059.33,-24797.565
1764510959.1171763,-6557.804999999999,-39239.865,-31503.555,-8624.205,-8507.295,-38471.805,-25056.54,-24793.02
1764510959.1171763,-6549.66,-39230.82,-31495.23,-8615.61,-8498.52,-38463.255,-25048.395,-24785.37
1764510959.1181862,-6550.02,-39233.385,-31497.795,-8617.185,-8500.005,-38466.135,-25050.24,-24786.09
1764510959.1181862,-6550.155,-39232.98,-31497.12,-8617.59,-8499.96,-38465.415,-25049.16,-24786.405
1764510959.1181862,-6549.795,-39234.24,-31499.055,-8619.029999999999,-8501.085,-38466.495,-25049.745,-24786.855
1764510959.1181862,-6554.7,-39240.18,-31505.58,-8625.6,-8507.61,-38472.795,-25054.29,-24792.93
1764510959.1191883,-6553.44,-39240.99,-31506.84,-8625.33,-8507.654999999999,-38474.055,-25054.47,-24794.145
1764510959.1191883,-6548.94,-39236.445,-31501.665,-8619.75,-8502.93,-38468.97,-25050.555,-24790.23
1764510959.1191883,-6552.09,-39239.73,-31505.49,-8623.98,-8506.935,-38472.39,-25053.795,-24793.47
1764510959.1640117,-6548.355,-39235.32,-31501.62,-8619.75,-8503.244999999999,-38468.475,-25049.745,-24789.87
1764510959.1640117,-6547.679999999999,-39234.105,-31500.315,-8617.635,-8501.76,-38467.26,-25047.99,-24789.555
1764510959.1640117,-6549.255,-39235.905,-31502.115,-8618.715,-8502.75,-38468.16,-25048.395,-24792.615
1764510959.1640117,-6558.255,-39244.41,-31509.72,-8627.265,-8511.525,-38475.765,-25055.145,-24801.795
1764510959.1640117,-6559.83,-39244.275,-31510.17,-8627.985,-8511.705,-38476.44,-25055.37,-24804.405
1764510959.1650145,-6558.929999999999,-39242.79,-31509.18,-8626.455,-8510.13,-38475.855,-25054.515,-24805.125
1764510959.1650145,-6559.605,-39241.755,-31509.045,-8625.015,-8509.5,-38475.315,-25053.165,-24805.215
1764510959.1650145,-6561.179999999999,-39240.495,-31508.28,-8625.105,-8508.779999999999,-38474.595,-25052.715,-24807.285
1764510959.1650145,-6562.125,-39240.585,-31507.785,-8624.97,-8507.789999999999,-38474.325,-25052.04,-24808.005
1764510959.1650145,-6563.969999999999,-39240.27,-31508.37,-8625.285,-8508.6,-38474.91,-25052.805,-24808.995
1764510959.1650145,-6564.87,-39240.27,-31507.785,-8624.97,-8507.789999999999,-38474.505,-25051.545,-24809.715
1764510959.1650145,-6564.735,-39237.885,-31505.13,-8622.765,-8505.09,-38471.22,-25048.62,-24809.04
1764510959.16601,-6560.145,-39229.83,-31497.84,-8614.89,-8497.215,-38464.245,-25041.96,-24804.0
1764510959.16601,-6562.844999999999,-39229.425,-31496.67,-8615.52,-8498.789999999999,-38463.48,-25042.41,-24806.115
1764510959.16601,-6566.759999999999,-39231.18,-31498.38,-8618.895,-8502.164999999999,-38465.64,-25043.67,-24808.68
1764510959.16601,-6571.62,-39236.085,-31504.005,-8624.475,-8507.654999999999,-38471.94,-25047.45,-24813.855
1764510959.16601,-6569.415,-39235.725,-31504.815,-8623.619999999999,-8506.89,-38473.695,-25045.92,-24811.965
1764510959.16601,-6574.5,-39240.855,-31510.35,-8628.57,-8511.705,-38478.24,-25050.42,-24816.105
1764510959.16601,-6574.77,-39240.315,-31509.72,-8626.949999999999,-8509.815,-38477.52,-25049.88,-24819.03
1764510959.16601,-6574.905,-39237.39,-31506.975,-8623.08,-8505.225,-38474.145,-25048.755,-24823.35
1764510959.16601,-6571.395,-39232.71,-31501.89,-8617.815,-8500.68,-38469.33,-25044.84,-24820.74
1764510959.16601,-6572.969999999999,-39235.995,-31505.22,-8620.65,-8504.414999999999,-38473.47,-25047.045,-24819.885
1764510959.167519,-6575.445,-39239.55,-31509.54,-8624.88,-8509.005,-38477.835,-25048.53,-24820.245
1764510959.167519,-6584.355,-39249.045,-31519.395,-8635.635,-8519.58,-38487.78,-25056.495,-24826.995
1764510959.2115405,-6586.92,-39250.755,-31521.375,-8637.975,-8521.244999999999,-38489.22,-25058.745,-24827.535
1764510959.2115405,-6585.66,-39249.315,-31520.025,-8635.994999999999,-8519.355,-38487.645,-25058.115,-24827.49
1764510959.2115405,-6584.625,-39246.885,-31516.515,-8632.125,-8515.845,-38484.54,-25055.595,-24825.78
1764510959.2115405,-6578.594999999999,-39236.355,-31504.68,-8621.279999999999,-8503.335,-38472.93,-25047.54,-24822.675
1764510959.2115405,-6577.74,-39234.69,-31503.24,-8619.705,-8502.39,-38471.355,-25045.11,-24821.055
1764510959.2115405,-6583.815,-39242.52,-31512.105,-8629.199999999999,-8512.199999999999,-38480.49,-25051.365,-24824.97
1764510959.2115405,-6584.535,-39243.33,-31513.275,-8631.0,-8512.74,-38481.66,-25051.59,-24823.935
1764510959.2115405,-6577.605,-39234.96,-31505.175,-8622.945,-8503.92,-38473.29,-25044.705,-24816.96
1764510959.2115405,-6577.875,-39233.205,-31502.835,-8621.414999999999,-8502.795,-38471.445,-25043.22,-24818.715
1764510959.2115405,-6582.33,-39239.235,-31509.18,-8627.22,-8509.455,-38477.43,-25047.495,-24823.485
1764510959.2115405,-6586.875,-39244.68,-31514.805,-8632.35,-8514.27,-38482.92,-25051.995,-24827.58
1764510959.2115405,-6585.795,-39244.14,-31514.13,-8631.27,-8512.875,-38482.74,-25051.95,-24827.805
1764510959.2115405,-6581.115,-39240.045,-31509.495,-8626.545,-8508.51,-38478.33,-25048.935,-24823.845
1764510959.2115405,-6583.679999999999,-39243.645,-31512.915,-8630.414999999999,-8512.02,-38481.39,-25051.95,-24826.005
1764510959.2115405,-6584.67,-39246.255,-31515.66,-8633.16,-8514.585,-38484.585,-25054.2,-24824.925
1764510959.2115405,-6583.995,-39246.075,-31516.2,-8633.744999999999,-8515.395,-38484.135,-25054.29,-24823.26
1764510959.2115405,-6581.745,-39244.095,-31513.77,-8631.72,-8513.19,-38482.155,-25053.075,-24821.415
1764510959.2115405,-6576.705,-39237.705,-31506.795,-8624.88,-8506.529999999999,-38475.63,-25047.99,-24817.14
1764510959.2115405,-6574.77,-39235.995,-31504.635,-8622.855,-8504.414999999999,-38473.29,-25045.155,-24814.35
1764510959.2115405,-6575.535,-39237.435,-31506.255,-8624.205,-8506.529999999999,-38474.955,-25047.765,-24813.405
1764510959.2115405,-6575.535,-39237.255,-31505.355,-8623.574999999999,-8506.17,-38473.92,-25047.945,-24812.595
1764510959.2115405,-6580.08,-39244.95,-31513.095,-8630.865,-8513.685,-38480.895,-25053.255,-24816.645
1764510959.2557974,-6580.17,-39245.04,-31513.59,-8632.17,-8514.404999999999,-38481.39,-25054.02,-24816.645
1764510959.2557974,-6578.28,-39245.22,-31514.04,-8631.855,-8514.18,-38482.2,-25054.83,-24813.9
1764510959.2557974,-6576.48,-39243.24,-31512.645,-8629.83,-8511.57,-38480.58,-25052.715,-24810.705
1764510959.2557974,-6571.349999999999,-39238.965,-31508.325,-8626.275,-8506.664999999999,-38476.215,-25047.945,-24805.98
1764510959.2557974,-6575.085,-39244.365,-31513.455,-8631.225,-8512.875,-38480.94,-25051.68,-24809.355
1764510959.2557974,-6572.25,-39240.63,-31509.27,-8628.255,-8508.869999999999,-38477.52,-25048.89,-24805.665
1764510959.2557974,-6572.34,-39242.025,-31511.61,-8629.515,-8510.039999999999,-38478.87,-25049.925,-24805.575
1764510959.2557974,-6578.775,-39249.945,-31519.44,-8637.21,-8518.14,-38486.97,-25056.72,-24812.235
1764510959.2557974,-6578.82,-39249.54,-31518.855,-8635.949999999999,-8517.24,-38486.7,-25056.135,-24811.515
1764510959.2557974,-6578.639999999999,-39249.09,-31517.595,-8635.14,-8516.025,-38486.34,-25054.965,-24809.76
1764510959.2557974,-6576.795,-39247.02,-31515.345,-8633.115,-8513.91,-38483.955,-25052.67,-24807.42
1764510959.2557974,-6570.764999999999,-39239.73,-31507.965,-8625.285,-8506.619999999999,-38476.89,-25047.045,-24801.75
1764510959.2557974,-6570.675,-39238.92,-31506.93,-8624.43,-8505.945,-38475.765,-25045.29,-24800.4
1764510959.2557974,-6571.575,-39239.415,-31507.83,-8625.42,-8506.98,-38476.215,-25045.605,-24799.905
1764510959.2573457,-6572.07,-39240.09,-31509.54,-8627.175,-8507.925,-38477.88,-25046.595,-24800.22
1764510959.2573457,-6574.365,-39243.915,-31513.14,-8630.1,-8511.57,-38481.795,-25049.745,-24803.64
1764510959.2573457,-6568.02,-39237.48,-31506.12,-8623.664999999999,-8504.64,-38474.775,-25044.57,-24797.79
1764510959.2573457,-6568.29,-39239.28,-31507.245,-8624.925,-8505.945,-38475.585,-25046.595,-24799.545
1764510959.2573457,-6570.0,-39242.34,-31510.44,-8628.029999999999,-8509.635,-38477.925,-25048.395,-24801.705
1764510959.2573457,-6576.255,-39250.98,-31519.125,-8636.085,-8518.5,-38486.115,-25055.235,-24806.88
1764510959.2573457,-6576.795,-39250.935,-31519.215,-8635.545,-8518.32,-38486.79,-25055.415,-24807.555
1764510959.2573457,-6571.304999999999,-39244.905,-31513.275,-8629.02,-8512.11,-38480.31,-25051.365,-24803.145
1764510959.2573457,-6574.455,-39250.125,-31518.72,-8634.42,-8517.285,-38485.53,-25055.865,-24807.645
1764510959.2573457,-6575.219999999999,-39251.34,-31520.115,-8636.355,-8518.77,-38486.52,-25056.72,-24809.175
1764510959.3009937,-6573.915,-39250.89,-31519.395,-8635.59,-8517.914999999999,-38485.44,-25056.585,-24809.67
1764510959.30151,-6571.71,-39247.83,-31515.84,-8632.8,-8514.18,-38482.56,-25054.47,-24807.555
1764510959.30151,-6566.58,-39241.98,-31510.62,-8627.085,-8508.735,-38477.205,-25049.655,-24801.795
1764510959.30151,-6571.665,-39247.56,-31516.02,-8631.765,-8514.539999999999,-38481.75,-25056.27,-24806.25
1764510959.30151,-6570.495,-39246.255,-31514.49,-8630.505,-8513.55,-38480.4,-25054.47,-24806.655
1764510959.30151,-6564.825,-39239.01,-31508.145,-8623.305,-8505.855,-38473.605,-25048.035,-24801.165
1764510959.30151,-6568.38,-39243.015,-31512.105,-8627.22,-8509.994999999999,-38477.745,-25051.005,-24805.44
1764510959.30151,-6570.45,-39245.49,-31513.545,-8629.65,-8512.83,-38479.905,-25052.49,-24808.14
1764510959.30151,-6566.175,-39242.07,-31509.81,-8626.32,-8508.96,-38475.81,-25048.53,-24804.27
1764510959.30151,-6566.219999999999,-39240.18,-31507.245,-8625.015,-8507.475,-38474.145,-25047.855,-24804.09
1764510959.30151,-6567.255,-39235.77,-31502.655,-8623.17,-8504.19,-38468.97,-25047.72,-24803.775
1764510959.30151,-6566.085,-39237.39,-31504.365,-8624.295,-8504.685,-38470.365,-25047.225,-24804.045
1764510959.30151,-6565.365,-39238.515,-31505.805,-8624.654999999999,-8504.1,-38472.57,-25047.27,-24805.935
1764510959.30151,-6572.745,-39246.84,-31513.59,-8631.315,-8511.84,-38479.725,-25053.93,-24813.405
1764510959.30151,-6574.634999999999,-39248.415,-31515.93,-8633.565,-8514.225,-38482.02,-25055.505,-24815.16
1764510959.30151,-6573.735,-39246.345,-31514.265,-8631.855,-8512.02,-38480.265,-25054.38,-24815.115
1764510959.30151,-6570.63,-39240.81,-31509.045,-8627.039999999999,-8507.16,-38475.27,-25050.87,-24811.605
1764510959.30151,-6573.465,-39243.6,-31511.115,-8629.425,-8509.23,-38477.97,-25053.615,-24814.035
1764510959.302528,-6573.69,-39243.87,-31510.62,-8628.84,-8508.6,-38478.06,-25053.165,-24814.08
1764510959.302528,-6571.844999999999,-39240.72,-31508.37,-8625.779999999999,-8505.855,-38475.18,-25050.6,-24812.28
1764510959.348688,-6566.94,-39233.925,-31502.25,-8619.39,-8499.735,-38469.105,-25045.29,-24806.79
