Timestamp,Channel1,Channel2,Channel3,Channel4,Channel5,Channel6,Channel7,Channel8
1764511113.4324374,35990.595,44486.505,32895.135,40259.295,-13999.5,-26359.515,13400.595,20428.785
1764511113.4324374,35986.68,44482.41,32892.03,40256.325,-14002.515,-26362.98,13398.705,20425.68
1764511113.4324374,35988.119999999995,44483.805,32893.335,40257.495,-14000.58,-26361.72,13399.695,20427.21
1764511113.4324374,35994.33,44490.06,32898.51,40262.895,-13994.865,-26355.555,13403.745,20433.015
1764511113.4324374,35994.375,44490.24,32898.78,40262.67,-13995.27,-26355.285,13403.745,20433.06
1764511113.4324374,35991.63,44487.135,32895.765,40259.835,-13997.655,-26357.805,13402.395,20430.495
1764511113.4324374,35994.24,44489.07,32898.015,40262.4,-13995.72,-26356.455,13403.07,20432.385
1764511113.4324374,35991.494999999995,44487.045,32895.585,40259.97,-13997.61,-26358.525,13401.0,20429.73
1764511113.4324374,35994.78,44490.195,32898.96,40262.085,-13994.145,-26355.33,13403.655,20433.015
1764511113.4324374,35992.305,44487.9,32895.675,40260.105,-13996.98,-26357.805,13401.945,20430.765
1764511113.4324374,35988.795,44483.58,32891.49,40256.55,-14001.12,-26362.89,13399.335,20426.67
1764511113.4324374,35988.03,44483.76,32891.715,40256.01,-14001.12,-26363.43,13398.21,20425.815
1764511113.4324374,35990.46,44485.965,32894.1,40258.305,-13998.33,-26360.775,13399.695,20428.695
1764511113.4324374,35988.21,44483.49,32891.22,40256.055,-14001.615,-26362.575,13398.57,20426.805
1764511113.4324374,35987.58,44483.31,32890.725,40255.245,-14003.235,-26363.115,13397.58,20425.68
1764511113.4324374,35988.03,44483.805,32890.95,40254.93,-14002.425,-26362.62,13397.355,20425.86
1764511113.4324374,35990.685,44485.65,32892.57,40257.045,-13999.5,-26360.01,13398.12,20428.155
1764511113.4334424,35991.585,44486.325,32893.965,40258.125,-13998.78,-26359.515,13399.245,20429.055
1764511113.4334424,35991.585,44486.595,32893.785,40257.945,-13998.24,-26359.875,13400.055,20428.785
1764511113.4334424,35987.265,44482.23,32888.925,40252.86,-14001.885,-26364.195,13397.76,20425.275
1764511113.4334424,35987.355,44481.555,32889.33,40252.32,-14002.2,-26363.835,13397.76,20425.41
1764511113.4334424,35989.02,44483.4,32891.805,40254.255,-14000.895,-26362.845,13398.57,20426.895
1764511113.4334424,35992.485,44486.055,32894.775,40256.505,-13997.745,-26359.47,13400.01,20429.91
1764511113.4334424,35991.72,44485.065,32893.605,40254.255,-13998.69,-26360.82,13399.92,20429.1
1764511113.475958,35993.97,44487.045,32895.045,40256.19,-13995.405,-26358.885,13401.45,20431.53
1764511113.475958,35994.6,44487.045,32895.765,40256.415,-13994.865,-26359.02,13402.395,20431.98
1764511113.475958,35994.195,44486.775,32895.765,40255.74,-13995.225,-26358.75,13402.485,20432.07
1764511113.475958,35994.24,44486.82,32895.18,40255.47,-13995.765,-26358.12,13403.385,20432.475
1764511113.475958,35993.475,44486.91,32895.405,40256.055,-13995.72,-26358.165,13403.745,20432.745
1764511113.475958,35988.345,44482.005,32890.86,40251.555,-14000.22,-26362.98,13400.37,20428.875
1764511113.475958,35987.31,44480.43,32890.455,40249.98,-14001.48,-26363.79,13400.01,20428.56
1764511113.4769738,35986.994999999995,44479.575,32890.41,40249.62,-14001.66,-26363.79,13399.02,20427.93
1764511113.4769738,35990.01,44482.545,32893.244999999995,40252.815,-13999.005,-26360.19,13400.145,20430.315
1764511113.4769738,35989.02,44481.645,32892.165,40252.005,-13999.59,-26360.505,13399.47,20429.28
1764511113.4769738,35985.195,44478.36,32888.835,40249.215,-14002.605,-26363.115,13398.03,20426.31
1764511113.4769738,35989.875,44482.68,32893.695,40253.805,-13998.06,-26358.255,13401.495,20431.26
1764511113.4769738,35990.055,44482.86,32894.505,40253.895,-13998.105,-26357.985,13400.955,20431.08
1764511113.4769738,35990.145,44483.85,32895.494999999995,40254.03,-13996.935,-26357.4,13401.18,20431.53
1764511113.4779754,35991.45,44485.65,32896.71,40255.425,-13995.765,-26355.6,13402.395,20432.97
1764511113.4779754,35989.74,44483.67,32894.505,40253.58,-13996.98,-26356.77,13401.045,20430.945
1764511113.4779754,35988.75,44483.085,32894.235,40252.635,-13997.025,-26357.085,13400.82,20431.035
1764511113.4779754,35986.635,44481.285,32892.48,40250.07,-13998.195,-26358.48,13400.46,20429.055
1764511113.4779754,35987.31,44481.87,32893.38,40251.465,-13997.115,-26358.075,13401.495,20430.36
1764511113.4779754,35988.705,44483.355,32894.369999999995,40252.635,-13996.665,-26356.86,13402.575,20431.62
1764511113.4779754,35992.53,44487.585,32898.555,40256.37,-13993.02,-26352.63,13405.41,20435.76
1764511113.4779754,35993.385,44489.475,32900.22,40257.63,-13991.265,-26351.145,13407.345,20437.605
1764511113.524815,35992.395,44488.08,32899.32,40256.955,-13993.065,-26352.315,13407.075,20437.245
1764511113.524815,35991.18,44486.865,32899.095,40256.235,-13993.425,-26353.44,13408.11,20436.615
1764511113.524815,35995.5,44491.41,32903.505,40260.87,-13988.925,-26348.895,13411.53,20440.575
1764511113.524815,35991.36,44487.585,32899.5,40257.18,-13993.245,-26352.945,13409.055,20437.245
1764511113.524815,35989.695,44485.785,32897.97,40256.145,-13994.82,-26354.205,13407.21,20435.355
1764511113.524815,35989.695,44486.145,32898.195,40256.82,-13994.64,-26353.62,13406.94,20435.94
1764511113.524815,35989.064999999995,44485.92,32897.655,40257.495,-13993.83,-26353.17,13407.21,20436.345
1764511113.524815,35991.63,44488.53,32900.175,40260.285,-13990.905,-26350.965,13409.055,20439.36
1764511113.525843,35988.21,44484.57,32897.205,40257.09,-13994.28,-26354.565,13406.94,20435.67
1764511113.525843,35989.92,44486.235,32899.545,40259.25,-13993.02,-26352.18,13407.255,20437.245
1764511113.525843,35989.29,44485.83,32898.285,40258.845,-13993.425,-26351.91,13406.895,20437.02
1764511113.526827,35985.645,44482.23,32894.145,40256.145,-13996.125,-26355.33,13404.96,20433.915
1764511113.526827,35988.795,44486.055,32897.205,40259.07,-13993.02,-26352.765,13407.39,20436.525
1764511113.526827,35985.465,44482.59,32894.82,40256.145,-13995.54,-26355.87,13405.14,20432.835
1764511113.5273926,35985.285,44482.23,32894.19,40254.975,-13995.72,-26356.05,13404.96,20432.925
1764511113.5273926,35984.97,44482.14,32893.785,40254.345,-13996.08,-26356.455,13404.735,20433.105
1764511113.5273926,35984.744999999995,44481.51,32893.785,40253.985,-13996.125,-26356.05,13403.7,20431.71
1764511113.5278273,35984.88,44481.645,32893.605,40253.985,-13996.035,-26356.005,13404.555,20431.935
1764511113.5278273,35987.355,44483.355,32894.82,40255.335,-13994.37,-26354.43,13405.86,20433.87
1764511113.5278273,35984.34,44479.8,32891.58,40251.69,-13997.925,-26357.94,13403.61,20430.315
1764511113.5278273,35984.88,44480.205,32891.985,40252.32,-13996.89,-26357.625,13403.205,20430.405
1764511113.5278273,35982.855,44478.18,32890.32,40250.655,-13998.42,-26358.975,13402.395,20428.38
1764511113.5288308,35986.77,44482.365,32894.055,40254.795,-13994.235,-26354.835,13405.185,20432.61
1764511113.5288308,35985.735,44482.005,32894.235,40253.895,-13994.505,-26355.555,13404.06,20432.295
1764511113.5721018,35984.655,44481.105,32893.11,40252.635,-13995.675,-26356.905,13403.295,20431.575
1764511113.5721018,35980.875,44478.18,32888.88,40248.945,-13999.095,-26360.91,13401.675,20428.515
1764511113.5721018,35980.38,44477.46,32888.835,40249.08,-14000.04,-26361.405,13400.955,20427.66
1764511113.5721018,35981.01,44478.0,32889.51,40249.755,-13999.14,-26359.515,13400.685,20427.975
1764511113.5721018,35984.25,44480.745,32892.795,40252.905,-13996.17,-26356.5,13403.07,20430.99
1764511113.5726223,35982.72,44478.63,32890.905,40251.33,-13997.52,-26358.93,13402.035,20428.83
1764511113.5726223,35985.555,44481.285,32893.2,40254.03,-13995.18,-26355.915,13402.53,20431.665
1764511113.5726223,35986.005,44481.735,32894.145,40255.335,-13995.135,-26355.42,13403.25,20432.385
1764511113.5726223,35985.33,44479.935,32892.525,40254.3,-13996.215,-26356.14,13402.575,20431.35
1764511113.5726223,35981.369999999995,44477.01,32888.655,40250.43,-13999.635,-26359.245,13399.965,20428.02
1764511113.5726223,35983.305,44480.385,32890.77,40252.5,-13997.34,-26357.04,13401.09,20430.945
1764511113.5726223,35983.98,44480.97,32891.58,40252.41,-13996.845,-26356.5,13401.135,20431.305
1764511113.5726223,35982.855,44479.755,32889.96,40251.69,-13998.375,-26357.445,13401.045,20430.0
1764511113.5726223,35982.18,44480.025,32888.97,40251.33,-13997.88,-26357.445,13401.405,20429.91
1764511113.5726223,35985.105,44482.995,32891.94,40253.355,-13995.18,-26354.295,13402.935,20433.285
1764511113.5726223,35983.395,44480.745,32890.185,40251.735,-13997.43,-26355.555,13401.405,20431.53
1764511113.5726223,35978.67,44476.785,32886.63,40248.045,-14000.805,-26359.38,13398.75,20427.21
1764511113.5726223,35980.38,44478.36,32888.115,40249.485,-13998.87,-26358.12,13399.335,20429.37
1764511113.5726223,35981.145,44478.855,32888.295,40250.205,-13998.645,-26357.895,13399.83,20429.82
1764511113.5726223,35977.994999999995,44475.435,32884.965,40247.325,-14002.155,-26360.73,13396.725,20426.4
1764511113.5726223,35976.869999999995,44474.58,32884.11,40246.02,-14003.055,-26361.315,13395.285,20425.86
1764511113.5726223,35977.5,44475.435,32884.244999999995,40245.57,-14003.055,-26361.54,13395.42,20426.265
1764511113.5726223,35977.275,44474.715,32883.885,40244.76,-14003.28,-26361.495,13396.095,20426.31
1764511113.5726223,35974.935,44473.23,32882.31,40243.86,-14005.08,-26364.105,13395.51,20424.735
1764511113.6209698,35977.68,44476.785,32885.28,40246.785,-14002.92,-26361.54,13397.535,20427.93
1764511113.6209698,35975.655,44474.355,32882.67,40243.995,-14004.99,-26363.61,13396.185,20426.04
1764511113.6209698,35978.67,44477.28,32885.145,40246.11,-14002.65,-26361.495,13398.03,20429.055
1764511113.6209698,35979.255,44478.18,32885.82,40246.83,-14001.84,-26361.45,13398.48,20430.045
1764511113.6209698,35975.88,44474.67,32881.455,40244.04,-14004.675,-26364.015,13395.555,20427.435
1764511113.6209698,35969.85,44468.1,32875.244999999995,40238.01,-14010.705,-26369.955,13390.605,20421.63
1764511113.6209698,35970.615,44467.965,32876.28,40238.415,-14010.39,-26370.135,13389.525,20422.53
1764511113.6209698,35973.18,44470.08,32878.845,40241.205,-14007.555,-26367.255,13390.605,20425.23
1764511113.6209698,35973.405,44469.585,32878.26,40240.935,-14007.51,-26367.39,13390.38,20424.915
1764511113.6220984,35970.705,44466.48,32875.065,40238.01,-14010.255,-26370.27,13388.355,20422.035
1764511113.6220984,35966.7,44461.98,32870.79,40233.375,-14014.395,-26374.23,13385.385,20417.58
1764511113.6220984,35967.195,44462.61,32871.33,40233.87,-14013.54,-26373.645,13385.61,20418.525
1764511113.6220984,35971.515,44467.065,32876.235,40238.1,-14009.22,-26369.145,13389.39,20423.115
1764511113.6220984,35970.93,44465.49,32874.705,40236.795,-14010.48,-26369.595,13389.615,20422.395
1764511113.6220984,35973.99,44468.955,32878.035,40239.405,-14008.14,-26367.12,13391.46,20425.365
1764511113.6220984,35970.075,44464.275,32872.635,40235.355,-14012.955,-26371.665,13388.13,20421.54
1764511113.6220984,35969.175,44463.42,32871.869999999995,40234.77,-14013.63,-26372.565,13387.275,20421.45
1764511113.6220984,35971.244999999995,44464.905,32874.119999999995,40237.11,-14010.885,-26369.775,13388.49,20422.845
1764511113.6220984,35970.975,44464.095,32872.815,40237.065,-14011.38,-26370.315,13388.76,20422.305
1764511113.6220984,35967.06,44459.595,32868.405,40232.385,-14016.195,-26374.725,13385.61,20417.625
1764511113.6220984,35966.79,44459.235,32867.955,40231.98,-14016.42,-26375.67,13384.98,20417.4
1764511113.6220984,35966.61,44459.955,32868.135,40232.745,-14016.555,-26374.77,13384.845,20418.12
1764511113.6220984,35970.21,44463.195,32871.42,40236.21,-14013.945,-26370.45,13386.735,20421.27
1764511113.6220984,35972.145,44464.455,32872.905,40238.055,-14011.38,-26368.065,13388.76,20423.115
1764511113.6651912,35971.74,44463.285,32872.41,40237.695,-14011.245,-26369.055,13388.445,20422.395
1764511113.6651912,35966.655,44458.74,32867.235,40233.105,-14016.105,-26373.87,13384.215,20417.985
1764511113.6651912,35967.06,44458.425,32867.055,40233.51,-14016.51,-26373.87,13384.395,20418.435
1764511113.6651912,35968.14,44459.595,32868.045,40234.275,-14015.61,-26373.465,13384.755,20418.615
1764511113.6651912,35969.355,44460.855,32869.035,40235.22,-14014.755,-26373.285,13385.88,20420.415
1764511113.6651912,35969.49,44461.395,32869.26,40235.13,-14014.62,-26372.565,13385.97,20420.73
1764511113.6651912,35970.84,44461.395,32868.9,40235.67,-14013.495,-26371.665,13385.61,20421.585
1764511113.6651912,35973.405,44464.32,32871.735,40239.135,-14010.345,-26369.1,13387.095,20424.195
1764511113.6651912,35970.975,44463.285,32870.61,40237.02,-14012.325,-26371.62,13386.735,20422.755
1764511113.6651912,35971.92,44463.555,32872.005,40237.155,-14011.38,-26370.495,13387.86,20423.835
1764511113.6651912,35975.835,44466.795,32875.83,40241.295,-14007.195,-26366.22,13390.56,20427.615
1764511113.6651912,35973.675,44464.365,32872.86,40238.055,-14008.905,-26368.065,13389.48,20425.365
1764511113.6651912,35972.73,44464.95,32872.41,40237.695,-14009.67,-26368.38,13390.155,20424.96
1764511113.6651912,35973.494999999995,44466.435,32873.355,40238.82,-14007.87,-26367.3,13391.595,20425.635
1764511113.6651912,35974.305,44467.56,32874.795,40239.99,-14006.43,-26366.355,13391.82,20427.705
1764511113.6651912,35971.47,44464.23,32870.835,40236.75,-14009.85,-26370.045,13390.11,20424.42
1764511113.666209,35971.38,44463.915,32870.52,40237.29,-14010.12,-26369.01,13389.615,20424.285
1764511113.666209,35971.244999999995,44464.185,32869.619999999995,40237.56,-14009.895,-26368.56,13388.625,20424.465
1764511113.666209,35966.744999999995,44459.37,32864.805,40233.33,-14014.98,-26373.465,13384.89,20419.65
1764511113.666209,35967.689999999995,44460.18,32866.47,40233.78,-14014.845,-26372.025,13385.43,20421.18
1764511113.666209,35974.98,44466.705,32873.085,40238.775,-14008.32,-26365.77,13390.38,20427.885
1764511113.666209,35974.665,44466.48,32872.41,40237.695,-14008.77,-26366.985,13390.02,20426.94
1764511113.712269,35972.1,44463.51,32869.845,40235.085,-14010.615,-26370.09,13388.805,20424.105
1764511113.712269,35972.55,44463.96,32870.16,40236.03,-14009.355,-26368.875,13388.895,20425.86
1764511113.712269,35970.3,44461.44,32867.505,40233.96,-14012.28,-26371.305,13387.86,20423.745
1764511113.712269,35971.47,44462.97,32868.494999999995,40235.76,-14011.065,-26370.855,13388.58,20424.645
1764511113.712269,35968.545,44460.18,32866.785,40233.375,-14013.405,-26373.42,13387.455,20422.035
1764511113.712269,35967.78,44458.785,32866.11,40232.07,-14014.485,-26373.555,13386.825,20421.945
1764511113.712269,35969.265,44460.63,32867.369999999995,40233.51,-14013.045,-26372.43,13387.545,20423.16
1764511113.713266,35970.93,44462.52,32869.305,40235.22,-14011.065,-26370.945,13388.805,20424.555
1764511113.713266,35975.205,44467.47,32873.265,40239.81,-14007.06,-26366.58,13392.315,20429.46
1764511113.713266,35971.83,44464.77,32870.16,40236.345,-14010.12,-26369.325,13389.705,20425.815
1764511113.713266,35973.314999999995,44465.985,32871.555,40237.11,-14008.5,-26368.785,13390.11,20427.075
1764511113.713266,35969.939999999995,44462.565,32868.18,40234.185,-14011.965,-26372.295,13387.77,20423.475
1764511113.713266,35968.95,44462.205,32867.055,40233.105,-14013.855,-26372.655,13387.005,20422.485
1764511113.713266,35967.645,44461.35,32866.425,40232.07,-14014.305,-26373.78,13386.42,20421.18
1764511113.713266,35967.51,44460.99,32866.11,40231.305,-14014.44,-26373.915,13385.97,20421.72
1764511113.713266,35970.75,44464.005,32869.17,40234.23,-14011.515,-26370.405,13388.04,20425.455
1764511113.7145193,35970.795,44464.59,32869.44,40234.14,-14010.12,-26369.775,13388.58,20425.545
1764511113.7145193,35969.715,44464.005,32868.045,40232.52,-14011.74,-26371.125,13388.67,20424.06
1764511113.7145193,35972.64,44467.02,32871.735,40236.345,-14008.77,-26367.66,13391.37,20427.345
1764511113.7145193,35971.47,44466.12,32871.015,40235.535,-14009.895,-26369.415,13390.29,20425.77
1764511113.7145193,35969.67,44464.05,32868.494999999995,40233.87,-14011.83,-26371.89,13389.165,20423.88
1764511113.7145193,35971.695,44466.84,32870.61,40235.85,-14008.995,-26368.155,13390.47,20427.12
1764511113.7145193,35970.66,44465.895,32869.26,40234.455,-14009.895,-26368.74,13389.57,20426.76
1764511113.7145193,35969.805,44465.175,32868.855,40233.6,-14010.03,-26369.505,13389.03,20425.68
1764511113.7576785,35969.715,44465.985,32870.025,40234.32,-14009.535,-26369.505,13389.705,20425.815
1764511113.7576785,35969.58,44465.985,32870.16,40233.555,-14010.165,-26369.19,13390.11,20425.86
1764511113.7576785,35967.285,44463.42,32867.685,40230.585,-14012.775,-26371.485,13389.165,20423.385
1764511113.7576785,35970.66,44466.885,32871.69,40233.42,-14009.265,-26368.02,13392.045,20427.93
1764511113.7576785,35971.695,44467.56,32872.545,40234.59,-14007.42,-26367.3,13392.585,20428.83
1764511113.7576785,35971.605,44466.57,32871.555,40233.51,-14007.105,-26367.345,13392.225,20428.155
1764511113.7576785,35970.57,44466.03,32871.555,40232.565,-14008.14,-26368.02,13391.82,20427.66
1764511113.7576785,35967.465,44463.33,32869.26,40229.595,-14010.93,-26370.765,13390.38,20425.275
1764511113.7576785,35970.435,44466.255,32871.645,40231.71,-14008.815,-26368.965,13391.595,20427.885
1764511113.7576785,35968.185,44464.68,32869.35,40229.145,-14010.435,-26371.305,13390.02,20426.13
1764511113.7576785,35967.015,44463.78,32868.45,40229.145,-14010.615,-26372.115,13389.705,20425.41
1764511113.7576785,35969.085,44465.04,32870.16,40231.215,-14008.185,-26369.19,13390.83,20427.3
1764511113.7576785,35969.535,44465.76,32870.385,40231.125,-14008.905,-26368.605,13390.335,20428.11
1764511113.7576785,35971.605,44467.155,32871.869999999995,40232.43,-14007.195,-26367.345,13391.82,20429.325
1764511113.7591922,35971.785,44467.47,32871.96,40232.655,-14006.79,-26367.615,13392.765,20429.1
1764511113.7591922,35968.5,44464.68,32868.72,40229.19,-14010.12,-26370.315,13390.335,20425.59
1764511113.7602036,35971.56,44468.235,32871.825,40232.88,-14007.195,-26366.895,13392.09,20429.145
1764511113.7602036,35971.65,44468.73,32872.725,40234.185,-14005.98,-26366.445,13392.72,20429.46
1764511113.7602036,35968.635,44465.175,32869.17,40230.36,-14010.39,-26370.045,13390.11,20425.68
1764511113.7602036,35970.3,44466.885,32869.845,40231.71,-14009.265,-26369.055,13390.56,20427.21
1764511113.761205,35970.435,44467.425,32869.71,40232.25,-14008.905,-26369.01,13390.515,20427.345
1764511113.761205,35969.67,44466.705,32869.125,40231.215,-14009.805,-26369.235,13390.47,20426.31
1764511113.761205,35967.42,44465.31,32867.55,40229.325,-14011.515,-26370.765,13390.155,20424.6
1764511113.761205,35971.92,44470.575,32872.815,40233.645,-14006.745,-26366.535,13393.44,20429.595
1764511113.8066587,35972.01,44470.71,32872.86,40234.095,-14006.52,-26366.13,13393.935,20430.36
1764511113.8066587,35966.744999999995,44464.725,32867.145,40228.515,-14012.055,-26371.575,13389.21,20424.42
1764511113.8066587,35969.85,44468.055,32870.385,40231.485,-14009.355,-26368.605,13390.92,20427.21
1764511113.8066587,35970.93,44469.18,32871.24,40232.655,-14008.275,-26366.805,13392.18,20429.01
1764511113.8066587,35969.58,44468.82,32870.16,40232.115,-14008.905,-26367.885,13391.55,20428.065
1764511113.8076544,35966.7,44466.03,32868.27,40229.145,-14010.345,-26370.585,13389.48,20425.14
1764511113.8076544,35962.785,44461.71,32863.86,40225.815,-14014.125,-26374.815,13386.33,20420.415
1764511113.8076544,35964.63,44462.97,32865.255,40227.84,-14012.955,-26374.185,13387.725,20422.215
1764511113.8076544,35962.605,44460.405,32862.96,40225.005,-14015.61,-26376.57,13386.735,20420.19
1764511113.8076544,35964.63,44462.88,32866.2,40226.715,-14013.585,-26374.095,13388.985,20422.62
1764511113.8076544,35968.635,44465.985,32870.205,40229.28,-14009.625,-26370.405,13391.685,20426.445
1764511113.8076544,35966.61,44463.96,32868.494999999995,40226.67,-14011.29,-26372.61,13389.3,20424.555
1764511113.8076544,35962.875,44460.945,32864.265,40223.745,-14014.44,-26376.12,13387.005,20420.685
1764511113.8076544,35964.18,44462.115,32865.075,40224.645,-14013.765,-26374.86,13388.175,20421.81
1764511113.8076544,35966.43,44464.185,32868.225,40227.12,-14011.515,-26372.475,13390.47,20424.195
1764511113.8076544,35969.58,44466.48,32870.43,40230.27,-14008.275,-26370.495,13392.225,20426.985
1764511113.8076544,35965.935,44463.06,32866.605,40226.13,-14012.28,-26374.14,13389.84,20423.52
1764511113.8076544,35966.34,44463.33,32866.965,40227.12,-14011.38,-26373.15,13389.435,20424.69
1764511113.8076544,35969.535,44466.885,32870.835,40231.305,-14007.87,-26369.91,13391.01,20428.245
1764511113.8076544,35971.02,44468.145,32871.195,40231.935,-14006.52,-26368.83,13392.27,20429.775
1764511113.8076544,35970.885,44467.785,32870.16,40231.98,-14007.42,-26368.965,13392.585,20428.875
1764511113.8076544,35967.78,44464.32,32866.155,40228.38,-14011.515,-26372.52,13389.48,20424.78
1764511113.85119,35968.185,44464.095,32866.605,40228.83,-14010.84,-26372.655,13388.67,20425.005
1764511113.85119,35970.705,44466.525,32869.53,40230.9,-14007.825,-26370.675,13389.84,20427.795
1764511113.85119,35967.51,44463.87,32866.695,40227.03,-14011.155,-26373.42,13388.445,20424.33
1764511113.85119,35968.994999999995,44465.76,32868.81,40229.37,-14008.77,-26370.585,13390.56,20427.12
1764511113.85119,35972.82,44469.18,32871.869999999995,40233.555,-14006.16,-26367.615,13391.865,20430.63
1764511113.85119,35971.83,44467.785,32871.195,40233.51,-14007.15,-26368.695,13390.785,20430.045
1764511113.85119,35969.67,44465.31,32869.035,40231.845,-14008.77,-26370.81,13388.85,20428.65
1764511113.85119,35966.88,44463.285,32866.785,40229.82,-14010.48,-26372.88,13387.365,20425.995
1764511113.85119,35970.255,44467.065,32869.53,40233.465,-14007.15,-26369.955,13389.75,20429.82
1764511113.85119,35968.185,44464.545,32867.235,40231.485,-14010.165,-26372.295,13387.86,20427.435
1764511113.85119,35969.625,44466.795,32869.305,40233.195,-14008.14,-26369.91,13389.03,20429.055
1764511113.85119,35967.51,44464.5,32866.875,40230.855,-14010.75,-26371.53,13388.22,20427.435
1764511113.85119,35967.735,44464.5,32866.92,40230.945,-14010.12,-26371.98,13388.085,20427.48
1764511113.85119,35969.4,44465.625,32868.675,40232.385,-14008.365,-26369.865,13388.85,20428.515
1764511113.85119,35972.775,44469.63,32872.86,40236.48,-14004.72,-26365.815,13391.55,20432.34
1764511113.85119,35970.66,44467.155,32870.07,40233.825,-14007.195,-26368.38,13390.02,20430.225
1764511113.85119,35972.55,44469.0,32871.735,40235.445,-14005.98,-26366.715,13390.695,20431.485
1764511113.85119,35972.64,44468.595,32870.88,40234.95,-14006.565,-26367.795,13391.1,20431.305
1764511113.85119,35976.42,44472.06,32874.705,40237.92,-14003.235,-26364.645,13393.485,20434.59
1764511113.85119,35974.08,44468.955,32872.005,40234.77,-14005.485,-26366.67,13391.145,20431.395
1764511113.85119,35975.43,44470.755,32873.13,40236.21,-14003.37,-26364.42,13392.72,20433.735
1764511113.85119,35972.595,44467.695,32870.43,40233.735,-14006.205,-26367.39,13390.56,20431.035
1764511113.85119,35973.81,44467.965,32870.925,40234.005,-14006.115,-26367.3,13390.65,20431.44
1764511113.8522005,35976.51,44470.305,32874.03,40236.345,-14004.315,-26364.645,13392.27,20434.275
1764511113.8950064,35978.895,44473.635,32876.82,40239.315,-14001.435,-26362.17,13393.845,20436.84
1764511113.8950064,35976.015,44470.305,32873.805,40235.49,-14004.27,-26365.185,13391.55,20433.555
1764511113.896032,35976.96,44471.205,32874.435,40237.065,-14003.055,-26364.15,13392.36,20434.995
1764511113.897042,35976.375,44470.125,32874.705,40236.3,-14003.64,-26364.015,13392.585,20434.275
1764511113.897042,35980.11,44472.645,32877.9,40238.775,-14000.31,-26360.505,13394.61,20437.83
1764511113.8975563,35977.365,44469.81,32874.21,40236.075,-14003.91,-26363.79,13392.54,20434.455
1764511113.8975563,35979.119999999995,44471.34,32875.965,40238.1,-14002.155,-26361.945,13393.485,20436.03
1764511113.8975563,35976.555,44468.055,32873.535,40235.445,-14002.83,-26362.53,13392.36,20434.275
1764511113.8975563,35980.605,44471.295,32876.775,40238.775,-14000.04,-26359.83,13395.15,20437.92
1764511113.8975563,35978.85,44470.17,32875.065,40237.245,-14001.48,-26362.08,13394.07,20435.985
1764511113.8975563,35980.605,44472.645,32876.82,40239.36,-13999.23,-26360.28,13394.835,20438.145
1764511113.8975563,35979.255,44470.485,32875.02,40237.245,-14000.895,-26361.45,13393.755,20437.38
1764511113.8975563,35980.29,44470.35,32875.02,40238.145,-13999.995,-26360.73,13394.52,20438.055
1764511113.8975563,35983.53,44473.5,32877.72,40242.195,-13996.53,-26356.725,13396.995,20441.115
1764511113.8975563,35983.26,44473.905,32878.08,40242.33,-13995.99,-26356.23,13397.445,20441.295
1764511113.8975563,35978.265,44468.37,32872.5,40236.84,-14001.12,-26361.18,13393.44,20435.085
1764511113.898584,35977.32,44466.57,32871.42,40236.21,-14001.975,-26361.855,13392.225,20434.41
1764511113.898584,35978.4,44468.28,32872.5,40238.055,-14000.805,-26360.37,13392.855,20435.445
1764511113.899598,35980.38,44470.71,32874.255,40240.485,-13999.86,-26358.12,13393.62,20437.65
1764511113.899598,35976.645,44467.245,32869.98,40237.56,-14002.605,-26361.45,13390.695,20434.005
1764511113.9006028,35977.41,44468.28,32871.465,40238.595,-14000.805,-26360.1,13390.92,20435.805
1764511113.9006028,35974.935,44465.31,32868.81,40236.255,-14003.19,-26362.44,13390.245,20434.005
1764511113.9462972,35974.485,44465.355,32868.54,40235.85,-14004.54,-26363.52,13389.12,20432.79
1764511113.9462972,35976.555,44467.245,32870.744999999995,40237.245,-14002.74,-26361.315,13390.56,20434.68
1764511113.9462972,35980.155,44471.655,32875.155,40240.395,-13998.33,-26357.085,13393.305,20438.505
1764511113.9462972,35977.635,44470.035,32873.535,40238.595,-13999.905,-26358.57,13392.765,20437.02
1764511113.9462972,35974.575,44467.38,32871.06,40235.355,-14003.055,-26361.405,13391.505,20433.78
1764511113.9462972,35978.13,44470.935,32874.93,40238.685,-13999.5,-26357.94,13393.665,20437.155
1764511113.9462972,35977.5,44470.305,32874.119999999995,40237.92,-13999.545,-26358.57,13393.485,20436.255
1764511113.9462972,35974.08,44466.48,32869.53,40234.23,-14003.865,-26362.08,13391.145,20432.565
1764511113.9462972,35973.36,44466.03,32869.305,40235.265,-14004.135,-26362.395,13391.235,20432.61
1764511113.9462972,35974.305,44467.29,32870.61,40235.985,-14003.46,-26362.215,13391.28,20432.97
1764511113.9462972,35977.23,44470.53,32873.67,40238.235,-14000.265,-26359.335,13393.44,20435.4
1764511113.9462972,35976.915,44470.125,32873.355,40237.83,-13999.995,-26358.48,13393.755,20434.995
1764511113.9462972,35976.465,44468.865,32872.23,40237.65,-14000.49,-26359.29,13393.26,20435.085
1764511113.9462972,35972.91,44464.185,32868.18,40233.285,-14004.72,-26364.015,13390.11,20430.585
1764511113.9462972,35972.55,44464.005,32868.135,40233.195,-14005.44,-26364.69,13389.93,20429.955
1764511113.9462972,35972.325,44465.085,32868.36,40232.52,-14005.035,-26364.195,13390.245,20430.18
1764511113.9462972,35973.63,44466.21,32869.53,40233.375,-14004.09,-26362.8,13390.74,20431.305
1764511113.9462972,35976.915,44469.36,32872.545,40236.435,-14000.355,-26359.56,13392.405,20434.77
1764511113.9462972,35973.314999999995,44466.21,32869.125,40232.565,-14003.73,-26362.89,13390.335,20432.43
1764511113.9462972,35974.305,44467.605,32871.06,40233.78,-14001.93,-26361.9,13390.74,20434.32
1764511113.9462972,35974.935,44467.65,32871.6,40234.59,-14000.895,-26361.72,13390.92,20434.005
1764511113.9462972,35977.5,44470.035,32873.76,40236.255,-13999.41,-26359.29,13393.26,20435.94
1764511113.9462972,35977.68,44470.665,32873.985,40235.895,-14000.13,-26359.335,13392.45,20435.58
1764511113.9462972,35975.295,44467.74,32870.52,40233.645,-14002.695,-26362.08,13390.02,20433.375
1764511113.9910011,35974.395,44466.615,32870.16,40232.385,-14003.37,-26362.53,13389.885,20433.285
1764511113.9910011,35973.405,44466.255,32870.52,40231.575,-14003.865,-26363.565,13390.875,20432.925
1764511113.9910011,35974.26,44467.695,32871.42,40232.07,-14003.82,-26362.755,13392.225,20433.645
1764511113.9915073,35975.79,44468.865,32872.095,40232.475,-14002.965,-26361.945,13392.765,20434.365
1764511113.9915073,35975.925,44468.82,32872.815,40232.295,-14002.11,-26361.855,13392.855,20434.275
1764511113.9915073,35975.475,44468.685,32872.994999999995,40231.71,-14002.83,-26362.53,13393.035,20434.275
1764511113.9915073,35974.845,44468.235,32871.78,40229.73,-14003.46,-26364.195,13392.18,20433.465
1764511113.9915073,35976.645,44470.215,32873.175,40231.125,-14001.93,-26362.98,13393.89,20435.13
1764511113.9915073,35980.02,44474.355,32876.55,40234.23,-13998.15,-26359.965,13396.185,20438.82
1764511113.9915073,35979.435,44473.23,32875.83,40233.33,-13999.05,-26359.92,13394.565,20438.145
1764511113.9915073,35977.41,44471.25,32874.165,40231.53,-14000.445,-26361.72,13393.62,20436.48
1764511113.9915073,35973.225,44467.74,32870.7,40229.01,-14004.09,-26365.23,13392.225,20432.43
1764511113.9915073,35976.105,44470.755,32873.805,40232.115,-14001.39,-26362.44,13393.665,20435.85
1764511113.9915073,35975.744999999995,44470.35,32873.85,40231.53,-14001.75,-26362.845,13392.36,20435.805
1764511113.9915073,35974.71,44469.675,32872.68,40230.9,-14002.47,-26363.385,13391.55,20434.5
1764511113.9915073,35972.505,44467.335,32870.52,40228.785,-14004.405,-26365.635,13390.335,20432.16
1764511113.9915073,35975.744999999995,44469.81,32873.22,40231.71,-14001.66,-26362.71,13392.675,20435.85
1764511113.9915073,35978.67,44472.24,32875.515,40234.995,-13999.275,-26359.83,13395.555,20438.46
1764511113.9915073,35980.244999999995,44473.905,32876.73,40236.3,-13997.34,-26357.715,13396.77,20440.395
1764511113.9915073,35977.994999999995,44471.43,32874.39,40233.69,-13999.365,-26360.28,13394.07,20437.74
1764511113.9915073,35975.88,44468.82,32871.51,40230.855,-14002.11,-26362.98,13392.81,20434.86
1764511113.9915073,35979.705,44472.645,32875.335,40234.77,-13999.005,-26359.245,13395.195,20438.145
1764511114.0354826,35978.625,44472.645,32874.885,40234.185,-13999.68,-26360.235,13395.195,20437.695
1764511114.0354826,35973.72,44467.605,32869.53,40229.82,-14004.405,-26365.005,13391.595,20433.15
1764511114.0354826,35974.26,44468.505,32869.575,40230.045,-14003.82,-26363.925,13392.18,20433.51
1764511114.0354826,35978.625,44472.42,32872.994999999995,40232.79,-13999.59,-26359.785,13394.7,20437.38
1764511114.0354826,35978.175,44472.285,32872.905,40232.385,-13999.455,-26359.65,13394.025,20437.785
1764511114.0354826,35978.355,44472.195,32873.265,40232.52,-13999.455,-26359.74,13394.61,20437.785
1764511114.036479,35977.365,44470.845,32871.96,40231.755,-14000.49,-26360.82,13393.89,20437.245
1764511114.036479,35971.11,44464.545,32865.345,40226.04,-14006.52,-26366.265,13388.895,20430.9
1764511114.036479,35971.244999999995,44463.735,32865.57,40225.275,-14007.465,-26366.895,13388.445,20430.63
1764511114.036479,35973.945,44465.985,32868.09,40228.335,-14004.045,-26364.96,13389.48,20433.915
1764511114.036479,35972.235,44464.68,32866.47,40227.57,-14004.63,-26365.68,13388.535,20432.295
1764511114.036479,35968.005,44460.225,32862.6,40223.295,-14009.085,-26369.73,13386.24,20428.47
1764511114.036479,35968.23,44459.91,32862.735,40223.475,-14009.4,-26369.505,13385.7,20428.695
1764511114.036479,35971.38,44463.33,32865.66,40226.85,-14005.44,-26366.445,13387.545,20431.98
1764511114.036479,35969.625,44460.945,32863.185,40224.735,-14007.42,-26368.695,13386.06,20429.91
1764511114.036479,35973.585,44464.86,32867.235,40228.74,-14003.28,-26365.095,13388.85,20434.59
1764511114.036479,35974.485,44465.76,32868.494999999995,40229.955,-14002.065,-26363.7,13389.84,20435.895
1764511114.036479,35972.325,44463.06,32865.48,40227.705,-14004.315,-26366.58,13387.275,20432.61
1764511114.036479,35970.57,44460.495,32862.78,40224.645,-14006.385,-26368.83,13386.735,20429.595
1764511114.0374937,35973.45,44463.24,32865.885,40227.66,-14003.415,-26365.545,13388.535,20433.06
1764511114.0374937,35970.21,44459.685,32862.78,40225.275,-14006.655,-26368.74,13385.655,20430.36
1764511114.0374937,35971.65,44460.99,32863.815,40225.95,-14005.53,-26367.39,13386.06,20431.845
1764511114.0374937,35971.56,44460.81,32863.59,40225.545,-14006.655,-26367.255,13386.285,20430.72
1764511114.0374937,35970.119999999995,44459.145,32862.105,40224.645,-14008.005,-26368.695,13385.97,20428.605
1764511114.0806243,35971.425,44460.99,32863.23,40225.995,-14005.89,-26367.39,13386.6,20430.54
1764511114.0806243,35968.905,44458.155,32859.99,40222.395,-14008.455,-26370.27,13384.485,20427.93
1764511114.0806243,35972.055,44461.845,32863.725,40225.455,-14005.26,-26366.67,13386.78,20431.62
1764511114.0806243,35971.92,44460.72,32863.545,40225.275,-14005.53,-26366.535,13387.185,20431.395
1764511114.0816405,35972.145,44459.775,32862.69,40224.96,-14005.98,-26366.22,13387.68,20430.81
1764511114.0816405,35970.03,44458.47,32860.485,40222.665,-14008.14,-26368.515,13387.185,20428.92
1764511114.0816405,35973.54,44461.845,32863.77,40226.22,-14005.305,-26366.22,13388.31,20431.395
1764511114.0816405,35971.875,44459.865,32862.555,40224.42,-14006.565,-26367.435,13387.05,20429.55
1764511114.0816405,35969.355,44456.67,32859.585,40221.225,-14009.58,-26370.72,13385.61,20426.625
1764511114.0816405,35972.01,44459.91,32862.6,40224.06,-14006.79,-26367.39,13387.995,20430.225
1764511114.0816405,35970.075,44458.2,32861.07,40222.17,-14009.265,-26369.145,13387.455,20428.38
1764511114.0816405,35972.01,44460.0,32862.51,40223.34,-14008.05,-26368.155,13387.995,20429.82
1764511114.0816405,35974.755,44463.015,32865.435,40226.085,-14005.035,-26365.545,13389.57,20432.97
1764511114.0816405,35971.605,44459.64,32861.97,40223.52,-14007.87,-26368.335,13386.465,20429.64
1764511114.0836637,35971.02,44459.235,32861.52,40222.755,-14009.265,-26369.37,13385.97,20429.235
1764511114.0836637,35970.795,44459.64,32861.52,40222.35,-14009.805,-26369.055,13386.195,20429.145
1764511114.0836637,35966.88,44456.4,32857.56,40217.58,-14013.405,-26373.915,13384.26,20424.78
1764511114.0836637,35966.295,44456.085,32856.93,40217.22,-14012.955,-26374.59,13384.08,20424.78
1764511114.0836637,35969.535,44460.18,32860.71,40220.46,-14009.175,-26371.26,13385.835,20428.11
1764511114.0836637,35969.355,44460.495,32861.295,40220.415,-14007.825,-26370.405,13386.105,20428.515
1764511114.0836637,35968.185,44459.235,32859.855,40219.2,-14009.445,-26371.62,13385.295,20427.48
1764511114.0836637,35967.51,44457.885,32857.695,40217.535,-14011.335,-26373.6,13384.845,20426.13
1764511114.131543,35971.335,44462.475,32861.025,40220.955,-14007.465,-26369.73,13387.86,20429.685
1764511114.131543,35971.695,44462.835,32861.835,40221.72,-14007.42,-26368.965,13388.175,20430.135
1764511114.131543,35967.195,44458.785,32857.92,40218.255,-14011.245,-26373.105,13385.7,20425.95
1764511114.131543,35966.835,44457.885,32857.11,40217.49,-14012.145,-26373.645,13384.71,20424.96
1764511114.131543,35970.84,44462.07,32860.53,40220.73,-14008.59,-26370.405,13386.69,20429.505
1764511114.131543,35971.515,44462.88,32861.52,40220.955,-14008.185,-26369.73,13387.095,20430.585
1764511114.131543,35967.51,44458.155,32856.885,40216.185,-14013.18,-26374.455,13383.81,20426.805
1764511114.131543,35964.36,44455.14,32854.635,40213.575,-14015.43,-26376.93,13381.65,20423.295
1764511114.131543,35963.505,44454.465,32854.545,40213.215,-14015.7,-26377.875,13380.93,20422.26
1764511114.131543,35965.125,44455.905,32855.76,40215.15,-14014.395,-26376.795,13381.11,20423.34
1764511114.131543,35970.165,44461.035,32861.52,40219.47,-14008.905,-26371.62,13384.575,20428.965
1764511114.131543,35970.435,44461.485,32861.744999999995,40220.01,-14008.905,-26371.71,13384.305,20428.425
1764511114.131543,35967.33,44458.785,32859.27,40217.355,-14011.83,-26374.545,13383.045,20425.185
1764511114.131543,35966.7,44457.885,32858.91,40217.085,-14012.19,-26374.59,13382.235,20425.05
1764511114.131543,35967.78,44459.235,32860.575,40218.435,-14011.155,-26373.645,13382.775,20426.445
1764511114.131543,35970.119999999995,44461.485,32863.23,40220.46,-14008.005,-26370.945,13384.26,20428.605
1764511114.131543,35967.15,44458.29,32861.115,40218.435,-14010.12,-26373.015,13382.775,20424.78
1764511114.131543,35968.455,44460.945,32862.915,40220.685,-14007.015,-26370.72,13384.44,20426.805
1764511114.131543,35970.57,44463.285,32865.93,40224.015,-14003.505,-26367.66,13385.61,20429.775
1764511114.1325462,35968.095,44459.19,32863.41,40222.62,-14004.9,-26368.2,13385.205,20427.795
1764511114.1325462,35969.985,44460.585,32864.535,40224.195,-14002.65,-26364.915,13387.23,20430.495
1764511114.1325462,35965.71,44455.86,32858.82,40218.93,-14007.15,-26368.515,13384.755,20426.31
1764511114.1325462,35964.405,44454.645,32857.74,40218.435,-14008.005,-26368.875,13385.025,20425.545
1764511114.1325462,35967.06,44457.255,32860.395,40221.405,-14004.9,-26365.59,13387.41,20429.1
1764511114.1766794,35964.72,44453.97,32856.93,40219.2,-14006.97,-26367.615,13386.645,20426.805
1764511114.1766794,35966.385,44454.105,32857.47,40220.235,-14005.89,-26365.815,13387.455,20427.75
1764511114.1766794,35963.73,44450.46,32854.365,40216.365,-14008.41,-26368.515,13385.925,20425.32
1764511114.1766794,35967.195,44453.835,32857.335,40218.705,-14005.395,-26364.735,13388.04,20428.92
1764511114.1766794,35967.105,44453.52,32855.265,40218.255,-14005.665,-26365.32,13388.85,20430.045
1764511114.1766794,35968.635,44453.52,32854.23,40217.175,-14006.655,-26365.995,13390.02,20431.17
1764511114.1766794,35969.22,44453.295,32852.655,40214.97,-14008.005,-26366.67,13391.055,20432.295
1764511114.1766794,35967.195,44451.63,32850.045,40212.27,-14011.2,-26369.685,13390.29,20430.945
1764511114.1766794,35965.035,44449.695,32847.21,40209.705,-14014.485,-26373.555,13388.805,20428.11
1764511114.1766794,35966.34,44451.63,32849.55,40211.19,-14013.63,-26373.24,13388.535,20428.56
1764511114.1766794,35970.66,44456.85,32855.535,40215.195,-14009.94,-26369.685,13389.255,20432.385
1764511114.1766794,35971.695,44458.47,32857.02,40216.77,-14009.085,-26369.55,13389.03,20432.565
1764511114.1766794,35967.689999999995,44455.23,32854.545,40213.935,-14011.74,-26373.015,13385.52,20428.38
1764511114.1766794,35969.085,44456.22,32857.02,40215.78,-14010.39,-26371.305,13386.51,20429.595
1764511114.1766794,35971.02,44458.29,32859.27,40218.795,-14008.005,-26369.325,13386.78,20431.845
1764511114.1766794,35969.58,44456.67,32858.325,40218.3,-14008.995,-26370.495,13385.97,20430.495
1764511114.1766794,35973.09,44459.37,32861.61,40221.135,-14006.52,-26368.065,13387.545,20432.745
1764511114.1766794,35969.985,44455.86,32857.83,40218.525,-14009.22,-26371.755,13385.07,20429.235
1764511114.1766794,35969.715,44455.32,32857.244999999995,40218.12,-14009.355,-26371.98,13384.575,20429.73
1764511114.1766794,35971.38,44457.93,32859.045,40219.47,-14007.195,-26369.55,13385.97,20431.71
1764511114.1766794,35974.575,44461.53,32862.869999999995,40223.205,-14003.415,-26365.41,13388.715,20435.58
1764511114.1766794,35976.015,44464.455,32864.895,40225.77,-14000.715,-26363.205,13391.145,20438.19
1764511114.2210827,35976.42,44464.815,32865.255,40226.13,-14000.04,-26363.16,13392.135,20438.955
1764511114.2210827,35974.35,44462.655,32863.68,40224.915,-14001.705,-26365.275,13390.65,20436.885
1764511114.2210827,35970.345,44458.56,32859.855,40221.405,-14006.025,-26368.65,13387.77,20432.97
1764511114.2210827,35970.615,44459.82,32860.26,40222.08,-14006.115,-26368.11,13388.22,20433.69
1764511114.2210827,35974.08,44462.565,32863.545,40224.87,-14002.605,-26364.69,13389.93,20436.975
1764511114.2210827,35972.055,44460.045,32861.52,40222.305,-14004.945,-26366.58,13387.635,20434.905
1764511114.2210827,35968.185,44456.94,32858.055,40219.38,-14008.365,-26370.495,13384.62,20430.855
1764511114.2210827,35968.05,44457.255,32858.46,40219.155,-14008.23,-26370.045,13385.385,20430.945
1764511114.2210827,35968.23,44456.985,32858.46,40218.975,-14007.645,-26370.18,13385.745,20431.125
1764511114.2210827,35968.455,44457.48,32858.235,40219.605,-14007.015,-26369.64,13386.735,20431.8
1764511114.2210827,35969.445,44458.92,32859.045,40220.055,-14006.115,-26368.38,13387.32,20432.43
1764511114.2210827,35972.46,44462.43,32863.095,40223.61,-14001.75,-26364.825,13390.29,20435.67
1764511114.2223058,35971.965,44462.34,32862.96,40224.51,-14002.29,-26365.59,13390.2,20435.355
1764511114.2223058,35970.795,44461.17,32862.105,40222.89,-14003.505,-26366.94,13388.895,20434.005
1764511114.2223058,35970.75,44461.215,32861.744999999995,40221.27,-14003.865,-26366.805,13389.345,20433.87
1764511114.2233193,35967.96,44459.28,32859.045,40218.48,-14006.97,-26369.055,13388.22,20431.305
1764511114.2233193,35970.705,44463.105,32861.835,40221.36,-14004.405,-26365.815,13390.515,20433.87
1764511114.2233193,35968.455,44461.395,32859.945,40219.74,-14006.34,-26367.57,13388.985,20431.845
1764511114.2244291,35969.805,44463.06,32861.43,40221.225,-14004.9,-26365.995,13389.795,20433.465
1764511114.2244291,35966.52,44459.865,32857.875,40218.12,-14008.41,-26369.865,13388.13,20430.315
1764511114.2244291,35965.26,44458.875,32856.75,40217.13,-14009.76,-26371.395,13387.635,20428.875
1764511114.2244291,35966.25,44460.225,32857.965,40217.625,-14008.68,-26370.495,13388.58,20430.0
1764511114.2254314,35967.6,44461.8,32859.99,40218.795,-14007.06,-26368.74,13389.66,20431.98
1764511114.2254314,35970.795,44465.67,32863.41,40222.305,-14003.055,-26365.365,13391.91,20435.175
1764511114.2697573,35970.66,44464.68,32862.735,40221.81,-14003.19,-26366.13,13391.955,20434.905
1764511114.2697573,35966.835,44461.035,32858.955,40217.715,-14006.655,-26369.595,13388.805,20431.44
1764511114.2697573,35967.015,44461.935,32859.494999999995,40218.39,-14007.105,-26368.29,13389.345,20432.07
1764511114.2697573,35971.47,44466.57,32862.869999999995,40222.71,-14002.785,-26363.745,13391.505,20436.75
1764511114.2697573,35971.335,44466.21,32862.69,40222.935,-14002.74,-26364.33,13391.37,20436.66
1764511114.2697573,35971.244999999995,44465.22,32862.42,40222.485,-14002.965,-26365.14,13390.605,20436.12
1764511114.2697573,35971.515,44464.77,32861.97,40222.215,-14003.145,-26365.77,13389.75,20435.625
1764511114.2697573,35971.244999999995,44464.095,32861.565,40221.405,-14003.145,-26365.68,13389.885,20435.4
1764511114.2697573,35968.994999999995,44461.8,32859.494999999995,40219.11,-14005.98,-26367.705,13389.075,20433.6
1764511114.2697573,35973.585,44466.48,32864.04,40223.925,-14001.975,-26363.205,13391.82,20438.415
1764511114.2697573,35972.955,44467.11,32863.994999999995,40224.06,-14002.065,-26363.61,13391.91,20437.83
1764511114.2697573,35969.13,44462.43,32860.08,40220.01,-14006.07,-26367.84,13388.67,20434.005
1764511114.2697573,35971.74,44464.635,32862.15,40222.665,-14004.0,-26365.77,13389.84,20436.255
1764511114.2697573,35969.445,44462.34,32859.54,40220.235,-14007.105,-26367.84,13389.21,20433.915
1764511114.2697573,35969.355,44461.62,32859.225,40218.885,-14007.33,-26367.84,13389.435,20433.195
1764511114.2697573,35969.805,44462.07,32859.81,40219.155,-14006.205,-26366.355,13389.75,20434.23
1764511114.2697573,35970.57,44462.835,32860.26,40220.19,-14005.53,-26365.14,13389.93,20434.275
1764511114.2717657,35971.335,44463.6,32861.205,40220.865,-14004.495,-26364.69,13390.02,20434.77
1764511114.2717657,35968.86,44460.72,32858.865,40217.94,-14007.195,-26367.57,13388.355,20431.575
1764511114.2717657,35973.18,44464.32,32863.005,40221.36,-14002.245,-26363.61,13391.595,20435.31
1764511114.2717657,35974.8,44465.76,32864.535,40222.71,-14000.895,-26362.08,13392.945,20436.66
1764511114.2717657,35973.135,44463.69,32862.195,40220.55,-14002.83,-26363.745,13391.145,20434.995
1764511114.2717657,35972.145,44462.385,32861.34,40218.93,-14003.955,-26364.735,13390.83,20434.365
1764511114.2717657,35969.175,44458.785,32857.47,40215.06,-14007.735,-26368.965,13388.895,20431.485
1764511114.318739,35969.535,44458.11,32857.47,40214.43,-14007.915,-26369.145,13388.445,20432.025
1764511114.318739,35970.48,44459.28,32858.19,40215.78,-14007.105,-26367.84,13388.76,20433.555
1764511114.318739,35970.57,44459.595,32858.775,40215.555,-14007.195,-26367.66,13388.58,20434.275
1764511114.318739,35971.29,44459.235,32859.405,40215.735,-14006.925,-26366.67,13388.805,20435.22
1764511114.318739,35971.92,44459.73,32859.72,40215.96,-14005.62,-26366.175,13389.57,20435.94
1764511114.318739,35976.285,44464.23,32864.31,40221.135,-14000.625,-26361.765,13392.81,20440.485
1764511114.318739,35975.97,44463.42,32864.13,40221.63,-14000.715,-26361.945,13392.72,20440.395
1764511114.318739,35970.3,44457.21,32857.92,40214.97,-14005.71,-26367.84,13388.355,20433.645
1764511114.318739,35969.49,44456.31,32856.885,40214.25,-14006.61,-26368.56,13387.77,20433.015
1764511114.318739,35968.86,44455.68,32856.435,40214.61,-14006.88,-26368.74,13386.555,20432.475
1764511114.318739,35968.95,44455.815,32856.03,40215.195,-14007.105,-26369.415,13385.88,20431.845
1764511114.318739,35966.97,44454.375,32854.725,40213.98,-14008.095,-26370.585,13384.17,20430.405
1764511114.318739,35966.07,44454.105,32855.13,40214.115,-14008.275,-26370.36,13384.53,20431.08
1764511114.318739,35966.564999999995,44454.195,32855.085,40214.34,-14008.59,-26369.82,13384.89,20430.855
1764511114.318739,35968.41,44455.59,32856.795,40216.455,-14006.655,-26368.335,13385.34,20433.33
1764511114.318739,35966.61,44453.745,32854.905,40214.7,-14007.555,-26369.91,13384.08,20431.53
1764511114.318739,35969.445,44456.805,32857.695,40217.625,-14004.18,-26365.68,13386.465,20434.185
1764511114.3197343,35967.78,44455.86,32856.705,40216.68,-14005.665,-26367.255,13385.07,20433.195
1764511114.3197343,35965.845,44453.115,32854.455,40213.98,-14008.545,-26370.225,13384.125,20430.81
1764511114.3197343,35967.51,44454.33,32855.76,40214.925,-14007.51,-26368.83,13385.61,20431.98
1764511114.3197343,35970.885,44458.245,32858.82,40218.39,-14004.225,-26365.005,13387.095,20435.895
1764511114.3197343,35969.22,44456.805,32857.335,40216.995,-14005.395,-26366.085,13385.97,20434.23
1764511114.3197343,35965.755,44453.61,32854.41,40213.62,-14008.32,-26368.92,13384.035,20430.27
1764511114.3197343,35968.41,44456.625,32857.65,40216.41,-14004.72,-26365.635,13385.88,20433.96
1764511114.3644772,35968.77,44457.615,32857.83,40216.725,-14004.72,-26364.915,13385.385,20434.32
1764511114.3644772,35969.355,44458.425,32858.775,40217.985,-14004.09,-26364.15,13385.88,20435.04
1764511114.3644772,35969.535,44458.83,32859.36,40218.705,-14003.19,-26364.24,13386.825,20435.94
1764511114.3644772,35968.185,44456.985,32857.965,40217.31,-14005.395,-26365.905,13385.34,20433.645
1764511114.3644772,35966.97,44455.905,32857.2,40216.68,-14005.935,-26365.995,13384.485,20432.655
1764511114.3644772,35964.855,44452.845,32854.14,40214.115,-14008.365,-26368.155,13383.63,20430.405
1764511114.3644772,35964.135,44452.53,32854.005,40212.855,-14008.68,-26368.065,13383.585,20430.135
1764511114.3644772,35964.765,44453.385,32855.355,40212.765,-14007.825,-26367.57,13383.945,20430.81
1764511114.3644772,35965.395,44454.15,32856.48,40213.575,-14006.97,-26367.435,13384.8,20431.71
1764511114.3644772,35966.475,44455.635,32858.325,40215.42,-14005.755,-26365.86,13385.835,20433.195
1764511114.3655057,35964.99,44454.69,32857.425,40214.835,-14006.52,-26366.58,13385.565,20432.07
1764511114.3655057,35963.505,44453.655,32856.03,40214.16,-14007.555,-26367.84,13385.925,20430.63
1764511114.3655057,35966.88,44457.21,32859.72,40217.94,-14003.46,-26364.015,13387.905,20434.365
1764511114.3655057,35964.36,44454.15,32856.93,40215.78,-14005.89,-26366.4,13384.935,20431.035
1764511114.3655057,35960.76,44450.37,32853.42,40211.82,-14009.4,-26370.36,13383.18,20427.48
1764511114.3655057,35962.11,44452.035,32854.905,40213.26,-14008.05,-26368.38,13384.755,20428.83
1764511114.3655057,35965.755,44455.725,32858.82,40217.265,-14004.315,-26364.51,13386.645,20432.07
1764511114.3655057,35965.53,44454.87,32859.405,40216.86,-14004.495,-26364.78,13386.51,20431.485
1764511114.3655057,35965.305,44454.465,32859.045,40216.995,-14004.27,-26366.04,13386.33,20431.26
1764511114.3655057,35964.18,44453.61,32857.695,40215.69,-14004.54,-26367.12,13385.925,20430.045
1764511114.3655057,35966.61,44456.805,32860.575,40217.805,-14002.38,-26363.79,13386.96,20432.655
1764511114.3655057,35967.195,44455.635,32860.08,40217.31,-14002.965,-26364.105,13386.78,20432.07
1764511114.3655057,35970.93,44458.605,32863.14,40221.63,-13999.005,-26360.82,13389.03,20436.12
1764511114.3655057,35970.57,44459.055,32863.32,40222.62,-13998.195,-26360.325,13388.85,20436.165
1764511114.4091096,35971.47,44459.055,32863.23,40222.395,-13998.105,-26359.695,13388.58,20435.445
1764511114.4091096,35969.13,44456.22,32859.855,40219.335,-14000.355,-26362.305,13387.005,20432.385
1764511114.4091096,35968.59,44456.355,32859.405,40218.705,-14001.705,-26362.98,13387.005,20432.565
1764511114.4091096,35967.96,44456.13,32860.17,40219.245,-14001.705,-26362.89,13386.285,20432.34
1764511114.4101286,35968.455,44456.49,32860.98,40220.82,-14000.85,-26362.17,13386.465,20432.43
1764511114.4101286,35969.895,44458.38,32862.869999999995,40223.115,-13998.78,-26360.37,13387.5,20434.77
1764511114.4101286,35969.445,44458.92,32862.735,40223.655,-13999.365,-26360.28,13387.14,20434.68
1764511114.4101286,35970.119999999995,44459.37,32862.375,40223.745,-13999.455,-26359.74,13386.645,20434.59
1764511114.4101286,35967.735,44457.165,32859.81,40222.215,-14001.165,-26361.63,13384.08,20432.79
1764511114.4101286,35965.71,44455.545,32858.055,40220.595,-14002.605,-26363.115,13382.82,20431.305
1764511114.4101286,35965.395,44455.005,32857.47,40220.82,-14002.875,-26362.98,13382.73,20431.62
1764511114.4101286,35963.73,44453.205,32855.85,40217.985,-14005.08,-26365.14,13381.92,20429.82
1764511114.4101286,35967.78,44457.84,32860.17,40221.36,-14001.345,-26361.495,13384.98,20433.195
1764511114.4101286,35969.805,44460.27,32861.61,40224.015,-13997.97,-26359.11,13387.005,20435.76
1764511114.4101286,35967.6,44457.84,32859.63,40221.765,-14000.58,-26361.135,13385.52,20433.735
1764511114.4101286,35967.33,44458.155,32859.855,40222.08,-14000.355,-26360.775,13384.755,20433.69
1764511114.4101286,35964.63,44455.68,32857.02,40219.83,-14002.92,-26364.33,13382.775,20431.305
1764511114.4101286,35969.31,44460.135,32861.16,40223.07,-13998.15,-26360.28,13385.07,20435.355
1764511114.4101286,35969.85,44460.27,32861.115,40222.665,-13997.925,-26359.92,13385.88,20435.13
1764511114.4101286,35965.71,44456.4,32857.065,40218.705,-14002.065,-26363.52,13382.865,20430.945
1764511114.4101286,35968.185,44458.965,32859.9,40221.9,-13999.455,-26361.27,13384.71,20434.005
1764511114.4101286,35965.71,44456.985,32857.56,40219.695,-14001.21,-26363.43,13383.135,20432.205
1764511114.4111266,35965.395,44456.085,32856.705,40218.705,-14002.155,-26363.52,13382.73,20431.845
1764511114.4111266,35963.955,44454.51,32855.625,40217.58,-14003.505,-26364.555,13381.605,20430.045
1764511114.4583137,35963.595,44453.43,32854.86,40216.725,-14004.765,-26365.365,13381.155,20429.1
1764511114.4583137,35965.53,44454.555,32855.445,40217.85,-14003.55,-26364.015,13382.01,20430.495
1764511114.4583137,35968.32,44457.12,32858.1,40221.045,-14000.985,-26361.09,13383.18,20434.59
1764511114.4583137,35966.655,44455.95,32856.84,40219.74,-14002.155,-26362.665,13381.83,20433.06
1764511114.4583137,35970.66,44459.865,32860.35,40223.385,-13998.105,-26359.335,13384.305,20436.21
1764511114.4583137,35970.255,44459.595,32860.125,40222.98,-13998.465,-26359.56,13384.17,20436.705
1764511114.4583137,35969.04,44458.335,32858.46,40221.27,-14000.22,-26360.73,13383.9,20435.31
1764511114.4593084,35967.78,44456.58,32857.244999999995,40218.795,-14001.75,-26361.675,13383.36,20434.095
1764511114.4593084,35970.84,44459.775,32860.575,40221.585,-13998.915,-26358.075,13386.285,20438.01
1764511114.4598172,35969.805,44458.47,32859.09,40219.92,-14000.04,-26360.055,13386.105,20436.705
1764511114.4598172,35972.505,44461.53,32861.295,40222.08,-13997.655,-26357.13,13388.04,20439.225
1764511114.4598172,35969.895,44458.695,32858.82,40219.56,-14000.445,-26359.425,13387.095,20437.695
1764511114.4598172,35970.615,44457.885,32858.73,40219.695,-14000.58,-26360.1,13386.735,20437.245
1764511114.4608326,35972.235,44458.92,32858.955,40220.64,-13999.32,-26359.29,13387.095,20438.055
1764511114.4608326,35974.439999999995,44461.08,32861.43,40222.89,-13996.62,-26356.86,13388.76,20440.71
1764511114.4608326,35970.03,44455.41,32856.435,40218.66,-14000.94,-26361.135,13385.16,20436.3
1764511114.4608326,35971.56,44457.39,32858.19,40221.27,-13999.32,-26359.695,13386.195,20438.685
1764511114.4608326,35971.02,44456.58,32857.335,40219.875,-14000.265,-26360.37,13385.88,20438.37
1764511114.461835,35968.095,44453.295,32854.23,40216.815,-14003.46,-26363.655,13384.305,20435.67
1764511114.4623537,35969.085,44453.97,32855.895,40218.93,-14002.38,-26362.44,13384.935,20436.93
1764511114.463364,35968.86,44454.015,32855.49,40219.38,-14002.065,-26362.17,13384.575,20436.525
1764511114.463364,35967.915,44452.98,32854.68,40218.57,-14002.92,-26362.35,13384.71,20435.445
1764511114.463364,35964.63,44448.885,32850.405,40214.97,-14007.195,-26366.265,13382.145,20430.63
1764511114.463364,35966.205,44450.28,32851.89,40216.095,-14005.755,-26365.365,13383.405,20433.015
1764511114.5057,35969.445,44453.835,32855.535,40220.775,-14001.975,-26361.63,13385.07,20436.93
1764511114.5057,35967.6,44452.125,32853.375,40218.705,-14003.865,-26363.655,13384.08,20435.265
1764511114.5057,35970.119999999995,44454.51,32855.76,40220.91,-14000.895,-26361.99,13385.115,20437.65
1764511114.5057,35967.735,44452.125,32853.51,40219.2,-14002.695,-26363.34,13383.495,20436.21
1764511114.5057,35970.075,44454.87,32856.03,40221.72,-13999.59,-26360.415,13384.62,20438.82
1764511114.5057,35971.695,44456.4,32856.615,40222.53,-13998.24,-26359.47,13385.34,20439.72
1764511114.5057,35971.47,44455.545,32855.895,40221.675,-13999.275,-26359.92,13384.98,20439.495
1764511114.5057,35970.615,44453.79,32854.23,40219.605,-14000.58,-26362.08,13384.035,20438.37
1764511114.5057,35968.095,44450.955,32851.53,40216.995,-14003.46,-26364.915,13382.595,20435.22
1764511114.5057,35971.65,44454.42,32854.86,40220.685,-13999.815,-26361.405,13384.62,20438.865
1764511114.5057,35972.325,44455.365,32855.67,40220.685,-13999.14,-26360.775,13385.52,20439.405
1764511114.5057,35966.88,44450.01,32850.36,40215.42,-14004.945,-26366.265,13381.2,20433.375
1764511114.5057,35967.06,44450.01,32849.595,40215.645,-14005.17,-26366.445,13381.605,20433.195
1764511114.5057,35968.905,44451.99,32851.305,40216.95,-14003.235,-26364.555,13383.72,20434.77
1764511114.5057,35969.58,44452.35,32851.755,40217.67,-14002.56,-26363.88,13383.495,20435.49
1764511114.5057,35974.71,44457.93,32856.885,40223.205,-13997.295,-26358.795,13387.32,20440.665
1764511114.5074315,35974.17,44457.795,32856.435,40222.62,-13997.88,-26359.245,13387.59,20439.945
1764511114.5074315,35970.119999999995,44452.71,32850.99,40217.355,-14002.47,-26364.285,13384.62,20436.165
1764511114.5074315,35970.975,44453.925,32851.53,40216.905,-14001.795,-26363.34,13384.935,20437.02
1764511114.5074315,35973.045,44456.58,32853.645,40219.92,-13999.5,-26360.415,13386.915,20438.46
1764511114.5074315,35977.905,44461.845,32859.045,40224.96,-13994.595,-26355.735,13390.65,20443.095
1764511114.5074315,35974.935,44458.74,32856.075,40222.305,-13997.79,-26358.795,13387.095,20440.215
1764511114.5512707,35970.255,44453.655,32850.945,40217.67,-14002.245,-26363.88,13383.36,20435.04
1764511114.5512707,35969.445,44453.745,32851.035,40217.805,-14001.84,-26363.565,13383.18,20435.265
1764511114.5512707,35971.335,44455.995,32852.97,40219.605,-14000.535,-26361.72,13384.035,20437.605
1764511114.5512707,35967.51,44452.44,32849.055,40216.32,-14004.18,-26365.59,13380.84,20434.005
1764511114.5512707,35965.755,44450.595,32847.3,40215.105,-14005.26,-26367.075,13378.905,20432.16
1764511114.5512707,35966.385,44452.53,32847.93,40216.635,-14004.135,-26365.905,13379.535,20432.925
1764511114.5512707,35970.21,44455.77,32851.845,40220.1,-14000.58,-26362.395,13382.01,20436.21
1764511114.5512707,35968.994999999995,44454.285,32850.81,40218.66,-14002.965,-26363.52,13381.155,20434.365
1764511114.5512707,35971.47,44457.885,32853.96,40222.125,-13999.545,-26360.1,13383.045,20438.73
1764511114.5512707,35966.88,44453.79,32849.19,40218.255,-14003.325,-26364.285,13379.805,20434.635
1764511114.5512707,35968.68,44454.78,32850.765,40220.235,-14001.345,-26362.62,13380.93,20435.985
1764511114.5512707,35965.395,44451.945,32847.975,40217.67,-14004.225,-26365.5,13378.86,20433.105
1764511114.5512707,35965.17,44451.45,32847.66,40217.805,-14005.44,-26366.625,13378.23,20432.835
1764511114.5512707,35965.395,44451.495,32847.21,40217.58,-14005.485,-26366.715,13378.005,20432.7
1764511114.5512707,35964.9,44451.9,32847.48,40217.895,-14004.99,-26366.625,13378.05,20432.61
1764511114.5522718,35967.33,44454.285,32849.685,40219.83,-14002.29,-26364.465,13379.085,20434.995
1764511114.5522718,35965.755,44453.205,32848.425,40218.57,-14003.73,-26365.68,13378.005,20433.735
1764511114.5522718,35963.505,44450.37,32845.545,40216.59,-14006.7,-26367.84,13377.06,20430.72
1764511114.5522718,35964.494999999995,44451.405,32847.255,40218.12,-14004.72,-26366.445,13377.195,20431.755
1764511114.5522718,35962.29,44449.965,32845.275,40216.095,-14006.34,-26367.795,13375.305,20429.91
1764511114.5522718,35961.03,44448.57,32843.295,40213.98,-14008.365,-26368.965,13375.305,20428.605
1764511114.5522718,35963.369999999995,44450.55,32845.275,40216.14,-14005.98,-26367.12,13376.43,20431.44
1764511114.5522718,35960.805,44448.84,32843.744999999995,40213.845,-14007.78,-26369.28,13374.99,20429.01
1764511114.5522718,35962.83,44450.37,32845.86,40216.23,-14005.17,-26366.895,13375.71,20430.63
1764511114.5953798,35964.045,44450.955,32846.895,40217.085,-14004.495,-26366.04,13376.43,20431.71
1764511114.5959113,35965.305,44452.305,32847.975,40218.03,-14003.865,-26364.78,13377.555,20432.97
1764511114.5959113,35965.215,44452.17,32848.244999999995,40218.66,-14003.325,-26364.42,13377.735,20433.33
1764511114.5959113,35965.665,44451.945,32848.47,40219.245,-14002.245,-26363.88,13378.365,20433.645
1764511114.5959113,35965.575,44451.225,32847.795,40219.245,-14002.785,-26364.375,13378.455,20433.15
1764511114.5959113,35959.994999999995,44446.185,32842.71,40215.015,-14008.68,-26369.865,13374.54,20428.47
1764511114.5959113,35961.795,44447.58,32844.285,40216.635,-14006.88,-26368.02,13375.53,20430.36
1764511114.5959113,35961.21,44446.905,32843.115,40215.735,-14007.33,-26368.38,13374.36,20429.145
1764511114.5959113,35960.939999999995,44446.365,32841.36,40214.295,-14008.095,-26369.37,13374.27,20428.56
1764511114.5959113,35959.32,44443.935,32839.47,40212.18,-14009.715,-26371.665,13373.775,20426.985
1764511114.5959113,35963.46,44448.75,32844.33,40216.77,-14005.17,-26367.435,13377.375,20431.305
1764511114.5959113,35961.255,44445.87,32841.045,40215.15,-14008.005,-26369.865,13376.925,20429.64
1764511114.5959113,35960.895,44445.42,32840.91,40214.88,-14008.5,-26369.91,13376.34,20429.1
1764511114.5959113,35964.855,44449.335,32844.96,40218.48,-14004.09,-26365.995,13378.86,20432.295
1764511114.5959113,35965.395,44450.055,32845.59,40219.92,-14003.235,-26364.915,13379.535,20432.745
1764511114.5959113,35961.705,44446.185,32840.64,40215.6,-14007.465,-26368.515,13376.835,20429.055
1764511114.5959113,35961.75,44446.41,32840.775,40215.06,-14007.42,-26368.47,13377.06,20429.01
1764511114.5959113,35962.515,44446.77,32842.125,40216.185,-14006.475,-26367.435,13377.195,20430.135
1764511114.5969417,35964.81,44449.335,32844.51,40219.335,-14004.27,-26365.23,13378.545,20431.98
1764511114.5969417,35963.369999999995,44447.715,32842.485,40218.615,-14005.665,-26366.715,13378.59,20430.495
1764511114.5969417,35965.98,44450.19,32844.33,40221.045,-14003.64,-26363.385,13379.22,20433.42
1764511114.5969417,35964.494999999995,44448.435,32842.44,40218.93,-14005.935,-26365.32,13378.545,20430.945
1764511114.6444929,35967.285,44451.855,32845.635,40221.81,-14002.965,-26362.53,13381.02,20433.375
1764511114.6444929,35965.619999999995,44450.055,32844.33,40220.19,-14004.18,-26363.88,13380.21,20431.935
1764511114.6444929,35965.8,44450.37,32844.869999999995,40221.315,-14002.65,-26363.43,13379.895,20433.24
1764511114.6455133,35961.705,44445.645,32841.27,40217.625,-14006.205,-26366.94,13377.735,20429.055
1764511114.6455133,35963.28,44446.5,32842.08,40217.805,-14005.395,-26366.58,13377.78,20430.18
1764511114.6455133,35961.615,44444.43,32839.695,40215.42,-14007.24,-26369.37,13376.16,20428.02
1764511114.6455133,35965.08,44447.985,32842.935,40218.345,-14003.46,-26366.22,13378.41,20431.71
1764511114.6455133,35964.585,44447.445,32842.485,40218.255,-14003.19,-26366.58,13377.375,20431.755
1764511114.6455133,35963.55,44445.96,32840.955,40217.22,-14004.855,-26367.435,13376.475,20430.81
1764511114.6455133,35962.425,44444.61,32839.02,40216.095,-14006.43,-26369.415,13376.205,20429.1
1764511114.6455133,35964.72,44446.635,32841.045,40218.48,-14004.63,-26367.435,13377.42,20431.17
1764511114.6455133,35965.665,44446.23,32841.135,40218.435,-14004.54,-26366.805,13377.555,20431.755
1764511114.6455133,35964.225,44444.655,32839.785,40217.22,-14005.89,-26368.245,13376.745,20430.585
1764511114.6455133,35959.095,44438.805,32834.61,40212.36,-14010.84,-26372.88,13372.29,20425.41
1764511114.6455133,35958.78,44438.31,32833.935,40212.045,-14011.02,-26373.33,13371.3,20425.455
1764511114.6455133,35960.175,44439.93,32835.735,40213.98,-14008.86,-26371.71,13372.47,20427.75
1764511114.6455133,35957.88,44438.13,32834.43,40211.82,-14010.435,-26373.555,13371.57,20425.23
1764511114.6455133,35959.68,44439.345,32834.7,40213.395,-14009.445,-26372.655,13371.795,20426.085
1764511114.6455133,35958.78,44438.67,32834.25,40213.035,-14009.355,-26373.33,13371.615,20425.23
1764511114.6455133,35956.305,44435.655,32831.64,40210.11,-14012.01,-26375.625,13369.32,20422.305
1764511114.6455133,35958.105,44437.455,32833.08,40212.405,-14010.93,-26374.14,13369.995,20424.645
1764511114.6455133,35957.16,44436.735,32831.685,40211.46,-14011.065,-26374.995,13370.535,20424.33
1764511114.6455133,35961.57,44440.245,32835.33,40215.33,-14007.33,-26371.53,13372.695,20427.48
1764511114.6455133,35960.805,44439.705,32834.25,40214.655,-14008.5,-26372.475,13371.12,20426.94
1764511114.689886,35961.525,44439.93,32834.52,40215.24,-14007.915,-26371.98,13371.12,20427.93
1764511114.689886,35962.335,44440.02,32835.24,40216.77,-14007.195,-26371.26,13371.795,20428.56
1764511114.689886,35962.515,44440.47,32836.23,40218.03,-14006.61,-26370.99,13372.605,20428.38
1764511114.689886,35964.09,44442.27,32838.03,40219.65,-14004.63,-26368.83,13374.27,20429.955
1764511114.689886,35965.71,44444.385,32839.335,40220.955,-14003.055,-26367.48,13375.62,20432.07
1764511114.689886,35963.145,44442.09,32837.13,40219.515,-14005.17,-26369.37,13374.36,20430.135
1764511114.689886,35966.205,44445.105,32839.875,40222.17,-14002.38,-26366.94,13376.07,20432.61
1764511114.689886,35965.395,44443.71,32838.795,40221.45,-14003.28,-26368.29,13375.53,20431.575
1764511114.689886,35968.455,44446.275,32841.18,40224.105,-14000.67,-26365.365,13377.105,20434.32
1764511114.689886,35964.314999999995,44442.18,32837.085,40220.505,-14004.855,-26368.92,13373.505,20430.09
1764511114.689886,35966.34,44444.565,32839.11,40222.665,-14002.74,-26366.805,13374.36,20432.385
1764511114.689886,35967.375,44445.6,32839.83,40223.61,-14002.155,-26365.68,13375.035,20433.645
1764511114.689886,35963.73,44442.495,32836.68,40220.685,-14005.305,-26369.505,13373.325,20430.495
1764511114.6908965,35963.055,44441.73,32835.645,40219.47,-14005.935,-26370.09,13372.965,20429.91
1764511114.6908965,35964.36,44442.81,32836.59,40220.82,-14004.765,-26369.1,13373.28,20430.81
1764511114.6908965,35967.195,44444.97,32839.244999999995,40223.385,-14002.155,-26366.67,13374.63,20433.375
1764511114.6908965,35966.97,44444.745,32838.795,40222.755,-14002.695,-26366.355,13374.81,20432.97
1764511114.6908965,35962.92,44441.235,32834.744999999995,40220.01,-14005.62,-26369.775,13372.02,20429.55
1764511114.6908965,35964.18,44442.72,32835.96,40222.08,-14004.045,-26368.83,13371.795,20430.945
1764511114.6908965,35961.66,44439.975,32833.53,40219.02,-14006.16,-26371.71,13368.555,20428.11
1764511114.6908965,35960.13,44438.94,32831.595,40217.265,-14007.465,-26373.465,13368.105,20425.5
1764511114.6908965,35962.74,44441.955,32834.205,40220.91,-14004.405,-26370.765,13370.085,20428.38
1764511114.738685,35962.56,44442.45,32835.285,40221.405,-14003.55,-26369.595,13370.58,20429.91
1764511114.738685,35961.84,44440.965,32834.07,40219.83,-14004.63,-26370.495,13368.96,20428.875
1764511114.738685,35961.03,44439.885,32832.855,40218.93,-14005.53,-26371.305,13367.79,20427.435
1764511114.738685,35959.86,44437.59,32830.29,40217.76,-14007.015,-26372.52,13367.205,20425.32
1764511114.738685,35961.165,44438.4,32831.46,40218.885,-14005.845,-26370.855,13367.745,20426.58
1764511114.738685,35966.88,44444.34,32837.895,40224.78,-13999.68,-26365.23,13371.705,20432.52
1764511114.738685,35969.31,44445.96,32839.83,40227.12,-13997.52,-26362.755,13373.91,20434.68
1764511114.738685,35968.41,44444.61,32838.255,40226.13,-13999.14,-26363.745,13373.01,20433.285
1764511114.738685,35967.465,44443.485,32837.175,40225.095,-13999.95,-26364.825,13372.65,20432.565
1764511114.738685,35966.79,44442.99,32836.5,40223.97,-14000.94,-26365.545,13372.695,20431.62
1764511114.738685,35967.869999999995,44443.935,32837.715,40225.455,-13999.725,-26363.79,13373.82,20432.61
1764511114.738685,35972.01,44447.31,32840.82,40229.82,-13994.82,-26359.2,13376.43,20436.57
1764511114.738685,35971.47,44446.995,32840.595,40230.405,-13994.82,-26359.92,13375.44,20436.795
1764511114.738685,35968.32,44444.295,32837.805,40228.335,-13997.205,-26361.855,13373.46,20433.78
1764511114.738685,35964.18,44440.335,32833.845,40224.42,-14000.49,-26366.22,13370.58,20429.685
1764511114.738685,35966.564999999995,44441.955,32836.41,40226.625,-13998.375,-26364.645,13371.705,20431.89
1764511114.738685,35966.655,44442.18,32836.41,40227.21,-13998.285,-26363.745,13371.795,20431.395
1764511114.738685,35963.189999999995,44438.985,32832.63,40224.51,-14001.57,-26367.615,13369.455,20428.695
1764511114.738685,35959.005,44434.665,32827.86,40220.685,-14005.665,-26371.215,13367.385,20425.05
1764511114.738685,35961.03,44435.7,32829.3,40221.945,-14004.405,-26369.28,13368.285,20425.905
1764511114.738685,35964.63,44438.58,32832.405,40224.87,-14001.57,-26366.265,13369.905,20429.505
1764511114.738685,35960.535,44435.385,32829.435,40221.855,-14004.855,-26368.965,13368.195,20426.49
1764511114.738685,35959.86,44434.89,32829.075,40222.035,-14004.72,-26369.505,13367.52,20425.86
1764511114.738685,35963.685,44438.805,32832.27,40225.41,-14001.165,-26366.4,13369.95,20428.47
1764511114.7865686,35964.945,44439.885,32834.115,40226.04,-13999.68,-26364.465,13371.885,20429.82
1764511114.7865686,35967.195,44441.595,32836.005,40227.885,-13998.645,-26362.845,13373.955,20431.71
1764511114.7865686,35967.78,44442.18,32836.23,40228.335,-13997.7,-26362.035,13374.225,20433.06
1764511114.7865686,35965.26,44439.75,32834.34,40226.355,-13999.41,-26364.015,13372.02,20431.305
1764511114.7865686,35964.45,44439.345,32833.619999999995,40225.275,-14000.265,-26364.6,13371.75,20430.135
1764511114.7865686,35961.165,44436.15,32830.515,40222.575,-14003.415,-26367.93,13369.23,20426.895
1764511114.7875824,35961.345,44436.285,32830.244999999995,40222.62,-14002.83,-26368.29,13368.96,20426.895
1764511114.7875824,35960.805,44435.79,32829.39,40222.08,-14003.82,-26368.56,13368.51,20426.535
1764511114.7875824,35960.939999999995,44436.06,32830.335,40222.26,-14003.46,-26368.965,13368.645,20426.67
1764511114.7875824,35961.75,44437.455,32830.29,40222.845,-14001.705,-26367.075,13369.005,20427.48
1764511114.7875824,35964.81,44440.74,32832.72,40224.87,-13998.69,-26363.745,13371.165,20430.54
1764511114.7875824,35967.42,44443.395,32835.33,40226.67,-13996.395,-26361.9,13373.55,20432.43
1764511114.7875824,35969.445,44445.105,32836.905,40228.47,-13995.135,-26360.505,13374.99,20433.87
1764511114.7875824,35968.635,44443.53,32835.42,40227.795,-13996.35,-26361.45,13374.405,20433.42
1764511114.7875824,35967.96,44442.135,32833.8,40226.58,-13997.025,-26362.845,13373.19,20432.205
1764511114.7875824,35966.025,44439.795,32831.865,40224.735,-13999.365,-26364.555,13371.48,20429.82
1764511114.7875824,35963.235,44437.455,32828.445,40222.125,-14002.92,-26367.57,13369.77,20426.58
1764511114.7875824,35965.71,44440.83,32831.1,40224.645,-13999.095,-26364.87,13371.435,20428.785
1764511114.7875824,35964.72,44440.245,32830.605,40224.375,-13999.05,-26365.95,13371.75,20427.885
1764511114.7875824,35961.345,44436.915,32827.41,40221.18,-14002.29,-26369.28,13370.535,20424.645
1764511114.7875824,35960.355,44435.97,32825.88,40219.74,-14003.505,-26370.945,13369.095,20422.845
1764511114.7875824,35962.29,44438.13,32827.994999999995,40220.505,-14001.66,-26369.28,13370.22,20424.555
1764511114.7875824,35966.205,44441.73,32831.955,40223.835,-13997.655,-26365.545,13373.055,20428.29
1764511114.7875824,35964.045,44438.76,32829.345,40221.72,-14000.31,-26368.47,13371.21,20426.13
1764511114.8322375,35968.365,44442.495,32833.17,40224.555,-13996.215,-26364.96,13374.09,20429.955
1764511114.8322375,35968.05,44442.9,32833.035,40223.97,-13996.62,-26365.275,13374.0,20430.315
1764511114.8322375,35963.505,44438.49,32829.255,40220.91,-14000.265,-26368.56,13372.47,20426.76
1764511114.8322375,35964.855,44440.47,32830.875,40222.575,-13998.78,-26366.985,13373.82,20428.605
1764511114.8322375,35967.285,44442.765,32832.63,40225.005,-13997.475,-26365.59,13375.305,20430.45
1764511114.8322375,35963.1,44438.31,32828.445,40221.495,-14001.165,-26369.955,13372.65,20426.085
1764511114.8322375,35965.71,44440.29,32829.705,40223.43,-13999.635,-26368.425,13373.01,20428.245
1764511114.8322375,35964.63,44439.03,32828.445,40222.08,-14000.76,-26369.19,13372.74,20427.03
1764511114.8322375,35967.465,44441.37,32830.92,40224.555,-13997.7,-26366.85,13373.055,20429.955
1764511114.8322375,35967.015,44440.425,32829.435,40224.105,-13999.5,-26367.615,13372.02,20429.37
1764511114.8322375,35965.619999999995,44437.68,32827.185,40222.305,-14001.345,-26369.775,13371.255,20427.345
1764511114.832747,35968.185,44439.48,32829.345,40225.23,-13998.465,-26366.94,13371.93,20429.685
1764511114.832747,35965.935,44437.455,32826.78,40223.61,-14000.355,-26368.155,13370.04,20427.255
1764511114.832747,35966.52,44436.96,32826.33,40224.06,-14000.67,-26367.525,13369.86,20427.345
1764511114.832747,35967.42,44436.15,32826.24,40225.185,-13999.815,-26366.805,13370.4,20428.245
1764511114.832747,35967.78,44436.195,32826.105,40226.13,-13999.545,-26366.805,13370.175,20428.02
1764511114.832747,35967.51,44435.925,32825.835,40226.355,-13999.77,-26366.58,13369.68,20427.795
1764511114.832747,35971.335,44439.48,32829.3,40230.72,-13996.89,-26362.305,13371.885,20431.62
1764511114.832747,35973.18,44440.785,32830.785,40232.88,-13995.315,-26360.955,13372.785,20433.06
1764511114.832747,35973.27,44441.055,32830.56,40232.61,-13995.72,-26361.585,13372.65,20433.78
1764511114.832747,35973.09,44441.505,32830.875,40232.52,-13996.08,-26362.125,13373.46,20434.14
1764511114.832747,35972.91,44440.155,32830.605,40231.755,-13996.71,-26362.53,13373.145,20433.195
1764511114.832747,35971.695,44438.94,32828.895,40230.045,-13997.79,-26364.06,13372.38,20431.8
1764511114.832747,35970.435,44438.085,32826.96,40228.695,-13998.87,-26365.23,13371.66,20430.405
1764511114.8796513,35973.135,44440.695,32829.615,40232.205,-13996.305,-26361.99,13373.28,20433.15
1764511114.8806646,35970.525,44438.085,32826.869999999995,40230.0,-13999.14,-26364.51,13371.84,20430.27
1764511114.8806646,35972.955,44440.695,32829.119999999995,40233.015,-13996.215,-26361.225,13372.785,20433.015
1764511114.8806646,35973.494999999995,44440.83,32829.885,40234.23,-13995.81,-26359.83,13372.515,20433.06
1764511114.8806646,35974.89,44441.055,32830.83,40236.21,-13995.045,-26358.525,13373.28,20434.41
1764511114.8806646,35973.9,44440.425,32829.525,40236.39,-13994.955,-26359.065,13372.245,20433.42
1764511114.881667,35974.08,44440.11,32828.985,40237.02,-13994.955,-26359.11,13372.11,20433.375
1764511114.881667,35972.325,44437.995,32827.185,40235.22,-13996.935,-26359.92,13370.76,20431.755
1764511114.881667,35969.67,44435.16,32824.845,40233.195,-13999.905,-26362.98,13368.735,20427.93
1764511114.881667,35971.02,44435.745,32825.61,40234.41,-13999.41,-26361.63,13369.095,20428.965
1764511114.8826706,35973.54,44437.86,32827.994999999995,40237.02,-13997.07,-26358.795,13370.445,20431.53
1764511114.8826706,35970.975,44435.385,32825.16,40234.86,-13999.275,-26361.495,13368.87,20428.785
1764511114.8826706,35974.26,44438.085,32827.86,40237.02,-13996.305,-26359.92,13370.58,20431.53
1764511114.8826706,35974.619999999995,44438.31,32828.58,40237.65,-13995.09,-26359.29,13372.245,20432.52
1764511114.8826706,35978.49,44442.495,32832.135,40241.25,-13991.265,-26356.005,13374.855,20436.885
1764511114.8826706,35977.545,44441.955,32831.235,40240.17,-13992.03,-26356.77,13374.045,20435.22
1764511114.883666,35975.52,44440.245,32829.435,40239.045,-13993.83,-26357.805,13373.46,20434.095
1764511114.883666,35978.22,44442.27,32831.055,40241.025,-13991.355,-26355.195,13374.495,20436.39
1764511114.883666,35976.42,44440.47,32828.805,40239.135,-13994.325,-26357.535,13373.145,20434.41
1764511114.883666,35978.625,44443.215,32831.46,40242.555,-13991.355,-26354.7,13374.99,20436.93
1764511114.883666,35978.715,44443.98,32832.494999999995,40244.355,-13990.23,-26353.575,13376.25,20437.695
1764511114.883666,35978.76,44444.385,32832.675,40243.995,-13989.96,-26353.395,13377.06,20438.01
1764511114.883666,35975.7,44441.055,32829.705,40241.295,-13992.885,-26356.635,13375.395,20434.815
1764511114.883666,35977.275,44442.27,32831.19,40242.6,-13991.31,-26354.88,13375.305,20435.985
1764511114.924881,35978.67,44442.72,32832.09,40243.77,-13990.14,-26354.205,13376.16,20437.155
1764511114.924881,35975.295,44439.255,32827.86,40240.53,-13993.56,-26357.94,13374.135,20434.14
1764511114.924881,35974.89,44439.03,32827.77,40240.53,-13993.65,-26358.03,13374.36,20434.005
1764511114.9260466,35976.555,44440.38,32830.11,40242.6,-13991.985,-26355.465,13374.81,20435.535
1764511114.9260466,35973.99,44437.86,32827.86,40240.17,-13994.505,-26357.445,13373.28,20433.195
1764511114.9260466,35974.935,44438.67,32828.445,40241.115,-13993.56,-26356.815,13373.73,20433.375
1764511114.9260466,35974.845,44438.355,32827.77,40240.755,-13993.92,-26356.815,13374.27,20433.285
1764511114.9260466,35976.42,44439.705,32828.67,40241.295,-13992.705,-26355.33,13375.08,20434.185
1764511114.9260466,35977.86,44440.02,32830.11,40241.565,-13991.85,-26354.79,13375.71,20434.635
1764511114.9260466,35980.29,44442.855,32833.125,40244.715,-13988.79,-26351.19,13378.995,20437.875
1764511114.9260466,35983.619999999995,44446.725,32837.355,40248.315,-13985.235,-26346.96,13382.28,20442.105
1764511114.9260466,35978.805,44441.46,32831.595,40243.275,-13989.78,-26351.865,13378.545,20437.155
1764511114.9260466,35977.545,44439.705,32830.11,40241.475,-13990.86,-26354.025,13377.24,20435.67
1764511114.9260466,35975.655,44439.21,32829.615,40240.53,-13991.49,-26355.6,13376.16,20433.96
1764511114.9260466,35977.86,44441.1,32831.369999999995,40242.285,-13989.465,-26353.71,13376.115,20435.895
1764511114.9260466,35975.97,44439.12,32829.75,40239.765,-13990.68,-26355.465,13375.485,20434.59
1764511114.9279685,35971.38,44434.35,32824.755,40236.12,-13995.09,-26359.56,13371.57,20430.045
1764511114.9279685,35971.695,44434.845,32825.07,40236.435,-13995.405,-26358.66,13371.57,20430.135
1764511114.9279685,35968.05,44432.055,32822.685,40233.465,-13997.925,-26361.18,13369.995,20427.48
1764511114.9279685,35967.42,44431.83,32822.64,40233.105,-13997.205,-26361.945,13369.59,20427.66
1764511114.9279685,35970.885,44435.61,32825.61,40235.76,-13993.65,-26357.895,13372.245,20431.62
1764511114.9279685,35970.705,44435.835,32826.195,40235.13,-13994.235,-26357.49,13373.145,20431.53
1764511114.9716802,35969.535,44434.53,32825.07,40234.23,-13995.27,-26359.245,13372.515,20429.955
1764511114.9716802,35968.455,44432.82,32822.91,40232.7,-13997.205,-26360.91,13370.805,20427.885
1764511114.9716802,35965.26,44429.94,32819.94,40229.01,-14000.715,-26363.745,13368.735,20424.6
1764511114.9726942,35967.51,44431.92,32822.46,40230.495,-13998.24,-26361.945,13371.48,20426.355
1764511114.9726942,35970.93,44434.575,32825.52,40233.735,-13994.505,-26358.795,13372.83,20429.46
1764511114.9726942,35968.41,44432.145,32822.46,40231.26,-13997.205,-26361.135,13371.21,20427.165
1764511114.9726942,35970.435,44433.72,32823.945,40233.78,-13996.26,-26359.965,13371.12,20429.28
1764511114.9726942,35970.885,44434.125,32823.585,40233.78,-13996.08,-26360.01,13372.425,20429.55
1764511114.9726942,35974.98,44439.075,32829.03,40238.46,-13990.995,-26355.15,13376.61,20433.96
1764511114.9726942,35975.655,44439.03,32829.66,40238.505,-13990.995,-26354.88,13376.925,20433.735
1764511114.9726942,35974.755,44438.13,32827.994999999995,40236.435,-13992.3,-26356.005,13375.395,20432.43
1764511114.9726942,35972.235,44436.285,32825.61,40233.735,-13993.92,-26357.67,13374.18,20430.72
1764511114.9726942,35975.655,44439.885,32829.119999999995,40237.2,-13990.005,-26354.34,13376.565,20434.5
1764511114.9726942,35976.555,44440.695,32830.335,40238.145,-13989.78,-26353.215,13377.555,20435.49
1764511114.9726942,35975.43,44440.2,32829.615,40237.785,-13990.815,-26354.16,13377.375,20435.085
1764511114.9726942,35973.0,44438.445,32828.4,40236.03,-13991.58,-26355.645,13376.34,20433.51
1764511114.9736924,35970.435,44435.745,32825.295,40233.285,-13994.415,-26358.12,13374.27,20429.955
1764511114.9736924,35975.25,44440.245,32830.2,40237.56,-13989.78,-26353.305,13377.915,20435.13
1764511114.9736924,35976.06,44441.91,32831.955,40239.0,-13988.43,-26351.64,13379.76,20437.11
1764511114.9744697,35974.35,44440.47,32829.705,40237.335,-13990.14,-26353.215,13378.23,20434.68
1764511115.0203812,35974.17,44440.02,32829.03,40237.335,-13990.995,-26353.755,13376.79,20433.6
1764511115.0203812,35973.135,44438.85,32828.58,40236.93,-13991.22,-26354.745,13375.935,20432.7
1764511115.0203812,35973.99,44439.435,32829.57,40237.785,-13990.815,-26354.07,13376.88,20433.69
1764511115.0203812,35976.015,44440.965,32830.92,40239.135,-13989.42,-26352.135,13378.275,20435.175
1764511115.0214062,35975.07,44440.155,32830.47,40238.91,-13989.33,-26352.675,13377.105,20433.87
1764511115.0214062,35971.11,44436.96,32827.32,40236.12,-13992.345,-26356.23,13374.945,20429.955
1764511115.0214062,35973.27,44439.255,32829.705,40238.055,-13990.815,-26354.52,13375.62,20431.98
1764511115.0214062,35971.92,44438.535,32829.03,40237.38,-13991.445,-26355.33,13375.35,20431.8
1764511115.0214062,35975.07,44442.36,32832.63,40241.07,-13988.295,-26351.505,13377.735,20434.23
1764511115.0214062,35972.685,44439.93,32830.155,40239.945,-13989.69,-26353.53,13375.035,20431.98
1764511115.0214062,35971.695,44439.255,32829.48,40240.035,-13989.51,-26353.215,13374.945,20431.395
1764511115.0214062,35971.47,44438.94,32830.515,40241.025,-13988.43,-26352.225,13375.755,20431.935
1764511115.0214062,35966.744999999995,44433.855,32825.43,40237.56,-13992.345,-26355.105,13373.28,20427.705
1764511115.0214062,35965.305,44432.1,32823.585,40236.795,-13992.885,-26354.745,13373.955,20426.58
1764511115.0214062,35965.485,44431.785,32822.955,40237.335,-13992.12,-26353.98,13374.18,20427.03
1764511115.0214062,35967.869999999995,44433.72,32824.575,40239.36,-13989.78,-26351.01,13375.35,20429.685
1764511115.0214062,35966.295,44432.505,32822.865,40237.92,-13990.725,-26351.64,13375.17,20429.055
1764511115.0214062,35962.695,44427.96,32818.77,40235.13,-13993.695,-26354.07,13373.46,20425.635
1764511115.0214062,35965.98,44430.39,32821.47,40238.685,-13990.185,-26350.38,13376.205,20428.92
1764511115.0214062,35963.955,44428.5,32819.4,40236.435,-13991.94,-26351.865,13374.9,20427.795
1764511115.0214062,35965.53,44429.805,32820.075,40237.335,-13990.635,-26349.345,13376.385,20430.36
1764511115.0214062,35961.255,44424.81,32814.405,40232.43,-13995.36,-26353.395,13373.685,20426.895
1764511115.0214062,35962.83,44424.27,32812.47,40230.765,-13996.62,-26353.98,13373.82,20427.66
1764511115.0214062,35961.93,44421.93,32808.78,40227.48,-13999.815,-26357.04,13373.46,20427.3
1764511115.0214062,35964.09,44423.91,32809.905,40228.245,-13999.185,-26356.14,13374.135,20430.315
1764511115.0214062,35964.72,44424.405,32809.32,40227.12,-14000.265,-26357.13,13373.955,20430.63
1764511115.0650153,35963.055,44423.055,32808.42,40225.23,-14003.055,-26361.09,13372.02,20427.705
1764511115.0650153,35965.89,44426.745,32813.369999999995,40229.505,-14000.445,-26359.38,13370.985,20429.055
1764511115.0650153,35966.52,44428.185,32814.81,40230.18,-13999.59,-26359.29,13370.13,20428.875
1764511115.0660286,35963.01,44425.44,32813.369999999995,40227.255,-14002.245,-26362.26,13368.375,20425.815
1764511115.066539,35964.045,44427.105,32814.9,40229.37,-14000.715,-26361.135,13369.095,20426.22
1764511115.066539,35966.655,44429.985,32817.825,40232.655,-13998.105,-26358.66,13370.445,20428.38
1764511115.066539,35969.715,44432.55,32821.335,40235.94,-13995.09,-26355.33,13372.11,20431.53
1764511115.066539,35968.77,44432.01,32820.39,40235.58,-13996.035,-26355.915,13371.21,20430.135
1764511115.066539,35967.195,44431.02,32818.994999999995,40234.23,-13997.295,-26357.265,13370.13,20429.325
1764511115.066539,35963.369999999995,44427.96,32815.26,40231.17,-14000.625,-26360.595,13368.015,20426.22
1764511115.066539,35963.235,44427.96,32815.305,40231.17,-14000.535,-26360.28,13368.015,20425.815
1764511115.066539,35967.33,44432.55,32820.03,40234.725,-13995.495,-26355.015,13371.66,20430.45
1764511115.066539,35968.86,44435.07,32821.695,40236.795,-13993.29,-26353.305,13374.36,20432.385
1764511115.066539,35967.689999999995,44433.54,32820.795,40235.76,-13994.505,-26354.34,13373.55,20431.26
1764511115.066539,35965.26,44430.66,32818.68,40233.105,-13997.88,-26356.635,13371.705,20429.01
1764511115.066539,35967.42,44432.505,32820.525,40234.995,-13995.72,-26353.98,13372.92,20431.485
1764511115.066539,35966.07,44431.695,32818.86,40234.05,-13996.53,-26355.51,13371.57,20429.82
1764511115.066539,35963.1,44429.085,32816.25,40231.035,-13998.555,-26358.12,13369.86,20427.12
1764511115.066539,35966.16,44432.73,32819.445,40233.645,-13995.45,-26355.06,13372.38,20430.63
1764511115.066539,35966.835,44433.99,32821.155,40234.995,-13994.235,-26354.43,13373.82,20431.395
1764511115.066539,35965.71,44432.595,32820.615,40232.97,-13995.405,-26355.69,13372.92,20429.955
1764511115.066539,35962.83,44430.345,32817.735,40229.64,-13998.195,-26358.165,13371.93,20427.03
1764511115.0670445,35966.34,44434.35,32821.244999999995,40232.745,-13994.505,-26355.33,13374.0,20430.36
1764511115.0670445,35965.935,44434.485,32821.2,40231.845,-13994.28,-26355.465,13373.325,20430.63
1764511115.111811,35966.16,44435.07,32822.01,40232.835,-13993.965,-26355.195,13373.46,20430.495
1764511115.111811,35965.935,44434.26,32822.235,40233.06,-13994.28,-26355.42,13373.595,20430.09
1764511115.111811,35963.865,44431.965,32820.39,40230.54,-13996.575,-26357.805,13372.83,20428.245
1764511115.111811,35965.53,44434.26,32821.875,40231.71,-13995.27,-26356.275,13373.82,20429.91
1764511115.111811,35962.83,44432.01,32819.31,40229.955,-13997.43,-26358.345,13372.065,20427.435
1764511115.111811,35964.675,44433.495,32821.875,40232.025,-13994.505,-26356.275,13373.325,20429.55
1764511115.111811,35963.01,44431.785,32819.805,40229.82,-13996.89,-26357.805,13372.425,20427.885
1764511115.111811,35966.385,44434.845,32822.505,40232.88,-13994.415,-26354.61,13374.765,20431.53
1764511115.111811,35967.645,44435.835,32823.585,40233.195,-13993.65,-26353.98,13375.62,20432.07
1764511115.111811,35965.98,44434.17,32822.64,40231.845,-13994.595,-26354.565,13374.765,20430.63
1764511115.111811,35964.72,44433.675,32822.28,40230.45,-13995.72,-26355.645,13374.36,20429.775
1764511115.111811,35964.27,44433.72,32821.83,40229.865,-13995.45,-26356.725,13375.035,20429.91
1764511115.111811,35961.21,44430.48,32818.005,40227.21,-13998.015,-26359.965,13372.47,20426.58
1764511115.111811,35964.09,44433.09,32821.244999999995,40229.28,-13994.55,-26355.915,13374.27,20429.415
1764511115.1138158,35963.82,44433.045,32820.57,40229.19,-13995.495,-26356.995,13374.315,20428.83
1764511115.1138158,35959.994999999995,44429.13,32816.61,40225.905,-13999.365,-26361.585,13371.255,20425.005
1764511115.1143255,35961.255,44430.345,32817.69,40226.76,-13998.105,-26360.64,13371.75,20426.085
1764511115.1143255,35960.31,44429.445,32816.61,40225.995,-13998.51,-26361.45,13372.065,20425.185
1764511115.1148777,35963.369999999995,44433.045,32820.21,40229.235,-13995.585,-26358.345,13374.045,20428.155
1764511115.1148777,35959.32,44428.995,32816.52,40225.365,-13999.14,-26361.0,13370.805,20424.825
1764511115.115337,35958.825,44428.455,32815.845,40225.095,-13999.86,-26361.405,13371.03,20423.655
1764511115.115337,35957.655,44428.185,32814.9,40224.195,-14000.805,-26361.675,13369.68,20423.205
1764511115.1565895,35956.395,44427.51,32813.91,40223.43,-14001.75,-26362.44,13368.645,20422.62
1764511115.1565895,35957.205,44428.23,32814.945,40224.33,-14000.58,-26361.72,13369.365,20423.745
1764511115.1565895,35960.31,44430.93,32818.14,40226.94,-13997.61,-26358.705,13370.445,20426.715
1764511115.1565895,35957.925,44429.22,32815.8,40225.455,-14000.85,-26360.82,13369.635,20423.925
1764511115.1575851,35957.205,44429.13,32815.395,40225.005,-14000.985,-26361.045,13369.635,20423.52
1764511115.1575851,35959.32,44430.885,32817.33,40227.075,-13998.51,-26358.21,13370.94,20425.41
1764511115.1575851,35962.785,44434.395,32820.975,40231.035,-13994.415,-26354.925,13373.685,20429.46
1764511115.1575851,35962.335,44434.395,32820.84,40230.225,-13994.91,-26355.24,13372.74,20429.1
1764511115.1575851,35961.93,44433.855,32820.66,40229.235,-13995.27,-26354.79,13372.515,20429.055
1764511115.1575851,35960.58,44432.46,32819.355,40227.48,-13996.575,-26356.32,13372.38,20427.615
1764511115.1575851,35957.34,44429.445,32815.845,40224.96,-13999.95,-26360.415,13369.635,20424.51
1764511115.1585813,35958.285,44430.885,32817.195,40226.31,-13998.42,-26359.29,13370.445,20425.725
1764511115.1585813,35961.345,44433.72,32820.615,40229.685,-13995.405,-26355.87,13372.92,20429.28
1764511115.1590962,35958.06,44430.39,32817.195,40226.535,-13998.555,-26357.85,13371.795,20426.67
1764511115.1590962,35960.67,44432.91,32819.715,40228.155,-13996.08,-26355.465,13372.83,20428.83
1764511115.1590962,35962.74,44434.08,32821.74,40230.18,-13994.055,-26353.935,13374.36,20430.99
1764511115.160117,35963.685,44435.7,32822.73,40231.125,-13992.84,-26352.63,13375.98,20432.565
1764511115.160117,35962.695,44434.53,32821.785,40230.045,-13994.1,-26353.35,13374.945,20431.395
1764511115.160117,35959.77,44431.38,32818.905,40227.21,-13996.62,-26356.365,13372.92,20429.01
1764511115.160117,35960.625,44432.19,32820.345,40227.93,-13995.63,-26355.645,13374.495,20429.91
1764511115.2037866,35963.28,44435.16,32823.27,40229.91,-13992.615,-26352.765,13376.16,20432.205
1764511115.2037866,35961.885,44433.045,32821.335,40227.75,-13993.92,-26353.755,13374.72,20430.36
1764511115.2037866,35958.42,44429.13,32817.555,40224.33,-13997.565,-26357.22,13372.155,20427.21
1764511115.2037866,35961.75,44432.415,32821.11,40226.805,-13993.92,-26354.565,13374.585,20430.18
1764511115.2037866,35961.48,44432.325,32821.2,40226.805,-13993.965,-26354.295,13374.855,20430.585
1764511115.2037866,35962.56,44433.855,32823.135,40227.705,-13992.525,-26352.765,13376.385,20432.385
1764511115.2037866,35963.505,44434.755,32824.17,40228.605,-13991.625,-26351.505,13378.095,20433.33
1764511115.2037866,35960.085,44431.56,32820.48,40225.32,-13994.685,-26354.655,13375.35,20430.18
1764511115.2037866,35963.28,44435.07,32824.035,40227.885,-13991.13,-26351.325,13377.06,20433.555
1764511115.2037866,35964.225,44435.88,32824.665,40228.335,-13991.265,-26349.705,13377.69,20434.86
1764511115.2037866,35960.76,44432.1,32820.84,40225.005,-13994.19,-26352.27,13375.17,20431.89
1764511115.2037866,35964.135,44435.43,32825.205,40227.975,-13990.77,-26349.705,13377.33,20434.995
1764511115.2037866,35964.72,44435.655,32825.925,40227.705,-13990.77,-26349.57,13377.555,20435.13
1764511115.2037866,35962.38,44433.72,32823.135,40225.275,-13993.2,-26351.145,13375.935,20432.385
1764511115.2559452,35964.72,44436.15,32825.43,40228.245,-13990.68,-26348.58,13376.925,20435.04
1764511115.2559452,35963.64,44435.16,32824.935,40227.93,-13991.265,-26349.435,13376.7,20434.95
1764511115.2559452,35966.835,44438.31,32827.41,40231.26,-13988.205,-26345.34,13378.77,20437.695
1764511115.2559452,35965.8,44436.645,32826.285,40230.45,-13989.735,-26345.52,13377.645,20436.21
1764511115.2559452,35962.92,44433.45,32823.0,40228.605,-13992.3,-26348.535,13375.71,20432.205
1764511115.2559452,35964.54,44434.935,32824.17,40230.27,-13990.455,-26346.87,13376.61,20433.735
1764511115.2559452,35960.31,44431.38,32819.985,40226.445,-13994.145,-26350.92,13374.18,20429.46
1764511115.2559452,35960.31,44431.83,32820.21,40227.3,-13993.785,-26350.74,13374.36,20430.27
1764511115.2559452,35964.225,44436.195,32823.945,40231.26,-13989.645,-26347.05,13376.205,20434.185
1764511115.2559452,35963.73,44436.06,32823.945,40231.08,-13989.69,-26347.05,13376.115,20433.6
1764511115.2559452,35959.86,44431.875,32820.705,40227.435,-13992.57,-26349.525,13373.955,20430.405
1764511115.2574863,35963.91,44435.79,32824.619999999995,40230.72,-13988.61,-26344.98,13376.52,20434.995
1764511115.2574863,35965.035,44436.825,32826.06,40232.07,-13988.34,-26345.43,13377.375,20436.03
1764511115.2574863,35961.93,44433.855,32822.91,40228.695,-13991.04,-26348.49,13375.53,20433.51
1764511115.2574863,35964.09,44437.095,32824.89,40230.09,-13989.06,-26346.015,13376.52,20434.995
1764511115.2574863,35962.83,44436.105,32824.395,40230.315,-13989.645,-26346.015,13376.07,20434.545
1764511115.2574863,35959.41,44432.775,32820.525,40227.435,-13993.11,-26349.57,13374.36,20430.63
1764511115.2574863,35959.86,44432.145,32820.66,40227.885,-13992.84,-26348.895,13374.27,20430.18
1764511115.2574863,35962.92,44435.745,32824.08,40231.71,-13989.105,-26345.43,13376.16,20433.96
1764511115.2574863,35964.045,44436.24,32824.8,40232.475,-13987.98,-26344.44,13376.97,20434.68
1764511115.2585254,35964.314999999995,44435.655,32824.619999999995,40231.98,-13988.16,-26344.62,13376.745,20434.185
1764511115.2585254,35964.945,44436.825,32826.195,40232.43,-13987.08,-26343.54,13378.86,20435.175
1764511115.2585254,35964.135,44436.645,32826.06,40231.35,-13986.63,-26343.315,13379.355,20434.905
1764511115.2590387,35959.23,44431.47,32821.515,40226.31,-13992.255,-26348.67,13376.295,20429.955
1764511115.2590387,35958.735,44430.795,32820.75,40225.77,-13993.245,-26349.57,13375.395,20429.235
1764511115.2590387,35959.5,44432.145,32821.155,40226.58,-13992.165,-26348.625,13376.655,20429.775
1764511115.2590387,35959.68,44432.505,32821.875,40226.85,-13991.895,-26348.265,13377.195,20430.315
1764511115.2590387,35959.994999999995,44433.495,32823.18,40226.94,-13990.59,-26347.59,13377.87,20431.62
1764511115.2590387,35961.525,44434.845,32824.125,40228.11,-13989.375,-26346.06,13378.86,20433.465
1764511115.2590387,35965.035,44437.41,32826.825,40230.27,-13986.27,-26343.72,13381.11,20436.48
1764511115.2590387,35962.02,44434.71,32824.305,40227.165,-13988.655,-26346.15,13379.535,20434.05
1764511115.2590387,35964.405,44438.67,32827.05,40230.855,-13985.64,-26342.775,13381.56,20436.93
1764511115.2590387,35965.71,44440.155,32828.31,40232.205,-13984.605,-26341.74,13382.73,20438.055
1764511115.2590387,35963.595,44437.95,32827.59,40230.27,-13985.955,-26343.045,13381.695,20436.705
1764511115.2590387,35960.31,44435.43,32824.26,40226.58,-13989.105,-26346.465,13379.49,20434.275
1764511115.2590387,35960.22,44435.205,32823.72,40227.12,-13988.97,-26346.465,13379.265,20433.375
1764511115.2590387,35960.04,44434.53,32823.27,40227.21,-13989.24,-26346.195,13378.68,20433.105
1764511115.2590387,35959.86,44434.305,32822.82,40226.805,-13988.565,-26345.385,13378.32,20433.69
1764511115.2995653,35961.03,44435.745,32823.855,40227.975,-13987.845,-26344.62,13379.445,20434.86
1764511115.2995653,35965.305,44439.885,32828.445,40232.205,-13983.615,-26340.12,13382.685,20439.81
1764511115.2995653,35965.215,44439.84,32829.21,40232.745,-13983.93,-26339.805,13382.055,20439.765
1764511115.300581,35965.935,44440.695,32830.02,40233.465,-13983.39,-26338.77,13382.865,20440.17
1764511115.300581,35966.79,44441.73,32830.38,40234.41,-13982.175,-26337.735,13383.81,20440.44
1764511115.300581,35964.63,44440.47,32828.76,40233.645,-13983.705,-26338.77,13382.595,20439.0
1764511115.300581,35964.765,44439.66,32828.22,40234.05,-13984.155,-26338.905,13381.875,20438.235
1764511115.300581,35964.18,44439.48,32827.5,40233.87,-13984.38,-26339.04,13381.965,20438.19
1764511115.300581,35961.48,44437.185,32824.575,40231.755,-13987.305,-26341.38,13379.985,20436.21
1764511115.300581,35963.82,44439.21,32827.32,40234.23,-13984.29,-26339.445,13380.885,20438.82
1764511115.300581,35964.045,44438.805,32826.915,40233.645,-13984.695,-26338.815,13380.57,20438.325
1764511115.300581,35964.135,44438.22,32826.42,40233.825,-13986.09,-26338.5,13380.12,20438.235
1764511115.300581,35959.545,44434.305,32822.369999999995,40230.405,-13990.23,-26342.1,13377.42,20434.455
1764511115.300581,35960.67,44435.07,32823.045,40231.035,-13988.565,-26341.47,13378.86,20436.3
1764511115.300581,35965.755,44439.48,32827.77,40235.76,-13983.93,-26336.655,13381.605,20440.935
1764511115.300581,35964.27,44437.23,32825.88,40233.555,-13986.45,-26338.23,13379.805,20438.955
1764511115.300581,35959.68,44432.865,32820.57,40228.875,-13990.68,-26342.55,13377.33,20434.86
1764511115.300581,35959.725,44432.235,32820.345,40227.93,-13989.555,-26341.155,13377.51,20435.085
1764511115.300581,35961.885,44434.485,32822.369999999995,40230.0,-13987.98,-26338.995,13378.68,20437.515
1764511115.300581,35957.025,44429.355,32817.555,40225.905,-13991.445,-26342.505,13375.305,20433.375
1764511115.300581,35956.575,44429.13,32816.88,40225.68,-13993.29,-26344.395,13374.855,20432.7
1764511115.300581,35957.205,44429.355,32817.78,40225.905,-13992.39,-26344.215,13375.575,20433.645
1764511115.3448946,35959.14,44430.075,32819.04,40227.435,-13990.68,-26342.775,13376.34,20434.725
1764511115.3448946,35957.564999999995,44428.005,32817.06,40225.59,-13992.84,-26343.99,13375.26,20433.06
1764511115.3448946,35960.985,44432.01,32820.57,40227.705,-13989.69,-26340.705,13377.915,20436.57
1764511115.3448946,35959.86,44431.605,32820.255,40227.03,-13990.14,-26341.74,13377.15,20435.985
1764511115.3448946,35959.185,44430.705,32818.635,40226.22,-13991.58,-26343.27,13376.16,20434.995
1764511115.3448946,35954.82,44426.7,32814.27,40221.81,-13996.17,-26347.68,13373.595,20431.395
1764511115.3448946,35954.01,44425.08,32813.055,40220.505,-13997.565,-26348.805,13372.245,20430.72
1764511115.3448946,35953.29,44423.82,32812.155,40220.505,-13997.52,-26348.805,13371.57,20430.045
1764511115.3448946,35954.955,44425.845,32813.82,40222.935,-13995.315,-26346.915,13372.605,20432.16
1764511115.3448946,35952.57,44423.055,32810.985,40220.595,-13998.24,-26349.795,13371.3,20430.315
1764511115.3469288,35954.145,44424.135,32811.84,40221.36,-13997.025,-26349.03,13372.02,20431.575
1764511115.347439,35950.545,44420.985,32808.915,40218.57,-13999.455,-26351.505,13370.355,20428.695
1764511115.347439,35952.705,44423.37,32810.985,40219.875,-13997.565,-26349.39,13371.48,20430.72
1764511115.347439,35951.535,44421.66,32809.545,40217.805,-13999.995,-26351.505,13370.535,20428.785
1764511115.3481233,35954.1,44423.46,32811.84,40219.695,-13997.835,-26348.985,13372.155,20431.575
1764511115.3481233,35947.53,44417.97,32805.855,40214.295,-14003.01,-26354.16,13368.6,20426.355
1764511115.3484612,35945.595,44415.495,32803.65,40211.91,-14004.99,-26356.77,13366.755,20424.285
1764511115.3484612,35946.18,44415.585,32804.01,40211.775,-14004.18,-26355.42,13366.71,20424.735
1764511115.3484612,35946.09,44415.675,32804.1,40211.82,-14004.72,-26355.06,13366.395,20424.915
1764511115.3484612,35946.855,44416.62,32804.325,40212.585,-14004.72,-26354.43,13367.835,20425.635
1764511115.3484612,35947.17,44416.935,32804.82,40212.63,-14003.865,-26354.34,13368.375,20425.275
1764511115.3484612,35949.51,44420.535,32807.07,40214.205,-14001.84,-26351.28,13370.535,20428.29
1764511115.3956106,35953.244999999995,44423.955,32810.4,40217.805,-13998.69,-26347.815,13372.11,20431.71
1764511115.3956106,35952.21,44422.695,32809.545,40216.905,-13999.86,-26348.76,13371.21,20430.63
1764511115.396626,35952.885,44423.28,32809.994999999995,40217.22,-13999.275,-26348.22,13372.56,20431.125
1764511115.396626,35950.77,44421.705,32808.555,40215.915,-14000.49,-26349.66,13371.66,20429.595
1764511115.396626,35947.215,44418.96,32806.035,40212.495,-14003.685,-26352.54,13370.445,20426.445
1764511115.396626,35947.665,44419.68,32805.72,40212.36,-14003.91,-26352.09,13370.445,20426.895
1764511115.396626,35947.485,44419.185,32805.72,40212.81,-14003.64,-26352.315,13369.455,20426.58
1764511115.397606,35947.35,44418.375,32805.135,40212.18,-14004.09,-26352.81,13368.15,20425.905
1764511115.397606,35949.375,44420.535,32807.295,40214.295,-14001.84,-26350.425,13369.545,20428.875
1764511115.397606,35949.6,44420.22,32806.755,40213.755,-14002.29,-26350.605,13370.67,20429.28
1764511115.397606,35952.705,44423.28,32810.04,40216.68,-13998.645,-26346.78,13373.415,20432.205
1764511115.397606,35950.86,44421.3,32807.925,40214.835,-13999.815,-26348.805,13371.66,20430.765
1764511115.397606,35946.855,44417.25,32804.55,40211.055,-14002.92,-26352.585,13369.32,20427.21
1764511115.397606,35947.845,44418.42,32805.494999999995,40212.09,-14002.02,-26351.415,13370.4,20428.425
1764511115.397606,35950.185,44420.76,32807.43,40214.07,-14000.49,-26349.66,13371.57,20430.54
1764511115.397606,35945.685,44416.305,32803.11,40209.93,-14004.765,-26353.755,13368.42,20426.31
1764511115.397606,35948.34,44418.285,32804.91,40211.955,-14002.515,-26351.37,13369.23,20428.56
1764511115.397606,35948.88,44419.095,32805.54,40212.045,-14002.11,-26351.055,13370.085,20429.01
1764511115.397606,35947.619999999995,44418.195,32804.775,40211.145,-14002.065,-26351.505,13369.905,20428.56
1764511115.397606,35948.925,44419.41,32805.855,40211.505,-14001.165,-26350.605,13370.49,20429.37
1764511115.397606,35951.13,44422.92,32808.645,40214.295,-13998.78,-26347.545,13373.145,20432.205
1764511115.398116,35949.555,44420.67,32806.619999999995,40212.72,-13999.68,-26348.715,13372.11,20431.17
1764511115.398116,35947.755,44418.465,32804.28,40210.56,-14002.02,-26351.19,13371.12,20428.605
1764511115.398116,35951.445,44422.695,32808.015,40213.8,-13998.195,-26347.545,13373.64,20431.8
1764511115.398116,35949.51,44420.895,32806.215,40212.315,-13999.635,-26349.03,13372.515,20430.045
1764511115.398116,35951.76,44423.415,32807.79,40214.745,-13997.88,-26346.285,13373.685,20432.835
1764511115.442187,35948.97,44420.76,32804.369999999995,40211.19,-14001.39,-26348.895,13371.66,20430.45
1764511115.442187,35948.43,44420.13,32804.055,40210.605,-14001.66,-26349.255,13371.435,20430.18
1764511115.442187,35950.814999999995,44423.19,32806.935,40213.62,-13999.005,-26345.88,13373.37,20432.745
1764511115.442187,35952.21,44424.585,32808.96,40214.745,-13997.205,-26343.855,13374.27,20434.32
1764511115.442187,35953.2,44425.485,32810.175,40215.87,-13995.405,-26343.54,13376.025,20435.49
1764511115.442187,35950.275,44422.65,32807.16,40212.405,-13997.565,-26346.51,13373.865,20433.24
1764511115.443697,35948.7,44422.155,32806.98,40210.875,-13999.05,-26347.185,13372.74,20432.205
1764511115.443697,35948.835,44422.605,32807.744999999995,40211.46,-13998.915,-26346.51,13373.235,20431.98
1764511115.443697,35946.945,44419.815,32804.415,40208.445,-14001.75,-26349.48,13371.66,20428.83
1764511115.443697,35948.61,44421.48,32806.665,40209.66,-13999.275,-26346.555,13372.56,20430.495
1764511115.4447105,35946.765,44419.635,32805.18,40208.58,-14000.265,-26348.13,13371.03,20429.325
1764511115.4447105,35943.615,44416.305,32800.86,40204.98,-14004.81,-26352.945,13369.32,20425.365
1764511115.4447105,35943.03,44415.045,32799.96,40203.9,-14006.34,-26354.025,13369.005,20424.06
1764511115.4447105,35945.73,44418.33,32803.155,40206.195,-14003.595,-26350.875,13371.39,20427.93
1764511115.4457126,35950.455,44423.595,32808.105,40211.685,-13998.105,-26345.52,13374.63,20432.79
1764511115.4457126,35949.869999999995,44422.47,32807.61,40210.335,-13998.735,-26346.105,13373.28,20431.125
1764511115.4457126,35948.564999999995,44421.435,32806.98,40209.57,-13999.68,-26346.42,13372.38,20430.18
1764511115.4461248,35945.955,44419.005,32804.28,40207.005,-14001.795,-26348.715,13371.615,20428.2
1764511115.4461248,35947.98,44421.345,32806.8,40208.895,-13999.095,-26346.015,13372.38,20430.54
1764511115.4461248,35947.035,44420.355,32806.35,40209.12,-13998.465,-26345.43,13372.425,20431.08
1764511115.4461248,35947.71,44420.625,32807.16,40208.58,-13998.015,-26345.295,13372.785,20431.26
1764511115.4467115,35948.25,44420.805,32807.475,40208.22,-13997.97,-26344.665,13373.235,20430.9
1764511115.4868636,35947.98,44420.94,32806.575,40207.68,-13999.32,-26345.745,13372.92,20430.495
1764511115.4868636,35947.35,44420.805,32806.619999999995,40206.735,-13999.32,-26345.295,13372.47,20430.765
1764511115.4868636,35947.935,44422.515,32807.655,40207.725,-13998.735,-26343.765,13373.505,20431.845
1764511115.4868636,35944.244999999995,44419.14,32804.775,40204.125,-14002.02,-26346.645,13372.38,20428.92
1764511115.4868636,35945.145,44420.67,32805.9,40205.16,-14000.805,-26344.665,13373.235,20430.495
1764511115.4868636,35948.34,44424.585,32809.185,40208.355,-13997.52,-26341.515,13375.71,20433.51
1764511115.4868636,35946.494999999995,44422.56,32807.16,40206.465,-13999.41,-26344.035,13374.36,20430.765
1764511115.4868636,35948.43,44424.315,32808.96,40207.59,-13997.61,-26342.235,13374.99,20432.43
1764511115.4868636,35945.775,44422.65,32807.385,40206.42,-13999.23,-26343.945,13374.72,20431.17
1764511115.4868636,35948.97,44426.25,32811.119999999995,40209.705,-13995.675,-26339.58,13377.42,20435.355
1764511115.4868636,35947.575,44425.44,32810.22,40208.31,-13996.89,-26340.39,13377.06,20433.78
1764511115.4868636,35945.28,44423.505,32807.34,40205.43,-13999.095,-26342.91,13376.655,20432.07
1764511115.4868636,35948.385,44426.925,32809.77,40208.355,-13996.485,-26339.94,13377.78,20435.445
1764511115.4868636,35944.695,44423.73,32806.845,40204.71,-13999.95,-26342.595,13374.81,20432.025
1764511115.4868636,35939.88,44419.32,32801.895,40199.805,-14003.865,-26347.365,13371.48,20426.58
1764511115.4868636,35941.545,44421.705,32804.369999999995,40201.02,-14001.615,-26345.25,13373.325,20428.605
1764511115.4868636,35945.235,44425.89,32807.295,40204.125,-13998.105,-26341.29,13375.665,20432.565
1764511115.4868636,35943.075,44423.685,32804.775,40201.38,-14000.895,-26343.855,13374.72,20429.28
1764511115.4883988,35943.93,44424.225,32805.494999999995,40201.38,-14000.67,-26343.495,13375.305,20429.46
1764511115.4883988,35946.72,44427.195,32809.23,40204.485,-13996.53,-26339.22,13377.96,20433.015
1764511115.4883988,35946.72,44427.195,32809.545,40204.575,-13996.755,-26338.905,13378.995,20433.6
1764511115.4883988,35947.26,44428.005,32809.905,40204.35,-13996.395,-26338.77,13380.345,20434.23
1764511115.4883988,35950.725,44431.785,32812.695,40206.645,-13993.2,-26335.53,13382.505,20437.02
1764511115.4883988,35949.78,44430.345,32811.255,40204.935,-13994.865,-26336.295,13381.065,20435.445
1764511115.531662,35948.744999999995,44429.265,32809.905,40203.405,-13995.63,-26337.33,13380.03,20434.635
1764511115.531662,35945.145,44425.575,32806.665,40199.67,-13998.285,-26340.12,13378.77,20431.575
1764511115.531662,35944.74,44424.945,32806.395,40200.21,-13998.645,-26339.76,13378.635,20431.215
1764511115.531662,35946.494999999995,44426.88,32808.195,40200.93,-13997.565,-26338.185,13379.985,20433.105
1764511115.531662,35946.225,44426.295,32807.835,40200.66,-13997.34,-26338.23,13380.255,20432.61
1764511115.531662,35946.405,44426.52,32807.88,40200.885,-13996.845,-26337.6,13380.03,20432.88
1764511115.531662,35949.825,44430.03,32811.435,40204.17,-13993.56,-26334.495,13381.695,20435.85
1764511115.531662,35950.455,44430.3,32811.705,40204.08,-13992.84,-26333.055,13382.145,20436.03
1764511115.531662,35949.42,44429.58,32810.535,40203.945,-13993.605,-26332.605,13381.335,20435.535
1764511115.531662,35947.125,44427.105,32808.42,40202.46,-13995.9,-26334.99,13379.4,20433.6
1764511115.531662,35944.47,44424.135,32805.585,40199.805,-13999.23,-26338.005,13378.23,20430.72
1764511115.532674,35947.755,44426.88,32808.51,40202.46,-13996.395,-26335.53,13379.535,20433.42
1764511115.532674,35947.98,44427.555,32808.645,40202.775,-13995.72,-26335.17,13379.985,20433.375
1764511115.532674,35947.845,44428.005,32808.195,40202.595,-13995.9,-26335.395,13379.445,20434.005
1764511115.532674,35944.65,44424.81,32805.18,40200.12,-13999.23,-26338.365,13377.645,20431.62
1764511115.532674,35944.02,44424.855,32804.505,40199.445,-13999.23,-26339.445,13377.69,20431.215
1764511115.532674,35946.045,44426.655,32806.8,40201.38,-13997.115,-26337.06,13378.32,20433.51
1764511115.532674,35944.605,44424.81,32805.45,40199.58,-13999.455,-26338.815,13377.42,20432.16
1764511115.532674,35946.855,44426.88,32808.33,40202.685,-13995.99,-26335.845,13378.905,20435.49
1764511115.532674,35946.27,44427.375,32807.88,40202.37,-13995.81,-26335.98,13378.905,20435.715
1764511115.5331898,35945.28,44426.475,32806.035,40200.615,-13996.89,-26336.97,13378.59,20434.365
1764511115.5331898,35940.555,44422.2,32802.165,40196.34,-14000.715,-26340.66,13375.395,20429.505
1764511115.5331898,35939.295,44420.985,32801.22,40195.17,-14002.425,-26341.47,13374.09,20427.75
1764511115.5331898,35940.915,44422.785,32802.66,40195.98,-14001.435,-26340.12,13375.17,20429.595
1764511115.5799828,35945.595,44426.52,32806.395,40199.265,-13998.195,-26336.205,13376.97,20433.42
1764511115.5799828,35943.255,44424.45,32804.145,40197.42,-13999.725,-26338.365,13375.845,20431.485
1764511115.5799828,35943.345,44425.26,32804.46,40199.49,-13998.6,-26336.88,13376.205,20432.565
1764511115.5799828,35942.22,44424.18,32803.515,40198.05,-13999.815,-26337.96,13375.71,20430.72
1764511115.5799828,35948.205,44430.255,32809.68,40202.82,-13993.515,-26332.965,13380.39,20436.66
1764511115.5799828,35946.405,44428.455,32807.385,40200.21,-13995.495,-26334.765,13378.32,20434.455
1764511115.5799828,35943.66,44425.71,32804.865,40197.105,-13998.555,-26337.195,13375.395,20431.8
1764511115.5799828,35939.925,44421.84,32801.355,40193.46,-14001.57,-26340.57,13373.055,20428.38
1764511115.5799828,35942.85,44424.72,32804.235,40196.07,-13998.195,-26337.645,13375.305,20431.305
1764511115.5799828,35940.825,44422.695,32802.119999999995,40194.045,-14000.31,-26338.95,13374.18,20429.955
1764511115.5799828,35936.595,44417.835,32797.17,40189.68,-14004.675,-26342.955,13370.94,20426.355
1764511115.5799828,35935.47,44417.16,32795.91,40188.78,-14006.205,-26344.08,13369.455,20425.005
1764511115.5799828,35936.82,44418.06,32796.855,40189.05,-14005.485,-26343.72,13369.5,20425.635
1764511115.5799828,35938.71,44419.545,32798.61,40190.625,-14004.045,-26341.74,13371.255,20427.705
1764511115.5799828,35940.869999999995,44421.885,32800.905,40193.775,-14001.75,-26338.815,13372.74,20430.63
1764511115.581535,35936.415,44417.655,32796.36,40190.175,-14005.8,-26343.585,13369.68,20425.995
1764511115.581535,35937.045,44418.195,32797.035,40189.995,-14004.945,-26343.045,13369.5,20426.58
1764511115.581535,35933.355,44414.64,32793.119999999995,40186.08,-14008.23,-26345.52,13366.98,20423.205
1764511115.581535,35933.895,44415.855,32794.605,40187.655,-14006.7,-26343.945,13368.42,20424.51
1764511115.581535,35932.68,44413.335,32792.535,40185.54,-14008.23,-26345.34,13366.935,20422.98
1764511115.581535,35935.92,44416.305,32794.65,40188.645,-14005.485,-26342.415,13367.79,20425.68
1764511115.581535,35936.055,44416.845,32795.775,40188.78,-14004.495,-26341.38,13368.465,20426.31
1764511115.581535,35934.93,44415.945,32795.235,40188.285,-14005.53,-26341.83,13367.745,20425.725
1764511115.581535,35932.32,44413.785,32793.075,40186.125,-14005.755,-26342.145,13366.62,20424.285
1764511115.6283393,35931.06,44412.795,32792.4,40185.045,-14006.16,-26342.64,13366.26,20423.16
1764511115.6283393,35926.92,44408.34,32787.855,40180.455,-14011.695,-26347.995,13362.48,20417.85
1764511115.6283393,35929.98,44412.48,32791.05,40183.56,-14009.04,-26345.16,13364.28,20421.72
1764511115.6283393,35930.7,44413.515,32792.13,40184.055,-14008.14,-26343.99,13365.09,20423.475
1764511115.6293404,35929.26,44412.165,32790.645,40182.795,-14009.58,-26345.34,13364.595,20422.08
1764511115.6293404,35927.145,44408.97,32788.305,40180.365,-14012.055,-26347.32,13363.245,20419.965
1764511115.6293404,35928.63,44411.31,32790.285,40182.93,-14009.895,-26345.52,13364.595,20422.17
1764511115.6293404,35925.435,44408.79,32787.81,40180.23,-14012.415,-26348.58,13363.83,20419.515
1764511115.6293404,35927.955,44410.77,32790.78,40182.795,-14009.22,-26345.745,13365.585,20422.305
1764511115.6293404,35926.47,44410.185,32789.385,40180.995,-14009.715,-26345.88,13365.495,20421.405
1764511115.6293404,35928.45,44412.48,32792.22,40182.03,-14006.25,-26341.92,13367.97,20424.42
1764511115.6293404,35925.03,44408.88,32788.755,40178.925,-14011.065,-26346.195,13364.955,20420.91
1764511115.6293404,35928.18,44412.66,32791.545,40182.435,-14008.635,-26343.99,13367.07,20423.205
1764511115.6293404,35927.46,44411.76,32790.915,40181.265,-14009.49,-26344.62,13366.485,20422.35
1764511115.6293404,35924.04,44408.43,32787.36,40177.53,-14012.64,-26348.895,13364.055,20418.705
1764511115.6293404,35925.48,44409.555,32788.619999999995,40179.105,-14011.245,-26347.275,13365.27,20419.785
1764511115.6293404,35921.61,44406.045,32785.74,40176.315,-14014.44,-26349.435,13362.84,20416.095
1764511115.6293404,35921.025,44405.73,32786.055,40175.685,-14014.98,-26349.75,13362.525,20415.96
1764511115.6293404,35923.814999999995,44409.15,32788.44,40176.945,-14012.865,-26347.455,13365.135,20418.255
1764511115.6293404,35927.369999999995,44412.975,32792.175,40180.545,-14009.58,-26343.54,13367.565,20421.63
1764511115.6293404,35929.755,44414.46,32794.2,40182.12,-14007.69,-26341.065,13369.545,20423.925
1764511115.6293404,35928.405,44413.11,32792.355,40179.735,-14009.355,-26343.225,13367.925,20422.395
1764511115.673903,35924.939999999995,44409.42,32788.575,40176.315,-14012.37,-26346.645,13365.9,20419.065
1764511115.6744504,35921.655,44406.0,32785.605,40173.39,-14014.53,-26348.805,13363.47,20416.23
1764511115.6744504,35920.98,44405.73,32785.38,40172.31,-14016.375,-26349.93,13362.705,20414.88
1764511115.6744504,35923.5,44407.755,32788.125,40174.11,-14014.98,-26348.13,13363.875,20417.715
1764511115.6744504,35921.52,44406.27,32786.73,40172.76,-14016.105,-26349.39,13363.425,20416.545
1764511115.6744504,35918.595,44403.48,32783.49,40170.015,-14019.165,-26351.64,13361.895,20413.35
1764511115.6744504,35918.415,44404.74,32783.67,40171.005,-14019.03,-26351.1,13361.85,20413.935
1764511115.6744504,35922.195,44408.97,32787.81,40175.055,-14015.115,-26347.095,13364.595,20417.985
1764511115.6744504,35923.635,44410.095,32789.565,40175.1,-14013.675,-26345.97,13365.99,20419.83
1764511115.6744504,35920.125,44407.08,32785.92,40170.78,-14016.735,-26349.705,13363.92,20416.185
1764511115.6744504,35922.78,44409.42,32787.945,40173.165,-14014.08,-26347.275,13365.945,20418.03
1764511115.6744504,35920.8,44407.17,32785.74,40170.555,-14015.925,-26348.94,13365.315,20415.6
1764511115.6744504,35922.96,44410.095,32788.17,40172.805,-14013.54,-26346.015,13366.53,20418.525
1764511115.6744504,35922.06,44409.78,32786.955,40171.41,-14014.26,-26347.41,13365.855,20417.265
1764511115.6744504,35917.29,44405.145,32782.41,40166.325,-14018.535,-26351.82,13363.425,20413.215
1764511115.6744504,35915.31,44403.03,32780.79,40164.93,-14020.83,-26353.35,13362.795,20411.505
1764511115.6744504,35915.355,44403.345,32781.06,40165.065,-14020.605,-26353.395,13362.885,20412.045
1764511115.6744504,35915.85,44404.47,32782.005,40165.56,-14018.85,-26352.315,13362.93,20413.08
1764511115.6744504,35919.54,44407.755,32784.93,40169.07,-14015.565,-26348.94,13365.0,20415.78
1764511115.6744504,35917.965,44406.045,32783.22,40168.035,-14017.275,-26349.12,13363.2,20414.61
1764511115.6744504,35918.595,44406.72,32784.615,40168.395,-14016.195,-26348.445,13363.785,20415.555
1764511115.6744504,35917.785,44406.27,32783.805,40167.495,-14016.915,-26349.66,13363.785,20414.655
1764511115.6744504,35914.185,44402.175,32779.8,40163.715,-14020.56,-26354.115,13361.67,20410.38
1764511115.6744504,35913.06,44402.355,32779.665,40162.77,-14020.695,-26354.7,13361.085,20410.38
1764511115.7224822,35915.805,44405.82,32782.994999999995,40166.145,-14017.77,-26350.92,13362.975,20414.385
1764511115.7224822,35914.77,44404.695,32782.86,40165.245,-14018.13,-26351.145,13362.3,20414.745
1764511115.7224822,35911.08,44400.735,32779.08,40161.78,-14021.28,-26355.15,13359.645,20410.695
1764511115.7224822,35911.53,44401.05,32778.494999999995,40162.095,-14021.28,-26354.79,13358.97,20409.93
1764511115.7224822,35914.545,44404.11,32781.96,40164.21,-14017.545,-26351.055,13361.04,20413.53
1764511115.7224822,35913.42,44402.715,32780.744999999995,40163.085,-14018.445,-26352.27,13359.6,20411.955
1764511115.7224822,35911.619999999995,44401.635,32778.72,40162.095,-14019.84,-26353.44,13359.33,20410.065
1764511115.7224822,35906.445,44396.82,32773.545,40157.685,-14024.34,-26357.94,13355.685,20405.07
1764511115.7224822,35907.255,44397.135,32774.22,40157.82,-14024.385,-26356.905,13356.045,20406.195
1764511115.7224822,35909.325,44399.43,32776.244999999995,40159.485,-14021.955,-26354.565,13356.945,20407.41
1764511115.7224822,35905.905,44396.955,32773.095,40157.19,-14024.97,-26357.04,13354.695,20404.395
1764511115.7224822,35909.505,44400.06,32776.244999999995,40160.385,-14022.045,-26354.07,13357.485,20408.13
1764511115.7224822,35908.965,44399.025,32774.535,40158.81,-14024.295,-26355.33,13356.495,20406.96
1764511115.7224822,35912.385,44402.49,32778.63,40162.185,-14020.515,-26350.83,13358.655,20410.965
1764511115.7224822,35910.494999999995,44400.33,32777.46,40160.79,-14020.83,-26350.92,13357.845,20409.705
1764511115.7224822,35906.535,44396.415,32772.51,40156.83,-14026.815,-26356.365,13354.245,20404.98
1764511115.7224822,35908.11,44398.035,32773.86,40158.405,-14025.645,-26355.375,13355.505,20406.645
1764511115.7224822,35910.494999999995,44400.465,32776.515,40160.655,-14022.585,-26352.315,13357.35,20409.615
1764511115.7224822,35907.03,44396.28,32773.275,40157.01,-14024.97,-26355.15,13355.28,20406.645
1764511115.7224822,35907.119999999995,44395.11,32772.825,40156.56,-14026.05,-26355.51,13354.245,20406.105
1764511115.7235172,35906.58,44395.02,32772.42,40155.435,-14025.915,-26355.15,13354.245,20405.7
1764511115.7235172,35906.4,44395.695,32771.925,40155.435,-14026.815,-26356.275,13353.705,20405.295
1764511115.7235172,35906.985,44396.28,32772.825,40156.695,-14026.095,-26355.465,13353.84,20405.88
1764511115.7235172,35905.185,44393.76,32770.89,40154.175,-14027.895,-26356.59,13353.21,20403.855
1764511115.7716208,35907.705,44397.135,32773.185,40156.56,-14025.33,-26353.53,13355.505,20407.32
1764511115.7716208,35902.395,44391.15,32767.605,40151.295,-14030.55,-26358.345,13351.455,20401.83
1764511115.7716208,35905.185,44393.355,32770.44,40153.185,-14028.48,-26356.32,13352.22,20404.575
1764511115.7716208,35904.78,44392.86,32769.945,40153.365,-14028.615,-26357.22,13352.22,20404.395
1764511115.7716208,35902.395,44390.745,32767.605,40151.16,-14031.405,-26359.38,13351.86,20402.505
1764511115.7716208,35903.744999999995,44391.015,32768.82,40151.925,-14030.595,-26358.3,13353.165,20403.945
1764511115.7716208,35904.06,44390.16,32768.64,40152.105,-14030.595,-26358.525,13353.075,20403.315
1764511115.7716208,35905.32,44391.555,32770.08,40153.095,-14029.74,-26356.815,13353.57,20404.215
1764511115.7716208,35903.7,44391.285,32769.09,40151.97,-14030.73,-26357.94,13352.22,20402.82
1764511115.7716208,35906.715,44394.255,32771.61,40154.085,-14027.715,-26354.88,13354.47,20405.025
1764511115.7716208,35910.36,44398.755,32775.48,40158.045,-14024.025,-26351.415,13357.71,20409.795
1764511115.7716208,35905.05,44394.21,32770.619999999995,40153.905,-14029.155,-26356.005,13354.335,20404.71
1764511115.7716208,35905.23,44394.48,32770.8,40153.23,-14029.335,-26356.68,13353.435,20404.665
1764511115.7716208,35909.46,44398.8,32776.244999999995,40156.875,-14024.655,-26351.955,13357.305,20408.76
1764511115.7716208,35907.93,44396.955,32775.48,40155.84,-14025.69,-26352.9,13357.845,20407.77
1764511115.7716208,35908.38,44396.64,32776.244999999995,40156.965,-14025.24,-26351.865,13357.485,20408.22
1764511115.7716208,35906.31,44395.02,32774.13,40155.165,-14027.715,-26354.295,13355.46,20406.285
1764511115.7716208,35904.645,44393.22,32772.33,40153.32,-14029.47,-26356.365,13354.11,20404.305
1764511115.7716208,35900.955,44389.17,32768.91,40150.08,-14032.845,-26360.19,13351.86,20400.03
1764511115.7716208,35900.685,44387.325,32767.965,40149.63,-14034.06,-26360.19,13350.42,20399.31
1764511115.7716208,35904.735,44391.42,32771.97,40153.32,-14030.145,-26357.13,13352.535,20403.09
1764511115.7716208,35902.89,44390.88,32771.385,40151.52,-14030.955,-26357.895,13351.23,20402.46
1764511115.7716208,35903.115,44391.33,32772.15,40152.285,-14029.965,-26357.22,13352.085,20403.0
1764511115.7716208,35903.564999999995,44391.555,32772.42,40152.645,-14029.11,-26357.445,13352.805,20402.73
1764511115.8147976,35903.295,44391.645,32772.735,40151.88,-14029.245,-26357.13,13352.985,20402.865
1764511115.8147976,35902.755,44391.375,32772.645,40151.115,-14029.965,-26357.67,13352.94,20402.82
1764511115.8147976,35900.955,44389.98,32770.935,40149.315,-14031.36,-26358.57,13352.625,20400.435
1764511115.8147976,35905.23,44394.75,32776.02,40152.645,-14026.995,-26353.665,13355.73,20404.98
1764511115.8147976,35904.06,44393.67,32775.345,40152.375,-14027.04,-26354.79,13355.775,20403.72
1764511115.8147976,35908.65,44398.53,32780.43,40157.01,-14022.09,-26349.705,13359.195,20408.265
1764511115.8147976,35910.18,44400.645,32783.175,40159.26,-14019.255,-26346.96,13361.805,20410.02
1764511115.8147976,35906.76,44396.46,32779.08,40155.615,-14021.955,-26349.48,13360.86,20407.23
1764511115.8147976,35909.505,44399.07,32781.105,40157.91,-14019.57,-26345.295,13362.705,20410.785
1764511115.8147976,35906.895,44396.235,32778.494999999995,40155.57,-14020.92,-26346.105,13361.22,20408.895
1764511115.8147976,35903.295,44392.23,32774.22,40152.06,-14024.115,-26349.255,13360.14,20405.925
1764511115.8147976,35904.735,44392.905,32774.895,40152.825,-14022.945,-26347.59,13362.255,20407.14
1764511115.8160052,35906.625,44395.245,32776.65,40154.94,-14021.055,-26345.565,13363.875,20408.895
1764511115.8160052,35909.145,44397.81,32779.619999999995,40157.28,-14018.265,-26342.595,13365.945,20412.045
1764511115.8160052,35907.21,44395.02,32776.515,40153.59,-14020.785,-26345.025,13365.72,20410.47
1764511115.8160052,35908.695,44395.47,32776.02,40153.275,-14019.84,-26343.405,13366.935,20412.45
1764511115.8160052,35911.755,44398.08,32777.415,40155.075,-14017.14,-26340.705,13369.275,20416.05
1764511115.8160052,35909.235,44395.515,32773.23,40150.755,-14020.92,-26343.855,13366.8,20414.25
1764511115.8160052,35908.11,44392.95,32770.035,40147.11,-14024.52,-26346.15,13365.72,20413.575
1764511115.8160052,35905.814999999995,44390.88,32766.21,40143.87,-14028.345,-26349.39,13363.785,20411.595
1764511115.817515,35903.79,44389.44,32764.365,40141.17,-14032.17,-26353.575,13361.625,20408.085
1764511115.817515,35904.015,44390.925,32766.03,40142.25,-14031.63,-26354.385,13360.77,20407.995
1764511115.8607974,35906.76,44394.255,32769.045,40145.175,-14029.515,-26352.855,13360.95,20409.705
1764511115.8613331,35907.21,44395.56,32770.53,40146.57,-14028.03,-26352.495,13361.805,20409.885
1764511115.8613331,35908.02,44397.27,32773.185,40148.955,-14026.32,-26349.975,13362.435,20411.46
1764511115.8613331,35909.28,44399.565,32775.255,40150.8,-14024.565,-26348.22,13363.155,20412.495
1764511115.8613331,35911.845,44402.22,32778.494999999995,40153.86,-14021.28,-26345.7,13365.0,20415.15
1764511115.8613331,35908.2,44398.755,32774.625,40151.25,-14024.34,-26348.22,13363.065,20411.73
1764511115.8613331,35910.494999999995,44400.825,32777.055,40153.635,-14022.27,-26345.205,13364.055,20413.755
1764511115.8613331,35909.91,44400.285,32777.01,40153.725,-14022.9,-26345.565,13363.785,20413.485
1764511115.8613331,35907.885,44398.62,32775.705,40151.61,-14024.88,-26347.185,13363.65,20411.28
1764511115.8613331,35907.03,44397.9,32774.94,40151.205,-14025.645,-26347.815,13362.345,20410.695
1764511115.8613331,35909.46,44400.69,32778.494999999995,40153.995,-14022.54,-26344.125,13364.235,20413.26
1764511115.861856,35908.2,44398.935,32777.775,40152.105,-14023.845,-26345.52,13363.965,20412.27
1764511115.861856,35911.665,44402.985,32780.97,40155.66,-14020.695,-26342.685,13366.26,20416.005
